-1.137552611363874810e-02
-1.841056263091622736e-02
-9.776102895065912068e-03
-4.223744217468907228e-03
7.751715080199443608e-03
1.387342548265087065e-02
1.171337544728726261e-02
1.375836455832085518e-02
1.395971875129666320e-02
1.173479021428800242e-02
1.233873313629164567e-02
1.268801192531812498e-02
5.457057434925544764e-03
-6.532263735560328750e-03
-1.272060528340511996e-02
-1.493953665767187855e-02
-1.528904413366875305e-02
-1.250389665445459861e-02
-1.060048562521495423e-02
-9.810327135271147345e-03
-9.865424359369542179e-03
-8.616532564413900697e-03
-3.910469554265745031e-03
-1.067288047446050565e-03
1.894440460875524432e-03
8.643767861376036588e-03
1.075741009564482910e-02
6.819405626832568228e-03
2.695096255021583835e-03
4.467972476948386777e-04
6.148004396594132850e-03
1.150512989492503968e-02
3.880905601672523901e-03
-5.751173117480263631e-04
-7.298125175946699084e-05
-8.935459475166510068e-03
-1.320110993345573018e-02
-7.296937686101088137e-03
-1.882968980787053190e-03
4.674345407924441619e-04
-2.208895574866664904e-03
-2.573854189712212071e-03
1.213642766500163273e-03
6.556813941242800592e-04
-7.449833010833238059e-04
1.970011424706227029e-03
6.449250292330594748e-03
4.426909064540345863e-03
-9.160593977745028899e-04
3.960885757906984495e-03
9.847194289822612176e-03
7.425222668748423377e-03
3.536561159473323567e-03
-6.880574183299952669e-04
-4.440668501211243561e-03
-5.598949737039776199e-03
-2.339527376010148898e-03
1.818371984821455555e-03
2.314669840246787180e-03
3.680093775087738082e-03
1.214436447707035126e-04
-6.604140665053139826e-03
-3.647643402090207376e-03
-1.086820208839022958e-03
-3.277104307762560096e-03
-2.967789729341131083e-03
-2.652111028517150412e-03
-1.678691120289511592e-03
-3.644642831772662052e-03
-4.323862421342850731e-03
5.041573582670048209e-03
9.704859539515529182e-03
3.731467410180917908e-03
-3.048181115158585426e-03
-5.482769174991903097e-03
-1.384697698721533378e-03
5.983035437538518483e-04
1.386406648058777398e-03
7.586113118783727009e-03
7.644221590327215585e-03
7.308745176848943648e-04
-2.460018114824951644e-03
-1.638094935997528711e-03
-1.671759606176939465e-03
-2.657302641599368961e-03
1.004209750889659743e-03
3.693278678391848265e-03
9.118585078856975110e-05
-2.016467067889334431e-03
-2.489576084773115466e-03
-1.122456005789038494e-03
1.610618741832802944e-03
-3.212173036636337652e-03
-8.983936027290669382e-03
-4.717974069469526265e-03
1.199993974743330648e-03
-2.632239173149024608e-04
-1.789878102186406210e-03
3.745842343359574375e-03
6.357006127192379140e-03
-1.807026859488176799e-03
-7.296442706524118062e-03
-1.760699220667167166e-03
8.075616941075370063e-04
-4.813120761217191870e-04
3.349863039314970783e-03
2.424498743397719008e-03
1.022789641866137412e-04
3.995259483093992030e-03
3.496563920190904652e-03
5.136291633974945751e-03
9.750924453506559786e-03
3.079339014436007892e-03
-5.844889834866636574e-03
-7.103729017858659463e-03
-4.256641417046626644e-03
8.539288786239822727e-04
6.462328709592613657e-03
6.621297677457343642e-03
7.913670545688065733e-04
-4.092352546996531676e-04
7.663791913180345236e-04
-1.670962945793772088e-03
-1.728645602189835548e-03
-5.158777127004012799e-04
6.690367933894180970e-04
8.683239357596900590e-04
7.513116984518429693e-04
2.912849025783552717e-03
2.169744700527882590e-03
7.970558075152992753e-04
-8.238205939642384915e-03
-2.315762212232452127e-02
-1.791451821034058256e-02
-6.610622187317834013e-03
-4.112372604068356523e-03
4.206420442326286487e-03
9.472951932585415430e-03
1.024644641484544379e-02
1.060192064600194370e-02
4.973181016892561264e-03
1.490667670864641173e-03
-1.260901245738353530e-03
-3.814902822122032567e-03
-4.648899004381533070e-03
-6.608949178299181222e-03
2.051506429865690439e-04
5.712886459763898313e-03
2.472318915862868442e-03
3.132004710718483496e-03
2.803904454605954735e-03
3.751581612983682836e-03
5.287977271897799543e-03
-1.284407415912624216e-03
-4.709438103245039073e-03
-4.597740771315839657e-03
-1.994097599109033881e-03
4.425472985653168198e-03
6.220480731940105333e-03
7.014532788320778853e-03
8.090824520206686471e-04
-8.558385279285804503e-03
-4.784934369582959958e-03
-1.511531792962450462e-03
-1.333909103988775583e-03
9.396621835123014545e-04
-3.579837153004622853e-04
3.656537935858546542e-04
3.958585602537495517e-05
8.822569329459910683e-04
5.344100601151287669e-03
2.833450825131654787e-03
-9.401991006923365911e-05
-1.114625684964320237e-03
-3.710282639636365652e-03
-3.862573804665552727e-03
-6.378772694946879774e-04
4.952056309054345302e-03
4.974653899079953603e-03
5.852177253366358349e-03
7.602894669910056913e-03
2.739535517842396216e-04
1.023335957644164488e-03
-4.451112471533917939e-03
-2.344981925482879370e-02
-1.747040483442375072e-02
-3.275573006400518943e-03
-2.566408507988842454e-03
9.424847031632510932e-04
1.302263446278459835e-03
7.770338851804245092e-04
6.170666441885546381e-03
7.747667146395788469e-03
3.077787454093565064e-03
-3.817703353637201102e-03
-6.717866688415426515e-03
-4.039560878810154188e-03
1.613856313229230415e-03
6.804977341963903623e-03
1.003303144536392064e-02
8.009014010098257363e-03
-8.480997496907493119e-04
-1.135059943399420110e-03
1.920056266954485707e-03
-3.782810446581853260e-03
-6.626576366078666637e-04
5.714356642268473944e-03
1.888285002277525137e-03
-5.100146635556059883e-03
-1.052987033827295672e-02
-2.967388153439344620e-03
8.746109480942076270e-03
5.587147125211203158e-03
-1.909471400660752230e-03
-4.915790292530802276e-03
-5.367153474472961296e-03
-2.882204868726944737e-03
1.857940723893097791e-03
6.282650630032488720e-03
8.549412598161956756e-03
5.401076839478138360e-03
-4.273730039809090810e-03
-3.446546604621687337e-03
4.251364120061463039e-03
-6.709450150096474361e-04
-5.364353619643081727e-05
5.011836686441541178e-03
-1.152886021860389468e-03
-9.744248856482670652e-04
1.727073060819532655e-04
-4.054805649424821946e-03
7.421599862662785468e-04
1.543823023799896672e-03
-6.301081371302706506e-03
-5.357362182613303013e-03
-1.413158086078982996e-03
-7.098623060958286247e-03
-9.840417170157343685e-03
-1.116613308581608207e-03
5.338263594409672734e-03
5.096980070386763345e-03
6.275162622308388775e-04
-4.360609755432860030e-03
-3.067530827053521324e-03
-3.357085319674475363e-03
-2.304997708782090347e-03
4.713462111928283342e-03
2.760775224898377733e-03
-1.101526353098140594e-03
1.693495442367716833e-03
3.468523651789390087e-03
7.745297017650537227e-03
7.404226261626190193e-03
-4.318980661442702951e-04
-2.824599583564782121e-03
-3.316822633547294574e-03
-2.059462567248205190e-03
3.279862289108586605e-03
3.639934666854925064e-03
3.380667981368802155e-03
4.458785355119007816e-03
2.384569133444313987e-04
-1.317114320189993748e-03
1.289840905787586643e-03
-8.207347637868040325e-04
-2.167039880113153308e-03
1.126749201096835388e-03
1.850228711767162339e-03
-6.233577539162161877e-04
-3.572225981241528622e-03
-2.962428409073813475e-03
1.985136791870228002e-03
-4.089180972166866633e-04
-7.589358960253626656e-03
-5.418119084547114855e-03
-1.418278559224863712e-03
-1.238946370912611273e-03
3.436626204545208379e-03
8.669766850577371314e-03
8.422181185671584816e-03
2.068222154638103306e-03
-6.762439878497794772e-03
-5.750244414938287564e-03
-5.600479399367321118e-04
-1.183551559622538114e-03
1.215496956603649530e-03
1.404369121030249554e-03
-3.518708090140763942e-03
-3.930254856277839645e-03
-6.532750613210853985e-03
-5.174665700900283292e-03
5.161624455940910967e-03
5.377118527346960546e-03
6.348239550972486480e-05
2.182640007788146715e-04
-9.518082850381952547e-04
-6.134800011945761369e-04
2.028836713949300295e-03
3.406153603358323245e-03
7.838164287506497671e-03
1.003509201782734443e-02
1.095429534112354799e-03
-7.912636004892630373e-03
-6.573635881905346041e-03
-3.763514578467883325e-03
-2.490186873101304932e-03
-1.115859713103910147e-04
-1.183527398313294430e-03
-3.892786330346652453e-03
-4.483106475002150183e-03
-1.190689623808091104e-03
5.090910386683419366e-03
5.916547998875335175e-03
8.341966999542222349e-04
-5.305090208181297874e-03
-7.657907268084774254e-03
-2.035786172087010806e-03
2.272228222665647907e-03
5.251098491445671534e-03
1.213861972342460127e-02
9.382754021603300840e-03
3.652985888967752144e-04
-2.490033991024595723e-03
-4.063332327652910241e-03
-1.017451674581425171e-03
5.134790740838588580e-03
6.634200083965932984e-03
6.250704279233538357e-03
7.207326550814734112e-04
-3.123445305026428895e-03
6.542777056901647077e-04
7.115489756704507880e-04
9.712996988436847562e-04
3.367443692514367594e-04
-3.334395396593393523e-03
-2.176727345517186739e-03
-1.426096941908496125e-02
-2.844349555635585294e-02
-1.294679795116964079e-02
7.107401642634838743e-03
1.037286904162534190e-02
5.787190100328432410e-03
-2.238655012515732468e-04
5.716737963549836654e-04
5.001353812662027130e-04
-3.628978683993778435e-03
-1.541890819048200110e-03
8.440031771498832667e-04
5.700328220784359710e-04
9.275718982101665904e-05
-1.120185354998648204e-03
1.035868121399378299e-03
4.249734515011639041e-03
5.513152434393787764e-03
4.926075819740887395e-03
1.186950841963385715e-03
-1.029438303687085332e-04
3.674950451624778985e-03
7.001000947861012180e-03
7.200196730250304523e-03
2.855833066633927872e-03
-3.530648889324430016e-03
-6.650378611668583163e-03
-6.067649536787929690e-03
-8.974731254664930751e-04
2.687334094139550746e-03
-1.155641311455317920e-03
-1.782648876508374954e-03
-1.704611200880410532e-04
-3.658750564548595048e-03
-3.735431390136079687e-03
5.043000445652857672e-04
3.781742636496278689e-03
2.887081928867909781e-03
-1.695245982039278844e-03
-4.037972461880011583e-03
-5.713201968032583997e-03
-2.459493636467262236e-03
5.732317566123116062e-03
7.514216175945382173e-03
5.186927633166580828e-03
-1.677693206403517391e-04
-4.502324709244723971e-03
-3.743677072855826349e-03
-3.733089565552133969e-03
2.314104922022588908e-03
6.555405253327084396e-03
1.128340774489451333e-03
-1.661977384181255414e-03
-7.847964144188406682e-03
-1.011146277251034203e-02
1.926819688104923272e-03
8.514965395874637966e-03
4.403487242066383631e-03
-3.516059441763536540e-03
-8.172527597128033394e-03
-4.124161889136126156e-03
1.829469438680437696e-03
5.735713506756468308e-03
5.899938735954878173e-03
3.641628288290664397e-03
-1.953608061229828840e-03
-8.199212425899694845e-03
-3.806209907381158126e-03
1.883059762716442383e-03
4.025537379015195136e-03
6.666543396991941525e-03
1.150592477846865570e-03
-2.986189037637377360e-03
-1.954810645314909116e-03
-3.154289331257123519e-03
2.719336586200727052e-05
8.615762453101166946e-04
-2.097967523523091259e-03
-1.622452627100963961e-05
-3.127500960669244746e-04
-3.577444939608639962e-03
-7.478271561909163824e-04
6.769373346030928273e-03
9.427411432453770834e-03
6.960762505352122674e-03
3.072739069404860877e-03
-4.929664826546012457e-03
-8.397623995978440239e-03
-3.645355154640717195e-03
-2.254704705909908388e-04
2.546778101431280126e-04
-1.820683107350630795e-03
-1.069198539710022812e-04
3.101417078670781237e-03
-1.564402938764058353e-03
-8.110801253992886567e-04
4.308787279942831623e-03
4.181163589822165720e-04
-3.011545795179687741e-03
-4.364894039162080068e-03
-5.875496027589342286e-03
-1.017326760746820394e-03
3.745858177240935817e-03
4.953344792168241743e-03
7.059153718492756045e-03
3.984034810157449820e-03
-3.241723739246427267e-03
-4.841856942043800023e-03
-4.335312856401091555e-03
-2.770077645941291904e-03
1.426808400290665744e-03
2.761141030053413910e-04
-1.823232979135404417e-03
-1.270766579846792539e-03
-1.484673209943879494e-03
3.278438531542996089e-03
6.410316964933550701e-03
2.130728317679257602e-03
-2.635397605756911038e-03
-5.555760168444724180e-03
-2.850968927943363807e-03
9.017557577566475378e-04
2.383310457744755757e-03
6.465473309877203985e-03
5.652257101244675778e-03
1.377689666406384152e-03
8.250720872683615275e-04
-6.333232129650169127e-04
-3.859169745757660454e-03
-6.300864496482520664e-03
-3.567090992094297530e-03
-1.030494237125055340e-03
-5.336913709024370886e-03
-5.059261320597678406e-03
-3.714798046363954618e-05
3.542414391951028731e-03
7.506284476959342901e-03
6.007928600239690470e-03
1.197113027422105035e-03
-1.975970050539187922e-03
-5.747087568003821610e-03
-4.076565560873126465e-03
1.162677768244994294e-03
2.657273882775486751e-03
4.621452565848360207e-03
2.617520207541516875e-03
-4.755273175110735773e-03
-3.158158089846869413e-03
2.458062922576684326e-03
3.575661971223546409e-03
7.063194372920508779e-03
5.483289011444128329e-03
-2.106041116213590737e-03
-4.320270857289670863e-03
-2.332951494591794378e-03
2.625693395269169950e-03
3.354303552140901028e-03
-3.553046291966176738e-03
-5.813582370333317262e-03
-4.971402795504282005e-03
-7.416058837263080593e-03
-6.271286603696780114e-03
1.836753886165692689e-03
7.579678519210699024e-03
7.051655606733010610e-03
5.539973293443212557e-03
-7.716084515631990671e-04
-3.799769600302446357e-03
3.499708934115949768e-03
3.059534158907948904e-03
-1.245164937204636807e-04
1.789994371973736582e-03
-4.096913511555835656e-03
-8.926097565354867980e-03
-6.279796945714041616e-03
-2.141524191473666901e-03
1.832830256920196842e-03
-1.121813083337443433e-03
-4.313081566027201531e-03
-1.261070526259602288e-03
-2.350309661540329539e-03
-4.088396335158340535e-03
4.288468311454110473e-04
4.766644226317129536e-03
7.991527128034201302e-03
7.555222471050848827e-03
1.635606613946834513e-03
1.721772773968237909e-03
3.135318012193344644e-03
-1.641050758762250313e-03
2.825087691799751380e-04
3.433124106944221345e-03
-6.538793665920739767e-04
-2.433521088002048045e-03
-2.242940827939521754e-03
1.050555697915473569e-03
7.654427505588318713e-03
7.445343540328636101e-03
7.781001890671101606e-04
-4.922228631746915911e-03
-5.392200633522080920e-03
1.770751856611405223e-04
8.275036992704189187e-03
1.061836311756393300e-02
7.023460923725272954e-03
-1.991191921513065465e-04
-1.956574695974257205e-02
-2.920858849577665992e-02
-1.158453192054520464e-02
-3.198584932609404609e-04
1.568453373344269814e-03
7.901175120909259900e-03
3.409876695774596844e-03
-1.590429931498308150e-03
2.105086148429390243e-03
1.251778850444949104e-03
1.817912827255976482e-04
2.534686809698578989e-03
1.322617200554408907e-03
-2.966278336633476446e-03
-3.686578470004527302e-03
8.715802074430275452e-04
4.803083772844477309e-03
6.667307323038628754e-03
7.830685980519140263e-03
4.210766409472922918e-03
-4.179638745687228388e-03
-8.560559533417114869e-03
-5.251953832445065314e-03
-3.178061345736121410e-04
3.046536318896746545e-03
4.077196285502340464e-03
-8.904050530136902635e-05
-4.853096794618418260e-03
-1.833996524940431465e-03
4.578152294994472689e-03
5.450847844152264567e-03
1.365678415546443987e-03
-3.408923411827781413e-03
-3.963430292791693225e-03
-2.733256470164857881e-03
-2.380785883238341252e-03
3.272518576884380845e-03
7.030341171354358501e-03
5.700494078755883286e-03
4.653792522265573148e-03
-1.385685704650592431e-03
-1.944657754032284120e-03
2.703981665042539534e-03
-1.915088712341433518e-04
9.816975016828249651e-04
1.442744988348945798e-03
-3.255711508742550366e-03
-2.788955115051352206e-03
-2.321529426226135243e-03
2.010196475192820541e-03
6.328672520146967628e-03
4.261020909480044139e-03
-1.644614493093301188e-03
-2.137628944817861198e-02
-2.950613701619695176e-02
-6.904524005543510520e-03
1.042461483022956263e-02
1.204034359341477241e-02
1.137610697293916714e-02
7.012070379438324966e-03
5.946838676439520309e-05
-2.473881157488299568e-03
-4.045673589308969309e-04
-2.475538666724316599e-03
-2.248658237486859772e-03
3.391196302566155691e-03
1.211957817027213948e-03
-2.832182485975093429e-03
-1.012810982613696845e-03
4.103145300591173363e-03
7.254239797369693710e-03
9.682253068727941780e-04
-3.944055314168443994e-03
-4.641144186029613414e-03
-7.028998883258511313e-03
-2.230969056658978905e-03
1.213839607473690034e-03
-4.547517023889695613e-04
3.441330692409649405e-03
3.425724015373171269e-03
3.807589282026697030e-04
4.035061887005805337e-04
-3.809868762839460112e-03
-6.111285655227196439e-03
-2.019023774785608932e-03
1.454148545721021266e-03
1.179405710925248265e-03
-5.980755337783990808e-05
6.975943064988581431e-04
1.113508990131928085e-03
4.826972828106960295e-03
8.419151715547992104e-03
3.456983294823808874e-03
2.280134680292589689e-03
3.558429146858615652e-03
5.478264869779364468e-04
6.262056171134225933e-03
1.027958105046554264e-02
4.751176296196943025e-03
2.871513403342978391e-03
-1.944811775840221994e-03
-9.108096772814584449e-03
-8.352155879070084082e-03
-5.808562454375584654e-03
-3.951771052753182654e-03
-4.612919352892053300e-03
-7.807405531913142772e-03
-7.342894461059773677e-03
-9.448011948925135600e-03
-9.909680128921814768e-03
1.236169205529019221e-03
4.378081422232747710e-03
-3.398974595543627353e-03
-1.847176415183120375e-03
-1.472906146389932466e-03
-3.706152258178708331e-03
4.600002139346868850e-03
8.633276115946303397e-03
8.177302978603421396e-03
8.883588442602152399e-03
3.154354092798396843e-03
4.111035470042804889e-03
8.458278338271493779e-03
5.676948813553375078e-03
6.433460409894025192e-03
3.390922313190746547e-03
-4.744459106179549010e-03
-6.643225508082756421e-03
-6.628126151449410981e-03
-6.016329189047132063e-03
-9.419071895005184328e-04
6.774156162519233242e-03
4.463294068135564494e-03
-3.628728793854597845e-03
-4.037113893308058761e-03
-1.417186158222295475e-02
-2.115321778816172879e-02
-3.139403410627832763e-03
7.547586781884339617e-03
3.200746139443773775e-03
-6.612599817403319114e-04
-1.606458306859678354e-03
5.471447883949902800e-03
8.100817828382338159e-03
6.993896656647209144e-03
9.698100081851297738e-03
4.176598398030795939e-03
-1.265576775933632478e-03
-1.852556348472943638e-03
-2.720767457101657977e-03
2.923231279733914511e-03
7.239239331989807784e-03
2.696008936338018577e-03
-3.737889161385307343e-03
-5.276585818189481747e-03
-1.985339706215522287e-03
-1.497526276121257478e-03
-9.695804984550565782e-04
2.126803748127251148e-03
-3.898763309633584907e-04
-4.686012395903335973e-03
-5.140240648257655802e-03
-3.411544262758964621e-03
3.294698196552167321e-03
9.427033213027884856e-03
6.769223593447885878e-03
3.566369843703222093e-03
2.111588778735178085e-03
-3.233451767998985621e-03
-3.772189828764132852e-03
-6.308536262105264458e-06
-3.703463161575590301e-03
-8.346017904199254378e-03
-7.137783624124730171e-03
-6.291186298027423747e-03
-4.458771372091050941e-03
1.768194555580442822e-03
4.851961539410547600e-03
4.382280312510038363e-03
5.515900415827165032e-03
1.480817881132808368e-03
-5.839160886944065425e-03
-6.385479247183547397e-03
-6.168948752406844781e-03
-1.128195768886679218e-02
-1.292080064592882570e-02
-5.394688664873327315e-03
9.955661834897292992e-04
3.010353443003062086e-03
8.867148655721022663e-03
1.396537806519597760e-02
1.603781059347463359e-02
1.523788218611692689e-02
8.228754344945967206e-03
4.631401725946455127e-03
3.674129758505795436e-03
1.944235454117365343e-03
6.242367994465010742e-03
9.869280663696831241e-03
7.936670962977300167e-03
3.100517884386335440e-04
-6.767291053737358245e-03
-4.030727402493496439e-03
-1.606298563368877951e-03
-3.398064824536962698e-03
-1.282735892476564478e-02
-2.465511364481835777e-02
-1.536378102967826155e-02
-3.947340574871724579e-03
-3.213712357762229643e-03
4.482148451982873906e-03
6.433956230283764503e-03
1.818541571172318985e-03
-2.438249158055648836e-03
-9.659767544516929469e-03
-7.310673089896704835e-03
-3.432893004750671223e-04
3.012903390848283361e-03
7.430531690691378859e-03
9.990170300950547075e-03
6.816705191127342411e-03
-1.892952943653239146e-03
-3.740303672372107154e-03
-3.801926416859629457e-04
1.309657673433410260e-06
7.469229157284547338e-03
9.306640795924310539e-03
3.425709326226773765e-04
-2.073546408800145541e-03
-1.687779197218150160e-03
1.726422556792917354e-03
5.996704159994992352e-03
1.878095808778141446e-03
-4.422004650954942072e-03
-1.131168279516660442e-02
-1.181500895685117652e-02
-1.687247330527594453e-03
2.648231283607728036e-03
1.381412135924354502e-03
4.260228954880883150e-03
3.093718610735206841e-03
-1.885911482575566627e-03
3.416779125016285949e-04
3.206950597230031133e-03
3.270820679636206058e-03
6.231088462594360465e-03
4.490351916068384408e-03
-2.597632590468899362e-04
-3.146917205461929965e-03
-4.765470876105651517e-03
7.289117799399284520e-04
4.178201288168387033e-03
2.796851462888703000e-03
6.874350651512006445e-04
-3.244628789859835792e-03
4.030834872011208533e-03
2.323023361554626964e-03
-1.667668868729614909e-02
-8.130161866265337572e-03
1.041959658207485331e-02
3.276377883978672835e-03
-3.203146084488989187e-03
-1.281945972895149471e-03
-2.560051360622375965e-03
-3.282888107209720567e-03
-2.013012102425488885e-03
8.072470349268617276e-04
1.326377172846625362e-03
-1.088469174860987130e-03
-1.296098410217918313e-03
8.992369325508326513e-04
2.210254341639658008e-03
-1.272085098766600640e-03
-6.492842439834590161e-03
-6.993350684883895864e-03
-4.864760180458093004e-03
-1.833644347833351907e-03
3.570106622574069095e-03
8.055516393768598002e-03
1.046949205926987585e-02
1.001457763972604838e-02
3.530724000515542745e-03
-1.176127901484137891e-03
5.145030042524439138e-05
-1.402453916783796785e-03
-5.333213885523662053e-03
-5.592205683572467126e-03
-1.164583928861150390e-03
1.557358956807260110e-04
-2.656748780384871750e-03
4.187848310155701560e-03
1.087235247432512958e-02
3.146616545723413590e-03
-2.952201351652634313e-03
-2.220917000204604766e-03
-3.555949141793688425e-03
-3.725211847189419286e-03
9.200928777781382196e-04
6.417826305858641972e-03
7.913272463659980910e-03
3.096207840274809928e-03
-4.595383317562467401e-03
-4.203333891406453061e-03
2.500257747566118037e-03
4.433117396050557241e-03
4.908467528015391518e-03
4.330528554404673366e-03
8.902803636190036347e-04
-1.472692800392360734e-03
-2.658578915337375323e-03
7.328380725336861761e-04
2.910506980293308104e-03
-9.459008249864364311e-04
-5.003804924235920153e-03
-1.390391183654133937e-02
-1.715388576462660922e-02
-3.642177781005236092e-03
5.671422908806162018e-03
4.845561735007036970e-03
5.512455392667980035e-03
2.874351508972157205e-03
-3.888225253744696623e-03
-5.242507478100606397e-03
-4.819527707302932902e-03
-4.119231128389393842e-03
3.114884889634540136e-03
4.427357590977104747e-03
-1.241749423015145589e-03
-1.195866229116998017e-03
-2.325394553416449545e-03
-6.110415107927234324e-04
2.426823358067836927e-03
-6.405938908101066476e-03
-1.184134002235093068e-02
-1.046884054614660546e-02
-8.755158451073035558e-03
-1.420596109987052550e-03
2.373390159746008050e-03
5.482824375143389301e-03
1.208263966363576532e-02
1.096381380347352837e-02
7.307516402876800508e-03
5.016002109624637800e-03
4.792105120170330780e-03
1.070078783133413501e-02
1.506208300167214374e-02
1.449477266071957926e-02
9.705787435959985568e-03
3.603825882774806550e-03
1.062987409249933874e-05
-3.032641026293149931e-03
-2.394086390437713541e-03
-5.165949048056595570e-03
-1.439631307784620083e-02
-1.505702096074413437e-02
-9.368131081534407725e-03
-8.966942994890439878e-05
1.081689321589570166e-02
1.466615171515191912e-02
2.050520700271551977e-02
1.958953921828827938e-02
4.225175856958700467e-03
-4.418127203100594494e-03
-8.571772694143935112e-03
-1.297765439226437542e-02
-1.384285879952718186e-02
-1.755115114807052554e-02
-1.656698089024215975e-02
-1.254972713712136818e-02
-1.474547297788252748e-02
-1.096301374215787917e-02
8.008309527770722872e-03
2.605136757211781381e-02
2.519618829989812153e-02
1.455430954020058530e-02
-2.471215545897333544e-03
-1.956061445602008675e-02
-1.396393401690063270e-02
-4.034978639023190095e-03
-1.949024475223140292e-03
1.466249545244115247e-03
-1.129731950042944799e-02
-2.642649892657435509e-02
-2.177197191796615208e-02
-1.136753769237665995e-02
-3.667774969670163556e-03
2.457704618126564048e-03
8.108093895247322699e-03
8.406046570914704752e-03
8.470564625080570509e-03
1.352602198534550923e-02
1.439900787435616225e-02
1.849831955465834968e-02
2.305829577181946546e-02
2.944261777991807882e-02
4.373395297157593037e-02
3.680542860888003781e-02
1.339918294347534726e-02
-4.334797349843991059e-03
-1.346967354847224130e-02
-7.850007508021216232e-03
-8.514678553518301857e-03
-1.186524502990998764e-02
-2.454921345364412515e-03
9.937311576633332116e-04
5.242418261684848695e-03
1.366504361016526899e-02
1.853802485842497016e-02
1.717696586587968283e-02
2.108713170495538167e-03
-9.687488618524180833e-03
-2.058964186576917391e-02
-3.453304365141921656e-02
-3.638834905909999612e-02
-4.883458560229245182e-02
-7.462214433723310392e-02
-8.872596367385121585e-02
-8.200727302794198759e-02
-5.239818733370783105e-02
-2.273816621494291132e-02
-1.148190522642957533e-02
-2.345094142739232151e-03
3.175956628586665970e-02
8.016349498875034729e-02
1.055737762716797562e-01
1.075708190406933773e-01
8.160386104465439105e-02
3.799560388207662981e-02
1.901491603626043192e-02
1.051980313705354331e-02
6.215279939723370069e-03
1.054679184622131852e-02
-4.655474124840600254e-03
-1.427905205156232080e-02
-2.146560644259685145e-03
1.604085507043563272e-02
3.673721380235339673e-02
2.609972525108003941e-02
2.286755999954682983e-03
6.760044646758124262e-03
-1.409502077652569248e-03
-3.981412917107846061e-02
-7.605261971574084345e-02
-9.423974395515370694e-02
-9.793146417743482657e-02
-9.970339839746439337e-02
-8.691723815749378967e-02
-5.268048468809090334e-02
-2.352247469560403079e-02
-1.382981423771405260e-03
5.012323193890215467e-02
1.312971563307680223e-01
1.386466052510333113e-01
3.780675082635490819e-02
-2.204668828577292794e-02
3.289158485654257620e-03
1.310519449069868711e-02
-2.886778017652123253e-03
-9.049783231927917239e-04
4.666071249134001730e-02
8.762853398808154171e-02
4.759473914642031733e-02
1.147043324227858818e-02
2.266991417799530534e-02
1.427901108689644954e-02
5.026671360959318775e-03
-1.746431883919037642e-02
-7.072647594960956852e-02
-9.298350002565983208e-02
-9.743696505850001077e-02
-9.677374067112000378e-02
-5.616299753076534063e-02
-9.417622764854824066e-03
1.826141439620481213e-02
6.058891341468880531e-02
1.005099724426993246e-01
8.089564136038085440e-02
4.284492531933196263e-02
4.356430182807912582e-02
2.764368906540724119e-02
-2.260045672694209473e-02
-4.740335643217414435e-02
-4.675220765829208452e-02
-6.717134090391441159e-02
-6.948641297396898620e-02
3.965993809455976848e-02
1.486890116881250945e-01
9.849296958662945300e-02
1.253529187758494097e-02
-2.346405881077942221e-02
-8.974571802562301970e-02
-1.417500087090398930e-01
-1.417612655186233916e-01
-1.215683062810127557e-01
-5.114468138446798262e-02
2.994840721621098642e-02
5.642641263848186678e-02
7.031488118661785580e-02
8.428543073829955490e-02
6.996800568892355687e-02
4.951222466377176029e-02
2.088376189247770354e-02
-2.548684329591217532e-02
-3.986061580122796100e-02
-7.570783927854507836e-03
2.953725043776795831e-02
3.494304144695153241e-02
4.627932557652738622e-03
1.064767459920285854e-02
8.391869677481356149e-02
1.104647460411349175e-01
4.334317826707805715e-02
-1.243489226717390400e-02
-5.680037041929097974e-03
1.080537626314391486e-02
-1.082957540218527567e-02
-5.453935285580187309e-02
-6.806144855588917852e-02
-5.458358146319314957e-02
-4.616802996573254880e-02
-3.317989302587555367e-02
-2.086203110645853606e-02
-1.839304111534321995e-02
-1.305950777623189965e-02
-1.120054264634786668e-02
-4.762831352416896369e-03
4.112732098536379596e-03
-3.848339738291800191e-03
-5.607170888240618073e-03
-1.042238477259522502e-03
-1.698380254816163814e-03
1.282999946449280525e-02
2.820324713826632274e-02
2.640786174415152288e-02
1.264994227075978347e-02
-6.371594683001243625e-03
-1.307742014016206010e-02
-9.925621785341171358e-03
-6.533676534071446336e-03
-9.180888429776977466e-05
3.779150813063664790e-03
5.115193636588034540e-03
6.351393593616470531e-03
6.866617452971378495e-03
8.702426555049314755e-03
1.053573789397818650e-02
1.281392657385306381e-02
1.268390011393687351e-02
7.900501757243206385e-03
4.987905881730609475e-03
5.792890143201844672e-03
6.979863817356136112e-03
6.394294898015180466e-03
1.318203079624121095e-03
-7.538026604207322817e-03
-1.183084087512645960e-02
-7.870519516585735426e-03
-1.094836724488816668e-03
4.544002274717121558e-03
9.703230012176244576e-03
1.665020630270028223e-02
1.765079261344960557e-02
1.250707948345313771e-02
1.104554986148108958e-02
-2.688885240206357642e-03
-2.537565760355848729e-02
-2.284354153204467414e-02
-8.005557278484193989e-03
-6.431238845731999769e-03
-7.265609687408224222e-03
-5.676078099486023786e-03
-5.788598631681079673e-03
-4.891235356890186528e-03
-6.297983753022998177e-03
-1.347794222386150889e-02
-1.736724167263596630e-02
-1.339851416282293421e-02
-6.156254727966327736e-03
3.520988740114784632e-03
7.055821220010262060e-03
3.232922167661225667e-03
1.695990775615833146e-03
-1.488321165233284001e-03
9.330522734957207237e-04
9.644954068412894127e-03
6.978978130959521270e-03
5.273615066489499396e-03
7.503734783763728149e-03
3.107402560703601165e-04
-2.270119236795251506e-03
-1.337031258076845945e-03
-1.785843654635247118e-03
5.779239837453408954e-03
5.695455919819463961e-03
-4.316834977954370559e-03
-6.525364619118961471e-03
-2.790866131220823190e-03
1.505327219556604765e-03
1.328344880549172172e-03
2.810934497875536113e-03
1.241293431504473729e-02
1.047294329785312429e-02
3.482601848001919435e-04
-2.214645180090849680e-03
-8.110089073473396651e-03
-8.883347148012343472e-03
3.869990668007870175e-03
8.059141661627345493e-03
3.529933961581170447e-03
2.128090276469715193e-03
-2.408825376394368219e-03
-6.722723689851637296e-04
9.487498982327459418e-03
3.715052760382384599e-03
-4.953839404642916208e-03
-5.281127872292025981e-03
-2.215432119261955685e-02
-2.791502697923788773e-02
-4.018433326050196465e-03
9.021396203611923431e-03
1.067666959769075774e-02
7.362400436235736617e-03
-2.997307564768418066e-03
-5.311364674904421688e-04
2.685135613281162785e-03
1.480542073562633905e-03
5.773255960277018199e-03
2.290805194589968195e-03
-5.767900474040080043e-04
2.074695955045446905e-03
-1.269591804644133693e-03
-7.956141756288846343e-04
4.308303263967297111e-03
1.591159328528678630e-03
-3.502558835292083131e-03
1.004866757507211130e-04
2.466723220522508333e-03
-2.229279915306352547e-04
4.445238299216524615e-03
4.955827564276482633e-03
-1.646415677190926847e-03
-2.315274233636494677e-03
-5.343797474330162778e-03
-7.960117649459750797e-03
-4.495287893241685200e-03
-1.704198023934421803e-03
2.436619862797760865e-03
3.213545965095498252e-03
-4.445231468245710010e-04
-1.051481924893637098e-03
-3.363986455400764857e-04
1.296869080729654922e-03
4.268130757710776255e-03
4.731498722560048033e-03
7.218602522472308651e-04
-3.303510330674267435e-03
-2.719868747436721742e-03
2.326774300179538114e-03
7.788713488643500722e-03
7.397197912257070553e-03
5.914888884184297917e-03
1.734841464983423931e-03
-7.747769741816064142e-03
-6.849010918654903878e-03
-3.804886194692173786e-03
-2.912344567509309382e-03
5.751060806828709425e-03
4.460232384532972910e-03
4.010111548560891062e-05
-4.414092331434985896e-03
-2.040619675418213833e-02
-1.306085947028316242e-02
8.850627512082933149e-03
7.118519037623570293e-03
1.955393862892460324e-03
9.040474818730794698e-04
-4.437758110690399535e-03
-4.095641748693769867e-03
2.604702003614770781e-03
8.198931778465588446e-03
6.629639617620422358e-03
2.242699921623099359e-03
-8.628290679980164671e-04
-4.676366653819642033e-03
-4.645476187674691705e-03
-7.550578634565627105e-04
3.843475744410958499e-03
2.858488069517946262e-03
-2.064717404969392423e-03
8.679278781611327867e-04
9.477126431550555487e-04
-3.398774217085292690e-03
8.799974040426096836e-04
1.886526811760549103e-03
-2.528951746285501914e-03
-4.540543309737342728e-03
-6.075921011706022189e-03
-1.043967822667906699e-03
6.431392210471553565e-03
7.962478533790737570e-03
7.862057652275277614e-03
4.424691597316491101e-03
-2.850004247976463314e-03
-5.886932394822761393e-03
-3.027982971479974833e-03
-1.005858920621628076e-03
1.749095141235771007e-04
4.021243830356618400e-03
2.274115560214008593e-03
-2.885898165652390698e-03
-8.624228158046754996e-04
2.461496633300599545e-03
6.009652680400690526e-03
6.929003135434005575e-03
-2.054681167373187400e-03
-5.328634956322382890e-03
-2.259314635830228860e-03
-6.265467153195760155e-03
-4.717760308763670543e-03
3.549201292870409440e-03
4.884369938863548921e-03
4.540106026062311079e-04
-4.836672188213458901e-03
-6.683636335254947679e-03
-5.879355293025123434e-03
-1.679600072417051365e-03
4.743043833858436899e-03
3.475228155869604461e-04
-4.737339508436319221e-03
1.431710458951351850e-03
1.795015262493830557e-03
-4.137733419785900152e-04
4.048554752743837963e-03
8.049298472178286791e-04
-6.062759295960030818e-03
-5.516178512077373614e-03
-5.595487870111937913e-03
-2.945080395125347032e-03
7.237538555636623475e-03
1.163547219031670944e-02
9.581891380061477448e-03
8.017473429527419496e-03
2.720825712855524676e-03
-3.285392867924989951e-03
-3.298697014719513543e-03
-1.106590810949179839e-04
8.798414798351638115e-06
-2.231432417505469640e-03
-2.847335050988493692e-04
1.637059572396360732e-03
-3.775071851675770342e-04
9.359081817819974933e-04
5.306021388342222270e-03
4.802924202698065012e-03
-4.266651676706917709e-03
-1.109529127012989259e-02
-6.556130248095030054e-03
-2.743378189448411261e-03
-2.049175376968977603e-03
2.953749538877423024e-03
7.368334055887162774e-03
6.689449500355048282e-03
7.432549101322304813e-04
-1.001041368587310887e-03
3.471593265565778817e-03
1.455119354189822326e-04
-3.105827336725072978e-03
-3.011369224834595454e-05
-3.940653592601226461e-03
-6.721304217396043869e-03
-2.260611641017264053e-03
7.178928165187402387e-05
3.305115617571937128e-03
3.362791174993131488e-03
-2.618863337396006019e-03
-3.036519224983343698e-03
-2.177443671583043777e-03
-2.810523663455656400e-03
1.517755912416835634e-03
3.693346939968391879e-03
3.825658499521342702e-03
5.857771190152854732e-03
3.907434786994504715e-03
-1.103542788054464241e-03
-3.987542892430769211e-03
-1.912943698617447811e-03
-1.304742932388071059e-03
-5.241886377100619249e-03
-3.597044763641696948e-03
-2.487095431035310240e-03
-6.484978115423522919e-03
-2.822334880110892279e-03
5.318558797413937105e-03
7.114966409063672170e-03
2.355286932374599674e-03
-2.933120638423339366e-03
-5.706456778989965790e-03
-6.679642759964772060e-03
-1.193543869556322815e-03
7.433160749289281083e-03
1.260363680369377612e-02
1.202442135502044922e-02
2.883357682877606479e-03
-2.049786982106651702e-03
-1.247251453897514628e-05
-1.771186136545585717e-03
1.927697421809292328e-04
2.084304406516078543e-03
-2.364087172402077382e-03
-1.516876052118841696e-03
1.056270404395979155e-03
1.758976127191992818e-03
5.928016168080637444e-03
7.841429533368278817e-03
4.044721004880253573e-03
-4.305647404015464433e-03
-9.766649481657788817e-03
-3.213226946585383010e-03
1.768502987819496044e-03
-1.518585547286331085e-03
6.937358844780381305e-04
-5.303313801953600352e-03
-2.300548664305849741e-02
-1.726322462740721361e-02
1.044328296729986035e-03
3.220100578441821831e-03
7.092093764996571133e-03
9.019273143819148825e-03
-5.360571724133095890e-04
8.861886939566933179e-05
2.199376720636645258e-03
-2.057240927392789843e-03
3.063930707333029253e-03
6.371926306029998197e-03
2.507171027638675082e-03
4.798531980874848118e-04
-3.918819763548646654e-03
-3.394481331103301868e-03
4.388931856795385937e-03
5.615654680444973242e-03
4.705824595620207614e-03
6.212312824637592802e-03
1.139807786911937364e-03
-5.212911446318518362e-03
-5.040575304356692890e-03
-3.570379202253276454e-03
-2.060391028527931278e-03
-5.961240314915107474e-04
-1.533890100867386268e-03
-2.102531672360068594e-03
-2.986678322725447917e-03
-1.822233995997190248e-03
3.963209464358754229e-03
3.569375053368727471e-03
-1.891277389056846654e-03
-2.898355157860939627e-03
-3.483534428093843730e-03
-3.526933042245038955e-03
-6.559781446171717399e-04
3.678813899277100230e-03
9.920999482300196098e-03
1.087210408724360172e-02
3.371861500194577466e-03
-2.393649068436253923e-03
-6.819281102815896809e-04
2.643105843142913320e-03
4.205277485361979227e-03
6.078773960865826997e-03
2.177200666176229427e-03
-3.704232105351208237e-03
-2.626228641192886095e-03
-1.745752243744558329e-03
5.227488329225700274e-03
7.591692148959599575e-03
-1.691802573869014698e-02
-2.659969566791388351e-02
-5.408996551413554690e-03
1.607092360781482666e-03
-6.268893580177679328e-04
6.450347256535346289e-03
1.203167600960092232e-02
1.183925753956846690e-02
3.473154549137115986e-03
-4.985203961836806932e-03
-8.304103152659463374e-03
-1.196007250357743190e-02
-8.720085828211151385e-03
-8.129878625325465125e-04
7.390433212354664957e-04
-2.180345532171113800e-03
-2.498406601260204276e-03
3.778996400678395155e-03
8.665879210446991027e-03
7.577712323522877227e-03
5.156897367935814325e-03
-4.391213378665970038e-04
-4.897124623384538529e-03
-4.065108075286837964e-03
-8.043856631798267185e-04
6.382347588906796612e-03
1.058395259494899175e-02
6.483795005179224767e-03
2.432920816897838311e-03
1.700246795385843218e-03
-6.283203452891523337e-04
-5.705838276232014228e-03
-4.212894743424422730e-03
3.345684087066447179e-03
1.760718530079689870e-03
-4.990116903489798771e-03
-6.276482255621327819e-03
-4.134686010184903532e-03
2.457562577970383733e-03
7.434216836059971689e-03
2.805473040095801413e-03
-2.553059895889549062e-03
-3.747824901240755929e-03
-6.254109648373937756e-03
-4.243742180883746350e-03
4.153272497907508146e-03
5.019896301345559003e-03
2.161669176245533969e-03
7.109466920935727250e-04
-5.802182089345461931e-03
-4.249439005306581384e-03
3.973711960868813657e-04
-1.871882705229127542e-03
4.306385394374862875e-03
5.414683540483452261e-03
-5.389782564858211500e-04
4.355434062159557165e-04
-2.575585663101136961e-03
3.098713677589124034e-03
9.622652566943596872e-03
3.671802481944490444e-03
3.891159925994456398e-03
-1.211019522964152696e-02
-2.701849047249410898e-02
-7.422469979181880659e-03
3.162631522536906489e-03
6.860878389898831912e-03
1.624739687637838034e-02
8.005339859027016391e-03
1.491531061996893446e-03
1.393582832897608936e-03
-5.741203680840057787e-04
-3.462116582007913109e-04
-3.286915063916452380e-04
2.958558603711573375e-03
-5.533243523554018904e-03
-1.597350136994571401e-02
-4.845865180790393488e-03
4.639743296441767827e-03
5.686366603808776406e-03
4.416526659508137817e-03
-2.430876427701136877e-03
-4.203785087999963033e-03
-1.449768409697632090e-03
1.123299790812204478e-03
3.924569684249860912e-03
7.276324935373218797e-03
8.124776967900232405e-03
1.872905717118446452e-03
-2.611890465247364897e-03
-5.997030206293717768e-03
-7.661420832305994473e-03
-1.392244509260597181e-03
1.284042745744166936e-03
1.957535020121613407e-03
1.254983962572059266e-03
-5.487307141231002883e-03
-4.365896876994942999e-03
4.031328474653020702e-03
8.318993890460245691e-03
3.236778038983429383e-03
-4.810732768168664818e-03
-4.535003800628452549e-03
-2.791356669660544944e-03
1.015627409852536741e-03
6.107581155496455937e-03
4.434404291977989826e-03
5.818167967520822097e-03
4.269398094063157206e-03
-5.595486620569562093e-03
-6.370254596828767504e-03
-1.003891751362679568e-03
-9.071931123497237485e-04
-2.438686239810600219e-04
1.797324534399329142e-03
-1.813631343801542367e-03
-4.327900457022927291e-03
-2.251126244717448557e-03
7.411577220086857406e-05
6.640120155553658719e-03
7.400810195723091234e-03
-5.137331649710778639e-04
-5.417035334777626360e-03
-4.921584472846300858e-03
5.611658680013912638e-03
9.399057967305868809e-04
-1.770296795972933768e-02
-3.015694147894110774e-03
1.092264501302653290e-02
-1.985497471488594824e-03
-6.406949060891346597e-05
4.014059062744122774e-03
7.283554178067915257e-04
6.538657909928901127e-03
7.694658743361743741e-03
4.053584162730237105e-03
-2.854781243928310088e-03
-1.133309283367525330e-02
-5.971139055385497711e-03
2.173545513066209127e-03
6.551020039118724166e-04
-8.298534075866706569e-04
-1.556216751942811208e-03
-4.176133417969101445e-03
9.753946068568821078e-04
8.901622849440996368e-03
7.089708448644869640e-03
6.103374162949791633e-03
5.520365390619735510e-03
-2.350513405503107476e-03
-5.898454678856653206e-03
-6.654707115246187750e-03
-6.339397616809914864e-03
-9.513790604151141275e-04
3.622709293918450991e-04
-1.406831807163260806e-04
-5.588523066469957548e-04
-3.179783849526948182e-03
7.765441880884110543e-04
5.309897669407020321e-03
-4.678059738141240225e-04
-7.802248783695581863e-03
-7.073907653811359157e-03
-3.891054847036873928e-03
-1.306951324210632289e-03
6.246186547677121462e-03
1.043385077177477402e-02
7.410435326760883915e-03
5.849826994158304101e-03
2.512122547579706284e-03
-1.600131950397260157e-04
7.046229418014306970e-04
-1.494272553769579502e-03
-1.603251713615677816e-03
1.091009667085486665e-03
-1.967451993710643554e-03
-8.009741869923722377e-03
-5.683977269247147794e-03
5.065304434590909774e-03
8.837323170650125334e-03
3.752925139612465089e-03
-2.865091249658877938e-06
-6.092620792384734847e-04
1.750843694502143919e-04
-4.387998230763998130e-04
3.094311095889601144e-03
1.158252118403891445e-02
7.256757187440240377e-03
-1.441983110291378267e-02
-3.126347759134356918e-02
-1.936587008740106586e-02
5.264191837138817130e-03
9.284123189022977854e-03
5.490719647961565288e-03
7.551030826189111290e-03
5.352594453982793647e-03
3.923592805488552646e-03
4.672845703893547739e-04
-3.341114815528423935e-03
5.567911287740767018e-03
8.939213127761943059e-03
-3.341963876092216880e-03
-1.103971882765361102e-02
-1.015980371221409523e-02
-4.796973379370581339e-03
3.999018371822054066e-03
7.290152219271404249e-03
8.083819968129162675e-03
7.228602150149196666e-03
-2.102177912465722550e-03
-4.576252978115259197e-03
-1.004897760603155801e-03
-4.035097811447122679e-03
2.149715538995014379e-03
8.083443827291191333e-03
1.757345658111318968e-04
-2.615359464130866379e-03
-5.231066582180160345e-03
-6.755714492667959717e-03
3.157417144124244693e-03
1.653421473798462457e-03
-5.958499220228833347e-03
-1.372373183515328667e-03
-2.248096616114350719e-03
-6.695016682971102230e-03
-3.348187449210619738e-04
7.257217747557121075e-03
1.013245849652979515e-02
8.247730803035493996e-03
2.555292804695098664e-04
-4.427699714443707538e-03
-2.955417172296020121e-04
2.762880293756486260e-03
1.581885551762663225e-03
1.887789223649041521e-03
1.492422713141369501e-03
-1.174905998935611923e-03
-4.194252298341413950e-03
-4.768934045912321534e-03
1.169360090716205312e-03
4.417431265122040950e-03
-4.993518513502946069e-04
-4.518765794471899834e-03
-6.511823198247776619e-03
-3.399982016517387462e-03
3.268036293911617471e-03
5.467083666608697247e-03
1.059841997959290287e-02
1.187527390445613715e-02
2.473429705361355341e-03
-3.411189637546739595e-03
-4.784288313931091448e-03
-7.340611959526528577e-05
-2.573628568584593150e-03
-2.462029746601381019e-02
-2.471364011137964709e-02
4.393478271016455078e-04
8.805334638802392658e-03
7.014451621467591470e-03
9.070460135034969992e-03
8.570108012911293455e-03
4.065446952199977190e-03
3.725192418573747602e-04
-4.709869693704699144e-04
-3.729671151273959880e-03
-1.747520156483087792e-03
8.535350891244869714e-04
-5.533496107293132439e-03
-1.899766490768067676e-03
5.212433298290996761e-03
3.570508033655291243e-03
4.732473283103627408e-03
2.726375757249505788e-03
2.215672963095722983e-04
2.523273686860176297e-03
1.091427995291914489e-03
3.870329029009422078e-04
-6.422082597095827390e-04
-1.290721617784952851e-03
2.984659305488146248e-03
2.021986932704675135e-03
-3.949389571189758884e-03
-6.963142925580685302e-03
-6.775789347546458570e-03
-4.683613356381450925e-03
5.810871545270550938e-04
7.224910407029388679e-03
6.129814326045312199e-03
1.726528946735883877e-03
1.160997764785766167e-03
-4.280056862782773358e-04
-1.369221683340122227e-03
-2.751649207702033632e-03
-3.121515438734123737e-03
1.542451773526291219e-03
6.822413859922871670e-04
-2.971475370275715368e-03
-2.251837694240583446e-03
-1.519810177982999777e-03
3.346748866348178610e-03
5.690823824501044063e-03
-1.321062426706491122e-03
-5.615592921211121254e-03
-5.410918051061908846e-03
-3.019297208219946273e-03
1.828450919506095090e-03
5.575239508929032660e-03
8.770855588710166698e-03
6.996348527274659154e-03
-3.523289965271328449e-04
-4.605495134283615725e-03
-4.044701246185835111e-03
-9.365252415360120122e-04
1.110805526243634905e-03
1.338144413597185025e-03
1.877625917356223924e-03
6.758420086310939524e-04
-5.914112842766937848e-04
-1.541014354557528141e-03
-1.085738855059998438e-03
5.107670704770591631e-03
4.676204779820288850e-03
-5.833486080836219369e-03
-7.042214747790746625e-03
-1.550353513005145933e-03
-1.426563816906976576e-03
4.345269823394352394e-04
2.289136003678709889e-03
-2.371147002226213236e-03
-5.146930243907334515e-03
-1.920074449384611684e-03
8.065156214690040242e-04
-5.292171073684660181e-04
-6.515584968583517690e-04
1.530065007541963739e-03
4.347770776085579415e-04
-8.166629711374778972e-05
-4.193755441379720282e-04
5.842364323780075515e-04
1.003861353742805003e-02
1.038859208974662190e-02
-2.726105223767100378e-04
-2.053527768065136969e-03
-2.895005841568642439e-03
-4.391264289482655486e-03
-7.610362627223403930e-04
2.282536407897676946e-03
7.835458319371258612e-03
7.843001208042703343e-03
3.609309003043066123e-04
-1.154923122050723885e-03
-8.886115363968258079e-04
-6.762164628931257313e-04
3.408962761512936666e-03
6.862581883840085731e-03
3.738736079385093433e-03
-3.975077591488747342e-03
-7.278154406040812305e-03
-1.595423395557902385e-02
-2.293142035325489853e-02
-5.487440585256343067e-03
7.890467076989943901e-03
1.871637072204628341e-03
-1.766419031365823109e-03
-2.577205036666422450e-03
3.041001964884514509e-03
9.785203471692401414e-03
7.164224841362956155e-03
4.729067482219422372e-03
-1.666827475138548580e-03
-6.235314371630901013e-03
-2.428147522333016974e-03
-4.274752967745274260e-03
-1.701745700506760838e-03
7.263692146040194239e-03
6.389152984161928540e-03
1.318356728376047105e-03
-1.620041689419786900e-03
-1.645648971956832282e-03
1.772324621635760697e-03
4.440767589533308433e-03
2.285927849905895759e-03
-2.785977379218716136e-03
-2.870830486396054940e-03
-2.754749418901602555e-03
-2.589269394502700852e-03
6.132278845668896576e-03
1.228983381936105644e-02
1.024805922552680763e-02
4.073463525932807111e-03
-2.535499412970708931e-03
-3.860436701828402761e-03
-7.100188308114941879e-03
-9.251839692356675013e-03
-3.539560432125824895e-03
-4.416858587210020044e-04
-2.909849632263165160e-04
-4.482366938043751939e-04
-1.902802844295461114e-03
8.868537903744727396e-04
7.075872355335271167e-03
6.487583704242522696e-03
-5.960550006972419176e-04
-3.318444957944561170e-03
-7.309856553206443321e-03
-4.467105778236170679e-03
1.113163386693739876e-02
1.313983320304677651e-03
-1.643518615301189228e-02
-4.550338513623570016e-03
7.227834056100062568e-04
-2.407562132666102740e-03
4.110293741469323546e-03
1.757159382943579082e-03
-2.040727736096364952e-04
2.620237740474338183e-03
1.891244481986206467e-04
-6.581773493843020044e-04
1.168290366192612471e-03
6.303196907837790679e-03
7.135575862613949792e-03
-1.461489809962551734e-03
-4.747248162009725866e-03
-3.769587273898544495e-03
-5.585971557850928984e-03
-2.805008640833949601e-03
3.745932425771045151e-03
5.510435094609997947e-03
4.341674808461410892e-03
3.487124778014317767e-03
-1.728612561755995484e-03
-5.498999804849214260e-03
-1.564984020632645282e-03
2.016518403716641410e-03
3.643615036312082903e-03
2.552772804777657303e-03
-3.323491429986650484e-03
-4.924514048828549338e-03
-1.235249500884055482e-03
2.657912752175424498e-03
6.879831531746368606e-03
5.287927090569418710e-03
-1.281909619044768267e-03
-4.059248304674150168e-03
-4.675677121313595933e-03
-3.028132773054383314e-03
5.530760697829770331e-04
3.947571408324601107e-03
9.817506233500288698e-03
8.062955275628372678e-03
-9.689065744935720546e-05
-9.945422653670997742e-04
-3.678131582948944607e-03
-4.522308242895898764e-03
4.650616196573266123e-03
5.383819008213524236e-03
-4.122629458218127554e-03
-1.071768141202254603e-02
-9.963086213488896170e-03
-4.578559422106352750e-03
-2.479363754160817182e-03
-1.834753853448989596e-03
-2.408165376871520408e-03
-5.372607048487638981e-03
-3.816133681510637185e-03
2.662876393381326538e-05
3.987049623743412277e-03
9.181041462497579325e-03
1.054693916648790850e-02
5.013743930005574480e-03
-2.501208271738884856e-03
-3.552497588554766935e-03
-2.785982388939988504e-03
-1.840740833873937129e-03
4.659586218997083772e-03
5.065946368908235548e-03
6.436180581339480031e-05
-6.146043944006139874e-04
-2.174277546598808817e-03
5.405564259762019909e-04
5.497375742503311097e-03
2.700339015349748767e-03
1.255127377723689545e-03
4.385316623495467709e-04
-4.883138479035077639e-03
-4.010390019410784573e-03
2.030508150660138757e-03
3.974622277102536801e-03
3.967887894594636020e-03
2.154361107401408983e-03
-3.986844152691061856e-03
-6.794541774822877161e-03
-3.704125438813530170e-03
3.815101953077740748e-05
4.097909118056007084e-03
2.404267812657455514e-03
-3.083515914601349297e-03
-1.990284780216792365e-03
-1.858961372048762361e-03
-1.686189846591587896e-03
5.297442216236286985e-03
6.503037834285044401e-03
4.464257247784062595e-04
-4.889673018786437446e-03
-6.968003873058472263e-03
-2.154410606310615695e-03
3.755393122460281598e-03
5.105994809639297430e-03
4.063301729551326534e-03
1.758769982404798874e-03
-2.878387582155261218e-04
-1.785883384529002218e-03
-2.123279636926890188e-03
-1.025886367697082793e-03
1.417656146369729048e-03
2.346766552607096063e-03
-2.821797168401491990e-03
-4.996623938792923124e-03
-6.203519762505705065e-04
2.312056286234103961e-03
3.982566396313809778e-03
-5.208345364772454071e-04
-6.213809184111218284e-03
-3.130552223990923019e-03
-2.864495703145145296e-03
-2.956930737449873711e-03
2.584422379427753387e-03
3.925850250447360593e-03
3.616542316524704818e-03
-2.030001343844239458e-04
-7.664042108137030830e-03
-6.432343113250042245e-03
-2.938989994411962420e-03
-4.904900433070296002e-03
-4.415073879955143735e-03
2.559178595301964034e-03
7.799164960959889710e-03
4.655483244363562562e-03
4.454952442208300230e-03
9.962055941501964107e-03
9.352831159088538168e-03
4.206499259535536987e-03
-6.464057148551947485e-04
-1.246324160627292543e-03
-8.496052023619837454e-04
-6.791468726575361665e-03
-4.633737576929312235e-03
4.340415128315966604e-03
2.454371052279269785e-03
-1.175088824625484347e-03
-2.427113295268678705e-03
-4.061253074797174442e-03
-2.283580138385433219e-03
-9.494292895132138647e-04
5.134894683832249597e-03
1.083075885813430950e-02
6.836839911959230291e-03
6.805157040898323836e-03
8.726486599134358757e-03
1.116127460018963638e-02
1.808492829622119005e-02
1.258453917308206479e-02
1.090505099013559147e-03
-1.248927575595642700e-02
-3.288088348747426892e-02
-2.874532352012227829e-02
-9.350400339165031161e-03
-9.649437625786629405e-03
-1.265269391701365730e-02
-1.150554651961814209e-02
-1.506865183310606392e-02
-1.444428072056589546e-02
-1.066534398113676112e-02
-5.134726579902529689e-03
3.590816492501174972e-03
8.845089303746393045e-03
1.024425052621147879e-02
1.222683297291146491e-02
1.273218246082580100e-02
1.045719840054217496e-02
1.316828717749131059e-02
1.405221738384620014e-02
1.541713948749029537e-03
-4.739613088592556193e-03
