-1.150178254383382379e-02
-1.766220383941045566e-02
-1.313088531583724537e-02
-7.919096715934506592e-03
2.334424198951960683e-03
3.021293414656621087e-03
5.978285168965580959e-03
1.205201726408978470e-02
1.160475171066359563e-02
1.262395571688311978e-02
1.145527071885883881e-02
2.836972877193791667e-03
-2.778493640360225284e-03
3.174440443495309648e-03
4.797294871590068906e-03
-4.064128757332284743e-03
-1.129595886788319938e-02
-1.872879987697074339e-02
-1.745420804329236505e-02
-1.046385271393225277e-02
-8.911751311569389086e-03
-1.422549545050828422e-03
-1.380893273794667284e-03
-8.331453526819992961e-03
-2.625260545503403653e-03
1.989927661232712957e-03
4.956552199885517346e-03
9.513790676225776163e-03
8.779538194918751204e-03
8.971332381149395296e-03
7.421577947200757447e-03
5.809502637178835978e-03
7.548869962709833445e-03
5.935620448540359327e-03
1.441636611750742340e-03
-3.836426160742726407e-03
-5.896118174510633914e-03
-4.473332811881758873e-03
-3.715404823387297422e-03
-1.819494719983027683e-03
2.056189923173990745e-03
4.171504555169278095e-03
-2.640137591696566717e-04
-4.857585139303822151e-03
-5.233592116771860862e-03
-5.187950131414099421e-03
1.979892931948993261e-03
8.692532260454384832e-03
2.639301891055978715e-03
-2.975402607206374412e-03
-9.803258310147890901e-04
1.431335557266748531e-03
4.374182171743724173e-03
8.160158163027059555e-03
3.192339829723519692e-03
-4.359976428427368884e-03
-2.203208137558331382e-03
-4.146508919941375819e-03
-5.920231814426130459e-03
2.334049327816065458e-03
3.277373031186174828e-03
-1.707961601367564443e-04
-2.515428364098563473e-03
-3.885889639019448477e-03
1.258628351512800555e-03
-6.503013274784471848e-07
-2.477157495412072273e-03
1.184854503248482325e-03
-1.837909566152059679e-03
-2.825039815809360279e-03
-1.673673699895216306e-03
-3.745609379398621899e-03
2.263380354155453827e-03
7.015088316720567360e-03
4.636972290886809053e-03
2.239716417236095602e-03
-3.219191275907544794e-03
-4.530609836473048491e-03
8.507579655336862607e-04
1.155856963142413507e-03
-4.161782546570574979e-04
2.086713819926917183e-03
1.842061869638159967e-03
-3.662508285738585653e-03
-7.058904122231733809e-03
-3.999375922951326802e-03
3.219682708097095685e-04
2.847258294116478215e-03
4.429126925350398980e-03
1.333320550061654897e-03
-3.069957877509927463e-03
-1.942313062437071554e-03
2.634173592430818448e-03
7.954400333982846946e-03
6.698879563698161531e-03
-7.489875953153376110e-04
-1.171715980084221936e-03
-1.566623129516859809e-04
-2.042638750650018105e-03
3.715360251320668720e-03
9.840698336216384748e-03
7.161179007363797228e-03
1.317427872791027956e-03
-2.133240035102498822e-03
-3.079556903126265399e-03
-5.247281261338034020e-03
-3.162877395668936120e-03
4.424418664089862369e-03
3.160608790429344887e-03
-1.842984347503950080e-03
-9.800052541740977233e-04
-1.733318235836084570e-03
4.245832477151219309e-03
8.887213207581290408e-03
-1.333956292554382660e-02
-3.245116655576386205e-02
-2.081589072944555266e-02
-6.328221038949631908e-03
3.775041454922253327e-04
8.915553632523297301e-03
1.524549010652999706e-02
1.601350271694856886e-02
1.027142723100221526e-02
1.304626883697682441e-03
-1.603528372059188911e-03
1.211867477993998051e-03
1.060268666464313919e-03
-6.592159481830037887e-04
-5.156843266429800027e-04
-3.525459786802231325e-05
1.103106167341822872e-03
-2.704453074954647415e-03
-4.030576645781586316e-03
4.208256118786429106e-03
3.252811296821719964e-03
-4.203087038169454892e-03
-5.232411370839399299e-03
-2.770451284373760814e-03
2.236335173471401625e-03
2.116033339385219383e-03
3.987308867665169052e-03
9.959660454179541586e-03
4.585744061245706528e-03
-1.005309438258891004e-03
-5.507453742971511398e-03
-1.188406440432203913e-02
-4.333548257084715062e-03
6.022766641156567652e-03
4.281597197504540334e-03
-9.559140146425029044e-04
-9.581755128242560086e-05
2.401242453628780853e-03
3.640941092667451372e-03
7.938039276583697818e-03
5.587760304081805518e-03
3.728899129949227740e-04
-1.625338139046436517e-03
-5.532938160384081282e-03
-1.658808337737877493e-03
1.037528382909631321e-03
2.071775624261496321e-03
7.814398121760778720e-03
3.368607109407226359e-03
-4.685576837248135485e-05
-1.194359566479465291e-02
-2.871421654479000551e-02
-1.087536614113417989e-02
6.281862697404169173e-03
1.954995435123868096e-03
2.749498155062982813e-03
-1.798101659343150907e-03
-5.416240391513864848e-03
2.217122869778658141e-03
7.573783671288097756e-03
3.789726694430834222e-03
-2.394439604553969762e-03
6.186419484530325443e-04
-2.844342543519682740e-04
-3.522402021478031591e-03
4.100072116505245300e-03
7.045987272359569009e-03
6.487189647362260995e-03
4.386918421673523423e-03
-2.007618533493752289e-03
-5.183252035825111279e-04
-1.521731691984118948e-04
-1.016318871370213610e-03
5.544014363898395678e-03
5.556220914448547002e-03
7.211966320007436341e-04
1.260830025624235591e-04
-2.511729786612926034e-04
3.290204607410582250e-04
8.647958724315209234e-04
-1.189728006855660710e-03
-2.310081675812865592e-03
-2.748701860259082815e-03
-3.767218979898885687e-03
-2.776570628907865795e-03
1.294324689928795426e-04
6.085698809043525379e-03
1.025382041985980520e-02
3.309320158809282274e-03
-2.901257567345318263e-03
-9.662207819021556001e-04
-4.733309324134248736e-03
-7.707148808238820092e-03
-1.048077058592179842e-03
-1.103853360235898529e-03
-6.452621439832805124e-03
-2.917969979621081161e-03
1.275132802101783865e-03
3.527534847136886819e-03
7.526399215696948607e-03
3.719697841799609293e-03
-5.186197279543705921e-03
-1.240069619613814664e-02
-1.502692744862524875e-02
-4.844260465035183510e-03
5.671159385297107856e-03
6.567811806814520363e-03
7.355371468840318436e-03
3.613919906292777529e-03
-1.990315458109849413e-03
1.840909487051387613e-05
1.136679585775726784e-03
-2.638902301827921208e-05
6.881893314106407589e-04
7.655865180276435252e-04
1.503101749646441020e-03
3.633202629716480222e-03
5.178039261975592861e-03
6.602637132937655418e-03
7.989933067623944049e-03
6.369795070757152886e-03
1.517057527732770719e-03
-2.268803116099013441e-03
-4.070721472287943364e-03
-4.435590395426471620e-03
8.765293350595037658e-05
7.474367060377787829e-03
7.473588859944111339e-03
3.192497945289370738e-04
-3.434382239589935278e-03
-3.926941077154380740e-03
-5.780635594671487514e-03
-4.348412036961068171e-03
1.348093429999415709e-03
1.125479137958626703e-03
-5.815283947602057670e-03
-9.248312776010505706e-03
-9.918951195894915376e-03
-8.579458297001095468e-03
-2.513458347876495504e-03
-9.517566197786591665e-04
-3.500289134061960929e-03
1.549242179356183596e-04
5.417101318222827984e-03
4.288021318874228605e-03
1.465365252102124923e-03
6.294811541486517066e-03
1.235494552378126575e-02
7.565515099008443892e-03
-1.258974698811943368e-03
-4.494621851703173993e-03
-2.763173908031955461e-03
2.889231997294750497e-04
3.760368569762125978e-03
6.329315414254009856e-03
3.528024965840085257e-03
3.022575074332695816e-03
5.306750078697593416e-03
1.265784183749440409e-03
1.884743594908965978e-03
3.597578697574338718e-03
-5.120597287467921165e-03
-9.048109227369234911e-03
-5.370506483451404495e-03
-3.488238196676938033e-03
-3.238119893122772160e-03
-1.446834350905665994e-03
2.499173424161559107e-03
3.314328727131872466e-04
-2.410703584172921125e-03
-7.635614181841180338e-05
-3.791054492631101142e-03
-5.119782711410154549e-03
1.590200663899169744e-03
2.434657616886239367e-03
-2.635130470827377371e-03
-5.223270582430060253e-03
-2.456462378416150380e-03
1.888297971251461354e-03
4.775966173868707171e-03
5.787233619741134413e-03
2.734042874001421045e-03
-3.205326249882536416e-04
-1.728913220919629486e-03
-1.563030117237588536e-03
1.652238857795691783e-03
4.869303572346365787e-03
1.025922607387353726e-02
1.110932718123387730e-02
1.713162483263618420e-03
-3.160037355223160004e-03
-1.805245320531140936e-03
-2.449079228397800945e-03
-2.562249834016100923e-03
-8.445172029966850321e-04
-3.407266637663064761e-04
-1.708380666867481820e-03
-8.515807741363760983e-04
4.160728913718337630e-05
1.393734953703101018e-04
2.188155307308968425e-03
1.264731153104699550e-03
1.342844528090015883e-05
-9.304001029242609747e-04
-2.571698097272649870e-03
-5.185357618592690773e-03
-1.475036949503633586e-02
-1.088957945669619294e-02
4.975766621163727615e-03
2.793642328504953101e-03
1.537788444668713799e-05
3.427694637081459429e-03
-1.004883909017274032e-03
9.818888295984465678e-04
5.831070450883379941e-03
4.807197866565965719e-03
2.423032950804881319e-03
-1.624211268106339401e-03
-7.571780004342428720e-04
3.279505848502785662e-03
2.658728011011392278e-03
-5.562892311961780464e-04
-4.152976331584090110e-03
-7.270016499075329479e-03
-4.071201948383994587e-03
7.498047093736282497e-03
1.298451854273513159e-02
1.018784448893869307e-02
6.873670479590414384e-03
-3.074866380505701918e-03
-8.937484447924125622e-03
-3.659690926853948357e-03
-1.784874916449790934e-03
-2.256332117507788004e-03
4.779522782279461285e-04
3.214140005721127444e-03
-1.035085260606689265e-03
-7.933919819863931300e-03
-2.854696009267194100e-03
3.096869430517102794e-03
9.296066344475356624e-04
2.412338518608209636e-04
-1.221549757198666557e-03
-3.394331634592181318e-03
-3.909773409307583554e-03
-1.437743755952646028e-04
1.023146346697837578e-02
1.295647371416502359e-02
4.490185607433164368e-03
-4.193394044876809328e-03
-7.776763060984780498e-03
-4.945435341700057767e-03
-3.529803262080180668e-03
-3.567832224053417260e-03
-1.425222297018329822e-04
-7.541490889021969842e-04
-5.813098076127170589e-04
3.627323139094884488e-03
-5.800206432290886787e-05
-3.202354849181411958e-03
2.350520811228371410e-03
3.759905317927755321e-03
8.872247163074434154e-05
-3.285975000678957765e-03
-4.345976563648289159e-03
9.241500196717476225e-04
4.763667943120774260e-03
4.746892200116228228e-03
6.102537834310962223e-03
2.202449750564695018e-03
-2.617567697594573150e-03
-1.892571061990212019e-03
-3.393606996997462419e-03
-1.695909382361046255e-03
4.061607203932348503e-03
8.631081756575487455e-04
-3.074820313781826721e-03
4.817291693347672049e-04
9.700256720466713615e-04
-8.748237305447724042e-04
2.095106725721725886e-04
-1.859083775937203902e-03
-5.397835969938535004e-03
-4.678692186187797739e-03
-2.278552970289296053e-03
1.337588433642776867e-03
4.100492297558691081e-03
4.485027074152637960e-03
6.245703421001301547e-03
4.178127601353908739e-03
-3.435859308765662435e-04
2.023281881093988172e-03
2.364579659536402388e-03
-2.501754829313561964e-03
-1.962736767396237349e-03
1.288950943455788832e-03
1.744418991435501588e-03
-1.183828908725758971e-03
-3.441242742593819941e-03
2.575233775522048178e-03
7.198019786034616681e-03
-3.687051839392039166e-05
-7.191574806441857794e-03
-5.929293849012425011e-03
-3.419824249025493063e-03
-2.930478838372160572e-03
4.781455158161893731e-04
6.004914329271702003e-03
6.924054719108109664e-03
2.636286602137756594e-03
-3.860861080138874423e-03
-7.883768365388343913e-03
-5.314378059229274941e-03
-1.295699724822589518e-03
-1.451407540969176834e-03
-2.308270206086386091e-03
1.188852883380542552e-03
4.499303459402464490e-03
7.983417232547517081e-04
-2.002315550070213942e-03
1.292993975173178630e-03
1.863768624989865872e-03
-3.327655108184553005e-04
-1.394593542895720961e-03
-2.072938403135243801e-03
1.980629020780399780e-03
7.823914941991378519e-03
6.386491417893389380e-03
3.098279351394329223e-03
2.319533166346629972e-03
-1.820759028760483931e-03
-5.488613151274825824e-03
-4.496092071064571039e-03
-9.382532030734040164e-04
4.703803713909095359e-03
4.682456876632680280e-03
-9.928141316399813170e-04
-2.331356416912812573e-03
-1.725452608487056247e-03
-5.775885113294283160e-04
3.081641277557596679e-03
4.009879636127543917e-03
5.323906194724790540e-04
-3.273848519157745215e-03
-2.648848101383262550e-03
1.231177475749307970e-03
4.397314826008338375e-03
5.939551246702997819e-03
3.113666075432837670e-03
-2.444741551464962945e-03
-5.989263716555759051e-03
-5.474577594585549635e-03
-1.108978521401466971e-03
1.669183210136720389e-03
1.330324009469470046e-03
7.131022180489211132e-04
-8.191595032966247220e-04
-6.041798611906138740e-03
-9.087305378735189426e-03
9.500759664999265186e-04
7.617196166161384688e-03
2.774957642587643457e-04
-2.577489429647025938e-03
-4.714148066041940616e-03
-6.045285970052393515e-03
1.225597957769455687e-03
1.708190768279054146e-03
2.667975260163657058e-03
7.377516579327812914e-03
2.493318127599880433e-04
-5.778411358732278916e-03
-3.970327976277218847e-03
-3.214456489679344141e-05
6.329346445124156735e-03
7.080853319080263747e-03
4.186276576714060248e-03
4.630062507127668744e-03
2.247597635532918442e-03
-4.160855756630018817e-03
-3.895840575218257381e-03
1.438765590910338508e-03
-2.750981636282283588e-04
-2.184716944723633265e-03
-2.706606936553341679e-04
-1.744937093075295959e-03
-1.441949537707207414e-03
-3.086411361432543458e-05
1.106963520236027305e-03
3.843216888699883208e-03
1.509404724646679899e-03
-1.007721078893953704e-03
-2.117361550934795294e-04
-2.141973873928543497e-04
2.570219289325278468e-03
5.443882191418098968e-03
3.245475280453638013e-03
-1.808992588773816095e-03
-4.146334295596638096e-03
-3.368587691044616205e-03
-3.064830625944061065e-03
6.620444365353095068e-04
4.525993519336809524e-03
2.856370097801981360e-03
-1.180132442213022463e-03
-6.432221383076230578e-03
-4.562784824689044769e-03
4.238671711305132261e-03
9.293385039147283866e-03
1.239785520427470929e-02
1.097526031717937882e-02
-7.463177228116846685e-04
-2.049097046971893113e-02
-2.908606081519477665e-02
-1.049629574690081994e-02
2.923661614334350459e-03
-2.451485152183846463e-03
1.119715866110156327e-03
2.930693580031213871e-03
-1.995738671384961454e-03
4.380335352487132322e-03
7.800841839058586698e-03
2.245080710164362205e-03
-1.411005745674232328e-03
-1.872842608714527348e-03
1.323315676156670839e-03
1.706150180264424509e-03
3.574728124833535976e-03
1.168169014575502068e-02
8.925347386101430483e-03
-3.425815112205247395e-04
-9.602633010387615639e-04
-1.774347123008512730e-04
-1.440410148045169047e-03
-1.603327268073791775e-03
1.647285042131122227e-03
4.598272757134512674e-03
-3.975229874831151143e-04
-4.816279052716959837e-03
-4.333829105126644349e-03
-2.738545859760514300e-03
1.582480935813924657e-03
1.317558645302439662e-03
-3.106925426971298993e-03
-5.096804234804258420e-03
-5.902293970796835577e-03
-9.472841192622440207e-04
5.597244748590649022e-03
5.752735802438617430e-03
3.407066679545879030e-03
1.003565937156481640e-04
-3.302970138042085266e-03
-6.110906875349009573e-03
-6.708218427160175454e-03
1.927637349171099264e-04
1.029314047651314588e-02
1.151218662355197805e-02
2.700939980282952759e-03
-4.677668028591512248e-03
-5.746668363532118386e-03
-1.437264484516006472e-03
3.907109026648036831e-03
3.012476066753606591e-03
1.251905240885654944e-03
-4.214231325002447404e-03
-1.289471514162461759e-02
-6.756795637348655958e-03
1.818978185283501390e-03
4.580514904440901452e-03
9.910849266280517822e-03
3.037155853977376811e-03
-5.827635601194087848e-03
-1.715553664282721148e-03
5.538633010315251529e-04
1.388484492103134876e-03
3.472428714386455433e-03
1.817594647479240213e-03
-1.029499562576602616e-03
-2.261761562287091173e-03
-2.829808314223147998e-03
-2.405716329727633669e-03
3.453592339209655710e-03
2.991049201846902005e-03
-6.850609191260686667e-03
-7.507704060216134623e-03
-4.716684475345620138e-03
-2.675121404395180893e-03
2.825843162966738820e-03
4.775037411298111226e-03
8.978719179493922786e-03
9.098263222436142952e-03
3.649174344543251931e-04
-1.592703337624564591e-03
-1.335935830403959038e-03
-1.550729367077630051e-03
1.074098346010033886e-03
-2.873318416669377417e-05
9.865096827490851296e-04
4.137955636293718688e-03
1.314455724558824361e-03
-1.105752404265990686e-03
3.176981520765036725e-03
5.977724502744504245e-03
6.122450363508437528e-04
-4.644491367456290813e-03
-5.881212066276654549e-03
-5.167634976042949531e-03
-7.489472924093559759e-04
4.650534053106872637e-03
7.179479188681125307e-03
2.539799205272707822e-03
-4.246342786970631195e-03
-3.626823241920907725e-03
-4.452211179562391187e-03
-8.077246268329724491e-03
-3.452544392972522243e-03
1.202700436422416991e-03
-3.261960737358769909e-03
-6.892281902270850150e-03
-3.952244554828785068e-03
-2.034056214439206641e-04
3.242204176265698484e-03
4.643868866860121659e-03
4.219444296791349455e-03
5.605299656069602510e-03
1.809567077740033801e-03
-1.291502965277519736e-03
5.188152805909312069e-03
8.367355986886012079e-03
3.667964668532992106e-03
-4.637417564065386862e-03
-8.032013035629191611e-03
-3.817173189188627531e-03
-4.173838419159869167e-03
6.051522750554984200e-04
9.916105551817119487e-03
5.499080013788060911e-03
4.438851710064005375e-04
-1.906331767232366330e-04
-1.873087797860144331e-03
1.937888216078474581e-03
6.191097888016440336e-03
5.202105229346744991e-03
-1.737718451716513662e-03
-7.995976996431385445e-03
-9.324195210764933683e-03
-1.047343634263547991e-02
-5.263900279617578400e-03
1.132869510296089562e-03
3.447970739002475388e-03
4.411768045811462202e-03
-4.189781462563293285e-03
-7.152874055464233938e-03
-4.536888987062489024e-04
9.319158044805379425e-05
5.683561872707895701e-03
8.386022995589888229e-03
9.870931195457676843e-04
2.628185473971071055e-03
5.946973960070893808e-03
4.266381857509194374e-03
5.193403334103528779e-03
3.698418754691418491e-03
-2.997408772724540621e-03
-7.922024733802658994e-03
-6.259155647319498104e-03
-2.617265106633228852e-03
3.205857685866213974e-03
9.293686690820816138e-03
9.285235392168257260e-03
8.712204897685331753e-03
3.321661953701269491e-03
-7.139643791357089438e-03
-1.034910832297967695e-02
-7.382891621822268088e-03
-1.628108442549051947e-03
-2.101741043073431826e-03
-7.271611691733383120e-03
-6.744655791878929191e-03
-8.799200976491266396e-03
-5.113349021859668261e-03
5.514191513398727061e-03
4.507245027012525898e-03
-4.766359347340852655e-07
-1.384003171749980526e-03
-5.974931308134274121e-04
-2.546669029284690444e-04
-4.570631670706059614e-03
1.122584423338503153e-04
8.425545032083352898e-03
6.890289994750913548e-03
2.127790506568260926e-03
-7.744658739197924410e-04
2.981244492226762469e-03
4.841780400192038751e-03
8.466174289198267686e-04
1.753489172209283511e-03
8.291682207355517177e-04
-9.856826351638025077e-04
6.418420578989847587e-04
2.516428179585222043e-04
3.282700095842789375e-03
4.276752729851803110e-03
-3.416454962090825168e-03
-8.515695216436754145e-03
-6.185366635678085992e-03
-1.315602737561150960e-03
4.894900288987300008e-03
1.139032857861472722e-02
1.007166781900353109e-02
2.592299991039926504e-03
-1.862424764856347205e-03
-3.820112899022262199e-04
4.862611871413206541e-03
1.710968813624141795e-03
-9.567854149209706642e-04
3.526485248163424915e-03
-1.182973607285664301e-02
-2.881733331606042142e-02
-2.007881183812491172e-02
-8.131715120258462340e-03
3.479936288648084047e-03
1.284755274638218862e-02
8.411652262999103763e-03
2.472203587131449002e-03
-5.368220648253261553e-04
9.913556685384145939e-05
2.798724009674042647e-03
1.631932519521438023e-03
4.686562294037549536e-03
4.873713380162419777e-03
-2.978740569999000810e-03
-3.918239645075676479e-03
-3.050575707808623593e-03
-4.594274220501319214e-03
-8.918230424992477489e-04
1.059423238648924499e-03
1.459500741445151229e-03
4.058682932596891293e-03
1.704921236621193426e-03
8.811933671364049949e-04
7.252093230996812211e-03
7.490614332840998292e-03
-8.562358263348630611e-04
-4.321729314486336994e-03
-3.397433968445074184e-03
-6.512341189973343963e-03
-4.804258336295212650e-03
3.654595117315718403e-03
6.119197335839475851e-03
5.027658822031635423e-03
3.412192185994741833e-03
1.441447582450565423e-03
2.117183590762836999e-03
1.014698887466804710e-04
-1.715025286987244746e-04
5.844612320944380561e-04
-3.413294985762641964e-03
-3.349865052969590675e-04
2.039216081084897856e-03
-3.435767214589349923e-03
-1.152600989853510291e-03
2.018468653337004547e-03
-1.251786151510506356e-03
-2.302714469338215837e-03
-2.452830629196994881e-03
-4.597789795284626044e-03
-4.909830575724436451e-03
9.846672928023262727e-04
5.827495396175824162e-03
1.109870660661570153e-03
-7.784397561468427498e-03
-1.080503828907154219e-02
-2.696521891591560464e-03
3.702351711028446617e-03
2.661324860226276130e-03
4.196148229870281902e-03
5.727014337798756304e-04
-4.809602080281779983e-03
-1.343993533666702983e-03
2.288990064450813905e-03
6.032903918606107897e-03
6.046123600747803535e-03
1.391763382229041458e-03
9.860214329132600472e-04
-2.190461832379846790e-03
-4.574954240537146624e-03
-9.230673927370979057e-04
8.293710226728145517e-04
2.900676759438669105e-03
3.206419080836360892e-03
-7.147812243253463295e-04
-5.088768829253170929e-03
-6.725960339262884724e-03
-2.378925105920031476e-03
2.151473332013595103e-03
6.350844289115549664e-03
6.364160741868418042e-03
-1.717302131646981055e-03
-1.530531134646198827e-03
4.081697070086058067e-03
6.669288569006212586e-03
9.168752129288694833e-03
1.507049519142291327e-03
-7.181292472841224218e-03
-5.593718318770282867e-03
-3.227690136397161000e-03
7.569603038563991245e-04
4.111691156375211174e-03
3.310340764368085911e-03
1.907089711574331842e-03
-5.214306913651655566e-04
-6.264519630365873075e-04
-8.908107547210329744e-04
-4.315701654443609460e-03
-5.293972638601654283e-03
-4.593950780514192631e-03
-4.422613174307951471e-03
-4.045702123614976740e-03
-4.315517762093456534e-03
-5.764327171713384476e-03
-6.042956382999357424e-03
-4.028942024230628555e-03
-4.785103228862294319e-03
-6.883868705334639237e-03
-3.604432798882947070e-03
2.154601787520749046e-03
5.996976932925851371e-03
1.060503107436621024e-02
1.534137884864115488e-02
1.402558496194341447e-02
9.134155492067705731e-03
6.322896713079870917e-03
6.708938588760297687e-03
7.670442699894515146e-03
9.640807594227134882e-04
-5.686510842538285322e-03
-5.664153880318617378e-03
-9.133224549423495098e-03
-9.217415360795988208e-03
-6.493958530918659926e-03
-6.229279229690433232e-03
3.115404026687924009e-03
9.783365812057638611e-03
6.726264745616257132e-03
2.268220120767537942e-03
-4.943633885349752941e-03
-3.844738255563189423e-03
-1.213381928581027476e-04
-3.601686124544835159e-03
-1.379379622859301701e-03
-2.960993492073263518e-03
-1.055280310541652049e-02
-8.161047819482505558e-03
-2.657746242025175835e-03
3.801209444062979368e-03
1.413571780841946755e-02
1.521000594345751217e-02
6.051026362482589231e-03
2.534211466894836716e-05
-9.559067875414837059e-04
1.739492725149790510e-03
7.210361438003198148e-03
6.018911123956685247e-03
-1.068409363043792276e-03
-7.262043431617455462e-03
-8.481586993413963230e-03
-1.550556417200013928e-03
1.689673825210591743e-03
1.659709061361881385e-03
4.358203664147864906e-03
-1.278228368706281612e-03
-8.025264832698133372e-03
-9.366995531328003652e-03
-4.513193135116588470e-03
1.121011861507610445e-02
1.704290129389312083e-02
9.021932100149837944e-03
2.513622881596495103e-03
-2.836750858408752362e-03
-3.424622722081222068e-03
-3.753770564017375362e-03
-6.361980347513632172e-03
-5.273132898722569274e-03
-7.470709281163162054e-03
-1.075140807273964466e-02
-9.945463748734489212e-03
-5.159578773193284305e-03
2.535070001559694159e-03
4.335901996453540852e-03
1.554959796933708116e-03
-4.008050965410995918e-03
-8.940794378585947486e-03
-3.597443521857209437e-03
9.488107960299217930e-04
-8.997218091900537496e-05
1.613495859383637116e-03
2.295279051329791441e-03
-1.441637382870001932e-03
-9.451401440598283452e-03
-1.084166970513203432e-02
-2.399734597983038242e-03
-1.205228629294897687e-03
-5.006828647664633355e-03
-7.002512974083538455e-03
-9.203825873776098898e-03
-4.902695744531043905e-03
1.970987749581807214e-03
7.538990845696987020e-03
1.620798781253952187e-02
2.276438376470941993e-02
2.397352342531060276e-02
2.217489705844784623e-02
2.192954155409646347e-02
2.616983903073035952e-02
2.971774063514495343e-02
3.031290859767630727e-02
2.941997741821902185e-02
2.917033733012455027e-02
2.694924158213672302e-02
1.498050488177009656e-02
5.852019199764179128e-03
2.103026348679899651e-03
-2.188904104920816329e-02
-4.270376700079264037e-02
-3.085925982250754124e-02
-2.645531119437409193e-02
-3.579387792454107736e-02
-3.201196141140794788e-02
-3.095483592612809087e-02
-3.225602798097745860e-02
-3.813123134735204450e-02
-5.586232602905309708e-02
-5.262107314694230986e-02
-3.423753885641741407e-02
-2.074301455907707342e-02
-5.407812905768187572e-03
-2.493245471699659203e-03
-2.144999679034119595e-03
8.614986552767697758e-03
1.282679046802783288e-02
1.595773686699549290e-02
2.154420382063486003e-02
2.839439222628016915e-02
4.491216533683050488e-02
6.301669039655387328e-02
6.889750597114642494e-02
5.527234906641637080e-02
3.691721663822997851e-02
3.111809811448170912e-02
2.906304583214360665e-02
1.977195455382009179e-02
2.435187088745332813e-03
-7.308055022961426964e-03
-1.214942315923542814e-02
-2.809865279557833412e-02
-2.493764311030868125e-02
-5.134248830255034972e-03
-1.695290476814501415e-02
-4.144217277238383679e-02
-4.142370110890392088e-02
-2.955905093474891360e-02
-1.677397956939133059e-02
-3.986043702080299157e-03
-2.166807349784946428e-03
-5.963586882188947648e-03
-7.124955053008677833e-03
-1.230298663741104075e-02
-7.577572845806223104e-03
4.449424295110251774e-03
-3.326512706296265074e-04
-7.247218024826443568e-03
-4.924564632051708912e-03
4.728870505387988005e-03
1.484823997711764466e-02
2.554776768284272928e-03
-1.848894046644125946e-02
-2.902743487624864088e-02
-3.095270357874637529e-02
-2.704851575847008749e-02
-3.582741903600410172e-02
-3.879519635110308118e-02
3.027146885982412525e-03
6.738277012510028585e-02
1.009137056824111062e-01
9.672123142891181358e-02
8.974690408593376245e-02
6.358285104367197849e-02
7.808951127012335285e-03
-2.285974912819298266e-02
-3.360972451030280056e-02
-4.593267370354289086e-02
-4.051600674972613558e-02
-3.097896299673988385e-02
-2.319905954672736234e-02
-7.541282696522722158e-03
2.637235910791681237e-02
7.126272211314210736e-02
6.331092873931011555e-02
1.159152736569398108e-02
-7.844242623719219903e-03
-1.895083468081780464e-02
-6.000646620735590464e-02
-9.413008121283010510e-02
-9.330586986980275721e-02
-5.306168847985581749e-02
-2.149780834179682801e-03
9.658387832832807107e-03
1.292385430587750933e-02
4.259568016303471455e-02
4.338287242487431222e-02
-5.855743764290959573e-03
-7.009940396202607449e-02
-9.782676414609264848e-02
-4.241133242536775094e-02
2.752526234614447592e-02
4.355689907120543353e-02
6.029829021419663704e-02
9.956916153659343960e-02
1.233276304847626681e-01
9.970559691461948482e-02
2.940854771974597479e-02
-2.881965321288558826e-02
-6.153432406218777018e-02
-9.604701094246889670e-02
-1.069265108520748991e-01
-7.559143536124449114e-02
-2.661946173308864325e-03
7.481922238071303521e-02
7.560946872220308812e-02
4.036657951389623078e-02
6.416008648692778094e-02
8.327965065365215691e-02
3.273599296772963102e-02
-1.579725626289416388e-02
-2.264981618383263978e-02
-3.083918334351091334e-02
-5.383577036583934994e-02
-4.977854835935183186e-02
-7.454889436793055851e-03
1.419964780094728173e-02
-4.827833411211630843e-03
-2.859206338946235215e-02
-5.643078580867279953e-02
-7.598742426403823358e-02
-6.186686277038433435e-02
-3.589203180327892040e-02
4.672767948401469751e-03
6.333367890613898765e-02
8.383186198288772317e-02
5.733057973618308628e-02
2.324185913522063690e-02
-9.848780057946098995e-03
-2.511199252418860883e-02
-1.469890576121993774e-02
-8.517458860570918666e-03
-1.002958088592866524e-02
-7.932640515488654717e-03
-1.061444256501582056e-02
-8.723719024652226012e-03
9.757450927423607506e-03
3.152805845798283685e-02
4.148951811885723262e-02
3.148327782660401142e-02
1.163171040679429440e-02
2.619905277540992856e-03
2.212259906342406348e-03
2.870335906892770416e-03
4.943245979644273445e-03
2.398253781764822946e-03
-2.961983665959220993e-03
-5.462517322799505942e-03
-8.590574488766655747e-03
-1.407748957622063576e-02
-1.823992739353304596e-02
-1.471767323550395024e-02
-6.723143319965038840e-03
-4.838612876079461528e-03
-4.608804898853980161e-03
2.881954450126758289e-03
1.122482642304986449e-02
1.164840114453202270e-02
8.620782371475363068e-03
6.124932807000492072e-03
1.178193619620186879e-03
-2.103928283128916714e-03
-5.002758062590458368e-03
-9.568848358657313508e-03
-6.679504695676413348e-03
-7.184967046401691954e-03
-2.291904038469784813e-02
-4.016538097369953819e-02
-4.558631594083952659e-02
-3.082166617222000665e-02
-3.711991732829472441e-03
1.694224120913963294e-02
2.346977621779550854e-02
1.951438120277984578e-02
2.574398019297589185e-02
3.797001684268298122e-02
3.024802123080932992e-02
2.018259322450546150e-02
2.324108979141734088e-02
2.347780192973789384e-02
1.835613920098367463e-02
1.119962888374910655e-02
-9.058672676728960881e-04
-1.767199193678989366e-02
-2.157158692723031360e-02
-4.897337299429608583e-03
4.573866390620020053e-03
5.914470998718673314e-04
-1.628812975760085893e-03
-1.545927543299232534e-03
4.092703600295378562e-04
-2.671774334788032824e-03
-8.121770366508938160e-03
-9.215647513555526651e-03
-1.383434859907536202e-02
-1.627772280494385604e-02
-1.656894172789487654e-02
-1.800576018005733275e-02
-1.111358912402577934e-02
-4.622155292434045916e-03
-5.210532701637059574e-03
-7.669865901978461208e-03
-4.854087126322316308e-03
2.682161568148014059e-03
-4.668110725336334886e-03
-1.229813053907561141e-02
2.704895126663804140e-03
1.601660596307574388e-02
1.456173251153952859e-02
8.428087365284523888e-03
3.466155331653149665e-03
1.305201811594543064e-03
2.569346742210666754e-04
2.917204447700534695e-03
2.268820942167618180e-03
-4.828627649646879960e-03
-7.432522297449711997e-03
-2.697673091282516526e-03
6.781827385621501565e-03
9.186055483277891925e-03
2.114379362611201480e-03
-4.949156260185041392e-04
2.636880054722314328e-04
2.858481705584379074e-03
8.052490735751519427e-03
1.157811675990045100e-02
1.306355911608834443e-02
8.297368555449905966e-03
2.261613166205919678e-03
1.384578793000640871e-03
-6.462726771276264661e-04
-3.909234171437133733e-03
-5.580601394059153501e-03
-6.465488131058575588e-03
-8.248581499619822566e-03
-9.062242606793884103e-03
-6.613149110165726825e-03
-5.587405079839887455e-03
-4.393710840826179839e-03
-1.251994828882675367e-03
-9.501723891650571633e-04
-3.089189733677068748e-03
-3.692924279876946044e-03
-6.036844061403378887e-04
1.803607042126446685e-03
5.530268062837060718e-03
1.105682093439745890e-02
7.346376761495682431e-03
1.377468006105799425e-03
-6.832470204215384830e-04
-1.276072308795728845e-03
3.512982274884449401e-03
4.044741097491505455e-03
1.569173908387193252e-03
1.313629133799724524e-03
-4.960353375681406801e-03
-9.086773061133085819e-03
-8.146948984554100784e-03
-3.399646658496579404e-03
4.314783982302019226e-03
2.088493325086809328e-03
-2.972394128691174201e-03
-6.441728593873883094e-03
-1.056559431335396884e-02
-3.880048849367116661e-03
5.794671894523349860e-03
9.705776763253844835e-03
7.507150923894084261e-03
2.187071952068645939e-04
-1.862907449837823259e-03
-3.307150001607288541e-03
-3.326695801409733453e-03
2.472984100761749324e-03
2.603165532862187700e-03
3.830401510630629023e-04
-2.961848202971260891e-03
-6.418725589046805381e-03
-1.520147022518956222e-03
1.530327757178549406e-03
8.911378516008390711e-04
-5.504313722193692479e-04
-5.276321301481737627e-03
-7.683271514151438636e-03
-8.146181262029671133e-03
-1.155953010684365647e-03
8.954373325543069778e-03
1.084099993383954262e-02
1.324818382792280515e-02
1.032939904189468169e-02
5.756220904191903034e-03
1.277780883593982071e-02
1.196015588489420141e-02
5.505875190604710319e-03
6.629594223786067740e-03
3.753989403525913315e-03
-7.759927997081003930e-04
-4.500404035422649572e-03
-7.858954850993263297e-03
-2.993555206127201853e-03
8.140432848933608270e-04
-3.118352937290917639e-03
-5.796047551645985320e-03
-6.380527398076210437e-03
-7.706071097488593688e-03
-4.737109182072327465e-03
3.739138333834553674e-03
7.045570833164834131e-03
-4.698258566241697923e-03
-2.477666296180812064e-02
-3.505009594737056727e-02
-3.401018920461831158e-02
-3.079683008587863133e-02
-1.960306259425878203e-02
-3.699081027150019543e-03
2.579732613276170244e-03
4.840591805837055929e-03
1.639311093127185717e-02
3.510206949148571287e-02
4.100520911981338223e-02
2.624629784603187133e-02
1.235518365792617930e-02
8.532204398960541517e-03
3.122217499089561393e-03
-2.768497189587565237e-03
9.811422908983624246e-04
9.479786220409439426e-03
9.972781328390091168e-03
7.219582083288313308e-03
6.380037077825626880e-03
3.755972655222212641e-04
-3.549265571246444477e-03
5.914111256783106604e-04
1.407887373947117006e-03
-2.898409738478861623e-03
-5.417763719727522291e-03
-6.334161815328698264e-03
-9.259863539574031410e-03
-1.190550431263272951e-02
-8.602409821988555444e-03
-4.466698473487478241e-03
-5.463900055026897802e-03
-7.575284817704763113e-03
-9.979322998585346896e-03
-1.001085606782916443e-02
-3.980488074259182912e-03
1.710221825846231728e-03
5.095679847797511541e-03
7.884159879800727022e-03
5.876748259615626954e-03
3.538484251879255894e-04
-1.470904758152603723e-03
9.166147509355181437e-04
1.869530177747273387e-03
3.378653213538182921e-03
4.324498482972568593e-03
-1.428611133009840758e-03
-3.272525519676617797e-03
7.328182417803209055e-04
8.765440055829988412e-04
1.287693435775967739e-03
-1.462476951281160278e-03
-6.862489327738073054e-03
-6.748771256385045769e-03
-6.978997826569526171e-03
-2.589248274391210865e-03
6.772461914507584696e-03
9.204725264525488726e-03
8.993346837334305344e-03
4.334718079412773657e-03
-2.122669466547797128e-03
3.057501627197336831e-03
7.562557538707375716e-03
3.682274100686656632e-03
3.221381134577811726e-03
1.667149766774721773e-03
-6.046679987607619933e-03
-9.779310039153428155e-03
-7.362053428209912320e-03
-1.808141727107453545e-03
4.055480228348063744e-03
5.333456623316467325e-04
-7.168923561086380271e-03
-6.529948435371106183e-03
-2.883751270932356781e-03
7.741772229816853328e-04
5.259678020410861639e-03
9.144566624757002882e-03
1.100419985987044838e-02
3.507253494964801023e-03
-3.643935818320215465e-03
5.465114914266225527e-04
3.019343048055236293e-03
1.001360953139238293e-03
1.594013577744308584e-03
1.965913178379654052e-03
-2.131806193701619393e-03
-8.078556040305088018e-03
-7.217693596450604036e-03
-1.802877374546429500e-03
2.287968998021609399e-03
4.726017208978384836e-03
-1.224392267069358419e-04
-5.972546190336052059e-03
-3.802212804321878758e-03
2.906364752328488284e-04
3.935498635665746550e-03
3.517353119669688628e-03
6.327908189147910586e-04
4.896666518451911433e-04
-1.040959792786160312e-02
-2.062656993714816547e-02
-6.902590097014645563e-03
9.194410948418172205e-03
1.323598588511760120e-02
9.369152171296460038e-03
-3.477815757237898674e-03
-6.909866470151384589e-03
7.514456108392365049e-05
2.973693574419502324e-03
8.331602794012347643e-03
7.723750330614957867e-03
-1.678086322915357505e-03
-4.345727833255344681e-03
-7.336194798340875921e-03
-8.958313516020924641e-03
-4.717819833313059230e-04
6.245513155836683247e-03
8.598577696181034305e-03
2.525225312364460985e-03
-1.117250081192359967e-02
-1.071136258909529369e-02
-4.851640865373167168e-03
-7.554221302219296316e-03
-1.904891282955247043e-03
5.805738514494139524e-03
4.342861820485561380e-03
5.746350804755311764e-03
9.041612315749049389e-03
9.892173236312747781e-03
8.117389062345424858e-03
3.235829776491181645e-03
8.128572548637282664e-04
-2.765178061202846690e-03
-5.202458141082375899e-03
-8.563710506901569641e-05
2.999857522798319697e-03
5.838604513402662240e-03
9.281878024332767055e-03
1.302728205577161590e-03
-5.303022777059907857e-03
-1.275629416475980676e-04
-2.695950156129827725e-04
-4.353760300939269086e-03
-9.941980528347072691e-04
-1.707650362446691160e-03
-8.283010741664145402e-03
-1.343552721901002112e-02
-1.948267967074548968e-02
-1.587499116052036932e-02
-4.730711730241565424e-03
-4.435455511950135103e-04
5.974694433890754934e-03
9.029400660891957406e-03
2.838149380210043017e-03
6.034995537159137946e-03
1.117560796421455949e-02
7.903150873240883528e-03
5.637912891914291687e-03
2.144064187548233450e-04
-4.947067137672883815e-03
-3.669919675253806648e-04
7.979152354687025399e-04
-3.214516138894629033e-03
2.145814595916571092e-03
5.165255885201774401e-03
-2.687163700730034552e-03
-3.851603611993470976e-03
-3.637373770047498374e-04
2.341653221762607048e-04
4.656669650691017126e-03
5.251856941227139690e-03
-2.098358114199836907e-03
-6.316472018294891702e-03
-3.759248415939472725e-03
-1.190988717499130776e-04
1.231196106658305608e-03
3.818190884182981124e-03
3.094144592034145293e-03
-4.696189308076095803e-03
-6.357946814682775838e-03
1.331822754883185559e-03
4.622575322843671362e-03
1.163030632139120139e-03
3.570515473380023348e-03
8.442198333149285652e-03
4.589061705445813925e-03
2.846149263986593077e-03
3.955403900721376196e-04
-1.129275912544424124e-02
-1.279775256606506539e-02
-4.861950727862706170e-03
-2.737950073943755912e-03
-2.445900184627636080e-03
-3.950727818380842492e-03
-5.169170244015333822e-03
-9.571150543147444612e-04
1.629010940034309471e-03
9.672628019145818132e-04
2.375081852763704943e-03
2.717287246661147758e-03
2.311513830232406110e-03
4.420615393538836202e-03
8.437825525953783707e-04
-2.014463689977693660e-03
4.291391761530781446e-03
4.464507338907055568e-03
3.088740026304112075e-03
5.889432764924196033e-03
1.426133444230632315e-03
1.227088824117181275e-03
4.170766304042678417e-03
-2.291114564202066921e-03
-7.081291121475316759e-03
-7.608520571064718643e-03
-5.722879591303193202e-03
7.059598236773027228e-04
6.362194541035950252e-03
8.314787941521770837e-03
4.437004356761050858e-03
-2.544260526272442303e-03
-6.070730824694292767e-03
-6.470755758855311832e-03
-6.025518648334573200e-03
-2.293622098638769397e-03
3.864981995638225049e-03
2.094862894043348755e-03
-4.081009262935700148e-03
-4.708502379147399067e-03
-2.455507239139515484e-03
3.729120290712559758e-03
4.437044252552949271e-03
-2.463057042007743471e-03
-4.097216766506597005e-04
-1.358925869193510980e-05
-2.946605898070778912e-03
3.048333545673364425e-03
5.074320275946271261e-03
4.118266816595324981e-03
8.272876150648969182e-04
-8.749306416699470165e-03
-8.714480887657508404e-03
-6.483336579511906478e-03
-6.349293688550907040e-03
6.011184532654909041e-03
1.412872209666256318e-02
5.551796652275656566e-03
-4.520148707409200536e-03
-3.665727958752989027e-03
5.050730770265625391e-03
7.925821160342861812e-03
7.158242444305012477e-03
7.434369535318787262e-03
6.645305125717875135e-04
-5.419290203787057759e-03
-4.344609450774142984e-03
-3.141428686291384003e-04
3.719199088195270821e-03
1.064950283215000768e-03
-9.626409736738774856e-04
-3.428639193542912635e-04
-4.283312211448449952e-03
-1.858779469700588827e-03
1.562773867360924994e-03
-7.631006598787939228e-05
3.426091175730997928e-03
1.041281621342768490e-03
-5.922052574149202706e-03
-6.825894988938126587e-03
-8.383968541677161782e-03
-4.703832764182990997e-03
4.091719245639935647e-04
-5.081120446116246109e-03
-8.998985122535000519e-03
-3.799189152416365244e-03
1.132555559092947219e-03
1.428904998080143644e-03
5.116229480917154973e-03
1.061948948325053092e-02
6.080277111761785841e-03
-5.279372199186769350e-04
-3.332410736575929541e-04
-1.125791165702112739e-03
-4.271726956495758461e-03
-3.282563673183031949e-03
1.897189256109411103e-03
3.770941002284993685e-03
2.716441898534091202e-04
-2.958998043532473643e-03
-1.316651735016952909e-05
8.756021161342109060e-03
1.259791863147164542e-02
8.217616553864576234e-03
2.126139822590252405e-03
-3.052147897803834595e-03
-5.439355497892199576e-03
-4.274814874540304802e-03
8.552505079605542604e-04
5.758711583993420154e-03
3.692086709064672668e-03
-9.483236030714623909e-04
-8.927575251213471126e-04
2.028419907598998616e-03
1.343355110413095186e-03
2.051695324065555721e-03
7.959815084222877446e-04
-1.740561394691653857e-02
-2.564833085638287130e-02
-8.072520566448006252e-03
1.465306275056048888e-03
2.639488204091801349e-03
5.810481103719068209e-03
3.563121910804787642e-04
-3.562811978984413864e-03
-2.494125342192515349e-04
2.614857795353581552e-03
3.501146955146054816e-03
5.356613629710194231e-03
9.388545750488808128e-03
6.045791552079308497e-03
-1.176811080461478672e-03
-2.965577485262625712e-03
-4.490655270332398474e-03
-7.206260407096189797e-04
6.515380388538245283e-03
4.170000166318702829e-03
-2.069439225565277134e-03
-5.557653989034311119e-03
-6.489042041878976402e-03
-2.159204954891926018e-03
5.020662457798526039e-03
5.989215375608447113e-03
-1.375674575802013182e-03
-4.751333074401582930e-03
-1.860036384983958149e-03
-2.735764148584794980e-03
-5.388713865633067666e-03
-3.208504060870059037e-03
4.783625968525228450e-03
7.795852924091063035e-03
-1.283777687813966858e-03
-5.799577526887368141e-03
-1.890416798124808662e-03
-5.557688674343180552e-04
2.879843890976818786e-03
7.738292180802040787e-03
4.471272760538096136e-03
-4.470041239794396264e-03
-5.193233091262136961e-03
4.099607706128707493e-03
6.563725880199412777e-03
3.845622565450042187e-03
5.013639975824583754e-03
2.312389320385225492e-03
-3.218377552012531735e-03
-6.452923532640843923e-03
-3.065359412935448995e-03
6.103509786063826895e-03
5.782471360589483585e-03
-5.497296432119264239e-04
-2.354032313505369494e-03
-4.268935974156656127e-03
-4.034251771113402281e-03
-2.079477766439973702e-03
-1.788090207413332812e-03
2.289730472241036877e-04
5.313237599026298568e-04
-2.293560179901683437e-03
-2.878261212544093450e-03
-9.501225176191021703e-04
-1.210350031281576299e-03
-4.669262309431206764e-03
-6.316403649340732174e-03
-5.860786179802394968e-03
-5.588916490836835782e-03
-2.861054174458460726e-03
2.457857868856586862e-03
5.448047462664097271e-03
7.127567032848415411e-03
8.802949274754104034e-03
1.979711953178636165e-03
-5.016701592718760504e-03
3.887344083003315418e-04
4.038234639621293351e-03
4.050796951511489996e-03
6.788901352711885703e-03
3.022989196583787241e-03
-2.341095898458771425e-03
-5.351797613551798061e-03
-6.720791638113642052e-03
1.863673570611319849e-03
8.300074971106512212e-03
3.531688994414782564e-03
4.773625412330770746e-04
-8.214762102628736474e-04
-5.020592696738273783e-03
-5.900105416418930694e-03
-3.879673047437367768e-04
3.704682641038991361e-03
1.086929920041407142e-03
-7.844205652392850390e-04
-6.383840632664598662e-04
-1.863801234200262698e-03
-8.175147297437888134e-04
1.024008392175552312e-03
1.740904966649941881e-03
1.238907492880523750e-03
-5.612531561621209421e-04
-8.089956300146716869e-04
-8.373564081256093007e-04
9.345341613639300245e-04
2.674497321204663200e-03
2.373503851012602570e-05
-1.533906589020719597e-03
-5.100338372259006874e-03
-6.794364196144114625e-03
1.384842646006595934e-03
4.302341510802913313e-03
2.836683933388860993e-03
5.862463284453602215e-03
2.228115308996149544e-03
-6.698662535875895066e-03
-9.791757369509076006e-03
-3.631336515534710173e-03
3.569915909559224707e-03
3.183803788193466898e-03
9.649838218077139889e-04
-3.178190669728755535e-03
-8.069202429661788065e-03
-6.086778563684805583e-03
1.365196408760484389e-03
9.305831282627052489e-03
6.755230466249104518e-03
-1.121465833349798331e-03
-1.255808512737770395e-03
-2.177531029375145890e-03
-4.735901624518317962e-04
7.319010174823748285e-03
1.020248771352614409e-02
9.102348302044743072e-03
2.362985808359508843e-03
-4.516660141766301421e-03
-2.381855073580518845e-03
-4.905930037150483397e-04
-1.624128268588493750e-03
-4.522222933210955781e-03
-7.198045854746152467e-03
-1.915391546720460799e-03
2.751314558933670110e-03
-7.343880634166462728e-04
-1.863172547209819357e-04
5.539404304824696243e-03
2.816667599910828608e-03
-4.489549155557779996e-03
-6.272617408588172273e-03
-6.983224166210584040e-03
-3.968012311503683019e-03
4.950156216652015599e-03
8.636501065113190434e-03
4.885775823242547236e-03
-4.223203117079840641e-03
-1.074666057476976466e-02
-3.751276569294191218e-03
1.460399231577775864e-03
-3.727842844445376780e-03
-1.164794336460467806e-03
5.578660679872806533e-03
2.946548735712489851e-03
1.570094190103366169e-03
5.140995602906073790e-03
4.991788491348880460e-03
5.546154576620008873e-03
5.727498603716589878e-03
-1.382871447511401777e-03
-5.197903219567072235e-03
-2.511633661846933690e-03
-2.230845694890943361e-03
-8.046164150104290940e-04
4.059688556175293853e-03
5.286973684719180160e-03
-1.103742321698900162e-03
-7.430446280110677981e-03
-5.699082994863534715e-03
-5.317664235899401300e-03
-6.350679543140840162e-03
2.357002702868830814e-04
3.133264124332635521e-03
-1.161558787397510238e-04
-1.320364923954033161e-03
-2.312615469383372084e-03
1.256640126384903685e-03
5.028273149524927800e-03
4.203696995720975979e-04
-1.575452747138340317e-03
-3.339107479851743205e-04
-3.193954467145011192e-03
-1.071556535489263376e-03
6.316933892658352021e-03
9.348509461842510054e-03
8.890206900177277660e-03
5.160333517109151093e-03
-2.852074592143737162e-04
-2.203591559617534574e-03
-2.528455595855731274e-03
2.689860767777747059e-04
5.144524360514835144e-03
5.362694424626552117e-03
3.671571861101920881e-03
7.009207133506963885e-05
-3.304945756725900796e-03
-4.644087819588242627e-03
-1.474209531200994759e-02
-2.238245792030924344e-02
-1.252737867087209273e-02
-9.069921459664802418e-04
2.297169107880239845e-03
3.293461507392087678e-03
5.487390421443913598e-03
5.198318549421284893e-03
2.275778886806891377e-03
1.963915161984944226e-03
9.592640011807567011e-04
-8.346983816270513949e-04
-6.457473624164507004e-04
7.943090095987532032e-04
5.535057137657589665e-03
7.155745160275854035e-03
3.467090867616943496e-03
1.507429659580095311e-04
-1.354044041253616186e-03
4.250754819290689362e-04
1.692975855087709616e-03
2.515550471773196541e-03
3.327697859908623594e-04
-6.590130261191849866e-03
-5.672749089671567414e-03
-1.403205821982457828e-03
1.880582410606501057e-03
7.411712614692357766e-03
6.204732686987663934e-03
1.399258760979779203e-03
-6.658908786167433945e-03
-1.110343881504726946e-02
-1.529053728374722134e-03
4.921432428785059432e-04
-3.658092022460931927e-03
-2.994455321496631650e-04
-1.907632696845662805e-04
-1.583400416985856162e-04
1.719982231113070196e-03
4.157016256940925490e-03
7.338573028866977530e-03
2.460507819033686157e-03
-3.052981409512114941e-03
-2.310562210005605733e-03
-1.097934389447673825e-03
5.894551604572125262e-04
5.445301162414374098e-03
8.659524882039257646e-03
2.827324830852017377e-03
-3.203122841691463576e-03
-5.139401101382282816e-03
-6.449834621384187804e-03
-3.576555317421218575e-03
-4.853375753425951018e-03
-4.448112288132530581e-03
3.325413058303088205e-03
8.988053517201602914e-04
-3.334148675639426671e-03
-2.869022244261476215e-03
-3.293812108919645133e-03
2.378173319697699222e-03
1.407253600012724421e-03
-4.950475077373840162e-03
7.781283164349421608e-04
5.035607719334039487e-03
2.834899766535516150e-03
4.230766748839642592e-03
5.742034200586477143e-03
6.211458929991779329e-03
3.301084680361440066e-03
-4.064131640679076972e-03
-4.203083418864215701e-03
9.127239467563372233e-04
3.806320926128698443e-04
-6.171855582086572698e-04
-7.560898698489372819e-04
-1.055042178994790737e-03
1.516441144345476210e-03
-5.248934666038228714e-04
-1.634655405271661982e-03
2.881503092069438981e-03
-5.867891958096138529e-04
-4.904551024773674481e-03
-4.002715073111636108e-03
-5.484935528965382591e-03
-2.431076955380226650e-03
1.601068198707731888e-03
2.024458138166041789e-03
5.544513475342098194e-03
3.413498016234556287e-03
-2.281530314759268058e-03
7.006662465030781388e-05
1.738235135768273877e-03
-4.390938829347665242e-04
-3.545639436788447160e-04
9.625844811839576404e-04
2.039991040804687000e-03
8.389735541390366510e-04
-8.643849560972840769e-04
1.138204450937482315e-03
3.547321806601995246e-03
2.423141289506854871e-03
-1.681963127314740642e-03
-5.277624946544118116e-03
-6.206445664299902951e-03
-4.216255468687782511e-03
9.371219966405582372e-04
3.887645492853206066e-03
5.683590632781476172e-03
6.570460547894149510e-03
-2.727867690607199604e-03
-7.841282226350344484e-03
-2.638550144953849194e-03
-4.246514725953463854e-03
-1.347523667881291715e-03
6.378501088027823708e-03
3.789947826456409492e-03
1.707203481273247619e-03
-2.955606815116103249e-04
-1.037889064822951650e-03
4.511344586072369919e-03
5.540917124994909843e-04
-6.463508528182316214e-03
-4.080258324079327412e-03
-1.700413800625512079e-03
-1.586182565973441507e-03
1.011238996982616713e-03
4.538951951485005638e-03
3.527514420195052187e-03
2.929949309267855951e-03
3.372978248612017692e-03
-4.417596245519945716e-03
-7.115893224264212974e-03
6.605204895138843410e-04
3.712005872683919044e-03
3.610691974318968461e-03
3.764589162772577144e-04
-6.844251220527195444e-03
-6.165819371529985930e-03
3.917496526450520893e-04
2.979016774880501039e-03
3.402654257583439569e-03
2.719999710268792854e-03
-7.124176381384076957e-04
-1.565232933331064512e-03
3.943695189994361923e-04
2.267725835471824051e-03
4.982513310487684220e-03
3.846118820820150930e-03
9.258888420955559747e-04
-1.305682111367316043e-03
-4.668187385062388083e-03
-2.542734943933525147e-03
6.372193903401302938e-04
3.191799837351355076e-04
3.797270084344557756e-04
-1.596918028486345349e-03
-4.299075380430120857e-03
-8.744981452227051574e-03
-7.048745020954922183e-03
5.165709729645354652e-03
8.268518000945714735e-03
4.137314622587403082e-03
-2.367069477632912896e-05
-7.798798860101817908e-03
-6.193440989655220330e-03
2.325186794504577499e-03
7.000194888178322070e-03
9.425803269655030903e-03
6.000509107472677683e-03
-2.756344697451877592e-04
-3.649718760368995344e-03
-6.081723587459949426e-03
-5.762200623802723326e-03
2.994591579627029973e-04
4.267079167603302775e-03
-4.072080759281002278e-04
-4.586171515587418243e-03
-4.436819232798908455e-03
-1.849569044361163523e-03
2.087931969322662836e-03
1.638429603153273260e-03
3.558315843490818470e-04
-1.410295043408044948e-03
-3.591750426354980725e-03
5.548244320710072133e-04
4.465360831618377276e-03
6.304107419906039393e-03
6.498004374848348474e-03
2.030720012228385152e-03
-2.377365312665110589e-03
-6.255241612713372153e-03
-3.524350160521023002e-03
2.427844377363817460e-03
2.296502964927779784e-03
5.709381240705847967e-03
6.243968455954138075e-03
-5.868842404383803335e-04
-2.646763347745834192e-03
-1.576905627436923571e-03
5.083438310494461758e-03
1.134933514346502144e-02
3.683697725168291401e-03
-3.477866540639773432e-03
-3.451374053419485957e-03
-1.402473173334282952e-02
-2.684273402747534842e-02
-1.779065303423078837e-02
-3.095878827732126588e-03
-1.419752141399545971e-03
6.999164372452982077e-04
3.052768624662164851e-03
2.793834436300618711e-03
5.735123489894048028e-03
7.198880669834357635e-03
9.628139937846209515e-03
1.310920346561118485e-02
1.245359801263318765e-02
1.069758275672854503e-02
1.009627993410390154e-02
1.113023374797838042e-02
9.378064998893004961e-03
1.900047860931182225e-03
-7.175927771082766561e-03
-1.134861059407688694e-02
-9.458325520137816564e-03
-1.078446389840941044e-02
-1.195144181319310675e-02
-8.565912788960109228e-03
-9.861128535669115222e-03
-1.357557164043646930e-02
-1.524644532638256417e-02
-1.161841138470961175e-02
-3.458568428489456996e-03
1.434500188574968260e-04
3.317057451702533008e-03
6.439674304083332565e-03
7.077252640599526572e-03
9.538591709903281035e-03
9.487984174802958220e-03
1.008320571426233464e-02
8.866870349189346495e-03
-3.640742638319574044e-04
