-2.456737165317625544e-03
-6.162191290286108541e-03
-5.680584765619273516e-03
-3.746416655570228987e-03
-4.044598029209821137e-03
-5.310423125339066262e-03
-2.488818864666961141e-03
-1.711874468161417783e-03
2.574910441991267070e-03
4.738621376273848169e-03
-7.022157612059025215e-03
-4.674043346338725181e-03
9.314546604803325414e-03
8.155473660829491711e-03
7.635895759518145608e-03
1.138341454283557999e-02
9.710477583608417146e-03
6.654694852405403267e-03
2.307044048132615363e-03
2.109625811488055093e-03
2.521533915959336871e-03
-3.436154653777688528e-03
-6.187715474151356948e-03
-3.629419497941675354e-03
-3.849869326268357938e-03
-6.518896457307641126e-03
-5.402793138435543763e-03
-4.889036748466363790e-03
-4.817417805051067529e-03
1.333799933576231608e-03
2.499906737261854955e-03
1.846091480385971895e-03
5.988428215872992726e-03
1.574642730902383551e-03
-2.744263134823313795e-03
2.926680156585651535e-04
2.766998115506293012e-03
5.320988873070243291e-03
4.409776704770549879e-03
1.494204132954570592e-03
-3.073456011657181748e-03
-7.634041156039850576e-03
-5.074691391170487592e-03
-5.580588924563222898e-03
-6.067494344212717890e-03
8.830438519985887814e-04
1.932514019144609052e-03
-8.847370851520957929e-04
1.082165140669612627e-04
1.417901910245498824e-03
1.109667991845681052e-03
2.626342557808316724e-03
5.256869434989956333e-03
1.114989711825179136e-03
-1.042202599400184537e-03
3.073969884208064586e-03
4.270000198981580702e-03
6.133851461185433653e-03
5.237458643896248343e-03
5.257024851985293195e-04
-2.870379435598841445e-03
-6.701520036733507601e-03
-3.681237921875370710e-03
1.433236329992752258e-04
-1.477261921020837617e-03
8.190874628099333076e-05
-1.387449375254715123e-03
-4.453729108992578005e-03
-2.459110837012032629e-03
1.795701501098628111e-03
6.881707054301127759e-03
3.728240449548273459e-03
-3.643968653712169499e-03
-4.179855898633092967e-03
-2.285414036517646047e-03
-1.716943791581983681e-04
9.337264992755458853e-04
2.994552432250870231e-03
4.530135941572752296e-03
-1.374796019655065513e-03
-6.096973471308306941e-03
-6.801626762749209999e-03
-6.216790073663157855e-03
-8.021632000991353378e-04
3.112989977268744695e-03
4.588222190453927242e-03
4.211455074941814272e-03
-1.278092217418529564e-03
-1.706549561129460952e-03
3.229549631845598807e-03
3.819893595725738257e-03
2.275583413168575167e-03
-9.444072369488012639e-04
-4.962201550853452547e-03
-3.754001253385420584e-03
-1.704495309674386981e-04
3.227378710635116655e-03
6.973570274178856818e-03
4.878038831724428384e-03
2.407052392537221064e-04
1.617737557942942937e-04
-1.155833801647392555e-03
-4.552606155348056091e-04
6.029593125390557071e-03
6.326680979071222857e-03
1.128960695856592866e-03
-5.154734780735341186e-04
8.888944463033334733e-04
3.871568787080625646e-03
5.099228172095369126e-03
4.782175070684968783e-03
3.063482945511999175e-03
-1.128463824901457940e-02
-3.001413042516374099e-02
-2.483854400355057362e-02
-3.486371332297867002e-03
5.158942796288553886e-03
5.391867322242629122e-03
6.826698389018018287e-03
2.578999338949509740e-03
-1.385564126849792325e-03
-6.516081587217080039e-04
-2.534361600586615328e-03
-3.498567907637622348e-03
3.644874154737265848e-04
4.675065191558207614e-03
5.762484894874368192e-03
4.719349128015784024e-03
5.438642700145846290e-03
3.586061848940921663e-03
-1.389559056412453331e-03
-4.909814532447699838e-04
3.825050237054994536e-03
3.911486587008189061e-03
5.420795180090880964e-04
-4.740737107587300690e-04
2.275135928772611515e-03
4.705951751287092318e-03
4.170868828601398751e-03
-1.925240100341010611e-03
-5.953689232768417244e-03
-4.074987076048097040e-03
-5.073282042650356476e-03
-1.735865935259933582e-03
1.486747100918015766e-03
-5.476118674481233323e-03
-5.482131110331488200e-03
-1.714086455667749708e-03
-1.982463660995169036e-03
2.680052448552392320e-03
5.598853725973690007e-03
4.945835849677930433e-03
8.738564537477174626e-04
-3.575758909269329162e-03
5.028331069115480299e-04
-7.253113886164775075e-04
-5.819415641615458337e-03
-2.494015105693921097e-04
5.837916380470761953e-03
5.178159506636214639e-03
7.380842739276500565e-04
-1.551791447933352584e-03
-2.514337776968239482e-04
2.009464636914698368e-03
3.566576143385185790e-03
-3.901832566428949794e-03
-8.647979301253662723e-03
-1.485913693448230209e-03
1.693556854106956742e-03
3.231244207696571617e-03
3.511584762759038109e-03
-1.023386231991624956e-03
-2.674436651859174365e-03
-5.195321873056744227e-03
-3.700067706400584321e-03
-7.046224995297251104e-04
-2.926278596717801946e-03
2.177279526528568855e-03
4.296542248432675022e-03
-4.685427455778650319e-04
1.033378064196221417e-03
1.001869392405338921e-04
4.610711753176946243e-04
4.566319953592141122e-03
1.311829985713920026e-03
-1.279781711235353399e-03
-1.267491113364443631e-03
-2.966130349761816713e-03
-2.704319640824191621e-05
4.066877159230640817e-03
2.132649085885724664e-03
4.822727500192757507e-04
2.745471054696006601e-03
6.946098801927376009e-04
-3.390527925908740255e-03
-1.973056574132882671e-03
2.182369455897136858e-03
4.710592798861272697e-03
2.283903972102377649e-03
5.777566919210252658e-04
1.702001969481327544e-03
-1.453675835031960654e-03
-1.810196051637441746e-03
9.599013668087788640e-04
-9.676887461199897619e-04
-2.621659354910935852e-03
-2.878727646134701060e-03
-2.779055549559509338e-03
-2.465335160833603302e-03
-2.177554883054909959e-03
4.131443295353172743e-04
1.193711395759448511e-03
-1.178499771842666122e-03
-3.762482165007259311e-03
-4.696852440272607926e-03
-2.792139808685745878e-03
1.410125368950095276e-04
4.257246168950620108e-03
4.865935895211228115e-03
8.656217853917435147e-04
-1.788830754971645789e-04
4.202107529146362533e-05
6.553267091442998345e-04
2.392674586217707639e-03
3.215787923788304865e-03
4.082752322468274561e-03
2.230511447968783287e-03
-8.713559388920521934e-04
-2.916806150726969186e-03
-2.934579681669692575e-03
2.792197976132587689e-03
6.838619871338006730e-03
3.729776008096598230e-03
-2.393923352217870813e-03
-7.474697485012208112e-03
-6.426385531796040967e-03
-1.463324397097689588e-03
2.475583720328672528e-03
4.009847678414140380e-03
1.849321250050710731e-03
-2.954683998585274415e-03
-7.206494599205295545e-03
-5.043791556956962914e-03
1.941713796959881628e-03
6.066677197399113902e-03
4.613930462924253212e-03
-1.154300268776195341e-03
-1.292791436922160076e-03
4.854571130541162315e-03
2.867617041203854820e-03
-1.983902671079014902e-03
2.106453745627237355e-03
2.542482025063485564e-03
-4.889696139959614010e-03
-3.353471312631827340e-03
1.654037589078169402e-03
-2.582425491910073177e-03
-3.348089476595963055e-03
1.769328900283050499e-03
1.057694345833885699e-03
-3.023673242969172285e-03
-2.893752038185707937e-03
1.576656252302323629e-03
3.091449862589009355e-03
2.348190172443774646e-04
-6.433154789985082731e-04
1.008362067499351221e-03
7.733279436355492342e-04
-1.122580967695188713e-03
1.440970642247925166e-03
3.599995385635869957e-03
1.112076917934591005e-03
1.339878843937787351e-03
-2.149105636039061375e-03
-8.235681179223340934e-03
-4.741572964876264278e-03
1.852484354653722133e-03
6.429621753207321981e-03
5.049259441855559472e-03
-3.050990414477692571e-03
-3.172499975444362935e-03
2.585177243632575620e-03
1.908504715104223336e-03
-4.728326771615669073e-04
9.098982489276328687e-04
1.749074767608351216e-03
-1.060823831688398724e-03
-4.382765716438623109e-03
-4.502910362602897953e-03
-1.584958294700401261e-03
2.169328720507933688e-04
6.841635061848825314e-05
-5.826593870367994393e-04
-2.169626738902802679e-03
-3.667764587737770785e-04
2.697210835742589081e-03
2.794677403759342985e-03
6.097382373984479818e-03
8.861247105612481481e-03
4.367226485072806669e-03
-1.133072559489730529e-03
-2.289155851909958992e-03
-5.516853676190507615e-04
-4.774627044415812971e-04
-2.917922058714550026e-03
-2.536074131559042013e-03
1.770558896258062325e-03
9.198208486190137230e-04
-3.140007380414502197e-03
8.712566166830962387e-04
4.234904166124713217e-03
2.859599452460156576e-03
1.641336717859979326e-03
-2.384407544684389885e-03
-2.320037799292726244e-03
-1.421399317471168768e-03
-4.671298494938420161e-04
1.137946694235944398e-04
-1.806756698680953357e-02
-2.403823953202208208e-02
-1.300240392635612424e-03
5.512696105927455265e-03
2.226735139524855297e-03
4.736911989554102621e-03
1.730379173394807398e-03
4.194531224899190024e-03
9.004376907331150884e-03
5.255816551968770130e-03
-1.357019270398445929e-03
-1.338592680540565301e-03
6.462327359299411753e-03
7.420901867747502906e-03
2.145047314673144065e-03
-1.784301763000265256e-03
-4.129939195250304645e-03
-1.126636687930932358e-03
-2.130338725095457051e-03
-5.265938631520401467e-03
4.410445725832846877e-04
4.684068028280403626e-03
3.826886651248889281e-03
2.357931904539620031e-03
2.867901870329278222e-03
4.342776033965290230e-03
-3.203074123741707076e-06
-2.049583937944742928e-03
1.171301782079551754e-03
-7.891526382322079647e-04
-3.175369134845799825e-03
-1.236225932807258820e-03
-9.803936689523084537e-04
-1.954130781388945838e-03
-5.443721802735523776e-04
-3.183737587531881505e-03
-7.838783361690972520e-03
-2.026536068474216537e-03
1.381231971695834814e-03
-1.561477807658379546e-03
5.496601545641198287e-03
7.198922713545888134e-03
-2.428970650461447964e-04
-1.749061068511057393e-03
-4.319065816219874211e-03
-2.152923807435696592e-03
2.543915309007106253e-03
-3.416080419074465392e-03
-6.921717197393446180e-03
-7.429960449745198758e-03
-5.113193512063295663e-03
7.043482612873423233e-03
9.895395895166020708e-03
5.763895551944245733e-04
-1.559252104796644139e-03
3.050474349395798819e-03
1.135604585407246894e-03
-3.784882778516196651e-03
-3.254488634067916107e-05
3.114718296179716864e-03
4.491414339827044973e-03
7.924409279141102908e-03
1.979949140378106220e-03
-1.415924228651260948e-03
1.338305339094089967e-03
-2.328278637736689010e-03
-1.304629537707953976e-03
8.705142368561884919e-04
-1.809976324815545587e-03
4.166319730643843746e-04
1.450202240579620940e-03
-2.223765496803416762e-04
1.771966751088597169e-03
4.560805706224079457e-03
2.245282657690284098e-03
-4.713718446999913200e-03
-7.442981295328616152e-03
-5.471783610744338812e-03
-2.677459812331048870e-03
-3.262962325407934867e-04
1.261412464057502661e-05
-3.180340809895350362e-04
-4.207075038317503041e-03
-6.166970804868407950e-03
2.620702307805809414e-04
4.829244038521681402e-03
4.836298308766283534e-03
2.713568068567915204e-03
7.758178647944920280e-04
2.209477506952101881e-03
-5.552238985659236877e-04
-1.632058496935261420e-03
5.177497071806644487e-03
4.817734535486718934e-03
-5.583975856773737596e-04
-1.478105508488015757e-03
-2.841226804897845938e-03
-2.855810825084556526e-03
-9.552123870866201238e-04
6.832231295312886366e-04
4.521300223946010839e-03
4.501905561677264217e-03
4.494177062809878471e-05
-4.521266803006521433e-04
-1.178210343320562148e-03
-3.700272176580844240e-03
-1.208592720298721362e-03
8.895091049108018585e-04
-7.074988367617183809e-04
-1.325600709415857947e-04
5.236942962228844148e-05
-1.313993268560568160e-03
-2.294593894429782996e-04
9.741753971758385262e-04
-3.897390036479012661e-04
-4.820641996773619015e-03
-6.085884599408111426e-03
-2.882919174386136671e-04
1.405629056872634243e-03
1.392187894720432750e-03
5.653097180932068963e-03
3.049451570874190699e-03
1.395432865976825999e-05
2.206825463806879554e-03
-6.173490746198174875e-04
-1.612769053697796651e-03
1.600572640356546410e-03
1.603406804843604235e-03
7.304313771678440760e-04
-5.360742674221102985e-05
6.270687005872845228e-04
-2.922502137690122324e-04
-4.171669077103476626e-03
-1.115265537569216621e-03
4.242318132363497897e-03
1.474855080804642884e-03
-3.657968015804291192e-03
-3.945373582824558863e-03
-1.833648729180005661e-03
-8.445668946484543227e-04
1.950798600923119757e-03
3.204895597042092120e-03
-3.582594223819315004e-04
-3.112241032798634217e-04
1.870456211011356333e-03
1.300673176033712800e-03
1.305673900448329865e-03
7.540983447596392693e-04
1.499130409266940861e-03
2.832586321139804204e-03
6.210667784123089007e-05
5.996965507409679529e-04
2.948645814345405083e-03
2.158228684752229519e-05
-7.697353086937640341e-04
-9.020638246997841978e-04
-3.021254680099865440e-03
-1.864094148122320566e-03
-3.081494389628475911e-03
-2.654053201223837040e-03
3.712593263148550836e-03
2.093872280303279380e-03
-3.496463741349416753e-03
-4.143416855824985992e-03
-4.667233352034256579e-03
-1.798381309935433593e-03
1.030272922026198709e-03
5.355685348509256396e-04
4.522199608421443619e-03
5.248791329691475556e-03
-1.479782129158866344e-03
-3.435759334048901856e-03
1.075739123232170380e-03
4.219358136612959102e-03
4.130853162279162416e-05
-5.203079709130536620e-03
-2.256224900488324348e-03
-5.091491754776187369e-04
-3.275127322792292101e-03
-1.944103125831532237e-03
-8.780664155807534500e-04
-7.577358993587239360e-04
2.591445112989736871e-03
2.933614198164627256e-03
-1.399185823317134142e-03
-1.960853288848610210e-03
4.530597418270578686e-03
5.647971506451957523e-03
-4.980232192255758424e-04
2.780428970505665243e-04
2.719106458871793208e-03
2.552676220413523621e-03
5.237330494055563931e-03
5.260856845703510212e-03
3.130920204975523678e-03
-1.758252780099998783e-03
-4.792922029362454983e-03
1.411392985183778769e-03
1.712241875149401495e-03
-1.395049217308367466e-03
3.037516156061092088e-03
5.429433645042771803e-03
6.130035979233580332e-03
5.366293320395303448e-03
-6.732590156222211268e-04
-1.361158759932479256e-02
-2.507684311621330084e-02
-1.418531957128716867e-02
2.310156099159099176e-03
3.763572530413794668e-03
3.271729538915257602e-03
7.901112908680327826e-05
-1.727199986987896802e-03
2.705148117509674835e-03
2.899351729703303414e-04
-3.235095034297026488e-03
-4.426981655513375323e-03
-6.232672011679809762e-03
-1.918120362041953429e-03
2.466140500951985969e-03
2.953653480560902798e-03
3.274208996316481813e-03
2.550787537928508267e-03
2.034949142338646384e-03
7.581893350741516265e-04
8.679955051913829621e-04
4.064421999789158933e-03
2.771677730574607056e-03
1.283352592876631877e-03
5.260657907753863577e-03
2.410580250054873350e-03
-3.013822129698191625e-03
2.749844613641717287e-03
5.960711660656283634e-03
1.052341662936826568e-03
-6.873061350435747882e-04
-2.189417278523705761e-03
-2.264848515652254698e-03
1.084781694468218332e-03
1.798112484403036927e-03
4.077409199762222977e-03
5.587808951788540875e-03
1.266091308533122449e-03
-1.099294545713625556e-03
-2.640297510085254633e-03
-3.777573671535238223e-03
3.377495369081033529e-04
4.947796101224410546e-04
-2.063400347277582515e-03
1.185815379618606518e-03
1.351651339154368156e-04
-4.615392515137879681e-03
-3.734479806239579622e-03
-1.854976830233380893e-03
-1.264564456559801335e-04
-1.389125664315046717e-03
-6.437242826098135348e-03
-7.328269746147053100e-03
-9.789742078869718631e-03
-1.021812417924213533e-02
1.326643764912008045e-03
7.668922023965355633e-03
3.162058546506472598e-03
2.746876388115012226e-04
-9.204930043842960785e-04
-4.168015086857744479e-05
1.249720397426109120e-03
6.777461851845561515e-05
-7.438406716681164772e-05
-1.052024351770000860e-03
-1.201407166198738621e-03
2.516026503750277803e-03
6.795708077014706375e-03
1.089423017715063398e-02
8.862288333217362840e-03
2.614966387850948225e-03
3.055099801835635138e-03
1.943326968624256752e-03
-3.186465229204956968e-03
-1.873750280528448380e-04
5.126554913429276841e-03
4.954798073173873052e-03
4.716562583812524898e-03
3.955003567061841398e-03
-1.370075181805332294e-04
-2.034245167341682675e-03
-1.264872364152703002e-03
-2.639687511441567852e-03
-3.370797642261990149e-03
-3.869000347961054111e-03
-6.910611745894174214e-03
-6.929277627044108656e-03
-3.884451658058407815e-03
-2.291320052654612777e-03
2.157575672864572446e-04
2.671584790005811054e-03
-1.807811771292986824e-03
-7.924262318821278031e-03
-4.931920464104549290e-03
-2.524258231675599855e-03
-6.735617801308169290e-03
-5.661074512289769080e-03
-5.137336884061550471e-04
8.602237934110369775e-04
-3.026431285332503718e-03
-3.642388831574426816e-03
6.645112022413957736e-03
1.041177864579380039e-02
5.593286173387368096e-03
5.223641797945792128e-03
2.295029339393946620e-03
1.626944097853564404e-03
5.626001640517512559e-03
6.728586379083420846e-03
7.962938217521892126e-03
3.321924140775925176e-03
-1.754997294620502801e-03
3.700098724139290224e-05
-1.286329586473102839e-03
-4.582341833675981414e-04
3.809887716587001191e-03
3.506580376715700328e-03
1.113673217368603289e-03
-2.150101954867434436e-03
-4.543778302764405613e-03
-2.999625770287889584e-03
4.292084036987548054e-04
-2.140541759286107657e-03
-5.405148655203207038e-03
1.067420622797366544e-03
1.915804389312360896e-03
-4.769601139828406715e-03
-3.792986783031719253e-03
8.659930041439796618e-04
2.941709450536349798e-03
-3.572607350135690620e-03
-1.188345237736049276e-02
-1.106998378203990011e-02
-1.053758309282632789e-02
-5.460251723831729964e-03
7.016395804035556807e-03
9.882573500359329022e-03
2.322570443724238272e-03
-3.275234768678505961e-03
5.785713070086701145e-06
2.897449727356501709e-03
2.887146410146955184e-03
7.482078014878391567e-03
6.064449982350939711e-03
3.125169038147549046e-04
-2.946114339762147781e-03
-6.472215684644499860e-03
-1.588357537770552575e-03
5.421741347447625245e-03
9.166557918282828774e-03
1.158320252459085070e-02
5.012356121929754417e-03
1.095720057626036869e-03
8.431040598251742305e-04
-2.311271582951546135e-03
4.659462883878669540e-03
7.210929224255820114e-03
-3.027006315993628887e-03
-4.125286896413566350e-03
-3.485314114749297728e-04
5.909322940662569269e-05
6.339826673187366757e-04
-2.410707042917353913e-03
-3.267004737897264127e-03
-2.546012920122494748e-04
-1.316651711625078805e-03
-4.548294641444413679e-03
-6.456678487850151318e-03
-4.851122846308280646e-03
-4.163956696043839660e-03
-6.468149059507309097e-03
-3.496849682928505204e-03
-4.918630665443012549e-03
-1.270704122582681263e-02
-9.345527250427743821e-03
9.318579492221376517e-04
8.058012309566011527e-03
4.495178703377870552e-03
-6.344027234621570782e-03
-4.243190967456536740e-03
8.003616304413645622e-04
-1.058167306351195979e-03
2.993083507695871136e-03
7.375433509346071212e-03
9.358717573243911445e-03
9.623369202602597566e-03
5.731714777948693912e-03
7.364931055170515634e-03
8.950281236996999318e-03
5.224760954506995313e-03
5.994064228419272548e-03
5.577938161036889719e-03
-3.679315615692930184e-04
-2.191193433370271226e-03
4.512624917161754440e-04
1.882252054725609084e-03
4.148887159258298797e-04
-3.481273864447529190e-03
-3.205355313692646087e-03
4.982147598825251459e-04
3.535882993177496799e-04
3.187845586417593653e-03
5.142551163540203495e-03
3.613564120634771585e-04
-2.288720576957375377e-04
-9.557386924842002640e-03
-2.755440933832457168e-02
-2.240763976137658681e-02
-2.111331418465249143e-03
6.547859458120571484e-03
3.031697897483505780e-03
-3.312410779661279121e-03
-5.787060956405359544e-03
-4.516594609350161119e-03
-1.242975620712204621e-03
3.731717543269277935e-03
7.276107425328186273e-03
2.904133411434705898e-03
-2.042126409347820408e-03
4.399600771259471257e-03
6.762385602592200194e-03
1.198062421090993193e-03
2.281898220146233957e-04
-1.923406853770756901e-03
-6.744231318813473722e-04
3.882032965706316667e-03
3.631282993754880901e-03
7.585505803070352604e-03
8.121092915374409846e-03
2.373603956307436514e-04
-2.564553658164462398e-03
-3.032730634888067874e-03
-4.867566398043260932e-03
-4.788972985651394551e-03
-3.106221257933252603e-03
3.322948065594382838e-04
2.932030518880454628e-03
1.967957047981916396e-03
-1.497531409576218940e-03
-5.574479895971647808e-03
-4.437119101523309510e-03
5.298769809392951148e-03
9.353893467124426223e-03
4.550063046768056466e-03
5.982265507442159971e-03
5.934605691084710206e-03
2.449085766312836688e-03
5.100175824077640523e-03
3.791346025748644662e-03
6.093814507386482136e-04
-2.495294462320481708e-03
-8.916335871347240080e-03
-7.694904627062467729e-03
-3.398088266064920159e-03
-6.307138324752233896e-04
1.359012216122721869e-03
-7.065284442628429803e-04
-1.615329932999247289e-03
-5.813907452870707183e-03
-6.526495826962256698e-03
2.234517631188940191e-03
-1.915431518484408502e-04
-9.637955508997169199e-03
-1.244921314160304937e-02
-1.098767552471336881e-02
-5.477109453916895361e-03
-1.699207813881564028e-03
1.940544080150606414e-03
5.876281358249216442e-03
5.391721268478666743e-03
6.333854410464676878e-03
6.234072191685164493e-03
5.571369311956553098e-03
7.239181109574320885e-03
3.854171212713498711e-03
2.446833437755464944e-03
5.248014997828109700e-03
2.913633465169803392e-03
8.148633314679886710e-04
-5.448378628466200553e-04
-3.469187182919755176e-03
-2.592152355147316631e-04
4.034404568961149143e-03
1.636138326324233349e-03
-1.381460832440250348e-03
-2.127762367374392682e-03
-1.594661575038145178e-03
2.089708607663300771e-03
5.630605211098537420e-03
4.372683142737307689e-03
-7.925486561483099631e-04
-7.024992268145955829e-03
-8.886994644294729170e-03
-4.734164383515923787e-03
-2.266863426776266708e-03
-1.136755081627281250e-03
3.763240843565165365e-03
4.925757265912091183e-03
7.803941297114847268e-04
-4.913827945060541061e-04
1.218217918083048775e-03
2.956615710554381937e-03
2.468713194095981459e-03
1.978839126429737371e-03
3.531978829572228040e-03
1.932578848096013022e-03
9.934313825662064931e-04
2.432423027636603906e-03
1.402902206632698507e-03
3.903886170380484102e-03
4.792952783182563570e-03
-2.745684670887945430e-03
-6.262831594479181981e-03
-3.574031102787962252e-03
-2.667152092454406001e-03
-2.799663884813444279e-03
9.991402021617505342e-05
2.801906931567013908e-03
-5.633397389877868111e-04
-5.350259423063368630e-03
-7.958217583963983141e-03
-6.823483512973660924e-03
-1.285456758258262094e-03
-2.516548908561478293e-04
-2.046096978976387655e-03
-4.375892809193079880e-03
-8.863649220089647382e-03
-3.577383187381676967e-03
4.221536857401185332e-03
3.295032251461939201e-03
5.365601433953389940e-03
6.245680557195007997e-03
-3.122105656619008859e-04
-4.273989424912291724e-03
-5.039008191052994808e-03
-5.661545607001119106e-03
-5.942897093042066176e-03
-5.191635356992406122e-03
-3.959459433562208079e-03
-5.824890149382339934e-03
-5.417665227573038866e-03
3.761405847368538835e-03
1.402138353232284737e-02
1.562472822928374916e-02
1.338952165753338856e-02
1.638577470521672061e-02
1.935911563306838210e-02
1.831409188063176305e-02
1.865864855653836737e-02
1.896044043340486956e-02
1.611586099520865775e-02
9.247395573562014123e-03
9.342055458037082372e-04
-5.714334127902000356e-03
-1.244212418082456598e-02
-1.358149547847401634e-02
-1.081300379022642928e-02
-9.152012511231747208e-03
-5.047122350215428512e-04
8.607730036781105140e-03
1.044890709308812435e-02
5.706338259860211509e-03
-7.169384040198879815e-03
-1.463495050259471832e-02
-1.783855594759665639e-02
-2.567875954687737217e-02
-2.546697437398288619e-02
-1.752509901147868837e-02
-8.283561994346535715e-03
-5.314490595110624681e-03
-1.651347183374103980e-02
-2.929257257527548633e-02
-3.479418918080257744e-02
-2.492241032115854321e-02
5.604196664313829297e-03
3.678726786705021484e-02
3.966362265861104325e-02
1.066467697546245874e-02
-1.131416143432787671e-03
2.044900128615718959e-02
3.217073397009180546e-02
3.317906287295514789e-02
3.453045392211381154e-02
4.328099903450077085e-02
6.164106063634291338e-02
4.674467295655278243e-02
5.948944788467098316e-03
-2.464067085349481642e-02
-4.667589437455539614e-02
-4.992915106132986280e-02
-5.123663432729880923e-02
-6.472193114742376407e-02
-7.445240962960811282e-02
-8.395332935008943676e-02
-7.058288043845042936e-02
-2.019846884641651047e-02
3.278721843453446388e-02
5.431863596148147483e-02
4.684563337382964543e-02
5.320192518725507663e-02
6.823029095764240881e-02
5.743576498731687435e-02
2.399584377411441427e-02
-2.731025056045368118e-02
-6.566835648266261538e-02
-7.645149865631634123e-02
-8.379264039585447577e-02
-8.326117104240331190e-02
-5.886623540418529227e-02
1.605110507414740997e-02
1.079282237092539509e-01
1.339695302101589214e-01
1.266611576700993336e-01
1.479725797933666709e-01
1.741522258074472973e-01
1.512037935225385432e-01
7.475137199261162879e-02
6.990047632678714207e-03
-5.491731671440363421e-02
-1.353654702337284133e-01
-1.813339473617291697e-01
-1.779480306531031619e-01
-1.444285904517344787e-01
-1.064583304083709658e-01
-8.384689461160167723e-02
-4.417717601671405925e-02
9.202307479496647097e-03
7.507274166717720076e-02
1.369647685071056775e-01
9.513612138448676592e-02
-2.963665471214289252e-03
-3.013272943490584790e-02
-1.612832457946235254e-02
-7.040865688499288282e-03
-1.372468697110925881e-02
-5.395678596840253194e-02
-9.364087310028437749e-02
-7.773519515481652764e-02
-2.371086904677028456e-02
-8.923221175995426843e-03
-8.110549351781235969e-03
1.416003631770433417e-02
-4.536901085789753207e-03
5.792954427932018278e-03
9.498611819759926467e-02
1.446877621926145607e-01
1.610964139169019371e-01
1.792623279137629255e-01
1.383206436737520473e-01
5.163103244067903524e-02
-2.518289063736245739e-02
-6.783086634514233493e-02
-8.450446125250948848e-02
-7.530614940376104127e-02
-5.423327927101474766e-02
-7.364168236993857974e-02
-8.742447883685013077e-02
-3.066159281710490944e-02
6.270988929231008369e-02
1.154234586605862589e-01
6.186840597081891963e-02
-1.212591320685344268e-02
-2.469197112550757661e-02
-2.691257214632107597e-02
4.178938328241846994e-03
2.522947696080918983e-02
-4.414577085109206572e-02
-8.462962516545283198e-02
-5.485555383926907919e-02
-4.746940268041645317e-02
-6.468129719194241900e-02
-8.619286726964842105e-02
-9.892153334411704635e-02
-9.169227061713565441e-02
-9.731217165056021967e-02
-7.094423965444213165e-02
7.256074110701880853e-02
1.960072863904173679e-01
1.460788748036308815e-01
8.013180549091136751e-02
1.101852878435222866e-01
1.124416596871177509e-01
4.784512586282899105e-02
-1.827883410498950742e-02
-3.374574012172180254e-02
4.282141579054883629e-03
2.253456714943971248e-02
-1.593620779400021863e-04
-7.711960827492754349e-03
5.712777574546012808e-03
4.395713254438033020e-03
-2.421647780305670634e-03
8.025604789450673654e-03
1.220666932332069299e-02
2.575475530818357832e-03
-3.321982727059597656e-03
-1.156676972472173333e-02
-2.250657048763699333e-02
-3.177855612849004446e-02
-3.888699838261821390e-02
-4.274617899839517482e-02
-4.781766400134555839e-02
-4.538644704442237193e-02
-3.691564634672470785e-02
-3.349817076107422520e-02
-2.576213209934047690e-02
-1.421173582339307559e-02
-4.834990894545690941e-03
8.753252835465760370e-03
2.156054066509087083e-02
2.738861105417411332e-02
3.024579716675413615e-02
2.973443522273852904e-02
2.717318731831281850e-02
2.537475058190320071e-02
2.161041485105424237e-02
1.968314678891239927e-02
1.456963186917840589e-02
-8.882707491718923060e-04
-8.226379929915169850e-03
-8.754122192170950625e-03
-1.586679503071787567e-02
-1.006834570356156949e-02
5.147700003225556820e-03
5.266815263382675256e-03
-6.742090218381261921e-04
-1.205819894481129475e-03
1.420964025502515502e-03
7.214781422085365763e-03
1.331630625185788869e-02
1.615515470248849936e-02
1.063237930072544017e-02
-2.545632459104652445e-04
-4.021847899957314669e-03
-2.874338108309906770e-03
8.428586009129512477e-05
5.942471633326491462e-03
2.659055680201469381e-03
-6.046024212471278088e-03
-5.665666420165484628e-03
-3.061341374411170446e-03
-4.735541952345604516e-03
-7.473399386619496328e-03
-7.328310546069594263e-03
-4.835028296041092577e-03
-6.069877120760018736e-03
-8.315839910343901173e-03
-7.200361556645059648e-03
-4.792001024951347138e-03
-4.083233750605609266e-03
-3.947324737581819724e-03
-8.534850213647671244e-04
-2.562458406601548534e-03
-6.575534429093692068e-03
-3.378775001497867896e-03
-3.363702688144444303e-03
-1.643096564201139507e-03
5.824036715775192039e-03
2.458719997575277427e-03
-1.428515070281981617e-03
3.011691268802448116e-03
4.131789288994647084e-03
3.031958892139181502e-03
1.239082834954654535e-03
1.508809835333772918e-04
1.608495394748697422e-03
1.919011368272383923e-03
2.458102065731514185e-03
1.795015239334803560e-03
5.230232571170418060e-04
1.577289534711690672e-03
1.085311824355604006e-03
-1.831600487328733642e-03
-5.126477923432987138e-03
-4.468132494294923228e-03
-1.036179488124584509e-03
4.141950634696439431e-04
1.607095581331460625e-03
-2.458199169248290183e-03
-5.571587425367635453e-03
8.827528081509004691e-04
1.631318727243838700e-04
-3.566621434319522475e-03
2.998196578304765467e-03
4.656554734259949098e-03
-6.825228507384413859e-05
-1.183818524663571596e-03
6.054171807150540534e-04
4.318070005892959973e-03
4.693833025676274161e-03
1.843075241569256577e-03
2.128328608653661403e-03
2.455726163300288312e-03
-1.025710604624798569e-03
-2.932367526194878862e-03
3.535210510247223489e-04
3.050352565012990919e-03
3.427168171129081793e-03
2.541762064298246776e-03
-1.009699313662377291e-03
-3.253895662196638807e-03
-4.041007753463245894e-03
-1.602733977943975431e-03
4.687931938944758965e-03
2.849245821239762208e-03
-1.331382178651685337e-03
4.590815437795848011e-04
-1.423838701850396998e-03
-2.497418458371434289e-04
6.439753264341396312e-03
4.536087556565940315e-03
-1.031229075640768865e-03
2.583618722168026099e-04
1.660469636075644333e-03
-3.145182192455763404e-03
-3.476776084724297888e-03
-3.575446275823643792e-03
-1.889923675680292570e-02
-2.205069312461249015e-02
-3.663879957846719786e-04
9.380611363854637896e-03
6.311704911335478882e-03
6.582912523150100288e-03
3.273825068832003637e-03
1.853983306409789271e-03
1.156443475613363418e-03
-4.106474447236180096e-03
-3.011373649212758987e-03
2.759628539153981199e-05
3.375254815785370087e-05
3.746476386151843026e-03
4.501709357241207542e-03
-2.639522245473281290e-04
-2.542511267278950177e-03
-1.422334847871170984e-05
4.815545141311356782e-03
7.315849222445101538e-03
6.642319366279180425e-03
1.975752360207447093e-03
-3.146923081911936690e-03
-1.267880927327515433e-03
1.130536885278348586e-03
2.609034443409619011e-03
6.236693800001454589e-03
3.515993137725066837e-03
-3.454707718569556725e-03
-8.928258666467531884e-03
-9.988379381980706101e-03
-3.747006614302767283e-03
1.803975212157496845e-03
3.556097024615820484e-03
7.274621298501351020e-04
-5.297111801486079942e-03
-7.467112865614608345e-03
-8.526042192568885486e-03
-5.037073309502307882e-03
2.084922526339108052e-03
3.282453634859837724e-03
1.836857833118075729e-03
-1.037886541695500755e-03
-4.527917044767743016e-04
1.203768448179684362e-03
-3.060473683193338460e-03
-1.051696805193694673e-03
2.598185050120483536e-03
6.417726955370906851e-03
1.452511657044464402e-02
1.107270063732134630e-02
8.260661482042821330e-03
7.230668372514749073e-03
-5.065207587055017835e-03
-7.261017926613659752e-03
-5.340939339847372742e-03
-9.741539302528865255e-03
-6.296059326477512243e-03
-2.329370407079711398e-03
-5.554123605633779024e-04
1.308968322165386796e-03
-5.300875322428108549e-04
-2.545909508586006054e-03
-4.665731725337882857e-03
-4.313052169879747801e-03
-2.580989719409734155e-03
-1.527471593974828604e-03
8.080890683967693758e-04
1.096944804903345153e-04
-5.447176710539327000e-04
-1.745176492551456845e-03
-4.318704063822629072e-03
2.505063034803335208e-03
1.207864594515517878e-02
1.292082701883261707e-02
7.523780563850543390e-03
1.581797284249997692e-03
-1.764185781370056043e-03
-3.725145447108539447e-03
5.863244733081718904e-04
5.947681544487348239e-03
1.199559875559399070e-03
-1.802905520138258139e-04
5.042978454889581776e-03
1.483794585303635071e-03
-4.136197912503312805e-03
-6.645249258365399161e-04
9.574570026432203777e-04
-7.366572752406915468e-03
-1.576998292316778710e-02
-1.643087155390442547e-02
-8.789600321953880066e-03
-1.031249738311136111e-03
2.403914875744418223e-04
5.504266858949017661e-03
6.367670651677040210e-03
-3.929140986071255268e-03
-1.191683569866366140e-03
5.212449785676886473e-03
1.538959461150380802e-03
4.966773123748977926e-03
3.050437368465027180e-03
-8.040886397993664628e-03
-5.355534161660280984e-03
3.337035526408502640e-03
7.514803997162015740e-03
1.091955805535111887e-02
9.581290282706241349e-03
3.577456724130811429e-03
-1.120415569168837101e-03
-1.957980493776496043e-03
-1.168594179954069020e-03
6.237496797438842749e-04
5.048163845606867990e-03
5.628633369253047483e-03
-1.598243544754906825e-03
-7.824213372606627845e-03
-7.276632285862666763e-03
-4.322638174194061260e-03
-9.698459898095446521e-04
4.461901922904776795e-03
5.477734608359695681e-03
-1.827465712356679626e-03
-6.794965141896760000e-03
-5.121411517665804512e-03
-3.259585240404427441e-03
-1.071045189744444402e-03
1.082476631296301010e-03
-7.156586694008476709e-04
-4.305595565620457324e-03
-5.201631229230817451e-03
-6.726824532100132139e-04
3.136129045960985105e-03
3.374320035049415941e-04
-1.014802277923302406e-03
-8.808023949112108028e-04
-1.193280838550882066e-03
4.817040041636035629e-03
7.837222833596170848e-03
2.985589270394718199e-03
-2.954613393414610815e-04
-6.257023166490445574e-04
2.817967620381391439e-03
3.351179610181102830e-03
-3.312522617521662747e-03
-4.076817931746046578e-03
2.428726170844270997e-03
5.638725940977471970e-03
1.127202843313203232e-03
-3.635367802172281317e-03
-1.171680367359799512e-03
-5.434238633001431417e-05
2.701262075159797504e-04
4.189773529855092028e-03
3.428128877812797182e-03
-1.065109202329861046e-03
-7.692995777476794965e-03
-1.110720632585121895e-02
-4.951433177348687695e-03
-1.126899711021609970e-04
3.423405316004504706e-03
6.270492773789380567e-03
2.377520790765355694e-03
5.332292685808195584e-04
-2.596268355032210762e-04
-3.925253641192248026e-04
3.987732173062775824e-03
2.950476006724160345e-03
4.147761109445327501e-04
-6.397927029967079684e-04
-4.385378893445261890e-03
-3.716775228460669940e-03
-2.109012656246080867e-03
-2.852796566343280757e-03
-3.166473707002329021e-03
-4.529265502932734722e-03
-5.584121873630903780e-03
-6.936295999249656417e-03
-3.456102786845560455e-03
3.920277864987065271e-03
7.255785783595088828e-03
8.897781150911799122e-03
4.797768929018791581e-03
1.584251850571949958e-03
6.497310694879476940e-03
6.478068104175408772e-03
4.934670584200140896e-03
4.370421860172149855e-03
2.400202677867940317e-03
2.791551443038739564e-03
-1.238815444988548495e-03
-1.896859394426056358e-03
1.211813621318000474e-03
-1.240260080891781745e-03
-1.972000575975159993e-04
-1.785641221741279773e-03
-5.665119078033895028e-03
-3.343682893227101389e-03
-3.903896475291842357e-03
-3.213998576308868278e-03
2.792111396561506621e-03
6.670715418935400931e-03
2.337321199533130747e-03
-6.520640674631655517e-03
-1.527522556872482930e-02
-2.864216765940121034e-02
-2.456818361810511608e-02
-1.980226427074291157e-03
6.437002329991965005e-03
9.867826953665970527e-03
1.349805916208618450e-02
1.167043582947752470e-02
9.897735556002108456e-03
4.369878585158817885e-03
8.180314131054827742e-03
9.394592656073808348e-03
-3.243679855868460485e-03
-3.079724983341357823e-03
-1.246194541271135282e-03
-2.468597895146357971e-03
4.216032375971336295e-03
3.876783533107916718e-03
2.989900761810445652e-03
2.596663587312580002e-03
-2.692341034824477074e-03
-1.609366680594848152e-03
2.812017351625779697e-04
-3.918882318251886701e-04
-2.178069856597700683e-03
-6.774115474949671430e-03
-8.047101828785690331e-03
-5.795158737134790614e-03
-2.823230411817763408e-03
-1.026375029419629653e-03
-7.186212654612640985e-04
-2.085826600883908862e-03
-4.248541475231531854e-03
-2.619023178132214870e-04
4.226031535983861345e-03
4.439572845485933138e-03
7.445013017422620095e-03
7.437430859659054094e-03
2.392334253037060356e-03
1.927679923010569086e-04
-8.443932241615125173e-04
1.056996016327797772e-03
5.394713085335517064e-03
2.417391927806065120e-03
1.148142865013863706e-03
6.201236679648217641e-03
2.198560157012575261e-03
-1.342228147582276475e-03
1.218380900352487905e-03
-2.114397874108042089e-03
-1.888133679747917848e-03
1.200319170087360901e-03
2.862977159259492803e-03
-1.463586795422968821e-03
-2.646622717384557177e-02
-3.512255679607304004e-02
-6.575886262132276359e-03
8.945837026134519782e-03
2.059894577901787236e-03
1.061382672859944448e-03
3.530215767997872938e-03
9.417032687658111537e-04
7.417935030141172611e-04
5.980839354301627046e-03
5.732249403492130357e-03
2.950786862103850060e-03
6.325135813433318058e-03
7.374922335994361575e-03
3.795760866046605543e-03
2.405812609678133294e-03
2.430656484114789278e-03
-9.057237057179681012e-04
-3.866015827213269227e-03
-2.058815408242163896e-03
-2.147273808606331956e-03
-1.251312900283771228e-03
4.559765356296073720e-03
4.081610103907792365e-03
3.993770701292210287e-04
2.104610903763735538e-03
-1.630219382805370978e-04
-5.840114606861535398e-03
-3.846688298853559104e-03
-8.440334439941975285e-04
-1.827991619493306427e-03
-1.271211685266650454e-03
-1.449406188845219498e-03
5.816272353234863170e-04
4.333817777653988304e-03
2.041049920305066170e-03
1.576545866964818021e-03
2.452473217815330161e-03
-1.676429426836864578e-03
-2.950560750970944359e-03
-1.592458649156221987e-03
1.500471898790174197e-03
6.531869715783002357e-03
5.436280330686157208e-03
9.505478499213634771e-04
-1.537606675069333505e-03
-3.837681039853583879e-03
-3.143064013117513687e-03
-7.076163750707625301e-04
-3.836258114922606096e-03
-5.380016886967037629e-03
-6.155105673671657212e-04
-4.423118772902661332e-03
-1.003672437699103595e-02
-1.831433952095910724e-03
3.657321466205232241e-03
7.559660465734974243e-05
-1.530241986129454680e-03
-2.748298669852274057e-03
-1.877886825841434786e-03
1.818688936214154974e-03
2.890553526320763580e-03
5.129572933552534533e-03
7.917172187562901073e-03
2.269651428187197204e-03
-5.518948473364000858e-03
-4.835158657670229898e-03
-1.637585602301522888e-03
1.703639625130176638e-03
6.287515096782004750e-03
6.590263846183436539e-03
5.268726464948079655e-03
4.070816407992600312e-03
3.784093657765000111e-03
5.266773701395477056e-03
2.447324689822785553e-03
1.108453381107572062e-03
-8.211339832768168884e-04
-9.869533749299396613e-03
-9.039741626136845939e-03
-7.456939724655795975e-04
1.541783154473896043e-03
4.132728513494562418e-03
4.607368537002295636e-03
-1.878451584918071500e-04
-5.273784697162566502e-03
-6.009748859185627679e-03
-2.301574157691988615e-03
-4.292722892323548828e-05
4.814467543465340664e-03
4.322446452690938308e-03
-6.619305400793058271e-03
-5.244679410020445902e-03
4.748619500282961906e-04
-2.299193121369323602e-03
8.380945187193599485e-04
1.429319712280217305e-03
-4.130242961639711552e-03
-6.565127197028791314e-03
-7.706542940918624518e-03
-1.141696095253354887e-03
6.438252933713221535e-03
5.513240494171522260e-03
5.964081919495426397e-03
5.345359595672367382e-03
4.972671778952015209e-04
-1.431374248994038076e-03
-3.869354848129722465e-04
2.096392853789482997e-03
3.594884112993830018e-03
3.044486708306324511e-03
3.792975952248453346e-03
4.562439178968895857e-03
2.091543289386252769e-03
5.538860436549530950e-04
2.303817216882020694e-03
1.126430051969429724e-03
-1.225363785757568099e-03
-3.055072525561520775e-03
-9.124454808720827009e-03
-1.014520937007161797e-02
-4.482744009112599008e-03
-1.654706046562973024e-03
1.081437667702886234e-03
-1.168556209270657509e-03
-8.198067483129059183e-03
-6.673302117814636399e-03
-2.728123910157723327e-03
-1.451765995147133578e-03
2.505016297744085997e-03
2.889480769437537382e-03
3.773612134773760972e-05
1.884587420015768761e-03
4.179964662424682370e-03
4.231909284532246567e-03
8.277582309233387503e-03
1.143238929885695594e-02
4.157753497723441598e-03
-3.082730606866137743e-03
2.730863766884038518e-04
4.079270031805315617e-03
2.351319713321497508e-03
1.470415222633026688e-03
2.471280346434489780e-03
2.724167953468227110e-03
2.238630931092189594e-03
-6.275003034762940274e-04
-1.892207077055246215e-03
5.596745512094834611e-03
8.268633955143368103e-03
-1.077561385879864187e-03
-3.262316081364309301e-03
-9.398461357020259158e-03
-2.645208121406272123e-02
-2.004032844495654692e-02
-2.787485542835978995e-03
6.700964656842449798e-04
6.334731470460193935e-03
5.074592099516985963e-03
-3.622311269051881055e-03
-2.513366633328660733e-03
-1.035933946694607205e-03
3.351939118803899404e-03
8.386493726871080759e-03
2.617016104562761014e-03
-2.359368914489081391e-03
-5.594875903778103593e-03
-4.571587108971417179e-03
5.756675733873809972e-03
7.930630391923603958e-03
3.746782020082385124e-03
2.333665618047024541e-03
-2.885258015766559419e-03
-2.910189590930883745e-03
3.690325200292852558e-03
4.552579749464833250e-03
3.972446615359060719e-03
2.836784001048794478e-03
-5.011195249010955274e-04
-6.426929099692916690e-05
-4.101242366663046556e-04
-7.643333685456154278e-04
3.294516109484225876e-03
4.750210611272329131e-03
3.247992500401657504e-03
9.388120642033386323e-04
-2.492350918623129769e-03
-3.937886098570817124e-03
-1.537550768845019709e-03
-3.462714002520019983e-04
-5.899197103505866326e-03
-5.458019069870602077e-03
-5.409513462683710914e-04
-2.986220821607457349e-03
2.430834920379145933e-03
7.066753310165524611e-03
2.119005605956787112e-03
3.146966852167107451e-03
-5.372603035639240141e-04
-4.613667755114643672e-03
-5.160852900688222417e-03
-5.573216130326072611e-03
7.496328815865107263e-03
-2.001452792572087306e-03
-2.386986087531358172e-02
-3.023610148333859878e-03
1.112830249784139275e-02
-7.195959911770349361e-04
2.826952420212396760e-03
3.841432833889575973e-03
1.204630347916343458e-03
6.176553090213293858e-03
2.563622978544037243e-03
-1.139320458784150300e-03
1.995794674853557105e-03
3.024208189478344924e-03
2.962624853999461499e-03
1.264664091202349688e-03
-6.117765815156150748e-03
-1.131597237276375963e-02
-5.877964924734827186e-03
1.520567841694445491e-03
5.215831320504846387e-03
6.897440639129968042e-03
3.808814067961446143e-03
5.000711448888772801e-05
-1.883695655894718430e-03
-2.118878978236348083e-03
2.340655577554548537e-03
3.774263895180656522e-03
1.055966615719575348e-03
2.216034515596788761e-03
7.585011118761303970e-04
-2.231460479073626903e-03
3.206337286214156184e-03
4.963208943437795971e-03
-3.950322160146642943e-04
-7.576410774100773501e-04
-2.856087020715941324e-03
-5.290060691603649425e-03
-1.749880723132419061e-03
-2.058532395164527906e-03
-1.549909045053750149e-03
2.153951363983312977e-03
1.214920207931890865e-03
-9.615938242365247969e-04
-5.635751402745382659e-03
-7.661123455581290292e-03
-1.872992261145381768e-03
-1.794569631299334838e-04
6.830940904981724080e-04
5.984689579664892976e-03
3.719308488114830835e-03
-3.702962672376317998e-03
-2.771355432799096560e-03
4.458871628759283889e-03
5.788108068430109811e-03
-1.500703558895703088e-03
-7.337696770811892935e-03
-3.852364660751624037e-03
2.809056593584214646e-03
5.269835359443033121e-03
6.476735618190615842e-03
5.314243309956006786e-03
1.310819958854118460e-03
3.314989864033075079e-04
-1.404141064604792462e-03
-3.100352089170998506e-03
-7.935138168631007379e-06
1.025614549381369820e-03
1.252750809818633116e-03
2.998925734174897901e-03
-5.628223057559205138e-04
-4.941108740914279193e-03
-4.020115105514881874e-03
-1.395711086143475600e-03
-9.567134035273989817e-04
-1.879726380542736828e-03
-1.148741538252208644e-03
-1.705239106890983581e-03
-1.285720507138984415e-03
2.869954596917065771e-03
7.282937148263788360e-04
-2.490677888453253844e-03
2.710141261359181371e-03
3.840962712151816533e-03
-1.190059197417662551e-03
-2.141984499495546909e-03
7.743898589933269913e-04
3.648055399272373718e-03
3.385497113969607522e-03
2.422953602002259933e-03
3.762481152344093315e-03
1.226082361740442588e-03
-2.921987055785268354e-03
7.288850999874558947e-04
3.799114656140265521e-03
-1.117519960265407316e-03
-4.226793936998561596e-03
-4.660010400298127131e-03
-5.022874972732684420e-03
-1.700962710673585608e-03
3.455936268857004098e-04
1.616486111762969200e-03
3.144440248049716700e-03
-1.596114777919838178e-03
-5.369816597865396425e-03
-3.589500276406355946e-03
-3.017242333206538590e-03
-1.127164513564826243e-03
3.403536162769122374e-03
3.749830480318823347e-03
1.956564859190442797e-03
4.231857712866417265e-03
5.539436561690902136e-03
2.675722377062806929e-03
1.352428102162240176e-04
-6.258731388317847078e-05
1.774806107759727223e-03
-3.506320783353768407e-04
-5.697608721697619040e-03
-5.556126984051486771e-03
-5.354039384999259360e-04
4.596752201854833152e-03
1.626272872224150115e-03
-3.604093874614876670e-03
-9.749949088510793255e-04
-2.844371216200626898e-03
-3.520121919248044625e-03
2.797211792406356645e-03
1.112967912706721912e-03
-1.159357294006319690e-03
-8.270615071553640658e-04
-2.906433059483876525e-03
-5.086511802906312123e-04
4.325512489949326009e-03
7.008575995805212122e-03
4.291464178516854119e-03
1.153581695397205408e-03
1.548718650407656912e-03
-8.874027810029490792e-04
6.937666345576818294e-06
2.240500808070774227e-03
1.285222228742926654e-03
3.289494667740723403e-03
1.745630359314757169e-03
-1.782129201634816184e-03
-1.554805077887283678e-03
9.236804871525552399e-06
2.308971372411289247e-03
-3.843777609660523065e-04
-5.238814615849513370e-03
-5.345485208191019626e-03
-1.824318117639728374e-03
1.818182234129032786e-03
4.613395859390306483e-03
5.047465671323693795e-03
-1.122831353003218673e-02
-2.680759318914472875e-02
-1.126369820447521708e-02
5.789922709025288432e-03
3.854948656156095572e-03
3.727497344466431262e-03
9.360102079387602747e-03
1.045192336564518265e-02
2.648841413305766650e-03
-3.169348976092534274e-03
-2.814528070794136347e-03
-1.272578874930381954e-03
3.753534348506087047e-03
3.828816630070192278e-03
8.199498598994057422e-04
3.363920304425779568e-03
3.685057816164227177e-03
2.399669954763557819e-03
2.846564652799185146e-03
3.606098823586014347e-03
1.421310923952725375e-03
-3.258358748239551309e-03
-2.712219933517710270e-03
-3.238494753540290677e-03
-4.149160813508934523e-03
1.367865399564148813e-04
6.064405552827386008e-04
2.853699979467188034e-04
-1.689840144278019398e-03
-6.170420163086111701e-03
-3.121971097918022509e-03
9.423870584057079383e-04
4.176371462230588777e-03
4.337237623809693868e-03
-3.403146354392657703e-03
-3.565948484062681639e-03
1.096317727922025255e-03
-5.906082831648801825e-05
-6.279841151099834992e-06
-2.844017589279907538e-04
-5.305764829507467195e-04
6.937201894653411945e-04
-6.244392581504022753e-04
-7.724465821285623514e-04
-5.700869286747896596e-04
1.654305463636698489e-04
3.340648652968101345e-03
2.443098398538874096e-03
5.596470091952074517e-04
-4.039903491299697393e-04
-2.783221547909258981e-03
2.968487860796112029e-03
6.716908851709347747e-03
-4.394585405140397256e-03
-7.753865446516525553e-03
3.097227120934524551e-05
-9.316115091062396368e-04
-1.516007224251894169e-03
3.697644016365401153e-03
3.783613008479446652e-03
2.518286735012279128e-03
-1.786066303306266061e-04
-5.245448216820751235e-03
-3.128881363194321429e-03
1.197452198005020474e-03
1.015389598627793174e-03
1.225738013732152656e-03
8.411929208209924192e-04
-5.910275210122782879e-04
2.465481832526057694e-04
2.052518977882400626e-03
1.259539937089728572e-03
6.219448261842933220e-04
4.316451809891434094e-03
3.841160186896558706e-03
-4.629196328065939134e-04
-1.628989218526563339e-03
-5.053024388050540196e-03
-3.904852573020803439e-03
2.617822152774449459e-03
1.415670146614707303e-03
-1.771236463323206441e-03
-1.102710508808347036e-03
7.235345927259860652e-05
-2.887172183658722694e-03
-5.387191386552678263e-03
1.881431959813912192e-03
2.300146724850778233e-03
-4.679410724618295221e-03
-2.117721520453436351e-03
-1.587664376006101604e-03
-2.928320305210905042e-03
3.477541242011960177e-04
2.352665345699402576e-03
4.705984651485950118e-03
2.777488017313016304e-03
1.758869101285681592e-03
6.205780598556542155e-03
2.777392801551497540e-03
-1.767802633794136923e-03
3.079449456909282273e-03
5.654679269983646679e-03
-1.351204871359772478e-03
-6.065443265317949258e-03
-2.954635806585129143e-03
-1.496459271092384549e-03
1.986417894402846360e-03
6.881224404047625240e-03
3.010852989343428422e-03
-1.624513601810165676e-03
-3.165639796928167594e-03
-5.037058144778439744e-03
-4.073711405274303525e-03
-2.000415511994390206e-03
-1.495653673166326067e-03
4.284943982436012575e-04
4.824727563766163102e-03
3.740230185023796401e-03
-2.033986098267589592e-03
-3.077438828906531136e-03
-1.166361037773974143e-03
5.379630914311224650e-04
-3.021501741506290618e-03
-7.568071414704570163e-03
-2.406128436571924878e-03
2.163340240249515736e-03
4.183301812807853522e-03
7.300784550112907750e-03
4.952205922353140367e-03
1.548633034435588710e-03
-2.260790891431217406e-03
-3.573501736384572438e-03
7.356487488110037510e-04
1.285400050156140003e-03
5.577135116790084540e-04
-1.834091409906138425e-04
-2.807335693582597817e-03
-1.782995153116473603e-03
8.894268178391509126e-04
3.508007321408500561e-03
4.087355691692078595e-03
8.371995944420021919e-04
-3.691219258183736033e-03
-6.576501086956141294e-03
-3.439567922846709785e-03
2.005648130390614767e-04
3.022636635827498711e-03
8.298489570879499094e-03
5.365086075148024769e-03
-2.132976273257369826e-03
-2.140328738097555666e-03
-4.615568019285008284e-04
-7.923188011854226647e-04
5.711991904869303648e-04
1.436857499618037198e-03
-1.223034407462878122e-03
-1.212279199689355680e-03
2.731521734235430043e-03
4.287113150286460742e-03
4.873024336200460806e-03
3.462957705379539515e-03
-3.625671655663886698e-04
-3.667142695264434104e-03
-7.397288078237037635e-03
-6.544441568837395390e-03
-2.196536864465986442e-03
5.841374075465335025e-04
1.897165702768286192e-03
-1.101772642427987538e-03
-2.899348306556464618e-03
-1.520099161159202319e-03
-2.649304942863268692e-03
-2.950667184107709680e-03
-1.334485893969762638e-03
4.753343200132508699e-05
-2.139212162167250693e-03
-4.712518422528452072e-03
5.501042199488354479e-04
4.373277241857846317e-03
4.000693959072586584e-03
5.561450354356074766e-03
6.001105713765785910e-04
-6.031275345220843236e-03
-2.212806625528707712e-03
3.427509028002652738e-03
4.425635015842869363e-03
7.529795994221499117e-03
9.079618603581845332e-03
2.306937911705094889e-03
-7.247857289369566197e-04
2.523459042132543146e-03
1.500609513081723346e-03
9.322111942188677234e-04
3.285367591403773367e-04
-3.371001040769639173e-03
-3.345153580648871014e-03
-2.093537830396344918e-03
-2.248732329859103821e-03
-2.063538730865822901e-03
5.114357967163718835e-04
4.528908206450263894e-03
3.220469480806856678e-03
3.917351511107806700e-04
1.392667283092390018e-03
4.213337706461710470e-03
-1.592408506624571089e-03
-1.899034563503509618e-02
-1.794997523252713986e-02
3.761676114332667613e-04
3.300938361129037053e-03
7.341484133020332280e-04
8.930370197399578863e-04
-1.003062509328368638e-03
9.022519648793387182e-05
-3.646567195108758441e-03
-7.608871177266392227e-03
-5.568714331769680954e-03
-2.254494618199567174e-03
4.428434933277266422e-03
6.126768514585730248e-03
3.973309843503911205e-03
4.819762081517174959e-03
2.934704354384545365e-03
4.289126206968777930e-03
8.810733442102206686e-03
1.047102981762293786e-02
1.289069799503762825e-02
1.207727152935331692e-02
7.266755871851542092e-03
3.511919308415320691e-03
-1.404411107209039330e-03
-7.025037274887112673e-03
-7.226510448593273864e-03
-5.341226854087045145e-03
-8.558398651753073433e-03
-1.245653750616712400e-02
-1.403399221675737281e-02
-9.978377236461615993e-03
-2.895694929912798112e-03
-3.338764982317583754e-03
1.560764296149097291e-03
9.100953196942514548e-03
4.266181497664903177e-03
5.200668960194537900e-03
3.827182888847866123e-03
