1.522286246467401474e-02
1.787572173484784643e-02
1.255746802233455826e-02
2.096608039184397893e-02
1.763481454066537918e-02
1.522652262378160204e-03
-7.536398481405493302e-03
-1.343577442163100023e-02
-1.782149352347241547e-02
-1.036300287582263627e-02
4.320796376419376583e-03
1.289663368857695870e-02
1.751538854460472569e-02
9.043752203565595324e-03
-9.952697489374804501e-03
-9.328725711597988385e-03
-7.614942786242097014e-03
-2.615052954583247866e-02
-3.546353914343394753e-02
-2.818454405068709229e-02
-1.664267227572567565e-02
-2.496677909603406582e-03
1.393743392063861476e-02
2.383999704756731286e-02
1.491692891621571385e-02
5.807503205535450089e-03
1.004870735643291144e-02
1.390513591145973483e-02
1.570756796777016476e-02
8.790601741057765817e-03
-4.895702935968224839e-03
-9.907201708173702867e-03
-1.494710885560234480e-02
-1.963355057915321111e-02
-1.014696447780961096e-02
5.576956560360796927e-03
9.795954261759954804e-03
1.801308233268892212e-03
-1.659303113757576919e-03
7.497033058135044040e-04
1.440628079732437453e-03
5.493310505568242165e-03
9.579415209687689933e-03
6.507429655572687620e-03
6.858048302663287605e-05
-3.043780632862014366e-03
-1.079908721425536363e-03
3.017334495300026242e-03
8.193454423608491355e-03
5.934681138197501864e-03
-7.022421125734551288e-03
-1.297520585618996795e-02
-8.963394768329559226e-03
-5.931406897649316168e-03
-1.866517275140956505e-03
2.871505073309203650e-03
3.420895173918575474e-03
-9.274510218755735447e-04
-5.491327823703926955e-03
-3.646788377738722445e-03
-1.343870790050080526e-03
-9.980686334625254487e-04
3.967320561939872113e-03
6.692204858423611916e-03
3.783022080238548478e-03
-1.824075158246308561e-04
-2.126099524576601126e-03
4.316385718546970028e-03
1.022454706389310485e-02
6.492594044239555565e-03
7.511226457614768532e-04
-4.092432901269162614e-03
-4.448498245551453685e-03
-5.507123803168019992e-04
3.289484610633605817e-03
7.569027702770275874e-03
5.370400491570533411e-03
4.001485860878879839e-04
-1.151194555721593007e-03
-4.995986125223142622e-03
-8.256823307738882928e-03
-7.835212136636293678e-03
-2.897475442358047812e-03
-2.319159294602111693e-03
-9.877654686418905691e-03
-8.723941360127263761e-03
-2.245753823796341111e-03
7.044499243366596913e-03
1.615196194027148854e-02
1.214066471766963966e-02
6.908805978011711181e-03
-1.376800887177734994e-02
-3.638976467680009319e-02
-1.267392465136270123e-02
1.104237106254539122e-02
9.060859373186019514e-03
1.426552099317231551e-02
1.024385971989956456e-02
9.041485173407535873e-04
4.928324254760759349e-04
-3.657364667227269500e-04
9.885476452129995581e-04
1.470998417975189019e-03
3.338467914781098004e-03
2.101666852162752119e-03
-5.164916063595941312e-03
-6.252691894222509733e-03
-4.442438019962084879e-03
2.622261999672572882e-03
3.375446722718896710e-03
-1.071841016983767110e-02
-1.130046381961238508e-02
-4.733022054989995879e-04
8.384658893273670005e-03
1.381071045326297264e-02
1.076153668487179159e-02
1.098659380677402715e-02
6.385947810445668366e-03
-6.992125918745682907e-03
-9.407413565638705899e-03
-7.793628572181921128e-03
-6.445078502942299704e-03
-2.882516961588531788e-03
-1.792270662654487159e-03
8.044807177426571872e-04
4.870104036988814129e-04
-2.180997139579989551e-03
1.473555165475230831e-03
6.617156047766281288e-03
4.322899261953218504e-03
-2.868503380079667504e-03
-3.877921276531370171e-03
-4.600989662585080325e-03
-8.836231057498681110e-03
-3.666000860690157587e-03
3.834661384094117682e-03
3.281140467559230580e-03
1.392102672416885940e-04
9.513208750210255457e-04
5.357965114875563178e-03
4.368364458241374981e-03
3.734154339890066558e-03
9.074815770918592817e-03
9.079923063411874870e-03
2.696068612092560480e-03
-5.949715113416758142e-03
-8.912535396478585281e-03
-2.783627328354866624e-03
1.180272209198793927e-03
2.871008874122873023e-03
2.285037464646610429e-03
-2.481293050318144483e-03
-6.956811912046200093e-03
-1.175831642410440046e-02
-8.569921212709259370e-03
5.945947723961918664e-04
2.256228265778035310e-03
1.182811898320289658e-03
-2.407861274835792001e-03
-1.005890750360628749e-02
-1.112355305372418612e-02
-1.038235391535937552e-03
8.907122689619037179e-03
5.994945308254615197e-03
2.294019681574264048e-03
5.116697649076666458e-03
2.921710000267311019e-03
7.905968355449356126e-04
4.768581053424560817e-03
8.147973506030999416e-03
4.675352627304404408e-03
-1.677846477409965275e-03
-2.282777589921971672e-03
-2.220746202876572751e-03
1.091371521208230923e-03
1.102429052669621698e-02
1.343312672169535114e-02
8.048220370046186428e-03
6.331344484248280181e-04
-5.266231525495336172e-03
-5.225229399622791093e-03
-7.009387786552275304e-03
-6.714887760713339655e-03
-1.566169484519038023e-03
-6.702616314542917536e-03
-1.415816493417391617e-02
-1.018168219892093967e-02
-3.245688354705976875e-03
2.404334365025940622e-03
3.292910578442535645e-03
-2.695480288288693797e-03
-2.297665258141027601e-03
4.337106409719775763e-03
6.761500767038932519e-03
6.988344039539851928e-03
6.591303680309850734e-03
8.548989003742898246e-03
5.888516596661981864e-03
-7.308820204380982351e-03
-1.171418562353893772e-02
-9.340973807192736941e-03
-7.247685893829043137e-03
5.081386315164876204e-03
1.178410988800869356e-02
7.133697044590640683e-03
1.327454829286408471e-03
-1.004011284104325535e-03
7.768733308961585371e-03
3.468505246839696451e-03
-1.370915956755349406e-02
-9.228264142345440901e-03
-1.934960482646630019e-03
-5.883224896511697610e-03
-3.837700983165953043e-03
5.741444898237390345e-04
2.328373351525287946e-03
2.788330838167758178e-03
5.921175566048894265e-03
6.820942439404717450e-03
-1.352371306325829284e-03
-4.377895286733967002e-03
-1.057138747704235984e-03
2.491285464220940535e-03
5.993177790481992936e-03
-2.988985288261645015e-03
-1.549097185080279722e-02
-1.079925561510743093e-02
4.706651676125145518e-03
1.346320648136309708e-02
9.932995284836746222e-03
4.921644813263968514e-03
2.187321166163780101e-03
-2.573943012941443467e-03
-3.487182360503194266e-03
5.808541543335073512e-04
4.533166311774111668e-03
5.886738982714963091e-03
1.824753519243058628e-03
-5.026911928901442971e-03
-5.843552440225802114e-03
-8.458761546589785123e-04
7.622196335070408404e-04
2.239370194918622551e-03
3.298216732077779555e-03
-2.398620033721195286e-03
-2.386162231349457218e-03
5.205780889314265154e-04
-3.302308014702621392e-03
-1.632589439080631057e-03
1.092650612662515253e-03
-1.391928515662864147e-03
-2.850103746659700312e-03
-7.410805849877527204e-03
-1.099092872825814353e-02
-7.827753152100208958e-03
-2.564346310745067165e-03
5.069576794790657884e-03
1.134518295900195650e-02
7.069069535628946452e-03
-1.150683213787053382e-03
-1.319717583335758152e-03
-1.995382371657000015e-04
-1.332262347021991944e-03
7.927336993666224494e-04
1.579557226451945616e-03
3.480898809494545462e-04
-3.295654957175001010e-03
-6.182102243042710173e-03
1.030088051605718364e-03
7.291980971962571181e-03
5.979571196879435863e-03
3.214534482959100891e-03
-2.561396155722863062e-03
-3.142472485380388546e-03
5.223418216911644534e-03
9.250321832309288048e-03
7.301857233862235272e-03
4.664783350979066594e-03
-3.298495758697881242e-03
-8.008372166219785912e-03
-1.253780934478822631e-04
2.443578605583209950e-03
3.351277837401484688e-04
1.684280570817721888e-03
-4.259988450006159215e-03
-7.755958078735893969e-03
-8.803598997744155677e-03
-7.806811120541073956e-03
4.332055252652304046e-03
7.743341119815058855e-03
6.790269036489450169e-03
3.976756314032759559e-03
-5.561822859379996105e-03
2.125216084049167450e-03
3.671702559853218251e-03
-5.473545715987008196e-03
-2.608050246350925548e-03
-1.441130522114160775e-02
-2.005694221798940552e-02
-1.339861390605628271e-03
5.692200563179315373e-03
5.853610291597024715e-03
9.111853816222245661e-03
9.844216174514575785e-03
7.123647531659382630e-03
1.866839675099070308e-03
-7.317990779632259270e-04
-7.771141987176998639e-03
-6.554091304695294773e-03
5.663800090236414779e-03
1.521861050269586240e-03
-5.575706778163379805e-03
-6.008905793856086051e-03
-9.403319917913119039e-03
-6.074957746437212357e-04
1.044767683456629750e-02
1.021061355253862803e-02
1.061894502417071520e-02
5.570471355277248175e-03
-1.651309816796119132e-03
-7.139711456558908709e-04
-3.868126031580433524e-03
-6.707339950829586603e-03
-4.216394820137619320e-03
-6.173317097018435166e-03
-4.915435967611346199e-03
-5.001624663160731711e-04
-1.778329159130834691e-04
9.402127196170118701e-04
3.581508020948755491e-03
8.221617992606879144e-03
9.009076868730290372e-03
2.117067434623418672e-03
-3.955909446240373287e-03
-3.062821288116637179e-03
6.624998379893900190e-03
9.891060336639593067e-03
2.476406433587997110e-03
5.540108374883160724e-05
-3.595447876490182396e-03
-8.175306392325769334e-03
-5.083724759954756645e-03
-2.572787158732685840e-03
-2.799723187425919458e-03
-3.819280961555461540e-03
-5.585919355588162168e-03
-4.682558428856438068e-03
2.561374054465947753e-03
7.642877105319369722e-03
1.065116072782863917e-02
1.414154181501491546e-02
-1.116099215017454967e-02
-3.133044413332378847e-02
-5.584705005056654452e-03
-2.036374566776693424e-04
-9.514438680396260228e-03
1.051877375981882974e-02
1.434077816718302631e-02
3.560767838979011536e-03
1.709003276412170017e-03
4.385961646038820383e-04
1.022496703399079776e-03
-2.281466735850385188e-03
2.477110418289288872e-03
7.952283716102220151e-03
-2.524202687061623436e-03
-6.023610767770356395e-03
-3.780608061008469949e-03
-1.296069238928029008e-03
4.876239163146738401e-03
2.603221914548814030e-03
-3.169865586099474735e-04
-1.460440082194777809e-03
-5.603966394302019143e-03
-3.309808167933155684e-03
4.415482744726009247e-03
1.177899062239399879e-02
1.263434852603644021e-02
3.195576293174002755e-03
-4.687154005700243029e-03
-1.305193378223103509e-03
2.454370714884860499e-03
4.568741547528163186e-05
-4.646924620291225912e-04
-2.872479920836107283e-03
-5.246323873884846216e-03
-3.946840763063917679e-03
-6.702831858631547179e-03
-2.206414967431543587e-03
4.790252828846950327e-03
-5.668453834616899844e-04
-6.636180899066350218e-03
-9.461720760115035003e-03
-2.967123821618971539e-03
7.175944138874219488e-03
5.301906877653474529e-03
5.595335479146977195e-03
4.179029326613167838e-03
-2.453164791479152049e-03
-1.045198667962417586e-03
-4.200568912727462197e-03
-6.251856659319241644e-03
3.154517691028790524e-04
4.302270400006382584e-03
7.753909301150954669e-03
-2.854052134672378327e-04
-1.167127659359652216e-02
-4.201520132244551502e-03
4.396180754675179519e-03
6.107824933984323454e-03
5.171718938022444936e-03
-3.609953605344891348e-03
-8.146772347548196860e-03
-3.338384345380899457e-03
5.069001962980902113e-04
1.191158280930256158e-03
3.618802973316421773e-03
7.310454565055576198e-03
2.974079497796435715e-03
-3.512520208586816968e-03
-2.759330394336589800e-03
-2.702277475745934292e-03
-2.892307085593579311e-03
5.412640866069788181e-05
1.807047762822214243e-03
1.615375917254926585e-03
-2.530350711685816403e-03
-3.739276892482188992e-03
5.726109111263756948e-03
1.482535875849311582e-02
1.783259005727540897e-02
1.592371832697738257e-02
3.871893811911645503e-03
-9.211116283673641963e-03
-9.254027626117631439e-03
-3.143808422297614952e-03
-2.875808273274677181e-05
7.422223655143438993e-04
-3.417950274314733583e-03
-9.442549077203269553e-03
-1.001663629038629377e-02
-9.267333885208648564e-03
-8.043899104073552048e-03
-2.569162128163247211e-03
1.840035571462208565e-03
-2.313937806950519657e-04
-8.308971552688310114e-03
-1.204750964711565758e-02
-3.441253094534477489e-03
4.668507232463504734e-03
3.376107977824701137e-03
-1.178971497236164147e-03
-7.165302759387473172e-03
-9.814832935016120849e-03
-1.325019694006446258e-03
1.046193160938185991e-02
1.465945169441803392e-02
1.615396095880450994e-02
1.489391254973523523e-02
5.612579561747226345e-03
2.281555634457552682e-03
7.048382665734913115e-03
1.961508422309903021e-03
-7.592160722725273432e-03
-4.417877166885255356e-03
9.004810137781749796e-03
1.698442096556239400e-02
2.013226107188310562e-02
2.302109608176348618e-02
2.647435576803989186e-03
-2.575373085585663455e-02
-2.092576557073955873e-02
-1.318834512180516554e-02
-2.766655440829980661e-02
-3.315161416200435723e-02
-1.552266382989588890e-02
1.045415186547705641e-02
1.843676269992631372e-02
7.942982994900827862e-03
5.176097093526003511e-04
-3.325756356775708827e-03
-3.261476444702556595e-03
-1.233011236084156784e-03
8.090877552275160508e-04
4.292263370394852964e-03
-1.169678597531174013e-03
-4.277004115166181328e-03
-1.226252262519259093e-03
-2.623749760427954202e-04
7.622824476216614152e-03
8.246310972994018440e-03
3.919255393995961685e-03
6.381448533611733427e-03
8.836887740160666131e-04
6.089273479297196414e-04
7.591953754500802357e-03
1.148687313538348381e-02
1.527281683356172814e-02
7.097370059282241857e-03
-9.246509226257671864e-04
-4.943583576675149131e-03
-9.109474219868820416e-03
-5.027438719535157544e-03
-1.899169079738339053e-02
-2.765569099301382408e-02
-2.971184182956484142e-03
5.415321032364806865e-03
-1.458878488293842033e-03
1.934453249533292073e-03
4.803026399962357675e-03
4.810944795634070070e-03
-1.815250237872804214e-04
1.210446726361152654e-04
2.163742062768517563e-03
-3.336865051844760312e-03
1.829143101753948454e-03
7.599773918832482961e-03
4.581251799248401563e-03
3.400454245019507524e-03
-1.178230641784328752e-03
-3.972566978161752409e-03
-3.713906618219612113e-03
-4.039437798428715393e-03
1.115548457360737667e-03
3.176036518609850513e-03
1.355179498296812425e-03
2.102228636425004099e-03
-4.262565447410918812e-04
-2.598506428594746925e-03
-1.354266493496199437e-03
-2.397724611889833456e-03
-4.176194497019917670e-03
-5.442316709308024636e-03
-5.929893281656064240e-03
-2.108774526793556151e-03
6.891962443992139670e-03
1.815056082567460816e-02
1.777353925890893041e-02
1.304151991853744240e-03
-9.942719599441865105e-03
-8.237299772889422611e-03
-6.245558727424173426e-04
7.074021699369734649e-03
5.288694665796189916e-03
1.860444555712518263e-03
2.333652420787464630e-03
-2.129598218782896655e-03
-7.202226610825296534e-03
-6.635789413644002308e-03
1.797121581485738515e-03
6.170804194138907427e-03
-4.583129526708685370e-03
-9.612283903348683295e-03
-3.465687914052200964e-03
1.138395582545269130e-03
4.591671740787329342e-03
6.154758755738608603e-03
7.029903054935042299e-03
-5.247571824470659632e-04
-1.265474352986088041e-02
-7.584905062733707411e-03
-2.973150294225247281e-04
-3.793974581258181648e-03
-3.855978553555778395e-03
-3.049892844576508784e-03
-3.402584471303950892e-03
-3.542410770652028914e-03
-6.987773477845208789e-03
-4.419644481894357234e-03
5.108213857140352955e-03
9.476550373914987765e-03
9.771438575202278515e-03
8.897892254389895561e-03
4.726639465922493656e-03
5.889541188095277942e-03
1.006717179519708849e-02
2.175371046566710286e-03
-4.366653544238640987e-03
1.181623936262261431e-03
-1.607202582633572097e-03
-8.942920066948092939e-03
-6.418641726760117468e-03
-5.338493962690041977e-03
-4.122360015789886152e-03
-1.486312913212304437e-03
-6.656287069916274474e-03
-7.615501103754277953e-03
-3.736850204946707936e-03
-1.768788078271459931e-03
4.789075431029981081e-03
7.814490048275949535e-03
6.693941032868190935e-03
4.314182944456684474e-03
-2.749850775265718673e-03
2.730994770202540244e-03
1.619814439346355453e-02
1.898832826198049509e-02
2.014352154629046529e-02
1.824302250486697918e-02
6.806841389762374392e-03
-2.959211061564272563e-03
-4.050186233340244586e-03
-3.423054455681928416e-03
-4.479259830574763672e-03
3.359683132215173732e-05
-3.208883618888688826e-04
-9.678371776451784661e-03
-1.203667507970099075e-02
-1.216307768362042026e-02
-1.152438565845169578e-02
-9.915439627282914697e-03
-2.036651220067434154e-02
-3.325972705171791055e-02
-3.729615787023821821e-02
-3.418257985786293113e-02
-2.596906700363773787e-02
-1.559450545902828222e-02
-6.920535704040834324e-04
1.055377095538332678e-02
1.319670575287496157e-02
1.843246768038355951e-02
3.065807422423293474e-02
4.639780342456725770e-02
5.001939472461137265e-02
3.527860387031920425e-02
1.782596490569102535e-02
4.687168844061974197e-03
-1.910814298135507863e-03
-1.351678159736418574e-03
3.827082893067137049e-03
9.114509927112797796e-03
4.899912659705170891e-03
-1.491390658019707723e-03
-2.403413039270736046e-03
-2.091183364464816764e-03
1.183234497480631798e-03
5.895710535562285136e-05
-5.758028530041377213e-03
-8.173193167140654219e-03
-1.538569689657465385e-02
-2.311916562118506227e-02
-2.388905301055088345e-02
-2.388781250484411228e-02
-1.754791852865430005e-02
-5.874330939178737908e-03
1.106664229485883029e-03
8.742138345992677209e-03
1.463499916756928407e-02
1.048640465365978554e-02
7.486071992054658432e-03
8.622408588933001133e-03
5.348785626040260428e-03
3.448463147081538057e-03
1.558017129544981812e-03
-3.815874875026144123e-04
9.548741091140995271e-03
1.403040380865479622e-02
2.467626762018572915e-03
-7.763689123705333137e-03
-1.923126485167538438e-02
-2.901604409475833091e-02
-2.914094214773950073e-02
-2.731693558479742975e-02
-1.878045796535448425e-02
-5.067063270877919176e-03
7.392127195540631503e-03
1.892371654347372797e-02
2.132363749425556995e-02
1.568591169737044641e-02
6.091782995954935290e-03
-3.842793024936632675e-04
4.832529918808196531e-03
8.762214750728511414e-03
6.994562795074937486e-03
6.601012666836201560e-03
8.788758675689567479e-03
1.330834307669437853e-02
1.345406028524669811e-02
1.288644288412071730e-02
1.222339136587729212e-02
4.097410903073892691e-03
-3.109469792940977757e-03
-5.183365985042856852e-03
-1.923393898967002639e-03
4.553497762609424494e-03
4.324017673955998960e-03
-2.041869725977084847e-03
-8.658129301010430642e-03
-9.701562730995748687e-03
-6.893076520202191804e-03
-7.863002088140731705e-03
-1.332568180957049118e-02
-1.881788706515841528e-02
-1.744862586427268353e-02
-1.597663102370655216e-02
-1.351169677488922236e-02
-3.269878640690375253e-03
2.913568853157535998e-03
8.789471836984977943e-03
8.644949273826713770e-03
5.514945684836974286e-04
7.365542808944951052e-03
1.614295033460907275e-02
2.483751342576562271e-02
2.997581226594470821e-02
1.179794876621998410e-02
-3.600787591536226077e-03
-2.413114242375330801e-02
-4.315349234695876196e-02
-1.640691523841402918e-02
8.289890697783753801e-03
4.883377933150446180e-03
3.307018064691824924e-03
1.075494586860065074e-03
8.185129000093240709e-03
1.735512002739961201e-02
1.887041979018177704e-02
2.347649381503976937e-02
1.190222290380148901e-02
-9.669495839319877661e-03
-1.896075767670831261e-02
-2.700231932286031172e-02
-3.171835806301332578e-02
-2.106470171230338806e-02
-6.712770848923756660e-03
-6.388349477563749594e-03
-1.309720803718124847e-02
-1.240657978130622723e-02
-3.439798905474716461e-03
1.413473212534690181e-02
2.688730112454335366e-02
1.930801125527607451e-02
3.761016806880186202e-03
-3.633720585061681833e-03
-2.175319078963352127e-03
5.128023882022831291e-03
1.741207694527116198e-02
2.779511988181211993e-02
2.724987893929658664e-02
1.823743890934813663e-02
1.056042523029277272e-02
9.477482197897417818e-03
7.680559238352348272e-03
4.605606808935189169e-04
-5.575569097339255417e-03
-1.141176764594999983e-02
-1.725382136899747051e-02
-1.850323359254309533e-02
-1.899802477933189987e-02
-1.776320422262438886e-02
-1.018993345641155263e-02
-2.204004444671078897e-03
1.319039321260134963e-03
1.368294920716793105e-03
-2.910790735473131521e-03
-6.328665060638723888e-03
-7.063649258261622127e-03
-1.360609295298853376e-02
-1.769996762657563907e-02
-1.658175360841883383e-02
-2.221248739289191643e-02
-1.858137802763241628e-02
2.115890694461084603e-04
1.549441700883767183e-02
2.851630414349219309e-02
3.556932877623420614e-02
3.451726612238498887e-02
3.555191401849849830e-02
2.318017721455410685e-02
-1.173761764149371112e-03
-1.199594811197876761e-02
-1.887190814897321545e-02
-2.842718394377825170e-02
-2.660818073481970372e-02
-1.780021817631886882e-02
-4.309532423211658893e-03
1.036468185721793611e-02
1.507045177922072647e-02
1.619639635925821178e-02
1.480818384753894434e-02
8.001351902564818319e-03
3.148505877801966325e-03
-1.994767501050519372e-03
-7.085265777229628192e-03
-7.451168919989023531e-03
-5.241099276649750782e-03
-4.054790609429809525e-03
-9.012164801350490764e-03
-1.250920798880416664e-02
-7.751748522023544762e-04
2.149455420236354858e-02
3.621534299378744576e-02
3.097209269695326561e-02
1.672044571392346940e-02
8.187211630988840833e-03
3.670850186571134651e-04
-7.434366982301644083e-03
-9.605068048786493534e-03
-1.244051612319901912e-02
-2.005506683951114449e-02
-2.861294065343660681e-02
-3.577819783854295499e-02
-3.784795653191055237e-02
-3.242250094660970722e-02
-2.075381105395125714e-02
-8.857989161095172065e-03
-5.568892813596676775e-03
-1.670306773178062898e-03
1.115085317165312277e-02
2.003481610886456363e-02
2.399316098807900005e-02
2.499000141519592058e-02
1.837312152834462420e-02
1.191125984110659279e-02
1.051316501624084687e-02
1.519254081650899674e-02
1.984838923383883472e-02
1.956379219825016627e-02
2.238269315769383927e-02
1.788958284570920515e-02
6.009923346890962484e-03
3.053331875620589764e-03
-2.641979452345966702e-03
-1.044503572946575351e-02
-6.370133950207653058e-03
-1.011140717857069143e-03
-4.745108881960121740e-03
-1.159428293134644357e-02
-1.108253735880681233e-02
-8.782190855852436279e-03
-1.143428455119192312e-02
-1.388182448259732416e-02
-2.023124836992309591e-02
-2.684165529286036689e-02
-2.861194532555632122e-02
-2.657349276366635302e-02
-1.122659166558550095e-02
6.153665241637044578e-03
1.254767000253519289e-02
1.384216089876237447e-02
9.336760990331986060e-03
1.317263314600366532e-02
2.787549075153553796e-02
2.821044084099986332e-02
1.977697044739681886e-02
1.703282522017347117e-02
1.248485171888525334e-02
6.495302184976799176e-03
3.891179771227967592e-03
3.381546570602027898e-03
3.018668245629442526e-03
-9.118363788930746458e-04
-8.429801044660671649e-03
-1.675001090147736765e-02
-2.883368629771389247e-02
-3.906294598104826515e-02
-3.418463881457881048e-02
-2.077447140735337941e-02
-9.527536249060190518e-03
2.006999775698999153e-03
1.356935567022022823e-02
2.104528791684244851e-02
2.229884020489233259e-02
2.088967874708455574e-02
1.720447747426792628e-02
8.299733168138419964e-03
4.357947637684955874e-04
-4.977088179872199772e-03
-7.969218031203147840e-03
-1.429045742874503330e-03
1.032995963268272706e-02
1.399930565606503051e-02
7.364406419391952147e-03
3.599141992941694724e-03
3.523374823105270264e-03
1.300651343834176733e-03
6.873276655734773984e-03
9.786602796735988097e-03
-5.796699468491881349e-04
-8.713197146640106958e-03
-1.522918262058402077e-02
-2.190680161929078537e-02
-2.438851621114277932e-02
-2.475809558115743894e-02
-1.842257280689571161e-02
-1.215898289401287635e-02
-9.468773841998826338e-03
-1.624836095562930995e-03
8.115472313363951418e-03
1.875151594451649265e-02
3.157892684487585006e-02
4.302633399458952873e-02
4.917477126531804438e-02
4.670080982327155100e-02
4.084789280450810967e-02
3.666039265622520610e-02
3.382220689106982953e-02
2.593869499224702932e-02
8.536999032948515420e-03
-1.108753436077954818e-02
-2.987374467217720694e-02
-4.700243370651975561e-02
-6.293457970782058430e-02
-7.618137493730900434e-02
-7.932101122124576853e-02
-7.799292220947862120e-02
-7.196743516120797379e-02
-5.608895184866331818e-02
-3.410888636533542656e-02
-1.234115433390020307e-03
3.397153490853789537e-02
5.371651425075051750e-02
4.535318304735003192e-02
1.996860773880800369e-02
2.875575105431979819e-02
5.932640679876200612e-02
5.420070304791289179e-02
2.767300808136481660e-02
-9.499593380830049540e-05
-2.460967767535194098e-02
-3.544617147114637046e-02
-4.043728237623064187e-02
-2.462368054626660335e-02
3.062220013793424782e-03
7.331157072015796576e-03
7.652996029089249690e-03
1.678780139339657723e-02
3.022835872868308987e-02
4.939081749699783530e-02
5.404138875758907057e-02
4.597435077448450841e-02
2.796374131868635884e-02
-5.880240522353839122e-03
-3.243923466094016106e-02
-4.904697523805283399e-02
-6.290812149579025347e-02
-7.126902349081562504e-02
-7.453349435772368969e-02
-6.044518920702923737e-02
-2.710887165474124352e-02
2.781526052037978577e-02
8.892559213617827474e-02
1.276072783122541576e-01
1.567737166909501934e-01
1.522014063059867195e-01
1.012988465631864121e-01
5.823342518735108442e-02
1.508001210975142004e-02
-2.283714318578797253e-02
-2.833350718268123208e-02
-7.096026339990292586e-02
-1.647128965866995476e-01
-2.170976477566350926e-01
-1.942237934303623625e-01
-1.406409903987231869e-01
-9.092509277270269252e-02
-4.635384078323864787e-02
4.233513726118002043e-03
6.412344503714174915e-02
9.660905068704365994e-02
9.958496496622194771e-02
1.250219094735955938e-01
1.325874587417653627e-01
6.687464955078281648e-02
-1.620969944336532464e-02
-6.726902472373778863e-02
-9.276077457245249236e-02
-8.837211126343622047e-02
-5.773927008809263961e-02
-4.393042295157871535e-02
-2.213752440896876728e-02
5.969281019510768588e-02
1.043706253641962789e-01
6.323385944598956809e-02
4.393203304669617004e-02
5.871613370256228287e-02
3.332811795148198086e-02
-4.246905723369027302e-02
-7.223052211994128446e-02
1.708643022964331445e-02
9.706421608101950538e-02
9.080988097945433268e-02
1.014594905118496454e-01
1.032043313352043190e-01
2.318037768412480049e-02
-6.656583001016443124e-02
-1.354457371513748398e-01
-1.880917098176222713e-01
-1.683950333657024956e-01
-8.633738340680194301e-02
7.735766598353217924e-04
6.280156269171213723e-02
1.081067838087349797e-01
1.835591801548168145e-01
2.100077577701902343e-01
8.752066777622796723e-02
-5.687476602067033371e-02
-1.082785450215268674e-01
-1.161471782283951398e-01
-1.234519663358647212e-01
-1.257610168090784464e-01
-1.015321081540150466e-01
-5.968642892559011814e-02
-3.251226590122874294e-02
-1.795918748373637880e-02
-3.047453640578583547e-03
7.573351681599844142e-03
2.274974153015804808e-03
2.233225445548145047e-02
9.394171021938081678e-02
1.340116635754333985e-01
1.078628048620111357e-01
6.377194955354713313e-02
2.342193194305483561e-02
1.801114156917698380e-03
-4.938812755629689785e-03
-6.242526763763418807e-03
1.958738883769101102e-03
1.786128639257131929e-03
-6.779399770135017579e-03
-6.712062062564048102e-03
1.207827736092026384e-03
9.719313906594239175e-03
9.362820221222071040e-03
5.432448333994320359e-03
6.987015884106427023e-03
3.232422410527962739e-03
-6.699989165095826711e-03
-1.003915050461566365e-02
-1.278162718901404427e-02
-2.031673596570057402e-02
-2.278239110670901221e-02
-2.451366630982962022e-02
-2.913405847575785759e-02
-3.267805881144646846e-02
-3.816557984371869716e-02
-3.335073599193690702e-02
-1.724104358306539908e-02
-9.647328177445195843e-03
-8.960708307711187648e-03
-1.040447541826640745e-02
-1.213832349136813142e-02
-4.647950473308217791e-03
5.114464966916940601e-03
1.039895512448938027e-02
2.138451570909848110e-02
3.345685439192263438e-02
3.337895981742977636e-02
2.903612787590542296e-02
1.851235060093077422e-02
-1.937287986133791589e-03
-9.049943232216721943e-04
1.888410392658365633e-02
2.184483368348918292e-02
1.817082139179740721e-02
1.920095929597981713e-02
1.681679101176897922e-02
1.852810569533445278e-02
2.369671126680159348e-02
2.282901503586119360e-02
1.319995832373061992e-02
-1.718066411669158479e-03
-8.909365561178756929e-03
-7.240028727135991091e-03
-9.059894600451125213e-03
-1.220128005222924188e-02
-1.277146774224059526e-02
-1.882429441757181576e-02
-2.444819584384349057e-02
-2.229658484168590277e-02
-1.857392549855616318e-02
-1.244676647322213309e-02
-9.518593737005502306e-03
-1.366636779968679986e-02
-1.533346905563775196e-02
-1.755551891275852067e-02
-1.589147260584841334e-02
-5.728981050684885286e-03
-5.350620570918516398e-04
3.719212749349196036e-04
-3.061578440965975669e-03
-1.353279490102139888e-02
-1.919634997611905161e-02
-1.658405220013220785e-02
-1.091693375845239136e-02
-5.669800965297333399e-03
9.474310561811962947e-04
6.673424218937165121e-03
5.888167231971744471e-03
7.493806095528340004e-03
1.459690584164160740e-02
2.044203285001370760e-02
2.240305621004274120e-02
1.876510546014171707e-02
1.328383635173830887e-02
1.001285933666384506e-02
1.406784580129469275e-02
2.248892019771522865e-02
2.350579911173875450e-02
1.996180110717800729e-02
1.341635406230440482e-02
2.848372781117775553e-03
-1.704258987577071064e-03
2.623239434473831778e-03
4.673700839523346924e-03
3.386635768103077922e-03
1.054804272049756145e-02
1.077235076287936730e-02
1.172336908840067391e-03
4.318030988295556115e-03
3.214519267725113229e-03
-8.095608438584898231e-03
-2.322408473100790946e-02
-4.439539252392330632e-02
-5.382756592225554360e-02
-6.371983679811676904e-02
-6.075854256726093833e-02
-3.768762554753916222e-02
-3.541169936919005140e-02
2.185420882318890243e-03
7.024068695718040101e-02
6.694357344431713097e-02
3.365377962815582769e-02
1.649864967302627425e-02
-1.217759453580317302e-03
-6.766818863496578892e-03
-1.031287561384853883e-02
-9.526268046609630280e-03
-4.202541155099476407e-03
-2.255664293772611812e-03
1.350404739788554215e-02
2.356287784784732303e-02
1.848428329813074991e-02
1.874383972761897721e-02
2.290878847203053209e-02
2.660651798518842703e-02
2.369548748561340484e-02
1.290571238936045161e-02
-2.439243443285994510e-03
-1.795624358448030464e-02
-2.818626009647579728e-02
-3.594676185123132917e-02
-3.091796001858615472e-02
-1.558196670135350743e-02
-5.947527303149621920e-03
2.054630144017002857e-05
3.693677747177551195e-04
5.520399335887765354e-04
1.425786078319027763e-03
-3.772331705606328002e-03
7.665610424085254979e-04
1.272889732719418437e-02
1.392282156053567359e-02
5.405855496006313488e-03
-2.743145633560541922e-03
-5.042785294978418577e-03
-4.764516490813729827e-03
-1.570105181076478272e-03
-5.203250472112519193e-04
-3.081983746587762477e-03
-2.418073019006112840e-03
-7.638125667685640233e-03
-1.266525768537537198e-02
-9.297823034175790868e-03
-8.137102607939601662e-03
-3.863501906455340563e-03
3.116807695562853926e-03
4.727834282830483195e-03
6.849616187114843796e-04
-2.770195633034709757e-03
9.192629430093269063e-03
2.259518267389437271e-02
2.275814591654473293e-02
2.068552161129002392e-02
1.225500747746349761e-02
3.188497325411181280e-03
5.235775871142471331e-03
7.786797279524098128e-03
7.838291835488900988e-03
5.995992621797351790e-03
2.604601413332338633e-04
-4.621002514619098993e-03
-5.292170728514138459e-03
-1.009603716829318102e-03
4.519762538084722697e-03
8.481607542096035110e-03
9.097501283782557374e-03
-6.812535913898984689e-04
-2.100925045754275730e-02
-4.096981403372082498e-02
-4.615004268166948004e-02
-3.824692317980181444e-02
-3.281354720368707956e-02
-2.517693176061309990e-02
-5.433129229975224711e-03
1.902912231712086330e-02
3.725450113468244812e-02
4.144397281521280257e-02
3.298088678333185864e-02
1.243471819336309896e-02
-1.159213872844370996e-02
-1.834787449658146705e-02
-1.710616066592335338e-02
-1.070843517204146320e-02
1.963377089502648873e-02
4.561419762494202390e-02
3.803710892706847063e-02
1.788316144897263843e-02
3.827652054868515511e-03
-6.890135315654999024e-03
-1.472640312946314929e-02
-1.525516358931803575e-02
-2.145830555217109747e-02
-3.345564364084195608e-02
-2.507089492277906825e-02
-1.155487077315715469e-02
-1.516615585337736591e-02
-1.871074157187413434e-02
-1.217149180294599398e-02
9.798161230463226304e-03
3.011555202901021119e-02
1.921305672029229375e-02
1.213898948381161077e-03
-6.961138938157030321e-04
3.397844667821274100e-03
1.242035505098404782e-02
1.846681499012093816e-02
1.674932614822902122e-02
1.694129593514284021e-02
1.656005932267696698e-02
1.738111318622425142e-02
2.405484612158381372e-02
2.156114551275523095e-02
6.800358469411023343e-03
-2.803334739573662936e-03
-7.415487754171599423e-03
-1.361867938338782828e-02
-1.154598425637098046e-02
-3.051446377018263590e-03
-2.307303167231124046e-03
-7.257979834561054285e-03
-1.390627653797647280e-02
-2.313597128708073242e-02
-2.557555523252962731e-02
-1.932179834775871533e-02
-1.393619047055135764e-02
-1.161887414247254023e-02
-1.403037676449883815e-02
-2.359726024192572089e-02
-3.629348782228014603e-02
-3.984155404462645655e-02
-2.675107240599561981e-02
-1.070853084111836849e-02
6.844407376446224288e-03
3.140556403553077663e-02
4.070102552324823125e-02
3.067354812925352295e-02
1.823112321177738221e-02
9.659152545336649812e-03
1.454533318131770274e-02
2.472941322494482536e-02
2.143567478415434741e-02
1.141667159027461714e-02
7.965263008345621273e-03
1.118608913487430072e-02
1.456973822628420540e-02
1.581052233068789073e-02
1.310254974712559556e-02
7.792334489602194443e-03
4.593005025498541477e-03
-1.250873148609903032e-03
-4.181620623891452865e-03
-6.024945050268784227e-03
-2.032802519157037371e-02
-2.963107048965349030e-02
-2.965832270381777575e-02
-3.117866910662518698e-02
-2.425775599363781329e-02
-1.423423881284934835e-02
-4.516903891580279287e-03
2.869432838325078079e-03
1.062139166011185948e-04
5.304766315020221536e-03
1.731196426728031160e-02
2.151349634150967818e-02
2.670646166648105863e-02
3.109521072741320072e-02
2.845704604148790659e-02
2.078320698525768645e-02
1.379130250245223094e-02
1.281442919516390978e-02
1.138120421719130033e-02
4.974490576496208225e-03
-7.295089275958224415e-03
-1.855816875060803048e-02
-1.800747745920561887e-02
-1.282616141873243326e-02
-7.839286639721835398e-03
-7.007352889687882072e-04
4.741792711382013942e-03
4.670747001545235452e-04
-1.719194830837177806e-02
-3.116727961331007893e-02
-3.958637677305638231e-02
-5.444222852768634130e-02
-5.744198343621612773e-02
-5.587687857049583595e-02
-7.017331982765485920e-02
-6.672376352341628791e-02
-4.041741303690760123e-02
-8.133960295160004919e-03
6.552773357433548662e-02
1.409056029477110950e-01
1.258474572537078284e-01
6.455035962301378105e-02
3.028724127137544936e-02
1.520002615563802173e-02
1.360227030399536671e-02
1.676673296965458526e-02
1.896051173104548737e-02
2.123124709283668102e-02
1.130512992690534818e-02
4.109029970280718772e-03
-7.872570297775806358e-03
-2.811502610191093585e-02
-1.044796714451561026e-02
1.517704162139404088e-02
5.811772916795836935e-03
-4.478498201946649535e-03
-1.218281443055049471e-02
-2.203118437661704190e-02
-1.804891912299238718e-02
-1.639242985002216033e-02
-2.378744637503542314e-02
-2.829447633705906365e-02
-3.002909651256886400e-02
-2.585421068283983576e-02
-1.518376761610386837e-02
-7.796595191343468761e-03
-1.424723421820320995e-03
7.183778690180756335e-03
7.408197086159249052e-03
3.640501208741455091e-03
4.959474519748219463e-03
7.596878863356521308e-03
1.378497701240861614e-02
1.758260613811303899e-02
1.197104847149486027e-02
6.100117199445664364e-03
5.304209074310073770e-04
-4.167396631924153924e-03
-1.501540750142444248e-03
-4.524045395448986413e-05
-7.746419149624581869e-03
-1.453188153388631013e-02
-1.277163582048424124e-02
-9.769719442318256300e-03
-6.564140000084738198e-03
1.696291291920721048e-03
1.106896379572110470e-02
1.442719510238180472e-02
7.129670241659122679e-03
1.994741311164722423e-03
9.638601748233211614e-03
1.278904818675833180e-02
9.794219975030524911e-03
1.377462193914535428e-02
1.466226190917505924e-02
6.010957531390889556e-03
-2.462053282798699460e-03
-4.247306274315393489e-03
-8.506100071070250542e-04
4.576382905756966541e-04
-2.993036171364120077e-03
-8.304934388616087154e-03
-1.129167061223610921e-02
-9.164128187255714958e-03
-7.214396911317266965e-03
-6.894294744670785569e-03
-2.372420350535841757e-03
1.960157979313828947e-03
-2.606825542752952397e-04
-3.534925764577440815e-03
-2.870693586263519618e-03
-1.729890807272694425e-03
-8.928808213385700486e-04
3.582220580963044274e-03
4.750008147164550519e-03
-1.025633701857004343e-03
-2.620536215953751108e-03
-4.553782873379950968e-03
-6.955997331429602734e-03
2.662774962452247370e-03
6.802191119868804085e-03
-2.513763243160999170e-03
-4.919676838987459798e-03
2.623975392578332543e-05
4.855604640514722334e-03
8.571269616608369682e-03
9.334589732834854339e-03
6.818807696719267862e-03
1.453409090795792667e-03
-1.865562658994146875e-03
-3.069902874728620053e-03
-2.287333112948184994e-03
2.940371430174024223e-03
4.016875144531041261e-03
1.420609129586918322e-04
-2.449011212175055373e-03
-5.274201655686963121e-03
-5.670422464137132856e-03
-1.169479420907231122e-03
3.899880234944497984e-03
3.888047733230466305e-03
-3.720418743684430303e-04
-3.494078247658003768e-03
-5.555280273973601732e-03
-4.063486753027012108e-03
1.641215280506026081e-03
5.268701513374550970e-03
4.525436585361274078e-03
-2.000734276938561599e-03
-7.465179443933413206e-03
-4.021813180271774889e-03
-1.876698060385781439e-03
-3.374754589305635748e-03
1.914012563634287338e-03
6.566016025647449482e-03
1.475611834689121576e-03
-3.139141841151514567e-03
-3.277325545179989464e-03
-1.025672667443719259e-03
6.100391668115680115e-03
6.804691472503452895e-03
-6.088822581885513108e-04
-2.105720348423027570e-03
-1.546503307354951456e-03
-3.857444162709468966e-04
3.848780621002454751e-03
5.181793441925436859e-03
6.087422348629213491e-03
2.248305466185335482e-03
-4.440378434119976112e-03
-2.211841929292213474e-03
-1.191807428436870205e-03
-2.302041948820918865e-03
2.555581741863908758e-03
3.437949113793048808e-03
-9.026109673843417738e-04
-5.954842709816353385e-03
-9.535785157291896269e-03
-2.926065719199859218e-03
7.256474018182756253e-03
4.857745711250027743e-03
-2.054775057071323366e-03
-2.503800054216938267e-03
-6.975951192193228546e-03
-8.084026835579457421e-03
3.042302944589772920e-03
6.130343980003643244e-03
5.559736647727416860e-03
7.591223826344426287e-03
-1.045938198631867410e-03
-5.259397402282125003e-03
-2.666237467797223822e-03
-1.677762832792693923e-03
5.334355986017043014e-03
5.388940939882422808e-03
6.857652953522097757e-04
1.050791568995633517e-03
-3.068169262766463467e-03
-2.386950179695748883e-04
6.218496674016882678e-03
9.690070383753886154e-04
-3.019281799548705417e-03
-4.559971798778937428e-03
-6.594022766398941436e-03
-2.260534741348594300e-03
4.000350304802553596e-03
9.201751030103592563e-03
1.008780585313623010e-02
2.480147301069606132e-03
-6.745805506583461494e-03
-7.642045818518463166e-03
-2.462187862680235637e-03
-2.593020348796797568e-03
-3.447095843713205050e-03
3.807321653212835180e-04
8.574012618170528868e-04
6.314557762903774164e-04
-2.389485288860219764e-04
-2.065831031645908727e-03
1.937801073132388446e-03
3.086513473267069561e-03
-3.801032884339828775e-04
-2.882381959134122651e-03
-7.342112835544949666e-03
-7.393968610531763928e-03
-2.390926718739450150e-03
2.509053811965367142e-03
5.439216369465070706e-03
1.221948884174879190e-03
-2.036988270450073354e-03
-4.899395491113772445e-04
-2.385924790297492149e-03
-2.823572759300983087e-03
2.159930751164519918e-03
5.725091365109596063e-03
2.955419386722677681e-03
-2.024959194446652251e-04
1.477498785722126083e-03
4.264627304778079511e-03
9.305361701941535987e-03
1.070984045290520291e-02
4.744095970288704674e-03
1.438833401526620152e-03
-1.606445996410453460e-03
-4.150796865788744516e-03
-5.330880893862482159e-04
5.511393367307011910e-03
8.226288082948471012e-03
3.633688867696229906e-05
-8.159614024339021179e-03
-6.414593739021226711e-03
-3.434787267841333223e-03
6.892856770701797460e-04
1.755861171157349198e-03
8.857553122248308479e-04
-6.379030902450085957e-03
-2.905638461602235226e-02
-2.836130350213320050e-02
-6.901471290229209323e-04
8.564651892262440530e-03
7.435997405607804901e-03
7.445816276780899481e-03
2.525752940653787099e-03
1.835753822435271876e-03
2.443344589417927298e-03
2.786798787363343414e-03
4.990155016016107302e-03
7.960799644932306518e-03
7.595323110751123728e-03
-7.226778208177439804e-04
-2.646513755564846877e-03
-5.638378996071476482e-04
-2.887650022634759804e-03
2.838981993942177665e-03
4.937377654036715149e-03
-8.276957865731615670e-04
-1.571108606360880223e-03
-4.542302786534799762e-03
-2.958209575725163128e-03
3.986870146204692447e-03
5.318896908611945489e-04
-3.882526602847252879e-03
-4.129065954861424644e-03
-6.865977408509490662e-03
-7.034524729584891965e-03
-2.746680741123859373e-03
2.848527968531444285e-03
7.093368377306878518e-03
7.218021262641479557e-03
3.862378783672071325e-03
1.415570831643776090e-03
3.418920749368957717e-03
6.306540678112422353e-03
7.752006253954049284e-03
9.507418462659563557e-03
6.802774839553927394e-03
-3.724845563144135122e-03
-1.430363803118192209e-02
-1.337920352993163080e-02
-9.843713188600682843e-04
6.668650679865471137e-03
1.679349325821343549e-03
-4.808765981687558935e-03
-7.241750723085469028e-03
-7.134601335275722080e-03
-1.534967494037280198e-03
4.260837275276370233e-03
4.875602649829416553e-03
3.067608721270465976e-03
-2.488303896068956318e-03
-4.021302604829376723e-03
-6.557674130585048515e-04
-6.970595054046141263e-03
-7.994654987299978227e-03
3.834356676807306082e-03
3.801449356480516694e-03
-2.509390992222125007e-03
-3.675430303666773514e-03
-4.354322191523701292e-03
3.238667020612402605e-03
1.095620135547496765e-02
8.062977631152186755e-03
1.880082234504344045e-03
-4.719529935391065037e-03
-4.347660913457731049e-03
3.424058023973909452e-03
8.951922607190373679e-03
9.534591224118734235e-03
1.320444678455388052e-03
-6.864125118689988828e-03
-6.030585477653642099e-03
-4.358652201394092561e-03
-1.881237559850501909e-03
2.053682239935280662e-03
3.508943197188650436e-03
2.332660263562676313e-03
-9.386323738268778812e-04
-1.825872184481895991e-03
-1.024093656540768808e-03
1.338133107326487572e-03
3.846176017807940214e-03
1.945490776300673019e-04
-1.576951746232117162e-03
-3.891892396333382007e-03
-8.082371515122532823e-03
1.970020569279588591e-03
1.025640452459760169e-02
7.881353396029638567e-03
7.309031649862723218e-03
-2.510525538563523635e-03
-1.054152131001314177e-02
-6.383661932568643511e-03
-6.886602703345736168e-03
-2.468359177722325402e-03
5.963046463607073362e-03
1.628142619607137473e-03
-3.444535390423614750e-03
-1.864107482024874923e-03
2.799063169325700234e-03
1.058192552949637280e-02
1.207244414994784742e-02
-7.578188914269517323e-04
-1.610874655536108715e-02
-1.604493435508825422e-02
-5.788284574942809818e-03
8.277518187075330255e-04
3.780623246456422861e-03
4.957380571997170929e-03
5.143944530891304129e-03
2.828091496236390546e-03
7.489670546671053832e-04
3.655284296141375708e-03
1.652839842620800305e-03
-2.554856824377152794e-03
2.345457020307427625e-03
3.014815108018959779e-03
-3.184558329826548111e-03
-3.215372500396428048e-03
-1.640447034248142255e-03
2.863491736976851200e-03
1.082221319372707324e-02
1.456467181410328734e-03
-1.552043889020149857e-02
-1.323457819902340397e-02
-4.752530584543189496e-03
5.280964926429631331e-04
9.015876231040243285e-03
1.144833669625167777e-02
7.300952587698758892e-03
1.453112156715614988e-03
-5.927247847036083706e-03
-9.831165797247663068e-03
-9.211082487011287845e-03
-2.944147075465683439e-03
4.669173239960754812e-03
5.716643466413341527e-03
1.803407166261159281e-03
-3.567039477268164806e-03
-1.652575458124361891e-03
5.910978342269401949e-03
6.289847302551748731e-03
6.188327709805624410e-03
7.939734391240299213e-03
5.320053074297463082e-03
5.247586936591956165e-03
4.611393805848512141e-03
-7.802401558708546049e-04
-2.541326213611899004e-03
-1.470594265702238621e-03
-2.167610667160395875e-03
-4.669663177675525446e-03
-4.738848056208355176e-03
-1.841240794162900436e-03
-5.310367017377631317e-03
-9.536055106627094186e-03
-6.681877026502595386e-03
-5.603042832589296036e-03
-4.241077797701412952e-03
1.203549547277562616e-03
6.288929545577748303e-03
8.536024748808710913e-03
2.241113170996279075e-03
-5.440683297420497930e-03
-8.973566922409624905e-03
-1.417294463283633697e-02
-1.013251182905748789e-02
1.265129696592835968e-03
6.529597409352820570e-03
1.091294270558230972e-02
9.906360672460109637e-03
9.496760344790977377e-04
-2.748765306986884500e-03
-6.481198978843410487e-04
3.375717900490151930e-03
8.236542309573890303e-03
9.048240660322370496e-03
3.869357459083090037e-03
-4.088515439033368719e-03
-5.335578950727666407e-03
2.913646164649134375e-03
7.186507893416359087e-03
4.348298444034157974e-03
2.617339006359127845e-03
-8.938303454412374355e-04
-3.035715281478146808e-03
1.931380226693045531e-03
5.372771681935378969e-03
5.263703141591469237e-03
3.784965967933210957e-03
-3.933130774059522602e-04
-4.937516988838073356e-03
-7.512844977639127064e-03
-6.872706314733210975e-03
-4.801681452267038408e-03
7.241986733559008845e-04
2.922779111400160279e-03
-1.984925026377370571e-03
1.551690569112532591e-03
-8.270915847886664519e-04
-5.444661624031499163e-03
4.645922943533382747e-03
-1.314961072328720525e-02
-3.366928554581082728e-02
-1.130677710114603822e-02
1.302267474229536464e-03
2.269253765155683760e-03
1.234573694579194254e-02
1.237854785576903913e-02
1.498442918740005951e-02
1.081454986800908097e-02
-4.095148609070856961e-03
-8.166063082348393176e-03
-9.552425026274740869e-03
-3.702615555152272489e-03
7.848889726362591121e-03
8.968429919127642036e-03
6.560443813693634177e-03
4.503994364958550239e-03
4.068196659700535137e-03
7.250793113240876914e-03
1.071220746578660336e-02
7.113331945982951342e-03
-3.930456056547008102e-03
-7.876384044294800629e-03
-9.760522698203936282e-03
-1.249273488399918822e-02
-4.499901108428400534e-03
4.115254701692040891e-03
8.381189860773293615e-03
6.653072587622345206e-03
-2.068399142875069260e-03
-5.844460207979840921e-03
-9.277470024570976664e-03
-9.171943194211877592e-03
1.545680515430982414e-05
1.508405872515893942e-03
-2.194341672231384533e-03
-2.774452560313667160e-03
-2.473511871469907808e-03
1.892616523216946291e-03
6.117759633187335420e-03
5.424259926154456797e-03
-1.723037335565955628e-03
-9.719479832239755895e-03
-5.966306864020054501e-03
4.060525775593229990e-03
1.140845017559919197e-02
1.503533579198624084e-02
1.428018393709674927e-02
1.155393907091895392e-02
6.067926986724446470e-03
5.857300419935793784e-03
5.011847126214645336e-03
-6.688449582862427550e-03
-1.376688007518364447e-03
-1.281761128852924609e-03
-3.157419789937068039e-02
-2.664922725322630206e-02
1.446576596749229006e-03
-3.393439719955415861e-03
-3.710747827413295782e-03
5.040526827739403963e-03
-7.352743581126900633e-04
-6.463466430546756410e-03
-8.341948547979842130e-03
-6.255982231726130898e-04
8.644146872217988928e-03
6.603287774832747661e-03
5.295044121642393693e-03
2.779037434318582227e-03
-2.452358128017919584e-03
-3.483172968764030025e-03
-3.868874097575383982e-03
-6.938140745573204496e-04
8.047958964928818293e-03
7.706389549052053076e-03
-8.660915183588436053e-03
-1.281156533262141177e-02
6.143552291870925039e-03
1.908407762953544251e-02
2.131290398339832914e-02
1.608228896023648422e-02
8.325397853142074136e-04
-8.384625108505197599e-03
-9.551044797810723588e-03
-7.097355116045241628e-03
6.389813091319878572e-04
9.668199410671790561e-03
1.274547594883813743e-02
-1.965605473728661810e-03
-1.815224486962934911e-02
-1.196628050138934252e-02
7.349256840126642057e-04
2.917644241655161647e-03
-2.362952853549812621e-03
-4.594402872457097921e-03
-6.446183177431243604e-04
7.133752200620108565e-04
1.848991630736350218e-03
4.589570869391072436e-03
3.604666765780325296e-03
-2.067390869543596474e-04
-4.762180284935075940e-03
-4.604313540667262332e-03
-2.709882434790716714e-03
-4.894193277681175604e-03
-4.928043410333707124e-03
-6.497644355115581374e-03
-9.485582334771270815e-03
-5.214301146674039412e-03
-6.236946047532608214e-03
-1.074414284171693740e-02
2.259578973269590289e-03
1.622419311342832363e-02
1.499630634026457611e-02
1.469554160339037185e-02
1.176659043928844975e-02
2.011281980016493050e-03
-2.640215534778479322e-03
-3.828533674290559435e-03
6.709710791277594902e-04
7.062210179325218058e-03
7.696695313533652959e-03
9.604252098870863508e-03
4.458203417153401224e-03
-3.457811227572008851e-03
-1.869228604923152978e-04
-3.559727966697595397e-04
-1.761007209448315876e-03
5.912999159329918779e-04
-4.570521966721520675e-03
-7.708637975164059700e-03
-4.296474571089651910e-03
-2.562593495807794722e-03
-4.563943130501713595e-03
-1.050565758883645687e-02
-1.518501613962671901e-02
-1.280890200467330736e-02
-4.789524541693905742e-03
-6.216467564384131053e-04
-9.765695280046231448e-04
-3.601059740503178295e-04
-3.031688708881997638e-03
-1.233431313254257497e-03
7.443226241729781860e-03
1.093743899046088069e-02
1.561045247769117170e-02
2.115239854566474884e-02
1.741131754026793363e-02
9.904270659698947987e-03
7.164420575971199023e-03
8.376876496554467796e-03
5.196287542953001090e-04
-1.219099706862381005e-02
-1.139123066879588718e-02
-6.705264822248814885e-03
-4.400325162574327334e-03
-1.709957076568155042e-03
-7.196532836890328147e-03
-8.458988302565480233e-03
-1.370010004423477057e-03
-1.547685663300395111e-03
-1.104771758322788296e-03
1.241831938242889295e-03
-2.081943157294985358e-03
-7.858842220924302071e-04
3.345815352171366535e-03
3.199488942422005350e-03
3.855000037365917138e-03
2.005195114422873501e-03
-6.507150104965366000e-03
-1.119688307461199142e-02
-6.145671582630238446e-03
-1.396343612215044262e-03
4.241546623423435064e-04
4.621770894406213026e-03
6.283090932162105173e-03
2.795948348662403993e-03
-1.413644860908773448e-03
-1.929077490571099980e-03
2.605073413765706877e-03
5.748690669049553482e-03
1.381408101685994462e-03
-8.787186184963111449e-03
-1.341895992648494025e-02
-8.142948532389700581e-03
-4.152722047130320664e-03
-2.676082781109773850e-03
1.268975196467912346e-03
7.298347495510233707e-03
1.404949242301357579e-02
1.718048215685533814e-02
1.563934420051039942e-02
1.134317265855089296e-02
1.292772589542371189e-02
1.729078502255827418e-02
7.133892046569098588e-03
-7.807862463379923457e-03
-1.724631120818951799e-02
-1.548947318842125269e-02
2.174888676202923338e-03
9.568952034343651547e-03
6.590068759384543236e-03
2.303289339449816377e-03
-8.234500761042146469e-03
-8.785004112284312827e-03
-1.871969290773090044e-02
-3.148128852657009619e-02
-1.131921564174741962e-02
1.159846869678744568e-03
-5.341076329688550055e-03
-6.196532022554611212e-03
-9.485559640215007055e-03
-5.290629247247996200e-03
-2.998812624443523262e-05
-2.812735076376660765e-04
6.436019595151688637e-03
6.463112602499292668e-03
5.240440046727848009e-03
1.431497271923431493e-02
1.655601939666794670e-02
8.814229168849463739e-03
6.116867595025270166e-03
8.890540935639699993e-03
4.474744971164293199e-03
2.328406847994506524e-03
8.979801814440623378e-03
9.920768863575027408e-03
7.940753807735621492e-03
1.258934048210249993e-03
-1.545890848686871238e-02
-2.367242022124571230e-02
-1.445823682567191036e-02
-2.827178125019267144e-03
-6.273128263614919167e-04
2.179905388092313705e-03
7.516229953761610627e-03
5.092794381821572937e-03
5.064342559402220181e-03
9.436299988263438521e-03
1.073281233876270842e-02
9.217226688266289686e-03
-4.439528860396182563e-04
-9.424688131248972270e-03
-1.289977013937416636e-02
-1.882371709870117593e-02
-1.969158914566292162e-02
-1.843019847241728765e-02
-1.649803179021454985e-02
-4.843325556286921796e-03
2.233785942087642123e-03
4.390853938929906164e-03
1.046464749228726877e-02
6.884454507888729258e-03
4.904841056839187932e-03
1.253244032973021421e-02
1.247871380272735746e-02
1.374939555578691408e-02
1.470720755836122870e-02
1.292076108056261496e-02
1.838338579835854802e-02
-6.009476703158962187e-03
-3.793123628525896240e-02
-1.316594906410623045e-02
5.351159294103360886e-03
-1.783262476229625568e-02
-9.936866988529559352e-03
