1.008515636837998761e-02
1.717802821111343243e-03
-1.005924926905518539e-02
-9.226687229700466022e-03
-1.407455850768684139e-02
-1.321302417633601206e-02
-9.805551540013507025e-03
-1.115516594907456881e-02
-8.516192304465684121e-03
-8.478290681280966842e-03
-5.732757157072999356e-03
4.318765894620787624e-03
9.059233575365201532e-03
1.175069371464385753e-02
1.751603612164322199e-02
1.814747155393087522e-02
1.298104124428761490e-02
1.106780755938155739e-02
1.563905317947859516e-02
1.831309833519456295e-02
9.435557833868296260e-03
-4.612309458329363378e-03
-1.167954881763757016e-02
-1.336615079156832329e-02
-1.006920678352034478e-02
-3.586450764382965919e-03
-2.310023993162660209e-03
-2.957980533371970099e-03
-4.806683630089925510e-03
-7.941335466249596978e-03
-4.965553089898863681e-03
5.468043896717796710e-04
4.352730533023466478e-03
5.968567834616354470e-03
6.188018692704734709e-03
7.011927901655803236e-03
3.160506528322646475e-03
1.542770059629758545e-03
1.022118458300672050e-02
1.475417170434203257e-02
8.018959188707576458e-03
-6.920992308651551742e-04
-5.929918467763337780e-03
-8.137833432250147700e-03
-7.289780626187850748e-03
-2.512114188066365186e-03
3.931084278646480509e-03
4.649698641036729627e-03
-2.290045019696782501e-03
-7.806422382570976128e-03
-1.918835571603803511e-02
-3.543543914858762051e-02
-2.373341490667343553e-02
3.351173678030409855e-03
8.790478852066590035e-03
4.392725059705503664e-03
2.199564455489973203e-03
1.183402008584610084e-03
4.930472869948389347e-03
8.009614927202294080e-03
8.005048882812667438e-03
3.283071379858048915e-03
-1.525347625032235852e-03
1.295078321390552480e-03
3.176290334017778296e-03
4.267610783118051983e-03
9.912233046932329011e-03
1.026227240702298066e-02
3.822382924546876160e-03
-5.301805684799815090e-04
-3.365663495458828011e-04
2.306162114856960912e-04
-1.095304413004467067e-03
6.396671926823570080e-05
9.483061931464887087e-04
-2.299646094189081690e-03
-7.992149659596873689e-04
2.187663693823289034e-03
1.955913915563289233e-04
2.226133509035954378e-03
-2.201596690655321074e-04
-1.123936544830918087e-02
-1.069861221192862540e-02
-2.082432428544082979e-03
3.086120114815590551e-03
6.339888261310540167e-03
4.999843235404584189e-03
2.605135404677644435e-03
4.040031474827715475e-04
-3.619592923630327204e-03
-5.436365590614784804e-03
-4.471602275671893167e-03
7.181083842948993048e-05
5.168919861481547674e-03
7.368443144734066440e-03
5.387760795170853760e-03
1.698588993558933593e-04
3.270556438936049167e-04
3.097096135203216815e-03
7.091629237695448729e-03
4.052911399912659599e-03
-2.078628483548597417e-02
-2.989678283489421648e-02
-1.069412542329191938e-02
-2.297045343730909784e-03
2.726175268052383194e-03
1.004469087928332519e-02
9.409139051383401398e-03
8.148564563592631399e-03
2.776880240333434052e-04
-3.450592695219366606e-03
2.383552450305385581e-03
2.540034592590345759e-03
4.332811693103505793e-03
5.097687710490598698e-03
4.802736214182788416e-04
-9.550821761345657012e-04
-2.455147674374814643e-03
9.096409863704991387e-04
8.059099918312516431e-03
4.930871878949157246e-03
-3.790012961614434069e-03
-7.593398448563707347e-03
-6.710887583496537995e-03
-3.388779956102122570e-03
4.637288263757255013e-04
3.128603622003380425e-03
6.297588699837449074e-03
3.991451526870709414e-03
-4.471926421478518952e-03
-3.506790227005060229e-03
2.736188473644470508e-04
-2.025615516587776169e-03
-6.117401709152434867e-04
-7.035675511318583526e-06
-9.926770091773766554e-05
2.941511284145366368e-04
-3.848998686606124129e-03
-1.817255761837015607e-03
4.843720988234803161e-03
5.813567973542427617e-03
1.101632856896172900e-03
-4.343991073566711054e-03
-3.313022890184669136e-03
-1.099929003398489801e-04
2.076954261522064634e-03
3.990013422084576211e-03
6.448123548432784478e-03
8.542401081873674321e-03
3.442829666418460461e-03
2.338303518292400660e-03
2.788594515593861151e-03
6.300913058449283174e-04
8.070083992880165702e-03
-1.050154810491302215e-02
-4.032097229986877224e-02
-2.062859951164735389e-02
4.927761962225042820e-03
7.258335861796396705e-03
1.240280834815136492e-02
8.631059540663987492e-03
2.140167608371989182e-03
5.485784836071119080e-04
-3.762112001867750060e-03
-7.323125175880943914e-04
3.583887826564941502e-03
3.567574834784314596e-03
4.739254515878654934e-03
3.774955814417160858e-03
9.099889656236290463e-04
-1.565735006094294514e-03
-3.941718961896124689e-03
-7.226405978128423724e-03
-6.474269974327533962e-03
-1.064261793234919963e-03
6.342327164076752978e-05
-4.985843164725396303e-04
-3.869965492879894617e-04
1.019218804697679922e-03
6.716946578706988261e-03
7.963736390326766473e-03
3.294833974511786855e-03
-2.907424555789181637e-03
-8.644095004311120115e-03
-8.124243196647121940e-03
-3.324487813434874248e-03
4.227636550935395289e-03
1.007162415653279491e-02
5.853207280310611556e-03
-3.140212843637367078e-04
-5.802669700854781916e-05
3.999192874307566821e-03
5.606873266116322620e-03
2.982453919425958038e-03
1.608530196970904156e-03
-1.244716718918124129e-03
-4.590128107173783480e-03
-2.597469140394232517e-03
1.155865000455726663e-03
6.208057887321398981e-03
4.947987360509470411e-03
-3.961105029731736525e-03
-6.465787718248623521e-03
-6.937707073383240011e-03
-4.759409012867808417e-03
2.519723365875498489e-03
3.559191195322130609e-03
4.063506066525369997e-03
-1.285614551305991988e-03
-1.297642502800597404e-02
-8.897468235696750702e-03
-1.115649646639366860e-03
-9.016932284351237507e-04
9.466708600493926396e-04
2.489019567601633096e-03
4.717758376526541564e-03
2.939577995867053827e-03
-1.868215129921806496e-03
-9.753996266606789183e-04
2.237305070556794111e-03
5.668638885760780843e-03
1.240345746842257428e-04
-8.217169592183789714e-03
-4.014386782514814227e-03
-1.394122337026113640e-03
-5.857830440968875849e-04
4.613041033114593549e-03
3.673872413323355478e-03
7.550446841774755957e-04
-4.533432371633308979e-04
-1.667390405027838673e-03
-8.213329997932176463e-04
1.374643292570770607e-03
3.845019366896633168e-03
4.363773171432883992e-03
4.282520711877327649e-03
2.825140372831397122e-03
-1.926004312659687894e-03
-3.441468166067209507e-03
2.642306993539404909e-03
8.531235796643589497e-03
4.261935947321147423e-03
-2.639391263778678200e-03
-5.620340084585660236e-03
-5.495773163332409901e-03
2.516746446475152249e-03
7.763732370397822408e-03
7.052923926079620980e-03
6.790741758813207893e-03
1.316562888441836663e-03
-6.803433579244884703e-04
1.424868591996705704e-03
3.239319615098146515e-04
-5.034057433880167890e-04
-2.438873198969496951e-03
-4.242405564557677825e-03
-2.055601137990784380e-02
-3.567197414155313939e-02
-1.239632176379415647e-02
8.622289915897632037e-03
7.127600948348166918e-03
8.687731226855188033e-03
1.365710145400586550e-03
-3.517858294437548571e-03
1.818316775137419255e-03
1.010450408701672742e-03
4.539789434695102634e-03
1.032554290359784244e-02
9.626203877353975771e-03
3.607878377863082964e-03
-4.655440476583072758e-03
-5.031356277437817361e-03
-1.850569777913501669e-03
-8.491526654707694092e-05
2.155310549874474638e-03
4.044955117253986286e-03
4.733792575314609875e-03
3.184031423789684045e-04
-2.039802935105179769e-03
-3.299049993379829754e-04
-1.100121582732131151e-04
1.865232115240536385e-03
-8.817230940095371894e-04
-6.845646537362457852e-03
-5.682617189368644947e-03
-6.673499426155924839e-04
3.317547396620277970e-03
4.941235737453008800e-03
5.136878029993241501e-03
3.944725295934492677e-04
-2.663601153488565857e-03
2.301582997015810990e-03
9.606286653049387909e-04
1.623568177530580444e-03
7.027708165672701818e-03
1.704150980395162168e-03
3.492500065376674396e-04
1.848723007028442097e-03
-1.449581555567809555e-03
1.530258770333228682e-03
2.906333419587177596e-03
-1.885963879463571082e-04
-4.698755404072081122e-03
-6.141946555029674688e-03
-1.979652377521509427e-03
-1.172355409383617425e-03
6.238029077697358933e-03
3.904765053211736812e-03
-2.099172201514971914e-02
-2.095011453584312913e-02
-1.013915659029446248e-03
2.456919219266947164e-03
1.396944978711178731e-03
1.188084466232958766e-03
3.834376703908562098e-03
6.653832496098638881e-03
9.724315362866114195e-04
-1.226240365667378290e-03
-9.586460976566679455e-05
1.634982922705123130e-03
5.350327408565998949e-03
1.803646204674409911e-03
-3.076928110362819185e-03
-3.664757609560821781e-03
-1.644038054954094236e-03
4.036080604456484915e-03
7.228849385197339168e-03
7.888813178542305668e-03
6.703272705651186492e-03
4.921276916844310578e-04
-4.564972007945627269e-03
-3.541413262081225845e-03
-1.362032955524094743e-04
-1.947807138086653624e-04
-9.547163409053466884e-04
5.941174425397538830e-04
-2.348065977279969498e-03
-6.049553501595385067e-03
-1.622326550866509849e-03
6.182568603235860834e-03
8.016503953430717533e-03
9.443188251223716130e-05
-6.903112420497336914e-03
-3.449228649695358206e-03
-1.805006409395490169e-04
-3.009555053296421659e-05
4.225687790440828782e-03
7.107312728411348778e-03
5.980463266684971080e-03
1.613096822095937610e-03
-3.723669561475049378e-03
-1.857096532802696631e-03
-7.485991857529461935e-04
-2.972649469174373348e-03
3.590556727414376953e-04
-1.634696503628842125e-03
-8.825607205822563056e-03
-1.118536551264654247e-02
-8.757599276148086628e-03
1.709300969156983584e-03
7.224927765947212685e-03
3.498982793505816483e-03
7.434076211536458454e-04
-7.449281989687719235e-03
-7.792163976317666857e-03
4.073549198834262516e-03
7.383072385958086743e-03
9.684664011376811765e-03
9.533459822921358864e-03
-1.006966880647758907e-03
-4.430077957570374703e-03
-1.824202536743679479e-03
-9.932921037263682095e-04
3.103227824832242507e-03
6.050301784757227200e-03
4.165071118403390615e-03
7.729542618773907166e-04
-3.060942414008544117e-03
-5.554831171165394016e-03
-1.315163719701164602e-03
4.923106155418003130e-03
1.809604665332713216e-03
-5.743065346537123972e-03
-8.658995982555837967e-03
-3.606596400836698142e-03
5.120677798706645655e-03
4.747633223028496080e-03
2.025915642579637597e-03
3.717018175508297450e-03
-1.326332427821933207e-03
-5.850310448989905210e-03
-2.474121193608578954e-03
7.975003761309059670e-04
3.997187320992178286e-03
5.322802491631598888e-03
1.586958737129208008e-03
-1.983603574278501071e-03
-1.702734823220919619e-03
1.337219588129904754e-03
3.722483522776578492e-03
1.496337424187605541e-03
-4.866486937898320368e-03
-6.158756485037770838e-03
-1.376704712071101164e-03
-1.373646719819063581e-03
-2.896782368277083831e-03
-2.394910984898838253e-04
3.270738982692153376e-03
5.417345089416455636e-03
1.318696748429795847e-03
-3.438061476816550721e-03
-2.482586881889870759e-03
-2.970404011945708151e-03
-1.167702668579944075e-03
2.652690526396397040e-03
-1.814056881079369383e-04
-1.433795107296881961e-03
-9.323293927076543430e-04
-2.500922071805155179e-03
4.220615633755493007e-03
1.047064343620392364e-02
4.235529012761402208e-03
-2.214227117599555563e-03
-3.956752663321716143e-03
-5.429209655752500856e-03
-3.386943974280290023e-03
1.866738745816482739e-03
6.437199163850460329e-03
6.489136349879220597e-03
-5.170525452152410599e-04
-8.342820394574334067e-03
-9.421257127019860497e-03
-4.467884453303283890e-03
1.540114354255677290e-03
5.974847057649825162e-03
7.479238795600164774e-03
4.759364043668739934e-03
4.735552437642009515e-04
-3.735237156474868086e-04
5.456386927684889546e-03
1.090046877106325661e-02
5.814819308694677176e-03
-2.285567612703636158e-03
-4.576554991002700079e-03
-3.094805182598927250e-03
1.010197060481932184e-03
3.526310790702654775e-03
2.986159251174167351e-03
-1.886338928213578689e-04
-6.214221696252695930e-03
-9.347480148398546948e-03
-1.189938926078155414e-02
-1.277718622095068771e-02
-7.201415052009310126e-03
-5.047911110015099873e-03
-5.394291000233586431e-03
-1.472585175488633170e-03
2.947268655529407515e-03
1.047336164924321175e-02
2.350657127176546818e-02
2.500846607775031663e-02
-3.223092301226338462e-03
-2.939296515368277490e-02
-1.917068168829619626e-02
-4.834133074474728474e-03
-5.107298484090321347e-03
3.258759934392866644e-04
1.076479000060020369e-02
1.382614161838334292e-02
3.194240447959319912e-03
-7.402742791356869273e-03
-5.634942141885436115e-03
-2.250113159211118447e-03
2.626154632383931580e-03
6.307203190639361877e-03
3.964631083746438314e-03
5.570164259634254045e-03
6.466261631821910820e-03
5.947619446044368451e-03
1.377222939657397546e-02
1.863979967473323313e-02
1.318378156442406336e-02
6.930981709878113010e-03
3.632513568949729751e-04
-4.195702395126376869e-03
-1.818277448730076188e-03
-2.824293046254657512e-03
-1.248748437719267778e-03
8.367824696085707573e-03
2.523263165537617883e-03
-1.137731321285693695e-02
-1.028196286013642949e-02
4.914783744398872447e-04
5.988807745768293979e-03
-1.042184497222233865e-02
-3.583772264912646333e-02
-4.128319420573182963e-02
-9.587618665996300651e-03
3.971093653509171623e-02
2.208493953503240514e-02
-5.799426371819754039e-02
-9.173461008598604582e-02
-6.505601841524062678e-02
-1.844705181404254074e-02
1.814767218175512842e-02
2.315559389846284441e-02
3.735394865373389134e-02
7.211421203585278994e-02
8.048346781451200249e-02
5.707720037372081279e-02
2.667595192233407006e-02
4.555287214949869413e-03
-6.950483253958069339e-03
-7.784053400147676258e-03
-7.202410730295569045e-03
-1.591307673957014640e-02
-1.308580245658654169e-02
2.123368873307399801e-04
2.315837662656029285e-03
6.308208982097949884e-03
1.070154162730112268e-02
4.688867709660457343e-03
1.052914348441856215e-04
-2.591220606413860081e-03
-7.281152790950077940e-03
-1.342158648000493087e-02
-1.725319705847644033e-02
-1.528425023230326092e-02
-1.711302792277263549e-02
-1.878819397948943218e-02
-1.350369023490780897e-02
-1.094165169597442061e-02
-9.514921166798256599e-03
-5.724588917408164265e-03
-2.327370252561160834e-03
3.741467924223154879e-04
3.222347679178915337e-03
8.688381359755904115e-03
1.080372200651540104e-02
1.340481019144290978e-02
1.987751335749762469e-02
1.337117653678026284e-02
2.904101397001932709e-03
-1.209120440175531818e-03
-8.004605901259101777e-03
-5.026792823066832984e-03
3.788071079854310290e-03
5.162383037943953958e-03
5.071728574639004956e-03
-1.581298347995718908e-03
-7.882173774681259376e-03
-5.751865298851833140e-03
-2.653995002499458244e-03
3.673804871650103356e-03
4.334082139434016802e-03
-7.199443371290800003e-04
2.135092726118366282e-03
2.572305238018467340e-03
-1.958986522018329459e-04
4.034627007999645916e-03
7.971423049167217223e-03
4.574886378924706079e-03
-1.950766869459654058e-03
-3.858013491073096664e-03
-3.925376632298897654e-03
-3.274030900939939228e-03
1.511387756153326255e-03
2.510804403731798154e-03
1.134991656294431902e-03
1.282277486115130640e-03
-1.172035873555689681e-03
-1.045133288541951356e-03
-1.454821500548256349e-04
-2.585687182904280838e-03
-6.471805336842721430e-04
2.598499418979311089e-03
-1.212704932756075932e-03
-6.063229514193016131e-03
-4.698419986409423446e-03
3.053206756973351988e-04
4.229059832645734769e-03
9.917961804927735887e-04
-6.838793578596647285e-03
-7.292625253012718911e-03
-5.616606362523746815e-03
-6.516335751773085459e-03
-2.688261063310145270e-03
1.370328004990710837e-03
6.319127933126501319e-03
9.517016947685398576e-03
2.060268322459254259e-03
-2.004113852835651133e-03
3.792154453197779814e-04
2.304922382125959828e-03
8.463301068737596675e-03
7.593557202360518878e-03
-1.365213554403181453e-03
-3.708354841099880794e-03
-1.778283061752330540e-03
3.437075629272087068e-03
8.518880035125462810e-03
4.386934053117877604e-03
-2.440684619443201416e-03
-6.140817198297044387e-03
-6.891191757408698763e-03
-3.605974833068511815e-03
3.764368034149280767e-04
2.858367284930489471e-03
2.701979914270017085e-03
1.199517076425165690e-04
-1.872860264661656152e-03
-3.440548301461099443e-03
-1.502793768016090926e-03
2.700881368712618625e-03
6.985187441805616520e-04
-1.291723312293538732e-03
1.191543740555892203e-03
2.837994309310961760e-03
5.769618704411373644e-03
6.098248266717032698e-03
2.079804588556707044e-03
-1.359525447421447864e-03
-6.451616021810238806e-03
-9.309517404766258497e-03
-8.017260910869936780e-03
-5.387322979313139207e-03
-8.403576939375000370e-04
1.924164757113791925e-03
4.501599408669679919e-03
4.497023929678050855e-03
-5.965035058983533377e-05
-9.886269648738479649e-04
-2.561881688837304265e-03
-3.178373946312528300e-03
1.503741065127637069e-03
1.253412402852125762e-03
-1.600657673177006881e-03
-3.104823481977984044e-03
-4.773251413347184662e-03
-2.091664861688378660e-03
3.707048329664659400e-03
5.666573541827083470e-03
1.565180920451525980e-03
5.032014395147130312e-04
3.136342973287901091e-03
4.148826036113914366e-03
8.579841510402473267e-03
9.066778245245269569e-03
6.095215848443341806e-03
6.755810601108516375e-03
-8.742504165175015059e-04
-8.826336770348325658e-03
-5.818142363471503868e-03
-3.009963891127023783e-03
-1.790032277965820278e-03
9.788630379199479530e-04
-5.626512408995552449e-04
-6.734678304159550863e-03
-5.900960888634542920e-03
-1.357626066535906140e-03
-1.661352082964004644e-03
3.264148624303789790e-03
6.413485735272141802e-03
3.814550686859801559e-03
7.228581948953290495e-03
7.572936361815593709e-03
-3.973078744930713365e-04
-1.592702493334764713e-02
-2.181208415026467465e-02
-2.679856238157863647e-03
6.771921926336087021e-03
1.995589583115823401e-04
-1.725285189921715954e-03
-3.454668216015139518e-03
1.594666045767346736e-03
4.631266200675152045e-03
-1.837458025270357622e-04
-7.888463450087066647e-04
-4.570316946716910210e-03
-2.259004173219129798e-03
6.303078469322321610e-03
4.640600970998232273e-03
1.496257471775283522e-03
-1.079637555702431815e-03
-2.412367778967554419e-03
1.609977212833566809e-04
3.683117333926905299e-03
9.793012745890694939e-03
7.920027893164859403e-03
4.849941145624974944e-04
-2.629805424553814230e-03
-6.105170042732008077e-03
-3.749718592776254706e-03
2.352285465752765748e-03
3.321892856562616309e-03
3.363270005845963705e-03
1.872487142162595868e-03
-1.630703992696266825e-03
-2.275950108801412432e-03
9.566624379126069432e-04
2.461466523263580730e-03
6.707393496799726436e-04
-1.140036779514838616e-03
-5.903765943002802635e-03
-9.342032332172399076e-03
-6.525762834265489212e-03
-1.182712372392157518e-03
4.071037873170831219e-03
6.151384137443317336e-03
7.389398103013195343e-03
6.405150489165164183e-03
4.192933252177454516e-03
6.078398910674432179e-03
2.672025980068108448e-03
-1.974346688516348189e-03
-3.710443888051644275e-03
-4.737455783242736952e-03
1.552066106741483006e-03
-9.442188077924348194e-03
-2.493966851364033330e-02
-3.571114915949195629e-03
1.139102222242080985e-02
-1.265085298152822304e-03
-5.835672610856547718e-03
-4.499808222747969481e-03
-8.749826129355681376e-04
2.852065137923271310e-03
2.421497185742946950e-03
8.391345223442318174e-03
1.013382444166673751e-02
2.843485267714123202e-03
-1.954821593633893594e-03
-3.525174751615500150e-03
-1.256578054140262534e-03
4.393630252809622343e-04
6.527693054665256473e-04
2.168144982032788309e-03
6.904116888962501990e-04
-4.718833845274445350e-04
1.149177908522558595e-04
3.120089696718693958e-03
8.465070646863187900e-03
4.285757497172333966e-03
-3.474428576093574212e-03
-4.572845867441995699e-03
-6.895673899935453148e-03
-5.001875946888409939e-03
2.197810331087105343e-03
3.731748094675344830e-03
4.595578019822004617e-03
2.136216263639036626e-03
-4.973679477669004992e-03
-3.855912981568736415e-03
-1.165182677546197816e-03
-4.037532482491145921e-04
4.270059939107222202e-03
2.836630645959704704e-03
-2.433095288432390955e-03
-2.287923204532420814e-03
-9.017168118868395209e-05
3.188014975135071080e-03
4.565184842196790514e-03
2.314905449079824457e-03
-9.066345002820121266e-04
-4.985432029767361897e-03
-4.828796297638506506e-03
9.054871249948825669e-05
1.211475799143098102e-03
1.345580213970888400e-03
6.100720637267594178e-03
4.001769519280136758e-03
-3.770729646677886595e-03
-2.415788411233964726e-03
-3.622903172346074278e-03
-7.717763699275667633e-03
-3.616889625621233615e-05
2.928317934601315769e-03
-5.632017568044584473e-04
-7.669670233874928064e-04
-4.082635418630260055e-03
-2.031104499926817601e-04
4.810670029502151987e-03
-1.280249739401962631e-03
-2.126349195150235415e-03
7.978541909439138598e-04
3.088469281656927318e-04
2.206796351606443631e-03
4.903101056014659044e-03
8.148209292857635719e-03
6.588158612717996340e-03
-1.361962052244896759e-03
-5.663366836439135375e-03
-6.306393221611526420e-03
-6.220379023953096290e-03
-4.194367091760279123e-03
-1.465103871424376170e-03
-4.787667807188771235e-04
-8.214704277797549043e-04
-2.017527805269377951e-03
-3.540306712523627782e-03
2.288623979588694929e-03
9.268151789420185985e-03
7.502558184332229485e-03
5.831262922852840404e-03
1.250451244104098776e-04
-6.978423077282548508e-03
-2.166188704064846669e-03
1.097198832886369865e-03
3.169113187412908855e-03
9.173280593315222275e-03
3.862232875934472690e-03
-3.723227181001492400e-03
-2.494015673686800823e-03
-3.570094328093724174e-04
1.613291210444274407e-03
2.905406231414448936e-03
1.065973632292522167e-03
-2.597664636123982879e-03
-4.502491848187780386e-03
-3.561655805678193808e-03
-3.534518625983112624e-04
2.033691304273216229e-03
-2.178218011757377184e-03
-6.004315239303028434e-03
-5.946624234981425124e-03
-7.016850727771521690e-03
-2.318291592703208663e-03
4.905200606897397973e-03
7.451036103993607419e-03
8.065634993281497328e-03
3.096081176478600056e-03
-2.109500685824093093e-03
-2.077357409175880406e-03
-2.045880392848502347e-03
1.772193390610922762e-03
6.053065940811138031e-03
2.578543626780953509e-03
-1.282937271297992371e-03
-2.741381861279228692e-03
-5.196677210239712165e-03
-3.745252569200434745e-03
1.634050994259489582e-04
2.385802421013158924e-04
-3.485169636465889741e-03
-1.017639648664356126e-02
-1.109666120209039895e-02
-3.402484932969609879e-03
1.303132699302712340e-03
4.845015770697857355e-03
8.051644949913427593e-03
4.838850897711662394e-03
3.685723526291196945e-03
6.262487420415675105e-03
5.089961266356748774e-03
2.972123630324204416e-03
4.659530231867043196e-03
4.391794955854349744e-03
3.737482395943314897e-04
1.111514603821070479e-03
4.964914334706202383e-04
3.522517805322524778e-04
8.039564415440611511e-03
6.427695739025139458e-03
5.280333185173197424e-04
-2.149224607529261200e-03
-9.603265123481009857e-03
-5.560689721635746555e-03
4.722220364685006215e-03
8.722060309774709586e-03
1.086317074144288464e-02
2.656953188805515585e-03
-9.424280374410605107e-03
-2.481848194958329382e-02
-3.518286514863212810e-02
-1.578181525243761013e-02
3.395235679308968371e-03
1.684481890507108417e-03
9.883410313957135596e-05
2.015020998760133262e-04
3.058981322215863479e-03
9.368829248891747882e-03
1.284807898601972136e-02
9.245944145212991669e-03
-8.842112584166567611e-04
-4.705835703834516069e-03
-2.025793459318418928e-03
3.371549591076369976e-04
1.510858914444482282e-03
3.863477213534738212e-03
1.170853909958527797e-02
9.795523631622825647e-03
-1.622060380206319374e-03
-3.089569832844779162e-03
-2.006213704802645680e-03
-1.333817890103362706e-03
2.653742102822657673e-03
3.670554615060229228e-03
4.002437658168331649e-03
6.936005129030052780e-04
-2.841175526446417313e-03
5.126783223950352394e-03
1.081124897504718782e-02
3.618122609088098192e-03
-1.142353428928489113e-03
1.022208109628490458e-04
-6.219705129975382305e-04
9.995809933724176567e-04
6.795784544181779525e-03
1.101133520567923636e-02
7.802565738280520941e-03
-3.236888974329886568e-03
-9.551121961487375051e-03
-8.952202744133941348e-03
-1.118559583905256657e-02
-1.246392250375111081e-02
-8.498976322270701544e-03
-7.368186602955728408e-03
-1.138782560554236524e-02
-8.920794620572899611e-03
-3.073328874530433918e-03
-2.967998238263710965e-05
1.031938876870840821e-02
3.150714400439276995e-03
-2.735466730125927018e-02
-2.676084434529974257e-02
-1.821297832439492488e-03
6.879211114611037334e-03
7.677410515931636786e-03
4.810624223435657452e-03
1.598791331495647569e-03
2.165897791457053936e-03
-2.504923828737558658e-03
-3.403895991737120041e-03
7.279306933389378086e-04
1.778695778625429815e-03
4.138992667764466310e-03
4.079365245884782748e-03
2.888823133141879031e-03
5.525477052825047281e-03
8.365817748011939933e-03
1.616758551574185715e-02
2.264707357416111469e-02
1.863995796695028934e-02
1.478235648987564869e-02
1.265480465378063073e-02
1.284711962118991087e-02
1.954114972601486006e-02
2.077815261279664441e-02
1.973855297068960804e-02
2.635786201787486405e-02
2.617792976679241684e-02
1.918853926660322659e-02
2.066261130597929138e-02
2.232131544624650285e-02
1.693888880692322879e-02
1.395391198935985039e-02
8.748139455275531079e-03
-3.919304640970603174e-03
-1.499378867697001745e-02
-3.033900718964869722e-02
-5.409959899002090428e-02
-7.425010522515240741e-02
-8.917859786052151350e-02
-9.769747196798730937e-02
-9.632936961393195885e-02
-8.762334846627813090e-02
-7.326244276226911989e-02
-5.583427184727669801e-02
-2.557066125904889492e-02
2.225959726723046248e-02
6.020504653430124031e-02
6.553339666533891661e-02
5.167114649615704020e-02
4.545033574755568545e-02
4.640542173664815445e-02
3.677800853131618641e-02
1.294537849294844986e-02
-1.674921048793491865e-02
-2.901133155027559724e-02
-1.507205392245281050e-02
6.943064187618347601e-03
2.473935025920430061e-02
2.450339392137440911e-02
2.353726269387218170e-02
4.997893092465924975e-02
6.735617083787828752e-02
6.047112404949966241e-02
5.987172148297001395e-02
5.985037263726315088e-02
4.830169975269778954e-02
2.432308214453465095e-02
-5.554573582856944282e-03
-2.053212646943508926e-02
-1.960541209954213063e-02
-1.629685631843840257e-02
-2.350151322284897704e-02
-4.685008260687541226e-02
-6.653514822362958936e-02
-6.343877701559777482e-02
-4.661516410584513187e-02
-2.713513476574651306e-02
-5.409186826053548336e-03
7.698871014046640079e-03
2.518937386329461042e-02
7.401735768532990978e-02
1.049680737278771842e-01
7.441778272694746232e-02
2.177035701536625747e-02
-3.531587891059435186e-02
-8.771190111709512016e-02
-1.191280204246215890e-01
-1.524934268714457641e-01
-1.579438331000930229e-01
-1.036244512378770161e-01
-5.127639845925660578e-02
-2.628856422128293333e-02
-7.644797448013695637e-03
2.612815521259248194e-02
1.099108540440120185e-01
1.692587733918007598e-01
1.245086975327332202e-01
6.437801321355272888e-02
2.644900077268091607e-02
-3.138180378361582479e-02
-6.559598841847777417e-02
-7.283155419991371726e-02
-6.280776728678436061e-02
1.644184706847252875e-02
9.626485720406872948e-02
8.037415528997009229e-02
1.980806727499310332e-02
-2.222572085476476333e-02
-2.988861815351301701e-02
8.060305579056081110e-03
7.952291724503060544e-02
1.250041155380869906e-01
7.623566644592824626e-02
3.156149128517690000e-03
2.147381667495328050e-02
6.748725539025772491e-02
4.994246209306751894e-02
-2.378585843144120221e-02
-1.200231280787086435e-01
-1.636979981781140903e-01
-1.360876684954147597e-01
-1.040650222449096690e-01
-8.040738943370466518e-02
-3.596420452075023422e-02
2.882547281660729002e-02
4.848360481880520378e-02
7.495641673311663304e-03
2.110634283294205576e-02
8.186148857149967706e-02
7.691629478047502799e-02
2.900421555374342250e-02
-1.963144402450524989e-02
-4.850437939035830148e-02
-2.329816139455667331e-02
2.142692922989771712e-03
-1.203463719438244151e-02
-2.096016183291172022e-02
4.098349830336125640e-03
5.595029822546238041e-02
8.745606516180456924e-02
6.953069164384573231e-02
4.236388980262947163e-02
2.420233846534501632e-02
1.525947920414739631e-02
2.618498559413012447e-02
1.556915713948620397e-02
-4.276638697226972652e-02
-1.034306299637369059e-01
-1.302523654146717502e-01
-1.242632625238295485e-01
-9.653960921462551026e-02
-5.753515852136129732e-02
-4.595814789049857546e-02
-6.308625415345155141e-02
9.859577152539814558e-04
1.326719900883072678e-01
1.592239016419605691e-01
8.348954277439096794e-02
2.822053252178135727e-02
1.145112320081066032e-02
1.096360527232565114e-02
1.221241821905325216e-02
9.251627086980369202e-03
1.291576096667463106e-02
2.266092264607899587e-02
3.223921581096391570e-02
3.461176011403840208e-02
2.850084909070974698e-02
2.022597152811791282e-02
7.607395288863540161e-03
-5.845051170427211819e-03
-1.315035026263389716e-02
-2.066222309362379661e-02
-2.961203280623612641e-02
-3.403413180871145416e-02
-3.768441878353171598e-02
-4.058984175361953634e-02
-3.843752422426643944e-02
-3.711520423533865715e-02
-3.540392831288088210e-02
-2.971965045493566923e-02
-2.439160009647466446e-02
-1.366122521003362150e-02
3.193268044048592005e-03
1.614132461692876705e-02
2.630622563802790040e-02
3.409493745860262687e-02
3.360018863458847510e-02
3.439810122743495319e-02
4.162925700979176746e-02
3.783715412098053593e-02
2.841945812436686911e-02
2.811676665244700751e-02
2.535927485441491491e-02
1.592417331934307609e-02
-1.118609050859905793e-02
-5.002144967211298587e-02
-5.545158939684510790e-02
-3.464561403168519432e-02
-2.149835719531995384e-02
-1.284361340868233128e-02
-2.940889219683884715e-03
1.357327165760614622e-03
-1.042540193901704895e-02
-1.020856468717313940e-02
1.819239150462033730e-02
2.516797208747972164e-02
8.474358354838054316e-03
7.102352867496840349e-04
-1.707150791169195422e-03
2.202498986622412891e-03
4.805273525187266602e-03
-9.408719885541558768e-04
-5.064900852741752862e-03
-6.225524296523107792e-03
-5.308428879924042068e-03
-5.347465601511718070e-03
-6.864584586665192951e-04
5.156856503668031354e-03
-6.172189605669777370e-04
-1.605783097005813271e-03
1.892827224611407736e-03
-2.055776797655832055e-03
-7.848028901043088614e-04
3.702882444482655331e-03
7.212793048362749031e-03
6.984526958595370198e-03
-3.997296678176792510e-03
-1.013070553873487642e-02
-7.147214045020700533e-03
-6.417123941151383661e-03
-4.905528563681924199e-03
-1.880713578776478569e-03
-1.186588104018954613e-03
-1.494701945394672242e-03
-8.883712173962498692e-04
1.989297973015304727e-03
7.431343624865011273e-03
9.518076363745200941e-03
5.799081931715165290e-03
3.479098991244567243e-03
6.090796458744572161e-04
-1.399767292643503075e-03
4.541455488702101154e-03
7.013976156705846107e-03
2.689823681478632680e-03
1.724841341661253287e-03
3.583212650116547084e-03
1.841035476261228569e-03
-5.393665481758979675e-03
-6.867703845379568607e-03
-1.480110482411647714e-03
2.243248645509274600e-04
-6.988766923961811563e-04
-6.778634656076427956e-03
-1.128470016902737363e-02
-3.301177140174328499e-03
4.970214052639581638e-03
2.977474019376778747e-03
-6.441326988907833048e-03
-9.665436104209855495e-03
-3.303927615663207820e-03
-1.937555877129171417e-04
3.016218224035503454e-03
4.635799759781073469e-03
2.424408366965256217e-03
5.169642509580123224e-03
2.193817867892769620e-03
-2.128273574216995104e-03
3.069861572699208487e-03
2.905436523695204346e-03
-1.255718190412564474e-03
-7.374587082635717869e-04
1.246636654705057768e-04
-6.316905875673271137e-04
-1.947838902953947637e-03
-5.234411008466064883e-04
2.694550585055561706e-03
5.527985919221518364e-03
4.105415269011571978e-03
-3.815932623013395825e-03
-8.402812331165621790e-03
-5.917459300408945896e-03
6.848466861234970161e-04
6.539011365144471039e-03
6.930569727150031299e-03
5.890185518214285758e-03
-7.272105919147821339e-05
-5.688633871214013489e-03
-8.351992967826772207e-04
-6.421293463959990878e-04
-4.042774828984319405e-03
1.306240130142393568e-03
2.808832972191455633e-03
-1.827891218163209394e-03
-2.679914384951852333e-03
2.418428276944954952e-04
5.536519463856953878e-03
7.480213210306534653e-03
1.079969865202283366e-03
-5.642176728702642981e-03
-6.963540382912613777e-03
-5.257603401382725250e-03
1.604948386375408531e-04
5.461153771039954814e-03
7.109149696007142048e-03
7.011754470407497927e-03
1.570578496692618667e-03
-4.989138990472634198e-03
-6.719810137593817956e-03
-8.089290665271196487e-03
-5.629855209066903995e-03
1.132774469065926854e-04
2.989754338745860421e-04
-1.754670457111440771e-03
-1.483975213580021081e-03
4.178007273292867144e-04
4.507227384409983814e-03
7.979989588513371548e-03
5.487342664350480965e-03
-1.745623987549519340e-03
-5.745394085956613377e-03
-4.025783312586150332e-03
4.948849763306575021e-04
3.592601786463826743e-03
1.484553758433554242e-03
2.446029008319327170e-04
9.138310057586021854e-04
-3.652217571070298392e-03
-5.693976428407306924e-03
-1.458009433695662627e-03
7.238849421765348666e-04
2.916074518447635353e-03
4.405690659915849697e-03
1.713269882704694397e-03
-4.469599591853250535e-04
-1.103269846145888636e-03
1.326809341563580996e-03
3.915693715400399982e-03
-3.864680678866826580e-04
-4.003063113988972188e-03
-3.429721748594374581e-03
-4.184857447819932338e-03
-2.030803671575805679e-03
5.313037621589027266e-03
1.080871746918095344e-02
8.482420521949808959e-03
2.755980908247888678e-03
4.277435985011456302e-04
2.085299485638205308e-04
7.222633219185693905e-04
2.801496370883181262e-04
-1.267840075162944558e-03
-3.109501509214822410e-03
-3.350451384422820349e-03
2.088281183599962915e-03
3.727564598454987874e-03
3.484033031525022271e-03
2.639453595377240069e-03
-1.876670108164118361e-02
-2.985381345560933833e-02
-7.771410755577170572e-03
2.846838765783013363e-03
9.989515653954573245e-04
6.699558469118519627e-03
8.682041919334266417e-03
7.807834668546436568e-03
3.554092549345198252e-03
5.477134320469228071e-05
-1.474574753427746170e-03
-6.420929122659028467e-03
-4.233026568646338327e-04
4.865317304771975097e-03
-3.097927787052146865e-03
-2.320627454162756034e-03
3.119532941104658560e-03
6.550112624485952394e-04
8.434113464189770199e-04
5.802636164140778131e-03
5.191011446760253507e-03
-1.143434077096681500e-03
-2.849066690667988004e-03
-1.803732481077412230e-03
3.759090262559293513e-04
6.301593603469745827e-03
7.359041456112007731e-03
4.052428002411733420e-03
-9.716044642094331983e-04
-6.597959504390273067e-03
-5.486046162642079123e-03
-4.470630292933732569e-03
-3.893576674574424253e-03
1.824622779026118490e-03
2.886832571584885959e-03
1.490837225794907793e-03
1.158094585934971686e-03
-3.244012288216431301e-03
-2.862208675260715166e-03
3.454494342784677173e-03
3.504604124687689132e-03
-1.924694138473569214e-03
-5.310815677014410659e-03
-5.307003879921511763e-03
-1.867241355590179000e-03
4.894561542106512855e-03
9.220262809965285716e-03
5.303036730209280750e-03
-1.653396123692626573e-03
-4.970892917665660667e-03
-4.724285245251017354e-03
5.712538969059085116e-05
2.200711823406153751e-03
-4.777294664875839786e-03
-7.045818872131440549e-03
-2.231831962522164495e-03
-1.219452834839512617e-03
9.190297333297915575e-04
4.871378367431319738e-03
5.234501088767130710e-03
2.366328611787673047e-03
-2.672796928920608689e-03
-3.662639757604856973e-03
-1.799593874030492886e-03
-1.402954187092181901e-03
2.516209499937553749e-03
7.580408714011221093e-03
7.435189564410989334e-03
8.545480614289762767e-04
-6.140349936258411752e-03
-4.513412672293347361e-03
-6.944984470623279029e-04
1.995822704469590587e-04
3.405927234140172961e-03
3.014467458285254205e-03
-1.676187066283383285e-03
-2.949387670257500038e-03
-4.136042914680784603e-03
-3.364201290466231186e-03
1.896468455631244217e-03
1.952502104039379816e-03
-2.158453746872393639e-03
-4.187352219635767994e-03
-4.911124558733026210e-03
-3.313447200307205031e-04
6.829113591310585069e-03
8.582204523818311170e-03
7.355187293160697116e-03
3.813045556582429167e-03
-1.320897416342457602e-03
-2.829083329559378517e-03
-3.083818055483119290e-03
-3.736295880146953737e-03
-1.367383258270329829e-03
1.777272385376331421e-03
1.076974895420049596e-03
-3.719862492908639681e-03
-6.415720976530129953e-03
-1.120062370074171622e-03
4.515629687366328089e-03
2.035492729481451664e-03
-1.985156404869463983e-03
-4.102746852623008651e-03
-6.167393339360719394e-03
-2.989842000949080158e-03
2.093903533957234154e-03
3.980632403757038661e-03
7.858179446063286860e-03
7.946512083521555317e-03
5.068613475980715804e-04
-3.303424271815478663e-03
-2.711546237338044191e-03
-3.174570935074818613e-04
4.349556207917147123e-03
2.443063278653225152e-03
-4.377962652045895575e-03
-4.079803973652373905e-03
-1.336610155435125015e-04
1.978865053513881919e-03
5.659671417407479040e-03
6.540192357650321912e-03
6.975733851884786041e-04
-5.456102182419464951e-03
-7.883371474218909061e-03
-5.488439893106982805e-03
2.456648491273807520e-04
3.487032754906308190e-03
2.523263927261596914e-03
-1.891766426229672888e-03
-7.231121852346511156e-03
-8.011321471330802579e-03
-2.831256318502299498e-03
4.677695689892807755e-03
8.139905158043900246e-03
5.770349405272865752e-03
1.207848953612836347e-03
-3.557906652901066114e-03
-4.294939350408641561e-03
4.808307931144469092e-04
4.885777324165531225e-03
4.421021764748739834e-03
-1.305314043943697549e-03
-6.472401394551133974e-03
-5.796810315474758626e-03
-1.025496162307269060e-03
3.980282453015512173e-03
5.735867153715600540e-03
6.933682622472934348e-03
6.671406324638347839e-03
-3.584932439495022390e-04
-4.062155538530419496e-03
-2.672486913833865092e-04
1.651436049450326804e-04
-9.414033417691967639e-04
6.993188283073003414e-05
-6.276572508256413963e-04
-2.419281863558313522e-03
-3.038410620299601250e-03
-5.654559512684932026e-04
2.828903277069073647e-03
2.323658782807976140e-03
-2.787703288517496235e-03
-8.228426218030738051e-03
-6.672454779122544664e-03
6.972939652581872701e-05
5.581405384540283517e-03
9.070146738622841126e-03
8.860560093398833770e-03
4.995362901931619387e-03
-2.339465083134937076e-03
-7.528775992767068777e-03
-4.941896854327224725e-03
-6.261066378895533031e-03
-8.931640820879433243e-03
-4.944863820585042487e-03
-6.759873499731380853e-03
-8.780019848161227033e-03
-4.282307019618559335e-03
-1.991856296274263660e-04
5.888308972500620048e-03
5.771102159456281688e-03
-9.086283886536834298e-04
-1.614818648341079460e-03
2.850737886267255545e-04
3.331340477279073377e-03
8.970753308644604379e-03
1.398149710800709357e-02
1.349434734407165687e-02
7.035794459885067256e-03
3.480587714907471594e-03
3.118240598912562327e-03
4.626335639383984642e-03
5.091267433301422535e-03
9.087665161170201946e-04
1.823206797341964764e-04
-2.372296324514982786e-04
-7.844590614542394213e-04
6.067785521078687379e-04
-9.051447785051875946e-04
3.177863184421960297e-03
4.139315977304783289e-03
-2.184842097132896985e-03
-5.324382417766854864e-03
-9.431667469866518438e-03
-5.738412644506841152e-03
-1.262154191189877525e-02
-3.491259297887702034e-02
-2.238499641223096887e-02
1.625887644513038764e-03
-3.884398543674174534e-03
-1.186586437605771996e-02
-1.078391994699178305e-02
-1.782768029710840888e-03
1.121225011141011550e-02
1.499459757669900119e-02
1.112446700977275452e-02
4.301192646685274464e-03
2.250873559163612137e-03
5.555032686534774021e-03
8.669660165522334594e-03
9.741756323115111776e-03
4.261385276172301520e-03
4.076322855130152514e-04
1.714825794566087955e-03
3.257936481002801296e-03
7.354244493309863677e-03
9.380410293890233814e-03
1.104086913797604382e-02
1.065830552486487191e-02
-3.025791027460850955e-05
-7.167584566090567065e-03
-3.356758587423193038e-03
1.738696459027110671e-03
3.497601733887671909e-03
-3.369020590935470393e-04
-5.686985590665198480e-03
-8.757664687533627326e-03
-1.248472748082326764e-02
-1.019001932431258702e-02
1.431621265814127329e-03
4.274325477534429360e-03
-5.359817461968532232e-03
-8.929714198845832215e-03
-6.221132174082279719e-03
-4.022867670147314660e-03
5.964645280117932512e-04
5.787143877726820713e-03
8.694301677082429819e-03
5.927895869096589700e-03
-9.879995392576878047e-04
-3.844890986636744206e-03
-3.884815804751225957e-03
-4.731721315365893486e-03
-4.494133363074065586e-03
-1.955861681329769224e-03
4.433970751336332528e-04
-7.282905217982072171e-04
-2.405866426330252345e-03
4.381117964610561585e-04
4.586531611805848632e-03
1.267605553644392691e-03
-4.162882677794175514e-03
1.927059817360891436e-04
4.132792410833895265e-03
2.432614922911572296e-03
5.496079075759168972e-03
1.004541754683543377e-02
1.120786827767797020e-02
6.793687945550298292e-03
-6.579814395052336132e-04
-2.204968719462916185e-03
-3.328165204635058147e-03
-3.793029136378512061e-03
1.447359864551508567e-04
-3.627405446802875943e-04
-2.491813193769826414e-03
-6.785570945910143932e-03
-1.245203408615347916e-02
-6.034877233637553871e-03
3.033274621343159515e-03
4.394624248001665831e-03
1.110558999205241539e-03
-6.896146006630885644e-03
-8.525150169910157560e-03
-1.189995728858367439e-03
3.495965955422628349e-03
4.014897704525132588e-03
4.778467451040211908e-03
6.306114393874125840e-03
2.295864316891604862e-03
-2.698030645998521302e-03
-6.189861909961602657e-04
7.805667223802872142e-04
2.036266534835394840e-03
4.918320347440562762e-03
3.461016988118367430e-03
9.709943608144686695e-04
-3.431992155737063248e-04
1.902955506480232548e-03
6.356812296412885435e-03
5.145395171493056391e-03
1.666334093271579046e-03
-1.660396041302929140e-03
-6.041552573361912148e-03
-7.103786773345209873e-03
-4.580447596337623890e-03
-1.597019352751297225e-03
2.987516777308084175e-04
9.921044588275678994e-05
-3.318854403244812963e-03
-5.232229414885898773e-03
-3.347033709439685943e-03
-2.923950420939331381e-03
1.234451550874671307e-03
6.185056459772042027e-03
1.924656996744556316e-03
4.381763667116624203e-04
2.164934318049253036e-03
-2.722902183282657415e-03
-3.376946624934580674e-03
-4.305848983206058051e-04
-6.000448457812002090e-03
-1.134650268337533859e-02
-6.091720928346766768e-03
6.282507894624137466e-04
3.956776023987090482e-03
1.037838816225109158e-02
1.391885922665726458e-02
8.073333295848125757e-03
-2.215844061635298770e-04
-4.596739880649185379e-03
-2.142514044980425945e-03
1.422875386092781538e-03
-1.141852465315379168e-03
-1.318088672286275723e-03
2.691257952526691054e-03
-7.360044992303691304e-04
-4.817694406861933003e-03
-2.904382033937530794e-04
3.153683601901576330e-03
3.474093746630273379e-03
2.606261957783341261e-03
-2.503457799420344323e-03
-4.633983953015175829e-03
-1.278520300865359973e-03
2.377447523690719242e-03
6.117388233652378340e-03
8.407580901701792661e-03
5.133364330607962517e-03
-2.682675408104663161e-03
-5.139488437912189366e-03
-2.589282488265753825e-03
-2.780936738148809782e-03
-9.338284291951090771e-04
-9.646157997652057142e-04
-5.485255677797975377e-03
-4.865375595993974567e-03
-4.348551085730718510e-03
-3.507722149295608004e-03
2.787508340517756960e-03
2.741940337286844723e-03
-2.889519397825058601e-03
-4.760543208611333829e-03
-4.684628809361756144e-03
-3.046503404587355256e-03
1.068152719452748192e-03
5.643545363766164571e-03
9.913727571174911837e-03
1.114043745993580255e-02
4.521628667305037375e-03
-2.167680038578535286e-03
-1.882688788676546579e-04
1.099516832032821365e-03
8.400629867883721872e-05
1.396118703052806088e-03
-4.999288696498726918e-04
-3.429576495864419556e-03
-4.411539799829782178e-03
-1.778243128120781009e-03
4.480844640687184181e-03
3.851596534334816076e-03
-7.802378770118256063e-04
-3.932736124812622087e-03
-8.360337329355142788e-03
-8.599620262380258673e-03
-5.379454468537013534e-03
-3.654909218956623471e-04
3.901919615370842177e-03
5.670176540531945888e-04
-3.703402369422988463e-03
-7.442154557449583326e-03
-8.548279634433671170e-03
1.121977555627007642e-03
1.207831953052796586e-02
1.699467833398123420e-02
1.389581356979827272e-02
5.994216587287309189e-03
1.777269714832005161e-03
-1.508286011434100370e-03
1.297114304502084607e-03
5.530073702170730347e-03
-3.274369007752486217e-05
-3.573934893515842443e-03
-7.600945563877974272e-03
-1.218977647114701315e-02
-4.540437963232715410e-03
6.182421266508766888e-03
1.258135981357651374e-02
1.273908462675764700e-02
6.992550916264802033e-03
-7.366023853174605805e-03
-3.025894185891239013e-02
-3.038099269609164169e-02
-8.309882704152697294e-03
2.400508769642431799e-03
3.740103037114210407e-03
2.505806935908111606e-03
5.188986233097448060e-04
2.356165021838429411e-03
6.633739460793116813e-03
1.013595320017874994e-02
4.458751171434064374e-03
9.274782451982910595e-04
5.191271437659476275e-03
2.962010226578303158e-03
4.320574386580943241e-03
8.965001366390855375e-03
5.996135945233171775e-03
3.959573077159618190e-03
1.369782367651130241e-04
-4.276759565168501177e-03
-2.820320701832567181e-03
-2.793606970311576874e-03
-4.104365202278458316e-03
-4.212934226693050392e-03
-4.285505759537103568e-03
-3.229472626679442872e-03
-2.815133054941791179e-03
-3.480118876132197100e-03
-2.129733574664866014e-03
1.570238237649545555e-04
-5.494795320165045968e-04
-2.309057733973169345e-03
-5.227544392461776386e-03
-8.400975288222317303e-03
-3.117556573982844820e-03
5.220073333573010781e-03
6.628082252876714778e-03
4.045338451646286228e-03
1.449965727896013537e-03
3.377777190963459665e-03
6.011049747271666500e-03
1.595452743888547791e-03
-1.673012916113674050e-03
2.343462806931178276e-03
2.909393157042499799e-03
-3.054160856889804113e-03
-3.724955193801642115e-03
-9.264468142735228897e-04
3.420786057216245509e-04
6.254342926744838396e-03
5.935212189404634811e-03
-5.476894198072559602e-03
-7.790359490614558700e-03
6.105276726802813547e-05
1.131242418052673827e-03
-1.981005282034704711e-03
4.052477021689086800e-03
8.834131440996173881e-03
2.139627189424420008e-03
-2.129915255858573497e-03
-3.092876975373970438e-03
-1.919339063517784289e-03
4.542901769339358943e-03
4.088599244466081979e-03
1.495425295548545802e-03
7.835450638844348179e-05
-8.214872903652184130e-03
-7.962345784442116312e-03
5.788789278672728253e-04
-2.693235102803162345e-04
-5.535782871930149986e-03
-9.717188095876650236e-03
-1.112367123039171082e-02
-3.293586416879104844e-03
5.741404180760742611e-03
6.269299169173557854e-03
7.854300824311939710e-03
1.098420771086656283e-02
3.392770801075838723e-03
-4.643456106883946805e-03
-2.475105205898193907e-03
-1.790763612429367864e-04
-1.107129669242310106e-03
-1.291960998054422077e-03
4.378861886601840073e-04
1.746722662049658833e-03
-4.765279341175270630e-04
-1.336830764438458503e-03
8.107717424294034981e-04
8.907261239920061116e-04
-4.597725295120102498e-04
-8.070474466693386417e-04
-8.680822429236992777e-05
1.227265054334705525e-03
2.173353611735219602e-03
2.433303112000009902e-03
2.944912234596951724e-03
2.203400198539861091e-03
-2.547073164527500523e-03
-5.381579840516197491e-03
-1.618273449959608352e-03
1.328564515627895159e-03
2.935993075963692933e-04
4.174073668041279887e-04
1.996941759700658191e-03
1.023181954374906971e-03
-2.494343351626540813e-03
-3.209334577105203788e-03
1.315966711305655229e-03
5.182715464084448886e-03
3.496558395111132485e-03
-2.303272418332100169e-03
-8.308262444330426905e-03
-8.603885028748014738e-03
-3.569518124640370330e-03
4.080178935412713493e-04
4.998656504477462167e-03
8.497730512965180963e-03
3.725104122226027391e-03
-2.334652141564178343e-03
-2.077478049792962078e-03
4.197268576451519857e-04
1.263131573931767799e-03
-2.998116335075960790e-04
-1.916165510573616211e-03
-2.257765938120080435e-03
-3.027849512040889715e-03
-3.184662626143624359e-03
-5.430047451076946540e-04
3.728130960136155549e-03
4.493914118496479884e-03
5.096289260315979000e-04
-3.133488670791077877e-03
-3.999576470770291152e-03
-2.094366090666923037e-03
9.060200525788414568e-05
3.389986912557095642e-03
1.062957219771296265e-02
1.023491652025912239e-02
1.001088199306290243e-03
-2.340983585603202688e-03
-3.865643315480586737e-03
-7.123211848410217900e-03
-5.668258946324868097e-03
-3.768504719821481278e-03
-2.172717329096173714e-03
1.121054075702604793e-03
3.681382267321490868e-03
6.510522304781982128e-03
7.301493503425680529e-03
3.393661163088696701e-03
-2.459132688543572143e-03
-5.442786451662248205e-03
-2.657659173613608015e-03
-5.556322869922508418e-04
-4.906760523844487781e-04
2.038458201425030238e-03
1.346983750034667351e-03
-7.359696521901130592e-04
-1.555873203206322363e-03
-6.076708907102557240e-03
-5.596939794983586333e-03
-8.564082501332538622e-04
-1.884725105980544291e-03
-1.605264357509968154e-03
4.967853368154930525e-07
-1.189788814464151721e-03
9.508921857456742151e-04
5.478463727304097412e-03
7.520415202891556766e-03
4.830437264665352060e-03
-5.940790945723592367e-04
-4.838137843824611047e-03
-7.737720485481755506e-03
-5.064454212538134145e-03
1.321851069039720744e-03
3.722475036674258077e-03
6.019357520069454869e-03
5.901785025229118811e-03
-2.218529874618247952e-03
-6.763110289447660413e-03
-3.819935316757854752e-03
-1.277418307898956764e-03
3.300466155772020880e-03
8.328534761508469414e-03
5.757268223416284886e-03
-2.166970193014044034e-04
-3.011023312616404376e-03
-4.717969490045975287e-04
5.371704600650763217e-03
5.205430355253327229e-03
-1.099513573097337261e-03
-5.487458323094789384e-03
-5.775708117689596841e-03
-2.980466642224235355e-03
2.873354555180181614e-04
6.008239274613530120e-03
1.200961634910774518e-02
6.846757504832491972e-03
-2.927159071909423652e-03
-2.148813239479675525e-03
2.610350837530961681e-03
1.317525859200762133e-03
1.489703606651753996e-03
-1.250649577482361137e-03
-2.125573832371023542e-02
-3.132939200089635695e-02
-1.242099005401734770e-02
1.291962859370357009e-03
3.160499273854355633e-03
5.422274962127063280e-03
-8.223726995640863804e-04
-3.708261871919270748e-03
7.667989765134503553e-04
2.674676469113597323e-04
1.615489437447390061e-03
4.481071308459128565e-03
5.940571849425643931e-03
6.224777550429085905e-03
1.142106005470324434e-03
1.754773826289300490e-03
9.143389883026636217e-03
9.413017589254455211e-03
5.785849317063791047e-03
5.106101767517731704e-03
4.535975055950693981e-03
4.071400532917531260e-04
-4.035771826302349957e-03
-1.290926567674490497e-03
4.808763680941278811e-03
2.793072138877192041e-03
-4.727848962740148660e-03
-5.078917569541820456e-03
-8.914990587475807174e-04
-1.870958498813337354e-04
5.325188032913183911e-04
1.780734385118051995e-03
1.945480695685926050e-03
-1.201309379886181337e-03
-7.223253587825706305e-03
-6.110918999508148028e-03
-1.828626819099918614e-03
-2.837411445648945450e-03
-5.541768128818256277e-03
-7.135231882246517721e-03
-1.323311243275006235e-03
5.027533281622070110e-03
2.056819111361589316e-03
3.942354233538954145e-03
9.591966841530293747e-03
5.971715300960503750e-03
-4.142812524322355013e-04
-4.276903592369463679e-03
-6.883115205809921602e-03
-8.805224413552744517e-03
-5.769512227255323145e-03
3.281688384605876280e-03
8.490272829891638146e-03
5.241234185810930007e-03
-7.561651387646196355e-03
-1.644664105201309318e-02
-7.453304032886707252e-03
4.050706844507730186e-04
2.479678884911882403e-03
6.286388794073752458e-03
2.488776737680842462e-03
1.313423787501791186e-03
7.107942802082139327e-03
9.399372421696340629e-03
1.111072430798232778e-02
8.706772083792632330e-03
2.418895906425439814e-03
-3.091275576180656671e-03
-9.715983409790131600e-03
-1.114459873747250529e-02
-5.593452928297988451e-03
-2.297055009688808019e-03
-5.501918360606628498e-03
-6.560538795616717780e-03
-3.930351275013245146e-03
-6.005331753761439587e-03
-6.031621096675399488e-03
-7.548247420404090129e-04
5.930556886886777582e-03
1.151689618026458146e-02
1.073801854516741837e-02
1.342251093661604722e-02
1.751418876338668024e-02
1.501272055296647319e-02
1.742399630863923285e-02
1.761250481652334304e-02
8.832391416699305470e-03
-3.042350396468410274e-03
-1.476018430992602146e-02
-1.538657674053061850e-02
-1.202561815705353171e-02
-1.256901778254304949e-02
-1.348066969517364502e-02
-1.932424238300659708e-02
-2.126540791750207438e-02
-1.261079013091916980e-02
3.202680034670828124e-04
6.848972690426379309e-03
8.660717953836322494e-03
2.091453400598533921e-02
1.447219496294572562e-02
