-6.638481234675228798e-03
-3.985150012668348812e-03
5.273175782510665377e-03
7.864225454901275364e-03
7.711868142005836105e-03
1.011774907181906512e-02
1.096813590189494626e-02
1.146474655451964683e-02
1.102080935075036919e-02
5.224539223939022106e-03
-6.457015258569789905e-04
-5.376773488114691517e-03
-1.100888094774346918e-02
-1.387141536568426911e-02
-1.263719186364938886e-02
-7.507394476025485222e-03
-6.723648112867414671e-03
-1.110541910432347353e-02
-8.834452922218388043e-03
-7.347329512662071314e-03
-9.563583832242646826e-03
-3.040241644167850088e-03
4.934760494794129121e-03
5.750048168898813129e-03
4.986154283226928476e-03
5.622107814677430003e-03
6.515096271577544042e-03
6.206452472631304208e-03
4.770669243565714424e-03
2.794559578975558747e-03
8.141031773083566309e-04
-2.747747909500834057e-03
-4.878429826915102463e-03
1.022096247450037573e-03
3.469701524624919410e-03
-1.718237540556370345e-03
3.603443415139442581e-04
1.734961614902447028e-03
-3.230359619693350375e-03
-4.401794744700714829e-04
3.195388791077743637e-03
9.743666608331600591e-05
-1.021287515443121841e-03
6.524915673764089281e-04
2.665393324103555034e-03
2.565880811865180969e-03
-8.110294144366809403e-04
2.414641872281154348e-04
5.328320815509143826e-03
3.906511516782698763e-03
-2.264863066233681506e-03
-5.661047050521535520e-03
-5.772769908605548082e-03
-2.132866956979556985e-03
2.679661801424701624e-03
5.048087821817838321e-03
4.945059833254032526e-03
-4.266388453955645508e-04
-5.239832764647163986e-03
-2.185110049748144930e-03
-3.696619686105444974e-04
-2.442889864909600275e-03
-3.341758740355136800e-03
-4.629767745788823836e-03
-2.235528791456072202e-03
9.985197553433874593e-04
-3.035541551745294525e-03
-2.886124887787268074e-03
3.355004105343357707e-03
1.816501941585560703e-03
-1.929740071167764057e-03
-1.344299684965172010e-03
-1.307885645183143460e-04
3.138429207577480683e-03
5.439795254795668812e-03
6.320499694719722110e-03
7.657099183301335592e-03
4.420275676565370987e-03
-2.219181242787534518e-04
-2.890936025558094036e-03
-4.375247608511701608e-03
-2.392861054204544966e-03
8.726759044156519101e-04
3.846322483467802360e-03
4.345286483337128421e-03
2.596647761995482008e-03
1.434433019915702483e-03
-1.009027825216869028e-03
1.227374934789744352e-03
4.367541964301777276e-03
1.561638295688769652e-03
-7.825243782225940227e-04
-9.390154332906738149e-03
-1.022182255363968291e-02
1.293166564037736329e-03
-1.057844822890927246e-02
-1.990131515272392307e-02
-1.625938177160383535e-03
4.544699451979195524e-03
9.881003610765738080e-04
1.963146554377048856e-03
4.280454247608223256e-04
4.549378876338763464e-03
5.614583523597659401e-03
-9.132578907497510327e-05
3.910602832451285640e-04
2.275197937821365340e-03
1.410187033377813563e-03
2.638615712081069428e-03
5.044710347523045056e-03
3.112745296326158585e-03
-1.748593677664868774e-03
-3.617199678921738902e-03
-1.470677410108521240e-03
1.723544790771823270e-03
1.087021385738167617e-03
2.455631799494153392e-03
5.612687349283939330e-03
2.909119902686617019e-04
-1.890484396073888315e-03
1.251554274372549845e-03
-1.380948494857435743e-03
-1.417594936715462894e-03
5.235112132892646639e-04
-1.898764334537342757e-03
-4.731049053263341846e-03
-5.586800931759994086e-03
-1.387222690406136145e-03
2.804675996596723946e-03
2.294695823620977650e-03
8.855103792230062387e-04
-2.089777676541909861e-03
-3.827755799558089835e-03
-1.274453390959347406e-03
1.849368037416904316e-03
4.998339743912989450e-03
7.734105059023749229e-03
6.577116013621278623e-03
2.499297387158881060e-03
-3.689401889878784081e-04
-1.953158884646961566e-03
-3.710424559387946481e-03
-3.956173829850726659e-03
-8.693339464296291315e-04
-5.999198954402327859e-04
-6.977702545494161683e-03
-7.134784771877617296e-03
3.060702773323904530e-05
1.670959116455887107e-03
4.072750781288608768e-04
-5.061214586888324691e-04
-6.950311020893068775e-05
1.317965663240647668e-03
-1.286610470875440082e-03
-1.725662129670974465e-03
9.327182578255493453e-04
4.389612321592957327e-03
5.748115626357189027e-03
-1.372131476669038617e-03
-2.098304608345793066e-03
1.200117560342122422e-03
-3.937506179757019505e-03
-1.394468565264489349e-04
4.925185103731608699e-03
-1.480107514262432805e-03
-3.271493503810625914e-03
-1.495020302336585137e-03
4.771318618510358468e-05
3.864079267437223707e-03
3.192629158752409435e-03
-4.055328843201631644e-04
-1.085784139266079149e-03
-9.364147260247885707e-04
-1.755642117962165826e-03
1.174020122936661730e-03
4.034196909636288478e-03
2.342638283275486153e-03
4.026067530710266025e-03
3.061978970621154986e-03
-2.417733989836919062e-03
-1.054490144282986541e-03
-1.207239773490562757e-05
2.971149573015849691e-04
3.523144881293750839e-03
-6.915172368265476302e-04
-5.876060440697775805e-03
-2.648041460253701754e-03
1.352702370693307978e-03
1.508560447969656748e-03
2.463635542245971570e-05
-2.366541096524037244e-03
-5.109792988058907415e-03
-4.891912559435472770e-03
-2.643108788568657337e-03
-1.131867768075024315e-03
1.281446453809509172e-03
3.141068756869046068e-03
1.332069007241219304e-03
-1.017641690110804992e-03
-1.258350439870689554e-04
-7.633905790789918648e-04
-1.342772615545675084e-03
3.711643035739651836e-03
3.606950117397718543e-03
-6.081057438628778219e-04
1.933404923612347523e-04
-3.594764612528233831e-04
8.066695981823877220e-04
2.452646475630333896e-03
5.479459965893833774e-04
2.611067688424814019e-03
3.213291836315973677e-04
-4.489549094961360620e-03
-1.997127639159124082e-03
-1.560228018313968706e-03
3.482801512004416182e-04
4.998205281425494376e-03
4.112576171687769636e-03
2.390634621929230326e-03
-9.483683752070045693e-04
-3.100908894543806960e-03
-5.098427062695163291e-04
-1.502963638738208764e-03
-1.955821144921333996e-03
-7.792841945693831625e-05
-2.443414440046537059e-03
-3.245689260970277025e-03
-4.142780107224986472e-04
2.654940556175803927e-03
4.726137899814831199e-03
2.133405445521491771e-03
-1.836445294717689190e-03
-3.151002699393016127e-03
-3.325289245456395596e-03
-1.819397447734731393e-03
-4.131867897095667938e-04
2.725204623769959030e-03
7.100601084801200572e-03
2.458881363893122667e-03
-3.641777919373842803e-03
-1.045378529103870328e-03
-8.279537163319418760e-04
-1.938351541501100736e-03
3.141521535803388186e-03
5.459478970294434456e-03
1.482768486834123772e-03
-2.412257327814687838e-03
-1.813766119300944417e-03
2.529108732282768241e-03
4.199957196766355635e-03
1.126329648062332663e-03
-3.367839752099553285e-03
-6.715652146232033333e-03
-5.677189974518923911e-03
-9.385684034066490988e-04
2.525642779582190287e-03
4.371752425656278036e-03
5.121160934831414137e-03
1.886948056401299267e-03
-2.878844037481173308e-03
-4.136068785215214587e-03
-1.842973030570862168e-03
1.899555817055196541e-03
2.329451145265943983e-03
-1.368113345968702916e-03
-3.183529841621330833e-03
-3.256387212487773380e-03
-2.946995305427521812e-03
7.251784860952208665e-05
2.118720454790518765e-03
3.849492830166719370e-04
-2.317013901751784066e-03
-4.838884120542274840e-03
-4.805571629849227262e-03
-4.710073358437259967e-04
2.844820687692682822e-03
3.717802522525261427e-03
6.325330053676081477e-03
4.848982768231720371e-03
-1.959101494171388690e-03
-1.788429976293939372e-03
1.526945465555763250e-03
2.185094171138015056e-03
5.673652819763588123e-03
2.591394882681594385e-03
-2.604943933015208685e-03
1.177230241755628133e-03
2.724638946230670570e-04
6.665583903808741488e-04
6.312683287789068107e-03
4.655442503716662218e-03
3.757607860630329637e-03
-1.542851209783280188e-03
-7.886163445152562235e-03
-5.269197255114890354e-04
5.427561044466258817e-03
8.622693511639793751e-03
4.020726582360006213e-03
-6.059500675016494739e-03
2.575643936843442956e-04
-8.888991800625078987e-03
-2.903162998568534908e-02
-1.433708542294949255e-02
3.348027768821552810e-03
4.420832940620156824e-03
5.554779964123322984e-03
1.258023287924331119e-03
-8.666001626219566219e-04
8.321209701464630506e-04
-2.575925172428362455e-05
-5.893049381023628477e-04
-2.620246832179741470e-03
-3.457585460496696763e-03
-2.742595559135490094e-03
1.975347138584739298e-03
7.107266521519835234e-03
3.796086881249010562e-03
3.765785751469771184e-03
4.601726884454703480e-03
-7.945406665850721258e-04
-8.085447278995238751e-04
6.448591252578978177e-04
6.382978716520785502e-04
1.796628382217315941e-03
1.253481562484573325e-03
1.158009851647560625e-03
-1.166458851111818818e-03
-1.683995793959362428e-03
8.647301445433051370e-04
2.782988600600025029e-04
2.887262106833681473e-03
2.726120762348003147e-03
-2.450029238931031479e-03
-6.545480416088217705e-04
2.792937149202624758e-03
5.096144178513329487e-03
5.975606928138081642e-03
4.422869680265310507e-03
5.348309050644587358e-03
1.980583250337279722e-03
-3.521750513237474362e-03
-5.914991937893254899e-03
-6.342032161588253246e-03
-4.211282975184304622e-07
1.977874924141918497e-03
-8.738765818923211045e-04
1.757123304200483788e-04
-6.801621118062680174e-04
2.700442678662681988e-03
-9.597840669679551186e-05
-7.216225456239572754e-03
-2.159820619891027953e-04
-1.247251047071650486e-02
-3.087930681568012634e-02
-1.182530420559235219e-02
5.237796334751536678e-03
6.625699093912487680e-03
1.172657997553264338e-02
6.793752043351013008e-03
2.687405752266992104e-03
6.866761311973615216e-03
4.469429721505117394e-03
-3.280115922207530506e-03
-1.016285427177243336e-02
-8.282686925645993056e-03
-4.613998306115360722e-04
4.191282244956835365e-03
6.897726473235388234e-03
6.543867027657719083e-03
6.311484844995865831e-03
6.721505139662714567e-03
4.452097481009144320e-03
6.448179935728251891e-03
4.592322047955829656e-03
-6.773695707234405304e-03
-9.069421394521636967e-03
-3.738384708754479563e-03
-2.804928604727347126e-03
4.802454035742923866e-05
3.616723684111708761e-03
1.996888595963931898e-03
-1.524032098916897602e-04
1.002942883883712688e-03
3.993261451664543993e-03
3.693433368754378467e-03
1.547921247206438759e-03
2.267000679151386523e-03
5.442433034251248965e-04
-1.401653334384185372e-03
1.289163903427488272e-03
-1.869176948386734767e-03
-8.744326560022190262e-03
-6.666641726891145425e-03
-1.418377233464553425e-03
1.741285098374417304e-03
5.270139130192339622e-03
5.903722149608634645e-03
6.122616167121807708e-03
7.584574940167061567e-03
3.090844317805112665e-03
-6.890715700656736137e-03
-1.539996962950352342e-02
-1.300028603536972777e-02
-5.931005380403502796e-04
8.301311138386774282e-04
-9.015736214478072344e-03
-1.162257415013049841e-02
-8.583512822017878852e-03
-1.777754151610531571e-04
9.566621667667810774e-03
5.163801875237100658e-03
-4.387936065111800767e-04
2.224939123603122959e-03
-1.448484160825742363e-03
-2.508220220139003188e-03
4.684243056135590361e-03
3.958902848442714777e-03
2.251398453725672426e-03
6.094322857599622500e-03
3.036124980571082519e-03
-1.104018401574877314e-03
7.728981853866511787e-04
2.466621693350485103e-03
5.833715376365657991e-03
9.579401323705088317e-03
8.298862798283901387e-03
4.380185679402650439e-03
5.276922066873590295e-04
-5.553513716468610074e-04
7.180812321011213880e-04
-2.271514711355607317e-03
-8.941674127594794255e-03
-1.046633222786376438e-02
-5.719099175803056198e-03
-6.416895923472212696e-04
1.713115852088605050e-03
2.601403844098813811e-03
4.621765992924532426e-03
3.393699085493936170e-03
-2.732941482157394322e-03
-5.885821838419198933e-03
-5.607859415264372996e-03
-3.484646193318416060e-04
7.625203748441664216e-03
4.984652592539621542e-03
6.398755241591655429e-04
2.007247960210983406e-03
-5.889551651017428799e-04
6.590234950759115903e-04
3.415520002549306267e-03
-2.027447923609726824e-03
-5.985902978297204073e-03
-9.637884432091911938e-03
-1.243586803568320735e-02
-5.878470657935778998e-03
1.446513369108585459e-03
5.003862493730411136e-03
6.711032156427782641e-03
2.654466488327103871e-03
-3.519659890704707542e-03
-3.982538781250980452e-03
-1.155344617684892806e-03
7.017828559137917433e-04
4.463770655703198052e-03
1.729632450126959188e-03
-8.938352933799423305e-03
-9.989563127594929329e-03
-6.894383685896156300e-03
-1.440840289951509290e-03
1.439706876684146604e-02
1.858497892797758566e-02
9.256239481860743454e-03
3.095516728328131725e-03
-1.391518682061099015e-03
-4.700090229128978895e-04
6.522461893808065986e-04
1.749911894098062342e-03
9.730669716844513387e-03
7.383497376678107259e-03
-1.021733658209330068e-03
-1.327729381647379430e-03
-3.209782281259160926e-03
-2.965461187072076545e-03
-8.965657035003651593e-04
-6.150346251477749326e-03
-8.140143839638906004e-03
-5.021703868047272708e-03
-5.526101301476771775e-03
-1.752240350405276587e-03
6.032545975155089758e-03
2.600861123326016818e-03
-3.352884745711914079e-03
-1.331673013787254231e-04
2.098215900904097913e-03
3.996864381003305440e-03
6.765162762186413721e-03
4.563998687101346839e-03
-2.911437380948309148e-04
-6.220044067948709253e-03
-6.357925823292362617e-03
-2.410696359703450552e-03
-1.208216522849699321e-03
-3.336094756958337543e-04
-2.144425136616327776e-03
3.601022165806383110e-03
5.396729837059340527e-03
-1.673744729351480179e-02
-2.151123834608225163e-02
1.327645267115681480e-03
1.129811026696825489e-02
9.561383327314536273e-03
6.999785287372071139e-03
3.152038418219448891e-03
-8.100835393934397062e-04
-5.330053863582345786e-03
-3.280501123317475058e-03
2.296127246815686616e-03
5.074238669093364927e-03
6.607885567881003480e-03
4.823182457328717941e-03
2.475413107385761834e-03
3.047892682164275117e-03
3.908344669889690821e-03
4.348617330174671392e-03
4.946134214230304971e-03
1.595689974093271934e-03
-3.660989427103096723e-03
-2.152803915863446289e-03
-2.554785694816662494e-03
-8.610989655401246612e-03
-6.940803708416304514e-03
-2.997687790531147669e-03
-5.607894761346442040e-03
-9.257375420187069145e-03
-1.058555308612761300e-02
-7.450393800989186903e-03
7.655387423418847552e-04
7.871359125084994093e-03
6.318704077005461543e-03
1.659434301939857878e-03
2.996411024745445316e-03
5.552569750650077941e-03
7.326395676646380722e-03
8.949244673755980123e-03
4.694980138308531802e-03
-1.376977302060990085e-03
-2.518652210519443588e-03
-3.796560473676362495e-03
-2.747090568487076199e-03
5.177453662295739348e-03
6.240171113113156080e-03
2.210595493095981242e-03
2.319585479011645329e-03
-1.729969720538333897e-03
-1.715827278752552571e-03
2.786900124257903587e-03
6.500907465205415202e-03
1.224509454112571692e-02
-6.963017386255379408e-03
-2.999610528628644454e-02
-1.577034036893091781e-02
-3.504859776094176264e-03
-4.254109606565826054e-03
2.446110066912367612e-03
3.384891583307293207e-03
2.079602662633807473e-03
-9.858993741556304567e-04
-5.030580150310264877e-03
3.212933198607802253e-04
4.153242765832648731e-03
6.292844069079268042e-03
8.051332587931447904e-03
3.545810073938172359e-03
-4.426822599475150255e-04
-4.934571379232534274e-04
3.474515360783671236e-03
3.211828696925107807e-03
-6.745226719400450452e-04
3.516399549015816230e-03
2.772476272416184509e-03
-5.987154468283810774e-03
-8.752163008486420204e-03
-5.336290880333219126e-03
3.003755850139339881e-03
6.314729019140489369e-03
2.102278317044379858e-03
1.700163217835487690e-03
-3.151737430801056662e-04
-1.342395300391683232e-03
3.181282318299344467e-03
1.168773306931090473e-03
-1.925889730635915557e-03
-2.734002775390373136e-03
-8.101724044582134243e-03
-9.080560405216908312e-03
-6.095970202076514410e-03
-1.255503305607471014e-03
9.095692680935801508e-03
1.089531256731613752e-02
3.582803941461669764e-03
2.525153025063913868e-04
-5.769275733727124555e-04
1.332401681434145478e-04
4.247684150659783962e-03
8.445494900452354611e-03
2.655615826994591790e-03
-6.884378717052910129e-03
-2.588963086271433688e-03
-8.034312453380622701e-05
-2.892625614883153739e-03
1.615708396791622984e-03
-5.110196499893768750e-03
-1.060924646842713488e-02
1.287101102296388504e-03
3.364572578811964206e-03
1.652623743774137965e-03
5.980383158063882869e-03
1.257061233560549662e-03
-9.975568554204449021e-04
2.818528616382922833e-03
-4.849772177099562795e-04
-5.994578923433707511e-03
-6.849938093478664773e-03
-4.459845641793545000e-03
-9.218649317310003994e-04
3.685907375882647476e-03
5.010385175625809914e-03
-1.003628863554122640e-03
-4.932422395105288439e-03
-1.630304592330079037e-03
3.013523245557598717e-03
3.834218370569872879e-03
-1.153594058604065584e-03
-3.444749576666419465e-03
8.362177945261386677e-04
4.382873490113587539e-03
7.737841068164754733e-03
8.952375174184635728e-03
3.322979346391038025e-03
-2.066385900832509292e-03
-2.760087523029954460e-03
-2.757643851029399455e-03
-3.938028964960220771e-03
-3.126492439641265480e-03
-1.259679805692663233e-04
-4.878080584046967172e-04
-7.873352256127225243e-04
2.225580409984633055e-03
4.741230565481551157e-04
-1.914915677923748928e-03
4.547155446703528324e-04
-2.027377131502955138e-03
-6.405866634712740343e-03
-4.907053845077379364e-03
-1.029766634296244753e-03
5.279910650270306857e-03
8.217585029941507080e-03
3.128255564367000106e-03
9.739653767833751467e-04
1.124175723005835801e-03
-1.460577725828617057e-03
-7.786176510936737702e-04
-1.266656317656146026e-05
2.465033460707443487e-04
5.755558347885571073e-03
8.610715329122595185e-03
3.812184132815915529e-03
-7.597486735423696416e-04
-1.205805970605212636e-03
-1.466298291619067863e-03
-3.011852466065376155e-03
-2.822281026227328737e-03
-2.424472561333782406e-03
-4.326862553114118638e-03
-6.803012595892757655e-03
-8.098774294936553902e-03
-5.114206095684870230e-03
2.118308459067327291e-03
4.713300331335924104e-03
-1.052546785628018060e-03
-6.485914294136960190e-03
-6.884937580730052416e-03
-2.924302358119896736e-03
3.381542595839256808e-03
4.356687745694794688e-03
1.882012193978321000e-03
1.029729908998590490e-04
-4.872707263884045251e-03
-5.325198779495297907e-03
2.041703073019713287e-03
8.195779293304308183e-03
9.121721268654382764e-03
4.043990521048178473e-03
-1.589762488725948047e-04
1.744950287340333163e-04
4.334368964780922588e-03
1.124824762033930711e-02
9.608279768707121346e-03
4.907298289950096960e-03
4.539306740294448035e-03
1.047642874317609735e-03
4.786289864621176516e-04
-1.252576090560971085e-03
-6.130111825116709920e-03
-1.303216018646725710e-03
3.978988259060481543e-03
3.481342292110312618e-03
1.406336644238209005e-03
-1.158901846415876782e-03
-7.511495201589916612e-03
-2.135618799650496752e-02
-1.884930786259659749e-02
-2.300933955235997738e-04
2.111019027533852371e-03
-2.880634291180371887e-03
-6.839392704073724363e-04
2.552963399174538149e-03
1.974349827155669288e-03
-3.853642764061091311e-03
-4.131489093522297019e-03
-2.824123361470958632e-03
-4.843619413562725261e-03
7.242020663919771645e-04
3.592357251024853263e-03
1.885147424362956445e-03
5.505004024802483825e-03
5.884959057458249466e-03
4.540301053471655114e-03
4.452132346671342812e-03
2.548873526250303428e-03
4.711701397118322164e-03
6.080355165285785020e-03
2.708524485098602261e-03
-6.486743307957646039e-04
-5.715007683086886781e-03
-8.960437732982393447e-03
-1.154916127351308247e-02
-1.276017906272535266e-02
1.448360288931728143e-04
1.230675892628580598e-02
8.416947916622907061e-03
3.145267258851653855e-03
1.316202362040092824e-03
3.297824458916713206e-03
6.551610392953557960e-03
3.030298555697656139e-03
1.404013050114306764e-03
2.228726993203440816e-03
-4.776998085211304123e-04
8.376181392483095407e-04
6.080023718277552391e-03
4.605698724639348610e-03
-3.687396004295920293e-03
-5.082572071913042840e-03
-6.695134918434560980e-04
3.522004082177071158e-03
1.000948777893703560e-02
9.901279689812936616e-03
7.754832798207288158e-03
4.285254390565887417e-03
-4.611777698363800013e-03
-2.348631355223900104e-03
-1.363572501814395814e-02
-3.889072390097378373e-02
-2.594625020738431861e-02
-1.232237908609743176e-03
-3.440244322929389247e-04
-3.412618005098237879e-03
-4.816867661520948113e-03
-1.532156631294080609e-03
7.681278348160315832e-04
-2.778103393802584808e-03
2.170355876340906640e-03
7.881308445035485957e-03
5.343666197231322808e-03
4.825741626644398409e-03
8.306043572374953790e-03
7.862277006146995220e-03
4.099552980541724435e-03
3.370025558178333866e-03
-6.035900849882123087e-05
-5.424604042221826267e-03
-3.702824915906733228e-03
1.543104847136401612e-03
5.296797788530451662e-03
3.805880801658406091e-03
1.122954322564674850e-03
3.265522501839913244e-03
3.267369180076857508e-03
2.893252861213466663e-03
4.280691703089414477e-03
8.997093955533278864e-04
-1.549621893720011566e-03
6.076205801091032373e-05
-1.125222957480319580e-04
-1.223881401011306640e-03
-1.135005955281013709e-03
-4.761705492433019791e-04
2.327595184448969293e-04
-2.495458770095273018e-03
-6.574949671604148234e-03
-3.279378689664897567e-03
1.461334505301490434e-03
9.136917677652718270e-04
1.564580396355738472e-03
5.627429878593846529e-04
-2.587055858491683121e-03
-1.423187154485069288e-03
1.481658368449365049e-03
6.332274593308895652e-03
6.845359734843269213e-03
-2.459199197422039674e-03
-4.026581441668453977e-03
5.781967943505591200e-03
8.509711256221921816e-03
2.567548372417657269e-03
-3.304614087263496331e-03
-6.229628139935311677e-03
-3.241818590829229334e-03
-9.514667210910165290e-04
-4.995216773182252837e-03
-2.860069730244043859e-03
4.721084858734338370e-03
5.153284125809161863e-03
5.729876816505363171e-04
-8.274410064467540085e-03
-1.372080049859215889e-02
-8.531127944182573600e-03
-1.096374302066454968e-02
-1.921266745322468619e-02
-1.495827176182129743e-02
-1.081771680182735951e-02
-1.088403916329526953e-02
-2.810169255974188842e-03
5.581973808373236028e-03
1.263532714468727780e-02
2.207724488681386127e-02
2.179831588065497122e-02
1.338738381682010904e-02
7.328292198293888393e-03
1.797970525398467434e-03
7.756088706722827570e-04
9.534121202769158671e-03
1.905097803432872702e-02
2.041027487468665205e-02
1.488060685257527188e-02
8.894248411451005643e-03
5.985485162761654439e-03
1.925163106918104713e-03
-2.133880285509598927e-03
1.708361839937337385e-03
3.712682284157174922e-03
-8.114164030353993723e-03
-2.068343807669369497e-02
-2.331271802578159524e-02
-2.081111666044635836e-02
-1.697195586784581642e-02
-1.291501180222430663e-02
-5.060427772865810567e-03
4.327527567970426182e-03
6.890080060252721898e-03
5.257674811508126697e-03
3.604371760770631265e-03
2.391901418479754418e-03
-6.940163267329736750e-04
-6.379659363480739628e-03
-8.374406991705302117e-03
-9.128933101547442863e-03
-1.031829228185640428e-02
-5.653286710267324544e-03
2.587231148606962405e-03
1.009830517354742135e-02
1.375376437924538502e-02
1.282971121448734340e-02
9.792908919799727177e-03
7.940625657614532040e-03
1.221886979667692781e-02
1.442347675217349814e-02
9.813544214627214005e-03
6.401145136925650084e-03
3.800079252451729270e-04
-7.386252758376060136e-03
-1.109397071830949856e-02
-1.349588934137567649e-02
-1.335574116703357184e-02
-1.358320649240708604e-02
-1.431138423198754714e-02
-1.213250073075671648e-02
-1.339111993266799486e-02
-1.142772510111971299e-02
4.683509310015152201e-04
8.084188640537887452e-03
9.575254938309483987e-03
1.495402559410906676e-02
2.228519168178081516e-02
2.805620550552549025e-02
3.072174346823298985e-02
2.953261463946211390e-02
2.748497732563157797e-02
2.196454367499476104e-02
1.262304772703473632e-02
3.493471181507044367e-03
-8.004647859949176256e-03
-1.658688157532807808e-02
-1.813294076485359729e-02
-1.970421062432408874e-02
-1.883808748062554966e-02
-1.603524781595605866e-02
-1.742530151464293312e-02
-1.301353318250076004e-02
3.586430486581956411e-03
1.326596426985118989e-02
7.704201104595633301e-03
4.535409615624499957e-03
-1.639365844454019781e-03
-1.453343171908777313e-02
-2.059857245299234405e-02
-4.175002066665600003e-02
-6.359159214772676372e-02
-4.675888381520511977e-02
-2.571260858601564364e-02
-1.090777448294018986e-02
1.754336929426915381e-02
3.246299605767723195e-02
2.995077963513745334e-02
2.723937577100506158e-02
2.291434814489788641e-02
1.952392802161643376e-02
1.610033993062496421e-02
2.799818750200978954e-03
-2.194144509813935121e-02
-3.670853230780114773e-02
-3.129169091485079629e-02
-1.722657485949356804e-02
3.658850842566210328e-03
1.704307934949844325e-02
1.898096846728061435e-02
2.913892246207130596e-02
4.323612449421514875e-02
3.925769667143741426e-02
2.949727025355028051e-03
-2.683886278185478730e-02
-1.463614173750685254e-02
-4.154707648033461632e-03
1.175274881625700202e-03
3.138089627258734693e-02
6.026001582623341513e-02
7.160466670620080354e-02
6.531951316126131946e-02
5.248560092431256430e-02
5.361877168974440999e-02
5.053048384060447595e-02
1.938683208429404364e-02
-3.107171435981128868e-02
-5.872577092988945369e-02
-5.979183173863421297e-02
-8.218088135212478496e-02
-1.074441183522664989e-01
-1.064350281825652556e-01
-9.707856245173457355e-02
-8.187436306184861512e-02
-6.339906479017591578e-02
-2.412430364112119405e-02
2.777039478601689426e-02
3.502229718690010041e-02
1.867798675517770915e-02
3.170510941767699931e-02
6.553020318894617335e-02
7.812312927509323934e-02
3.821787840093845978e-02
-2.924019429227261990e-02
-8.388282353864062735e-02
-1.109375637486422483e-01
-9.832687259005555569e-02
-2.897346271004875781e-02
6.325352938053903362e-02
8.020472955712282248e-02
3.589950019003679965e-02
4.086819302316464092e-02
9.100494980587686689e-02
1.147738709789101336e-01
7.280637280623333818e-02
-3.831203125083332186e-03
-3.977528756218722678e-02
-5.328584313460499322e-02
-7.455747235916897198e-02
-2.933687063184383520e-02
8.224439906201759520e-02
1.183806564655184579e-01
8.298859713804408733e-02
1.221091509350726578e-01
1.522445608456094723e-01
6.678297952482306621e-02
-1.850701413543746725e-03
-4.345443533840288169e-02
-1.340362949884207899e-01
-1.745231967951915153e-01
-1.054926139742052155e-01
-2.330118523362374044e-02
-1.225211809524421637e-02
-6.846312685376988033e-03
6.807845011395953494e-02
1.249802301128800086e-01
8.895792252310565085e-02
1.892607481888273135e-04
-9.033856026968579978e-02
-1.807607431103525342e-01
-2.869522336953631014e-01
-3.432295610293026322e-01
-2.878818894516335103e-01
-1.685723470168951077e-01
-5.769068809222062388e-02
3.312705306459655386e-02
1.699995264760406355e-01
3.157909382488711669e-01
3.155291730477323142e-01
2.050224556092220818e-01
1.219766215427051936e-01
6.561161835032573719e-02
2.136172840060924713e-02
1.555979783714872729e-02
3.183213850492767893e-02
3.578127027937962057e-02
2.911298635878628929e-02
2.928992724491353075e-02
2.642281063109234301e-02
1.537075179701039886e-02
9.645686505911778286e-03
6.434221119608942926e-03
-7.468233276307024906e-04
-9.758892371848093897e-03
-1.851711001839317916e-02
-2.675114823387066479e-02
-3.937507423501812598e-02
-5.658130462166771624e-02
-6.900336253692289368e-02
-7.300151799399347274e-02
-7.192617121579009121e-02
-6.427551329427559634e-02
-5.304217838878930863e-02
-4.565084054248504802e-02
-3.616076948532635088e-02
-1.953122413425699769e-02
-3.352742419074477946e-03
8.431351081924966934e-03
2.066770966172802940e-02
3.165915930595047945e-02
3.426009029932509248e-02
3.529250954435347865e-02
3.692920301509122760e-02
3.156402374524051868e-02
2.518949394270420319e-02
1.565785392572748708e-02
2.188035411090476397e-03
-3.207868723989121696e-03
-8.286639548400080713e-03
-1.402933642109327472e-02
-1.235998365267331443e-02
-9.048887939209725867e-03
-3.521094365280114102e-03
-1.545644015030502765e-03
-4.369945901017635581e-03
-1.934535091940987623e-03
1.921972646318482114e-03
1.247110966884821398e-02
2.854427294275244109e-02
3.413598265544162680e-02
3.420546374622707858e-02
2.955713263112656405e-02
1.857082513081002167e-02
1.400512938270253617e-02
9.999468224899945093e-03
-1.553491231642351294e-03
-1.104161329699203213e-02
-1.617732506180459204e-02
-1.928572919258244103e-02
-1.680763070392593192e-02
-1.196829350381481590e-02
-9.388457821270465922e-03
-6.868076579924338454e-03
-8.191538247936530626e-03
-1.196322728113267606e-02
-1.110476315833055193e-02
-9.949622203181416116e-03
-7.056541516845824327e-03
-2.596699754055090993e-03
-2.803950194155921741e-03
-3.230434318969313979e-03
-4.606736631342259018e-03
-4.731988512206349723e-03
4.968019339621761003e-04
1.103944882016610722e-03
-3.848720952971030566e-03
-7.060986691881181686e-03
-5.233372962318223395e-03
-3.544655895177576017e-03
-5.619957505286968594e-03
2.653681467693498044e-04
7.489212856007457057e-03
5.432040081758470612e-03
3.854732058446612604e-03
8.020667123346641699e-04
-1.604349727643139675e-04
4.602478618704142731e-03
2.454242665600604723e-03
1.115400811507377037e-03
4.500036576725391195e-03
3.423973937634149003e-03
1.943637964253538356e-03
-8.240061280804099504e-04
-1.591888680776983034e-03
3.426430753900620591e-03
4.249971944886021813e-03
6.446288325660191193e-04
-4.097378199684769198e-03
-5.419246882929021521e-03
9.360897605722184617e-04
6.310052379715957484e-03
7.387358646776809312e-03
4.514926067794020233e-03
4.218853210600954917e-03
5.432140579329193357e-03
-1.279991121811666251e-02
-2.439842866404406604e-02
-3.206845571192322008e-03
9.266862257453592142e-03
4.392681148676053082e-03
2.760693356908049383e-03
-1.546185107496378169e-03
-1.347189169571306588e-03
3.524486676921028631e-03
3.953412267351553988e-03
2.442007611714520562e-03
-1.565552894610342839e-03
-1.462096534007528053e-03
7.012099245342728708e-04
8.018465215772817376e-04
6.316907696919985341e-03
9.642993902239199028e-03
7.515552775205539514e-03
7.745914215863619959e-04
-1.129158417360659472e-02
-1.291144988354700485e-02
-2.036930928634543992e-03
1.243341215962838128e-02
2.296797779280954077e-02
1.794752824824378049e-02
4.424081152233416692e-03
-7.328190148626622345e-03
-1.530419901530307228e-02
-1.776387031895658442e-02
-2.095336341799645258e-02
-1.972171257786046322e-02
-5.311427502190822422e-03
6.657335706442796958e-03
2.691850206272831253e-03
-1.664962658064655801e-03
4.240555586939430237e-03
2.863517270809626345e-03
-6.694006674704027632e-03
-8.137206817628733074e-03
-4.835395318047520756e-03
-1.760919064985612056e-03
-1.619527148742368628e-03
-5.438500295012684178e-03
-8.661964539027873847e-03
-1.163081576646282991e-02
-5.391647675744313216e-03
7.572068028299841144e-03
1.454107651685401792e-02
2.469736144304702716e-02
3.040947585631851094e-02
2.139994767608847243e-02
1.191380659485730305e-02
1.154409483824519225e-04
-1.012980601917690821e-02
-5.767679445767921222e-03
1.590215739546202347e-03
4.205851358620287146e-03
5.128132275259417346e-03
3.399257055342929171e-03
-7.224154766248979840e-04
-4.369575885984545820e-03
-3.925812584566703081e-03
-3.535403691777047001e-03
-3.224478841574120961e-03
7.764113206652744617e-04
-1.736087868067940319e-03
-8.927391875995867657e-03
-8.899378919446183575e-03
-5.783929985487048023e-03
-3.075296593030309254e-03
-2.991834773315259557e-03
-7.069879676299694465e-03
-8.102141592652222640e-03
-5.919405169695427828e-03
-3.140445270509744334e-03
-2.581810550091176632e-04
2.189509992874162734e-03
7.249329877232721028e-03
7.532052048617927410e-03
4.173052592428891762e-04
-1.743148056899847384e-03
9.484282037277841750e-04
3.156408782370348064e-03
4.194917527872630419e-03
3.001423678238661873e-03
2.106486158107219887e-03
3.386672033817652748e-04
-3.131117526785747503e-03
-3.761266664924967605e-03
-3.137641494116678929e-04
2.443771873596210960e-03
-1.128525043355325637e-03
-4.817639895723109696e-03
-1.930719001128039947e-03
6.227486506076364585e-04
1.047312573164277871e-03
3.681839338209460123e-03
4.777824088550249558e-03
5.642961394720191586e-04
-1.497909867256402286e-03
2.232048051919397966e-03
3.291241243488277589e-03
3.496413200986980829e-03
5.476019485686108024e-03
2.557407365819793551e-03
1.566561144217341851e-04
1.760789385560595350e-04
-2.526800501429817426e-03
-1.089066262283766399e-03
4.164362800817817019e-03
2.934909373970459069e-03
-3.532689002877508876e-03
-4.832041209053020148e-03
-1.940433747139790445e-03
-2.858779515087727340e-03
-1.978830015704939084e-03
8.408909837918534906e-04
-6.246393820107509071e-04
-3.333259764480651834e-04
-1.507020459209673516e-03
-4.485137191742451061e-03
-6.982193417430764687e-04
2.453727040949461868e-04
-1.105433554492599472e-03
2.469386963443027244e-03
5.273991470336864516e-04
-2.519961467426438083e-03
-1.792787616195536766e-03
-3.020523260667271840e-03
3.118861345420545148e-04
2.243772603624308738e-03
-2.345679244703591411e-03
-2.887310632251528612e-03
-2.374270976376831755e-03
3.496423057187132005e-04
5.843667669993354505e-03
3.816586889559464135e-03
2.245856613753565399e-03
4.321948983828538537e-03
1.542333027519041198e-03
-1.366802026666096492e-03
-2.506296915628638752e-03
-4.070665406903429574e-03
-2.645352653834831015e-03
1.739595578246679953e-03
2.943895133069898608e-03
-1.073966456530628388e-03
-3.469507688647897967e-03
-2.194088754968309945e-03
1.378402530422871133e-03
4.955286821572714960e-03
1.727733245267628649e-03
-2.751603987156665040e-03
-8.298266559793255259e-04
1.448994249987555069e-03
2.515009603797321077e-03
4.016728625563792399e-03
3.601002442527837140e-03
2.394110493527743487e-03
1.190584901734070399e-03
-6.578187617754315897e-04
-2.473051625662531314e-03
-3.459677909594100539e-03
-2.011608369580868312e-03
1.005041818293793106e-04
-8.462745616729327146e-04
-2.579320145945133112e-03
-3.080051871918053699e-03
-2.634586799386077257e-03
8.770338678910539359e-05
1.350249717896983160e-03
-9.028428808993045097e-04
-3.553200772644659038e-03
-6.116014983993542375e-03
-5.384146227711920744e-03
-1.808254182842522180e-03
-2.838490311613438223e-04
1.224162837026531630e-03
2.183123805202987107e-03
1.003276122455000290e-04
-2.267033954187463746e-03
-2.349606383146852530e-03
1.323622185682122015e-03
4.762912343619319852e-03
3.830792996776877148e-03
3.343519801805054301e-03
4.788286714146668989e-03
3.879470223104235053e-03
1.353078455909351467e-03
1.609380689947858926e-03
5.203366505201692180e-03
4.038258241876056809e-03
-2.456856617361811729e-03
-2.306836930819017827e-03
3.829478879590514665e-04
1.224116826369758783e-03
6.012418518394107431e-03
3.430957458072101188e-03
-5.769682174502864785e-04
5.182502914591879950e-03
3.429375214725715205e-03
1.048730695152759462e-03
5.504427314189431521e-04
-5.533273697155872972e-03
2.166527574065156916e-04
-7.265541501507205915e-03
-3.090530343768493546e-02
-2.201883710867775026e-02
-1.698182464805661528e-03
3.476076863592948707e-03
5.775053557767565252e-03
1.089299507695800501e-03
-1.529529788302719446e-04
1.873127641542090974e-03
-2.782491578464049882e-03
-2.036164237812379085e-04
5.197444352167067058e-03
6.649667447602689886e-03
7.685223383257129733e-03
3.039839500220592287e-03
4.046478987208436797e-04
3.596393481527211580e-03
2.888669022806319726e-03
6.393428190532436228e-04
5.560787390744232955e-04
-3.061265897285848567e-04
-1.135839957574280969e-03
-2.002600009488990536e-03
-9.981023069487390560e-04
5.774028004174485904e-03
7.777904225179619289e-03
-8.902617335117873811e-04
-5.285459274240386640e-03
-2.891637509394369421e-03
-4.278328548779783413e-03
-4.979674200609312922e-03
9.200428021702540884e-04
5.028935381007999458e-03
3.970717013762999764e-03
1.795768246753056243e-03
-2.824461111806815007e-03
-4.666718549659036423e-03
-2.194413968664352815e-03
-1.449805743906607946e-03
3.519881618376828353e-03
7.093332122256786228e-03
1.970776108698232745e-03
-1.752571698829846389e-04
1.141852781687216370e-05
-5.227472877288756115e-04
1.464764699172131776e-03
1.153260676655735485e-03
-1.202493769133224999e-03
-2.186224533428021439e-03
-3.570935967509133047e-03
-3.584482336502974303e-03
6.629755395911998694e-03
9.532122400855606165e-03
-1.628272806610079823e-02
-2.518659230844814273e-02
8.710574262364994972e-04
6.290893996181081728e-03
-6.806415400861969174e-03
-4.911949456152053285e-03
2.623367757099983547e-03
6.239008753879804817e-03
5.637072005396578933e-03
4.460466182957045951e-03
4.128267956707095190e-03
2.558600594687176523e-03
2.576724256437660024e-03
8.366890951228454169e-04
-7.996841723528064477e-04
-1.373513494570069611e-03
-3.943119150288667933e-03
-1.100545468423954872e-03
2.075763147499556840e-03
3.620097898475895318e-03
7.884145640817886991e-03
2.893224153845707670e-03
-2.679078309552039051e-03
2.926685427648084096e-05
-3.248433632088478570e-03
-5.503157490052575616e-03
-1.390077882314963041e-03
-4.250814627832658153e-04
9.380230069798616357e-04
1.006114596800652744e-03
-1.806576555819388186e-03
3.233099996800257482e-04
2.821874530746307837e-03
5.515418999235874829e-04
-1.164600263362965994e-03
-5.403913068982851972e-04
-4.347510770018280218e-04
-1.274328403497008457e-04
2.223163187664693036e-03
3.480921116555896980e-03
3.657104386517778718e-03
2.818237401328579656e-03
-3.012295655969282051e-04
1.078642976948653151e-03
1.722780065438597828e-03
-2.269115400237809842e-03
3.438140639601591211e-04
-1.468199897714627517e-04
-5.587748396160001525e-03
-4.476247541382344375e-03
-6.951326038058531880e-03
-7.289153012485193039e-03
-1.303775915119818104e-03
-1.892891063436236685e-04
1.502035629691928897e-03
-3.871653747540280185e-03
-1.117638390028852582e-02
-2.072820119405919138e-03
4.926237743233134736e-03
4.430104857820495005e-03
6.094769489968015694e-03
4.486116980831511558e-03
1.486476455991411977e-03
-9.155669749026010664e-04
-9.652851903924962278e-04
1.315435830565899909e-03
3.889318941160302152e-03
6.526370931743696174e-03
3.279716119950727964e-03
-5.640430570370831391e-04
-2.293721203955008999e-03
-3.466037726653940082e-03
2.278979468450484987e-03
4.918351591873277445e-03
2.559833203929979747e-03
2.899059615822390423e-04
-4.991028315505296152e-03
-2.738349339140097680e-03
2.767138849839611593e-03
4.490887613107754500e-03
6.291363432270265059e-03
-2.946323938477659449e-05
-5.935146250473124531e-03
-6.159158271044709761e-03
-7.485379477727360613e-03
-1.387473525878955144e-03
4.703559161417206376e-03
2.676809365792819691e-03
1.468080011964737006e-04
-3.056074671577149564e-03
-3.698884266175137860e-03
-9.978950522586637045e-04
1.772789612143863252e-03
4.097371626099747394e-03
1.240409648508803775e-03
-2.480194808577022413e-03
-2.510327743683342903e-03
-2.244808269198228859e-03
3.133883782071103258e-04
2.315458683268566131e-03
2.804748762784183014e-05
-1.250682080552977839e-03
-1.307716846025608077e-03
-1.529564466622343813e-03
6.906355429586027647e-04
3.355002006078761350e-03
3.808804937128867397e-03
2.071491853574320557e-03
-1.351901741910463807e-03
-3.560316297474315581e-03
-4.088637901946521485e-04
5.814814261843635930e-03
4.372783815469015109e-03
-2.950530220310547836e-03
-3.851304277748504590e-03
-3.332418151215593184e-03
-4.566786912150644709e-03
-1.260874058829191888e-03
4.216431204912977947e-04
5.912971361781240755e-04
3.325952844486536764e-03
1.645139440359144221e-03
-1.901272717903999127e-03
-1.180557286725511653e-03
-3.397735823424354778e-04
-1.165985931196573218e-03
-2.733218563478949739e-04
2.165042819015822011e-03
1.950525690242856406e-03
-1.306999043690928574e-03
-4.385122360988939240e-03
-4.149563443066896749e-03
1.926041971520740890e-03
7.378376578133106350e-03
4.347957639539502470e-03
5.469141475847069493e-04
1.397986805632635840e-03
9.932001746745203630e-04
1.910515799254840046e-03
6.055719239316618811e-03
7.424951553448266330e-03
3.881680359475889793e-03
-1.464087382995707398e-03
-1.466083910085310901e-03
-2.490910295499389974e-03
-8.169308140136385260e-03
-2.075493512214543652e-03
6.629405745110192837e-03
5.834044799027688667e-03
2.681958088116481471e-03
-5.957873633269563339e-03
-3.684696376600517156e-03
1.668916696091014146e-03
-2.008924953361843416e-02
-2.499802763613372114e-02
2.027183211107594081e-04
4.255170690588818729e-03
-2.601933203093145883e-04
4.732694944606925629e-03
4.040439005172120381e-03
5.490839990931044648e-03
7.047623720610210647e-03
1.241828826547696114e-03
-2.835993561528158367e-03
-4.072832296689378115e-03
-2.480178240938824864e-03
2.430329656363360100e-03
3.190881932912249634e-03
8.468123252759482758e-04
1.106008113611248785e-03
9.198617506201196706e-04
3.439827325931969250e-03
6.905097629108182013e-03
1.025871555911304054e-04
-3.754859415606254421e-03
2.467498507687396290e-04
-2.639625638883124400e-03
-2.434452599641353642e-03
1.176468960396044334e-03
4.566082447440887680e-04
4.273907373567418719e-03
2.803596728462923876e-03
-3.091889736078076538e-03
-4.357025015281323888e-04
1.813841456957091696e-04
-1.460757668506481970e-03
1.579695925666027112e-04
1.309612223272559441e-03
1.364063176183746406e-03
-3.057928349711171384e-04
-6.779198699892325904e-04
-1.233912130091252427e-03
-5.590099141750694799e-04
2.582969651938039207e-03
5.532604060350496296e-04
-1.243201517573608306e-03
-2.736723531185777589e-03
-2.038412832316946564e-03
5.441714278906388709e-03
4.932334424961559889e-03
6.117433609106323784e-03
9.698765918067493372e-03
3.605595427449087044e-03
2.549150261307497802e-03
-1.343148839777803631e-02
-3.093332566074091794e-02
-7.992785217487330743e-03
7.212999038072434414e-03
-1.255322780800697006e-03
1.707386883734314000e-03
1.577504472023924477e-03
-1.203224601141282936e-03
3.018863177614472277e-03
2.573846675374991469e-03
-1.915629785153984870e-03
-4.460093793213468910e-03
-2.281522988520292335e-03
-6.706206221103726836e-04
4.299051081623650895e-04
3.969643265666311129e-03
3.957923943089806246e-03
1.953520266867500143e-03
-2.814172192532810642e-03
-4.733794770914678818e-03
1.461314227281712780e-03
2.524830962348802253e-03
2.880697119013949075e-03
5.836485878108841480e-03
1.392994614896696974e-03
-1.260918544887114140e-03
2.006672226913315538e-03
5.005050166285289828e-03
5.457237852271035194e-03
2.210074637044881062e-03
6.100629347840643785e-05
-9.290663298032362464e-04
-4.220251205948532050e-03
-6.539089740493369413e-03
-1.922812062931014655e-03
6.515787498341760534e-03
7.574808000915599776e-03
3.678649544464810024e-03
-3.269667916531611429e-04
-5.638731581266092675e-03
-6.576243507578905835e-03
-3.894073435243133267e-03
-7.041975293652313851e-05
2.844594599216123537e-03
4.634933761251910402e-04
2.752667559766718095e-04
4.659688457193655051e-04
-2.779020183562165569e-03
-1.990292337153531498e-03
-4.209972702597164669e-03
-5.984055676252941942e-03
-6.557970894442027594e-04
-4.102654415108983495e-03
-7.886546580416091412e-03
1.559592703547606348e-04
3.907706998767382540e-03
4.033492915879622644e-03
7.042289039119143008e-03
4.306378965491491038e-03
-5.735588686278580636e-04
-6.662824731561714986e-05
-1.185886939637323552e-04
-4.462329397202209830e-04
3.447979022665513017e-03
2.858248245946330441e-03
-5.237798142641968005e-04
2.722195876884077890e-04
-1.976333551572111592e-03
-1.438108262338405564e-03
3.235973446242607163e-03
1.943309024366186638e-03
1.785003116319306467e-03
-1.081411949387898352e-04
-5.127012691638591253e-03
-9.335407354718002794e-04
2.611111412266911309e-03
1.058720847736210197e-03
2.787895430783803898e-03
1.396088158010875841e-03
-2.597934534744488367e-03
-2.792662696661926507e-03
-2.056094425973780185e-03
-8.391509152463242456e-04
5.379366154707179368e-04
-1.544659907249003664e-03
-3.313880782217881564e-03
-8.924357860766881333e-04
1.854986131061374085e-03
4.404683188517214375e-03
3.594395025457871283e-03
-1.864967791142406938e-03
-3.439333054745961817e-03
-4.288727633007480625e-03
-4.090916694020603137e-03
3.415196194141721046e-03
7.787029629229775922e-03
7.294804337091963069e-03
3.833634504368575377e-03
-3.463933246112589712e-03
-3.416495639674328125e-03
-6.150836485279379418e-04
-1.440761969775702922e-03
9.892997870207158664e-04
1.153845969387845083e-03
-1.855639246719874205e-03
-2.412478823066718965e-03
-2.471485000064777872e-03
-2.173286066941813605e-03
6.051980131777496240e-04
5.861503930362071783e-03
3.979106244560810454e-03
-3.794167347951088280e-03
-3.008241614659292254e-03
-1.168095351756646451e-03
-2.983249701342021235e-03
-5.912996158930072669e-04
1.776615753287535482e-03
2.609500436663235792e-03
1.528754579579854386e-03
-1.506218965808117649e-03
-3.032427914192325439e-03
-3.418853072252508139e-03
-3.009839679735636098e-05
2.666009199106979602e-03
2.515778197186677341e-03
2.450836845725839260e-03
-3.111713236170890896e-03
-6.494634235082863763e-03
-3.160574569784562610e-03
4.885296550574811563e-04
3.043501687046234246e-03
-1.124925958254143713e-03
-2.723932503120024898e-03
8.308958349587745439e-04
-4.970737530639336970e-04
4.196727820936122823e-03
9.668329123628168278e-03
6.771982954939656171e-03
3.228264268397367919e-03
-4.721726265972383749e-04
3.060513020762980585e-04
2.158728755599461963e-04
-8.804725641641536352e-04
3.854875385461088190e-03
1.496262326107461070e-03
-1.641546881237958711e-03
-1.996325267752973188e-03
-5.088827989070290707e-03
9.575512804575652195e-04
5.822987487750276754e-03
2.125660914027826653e-03
-3.700375286641471514e-03
-5.381550792487890984e-03
1.822295433861378499e-03
-8.753349628475700847e-03
-2.447774694188252498e-02
-6.408487874632245139e-03
1.066254190102384862e-02
5.919475725226471322e-03
3.567079937904545171e-03
-1.130603850710355449e-03
-8.299033646420031149e-03
-3.891964242993153737e-03
4.169770628344124722e-03
3.828142131773269036e-03
1.211429929898127878e-03
3.346390596990479489e-03
3.737166547777944197e-03
3.392916850852339267e-03
7.136080953812271727e-03
4.702192165376145941e-03
-2.455762948960263890e-03
-1.941274571051185066e-03
9.777221626023212438e-04
3.563617389238221776e-03
5.950709934051852563e-03
2.946395063521824609e-03
2.573540374750507131e-03
7.596418465913007791e-04
-7.512223335702254354e-03
-5.941355989237494598e-03
-6.250264185728595214e-04
-1.547799382631781821e-03
-9.129905457820888196e-04
7.534959196348561903e-04
5.468411203007701640e-04
-4.945147957514056322e-03
-8.732981484591506582e-03
-2.478844840961160530e-03
3.184330882178609216e-03
2.371134135915990270e-03
-2.374966803270543020e-03
-3.297962478448504108e-03
1.204180199332927125e-03
2.499600234547144119e-03
2.655559741698258844e-03
1.745888167633237280e-03
6.966979050397777411e-04
-7.159727779671974939e-05
-2.777056344175519650e-03
-1.487671668978773291e-03
-2.008206572666440971e-03
2.877240863493722581e-04
5.918611715265714550e-03
4.461539760164271416e-03
9.114743904866188726e-03
-2.486801214732502468e-03
-2.690598513836935449e-02
-1.183117469588916733e-02
1.148222295772533853e-02
1.236181306459073655e-02
6.044678829259958822e-03
-7.673384263594530859e-03
-6.471187256486268628e-03
4.859495462349301340e-03
6.339549762258209556e-03
8.677156718802316385e-03
5.861880298720169996e-03
2.004482799652825865e-03
1.315821559592460048e-03
-3.317406978256790852e-03
-2.345443417969239955e-03
8.497577751700733425e-04
3.519211056204297246e-03
3.163315146666628806e-03
-4.497776132371802960e-03
-3.746816917478438310e-03
1.288146888882324946e-03
9.000963893769458029e-04
5.457980495251659857e-04
-3.338276648875425443e-03
-8.072802108896066225e-03
-1.107677944006919303e-02
-1.085791723748856345e-02
-3.185577336457516562e-03
1.711083168728162263e-03
3.904869485076809497e-03
8.050981249857055641e-03
4.949087966039921252e-03
-8.467399880632005922e-04
-4.064253042110918361e-03
-7.813540796150835258e-03
-3.828885829685396529e-03
3.548394035861988580e-03
3.123521457398345091e-03
3.523738388523024734e-03
5.175873894393219314e-03
2.664983619076480292e-03
3.881344922164816410e-03
6.972548814638802016e-03
4.268700041066548871e-03
-1.332530361256248179e-03
-2.084476764470522946e-03
2.080184741981351906e-03
1.918141332494041357e-03
1.357282594891135070e-03
4.328312487300216629e-03
3.502203133355900715e-03
9.874483811879396482e-04
-4.758548778618528624e-03
-9.228576742512262232e-03
-3.809269413195408988e-03
-2.285074010432460237e-03
-3.731557825887445168e-03
1.869496350864987731e-04
1.515228612506328617e-03
1.900462678714219924e-03
-2.347914621799406659e-03
-7.858277551994412302e-03
-1.980356169229596005e-03
-5.291570633994685660e-05
-5.225498959988058960e-03
-4.128397343728140365e-03
-2.758370284985721226e-03
-6.047925955146409016e-04
3.452722986580094612e-03
4.652550561185079397e-03
7.303219573231329274e-03
6.344449756722042068e-03
-5.191723927107906806e-04
-2.833690556677684672e-03
-1.941683888459984873e-03
-1.214287473023974249e-03
1.985231053470596935e-03
2.702393153597772071e-03
-3.066973463562632581e-05
-2.624950118319517188e-04
7.524317477444541569e-04
2.069403366854260119e-03
4.290191586074095127e-03
4.659854478277223114e-03
4.136545951540580857e-03
4.203966255596502249e-03
3.797856707304201815e-03
2.327698384247918213e-03
1.996060442893775062e-03
2.988180863005863389e-03
8.267843741515052466e-04
-1.661570403772950856e-03
-3.392508590730803925e-03
-7.172981493282090670e-03
-7.245768773316159893e-03
-5.345682460810494835e-03
-3.963212535321561196e-03
-2.434035793191282595e-04
1.164344214154088225e-03
1.142848634024079242e-03
6.890655763308054437e-04
-2.828219982101799496e-03
-5.338453687294136482e-03
-7.394364205970996827e-03
-1.164047609282276886e-02
-1.366589935145351778e-02
-9.165259887024728228e-03
-3.590405157589719124e-03
1.169365565291623091e-03
1.025750425855312745e-02
1.330237278708212498e-02
9.778889907115733901e-03
8.958296789084455036e-03
4.059693149448134059e-03
2.337379396870080308e-03
4.390838136048381968e-03
1.284235183010603524e-03
3.863833208078815574e-03
3.973991333075464413e-03
-1.246959633471286886e-03
4.269043455778211106e-04
-1.339388133804485562e-04
2.514090136606634066e-03
6.984323215886646848e-03
1.928052350651667619e-04
-2.869823620030971089e-03
-3.577914901583143827e-03
-7.208100088992676346e-03
-3.288595527696152893e-03
2.123922866680529519e-04
2.225065050692602868e-04
-1.718937535337291449e-03
-6.993639590137590983e-03
-8.611906479922101093e-03
-7.070943854123574492e-03
-2.753670128690319414e-03
2.663491513701403933e-03
5.406428284055094131e-03
7.458384199316669266e-03
5.877822167108750877e-03
4.594678723246321816e-03
5.355169172150408413e-03
6.892699236519642808e-03
1.102314456579595037e-02
2.589714480143037647e-03
-8.221510252794841933e-03
-4.414974134006399188e-03
-3.540088294802720258e-03
-4.479435458707480889e-04
3.630961050932394411e-03
5.943672666634651231e-04
6.694593338500067804e-03
-4.121822867067268491e-03
-2.662933054135651831e-02
-1.262432473522009588e-02
6.869624692300709337e-03
3.947449544266725882e-03
-2.916602254162180361e-04
-3.951935325417714646e-03
-5.864042044062306620e-03
-6.579434341668565292e-03
-7.605534041056016825e-03
-6.374773396773530075e-03
-8.534933712030606107e-03
-8.126153191680071664e-03
-2.569392208874126532e-03
5.455493862430909301e-03
1.517258377692974614e-02
1.456809248933327652e-02
1.060718459260252648e-02
1.327932687387928072e-02
1.129383209121645644e-02
5.782227690056358435e-03
1.250596989081690768e-03
-3.399603661268984622e-03
-4.069542635947797672e-03
-1.315660094562559352e-03
1.804927797040715553e-03
3.186420516950892821e-03
5.387977384762432376e-03
8.490804361408600329e-03
8.063085437339414033e-03
1.046326847246475261e-02
1.156395344687705801e-02
4.426835728951549788e-03
-5.252837932850639184e-04
-7.643241864732001553e-03
-1.725017612261625990e-02
-1.704216199822993633e-02
-1.499718811907282782e-02
-1.398549822383791073e-02
-1.237738894084387115e-02
-1.428910303526258890e-02
-1.312521569916695087e-02
-1.000418462933705746e-02
-6.204114025527506480e-03
5.914990719015757268e-04
4.853670372891633403e-03
8.149583437410741482e-03
9.866902403603675098e-03
1.079283394762345187e-02
1.275507997391905554e-02
1.162530719936738510e-02
1.169471603469430729e-02
5.659423307394386218e-03
-3.555733706333190445e-03
-3.704086166544993605e-03
-1.187326907309193408e-02
-1.270266047671282997e-02
