4.469838795609400693e-03
1.226196538360099959e-02
1.171767164296580975e-02
1.370485385647929842e-02
-1.177397602220460991e-02
-2.718151075767736083e-02
1.391239551796744208e-03
1.560493890963782389e-02
8.494147723325911822e-03
1.026821907165361087e-03
-1.058783520066585576e-02
-1.563344634564483790e-02
-1.548951540522241349e-02
-1.008487956934949782e-02
-4.329563638118510104e-03
-6.113688472706932560e-03
-7.114372770049986333e-03
-1.458360321550757933e-02
-1.566966684565115203e-02
9.490734866501246425e-04
8.380228049042608499e-03
1.194835891799040511e-02
1.768587553185933456e-02
1.102446430437280939e-02
6.492045634705861760e-03
5.688441066373679800e-03
3.674374274126778785e-03
9.906433283836975703e-03
8.470095778530669153e-03
-2.647811465279730891e-03
-5.543005848725550931e-03
-9.663861496647718763e-03
-1.333429276471527654e-02
-5.944281639896198573e-03
-1.896106681387652731e-03
-1.453406597957471701e-03
3.880131150190593674e-04
-4.653775641515711832e-03
-7.129284270362109058e-03
-5.402923534870101132e-04
6.555346816758676406e-03
1.027056864537670942e-02
7.841972616851017319e-03
3.974554850271583110e-03
2.666738388054053829e-03
7.044790508390469906e-04
2.038660760985443795e-03
5.714142065324247059e-03
5.297987736911322423e-03
1.690625534909660690e-03
-1.319571741280487799e-03
-2.194306606031683204e-03
-3.298990732978917487e-03
-3.275074148724907170e-03
-8.057616582166235658e-04
1.674645202436116694e-03
1.207001497469673175e-03
-7.138455451238721883e-03
-1.085702689627154709e-02
-3.360611688270892430e-03
-3.303218753064960343e-03
-3.869285580218751602e-03
2.877183386837624604e-03
5.694495648159446409e-04
-4.074514976677732180e-03
-2.638697837046253668e-03
3.244253684259256029e-04
5.805922103695287419e-03
5.603907754398914851e-03
-1.721826367563492966e-03
-4.597847667868351293e-03
-2.970454597665241926e-03
-1.981980639560114443e-03
1.432920256775769121e-03
7.572854766885542439e-03
8.605780701782530032e-03
5.295923148030305151e-03
-6.675506546973111657e-04
-5.135924454321996735e-03
9.517975668409926499e-04
2.338029342237320663e-03
-2.705079425651510123e-03
1.873079878121683590e-03
3.100514860148442884e-03
1.973176802216720070e-04
8.498560476335509286e-04
4.922230350195419063e-05
3.106079629735824989e-03
4.406432409233076303e-03
2.021978240252880971e-04
-5.420476791864399166e-03
-1.144149591405793469e-02
-7.541776409739366603e-03
-4.005309776263683841e-04
2.962351746283438045e-03
6.127372903492841159e-03
2.577455110453508950e-03
-1.012791379405177062e-03
-1.830484700467954100e-03
-3.220769641278336919e-03
-8.007307910462488354e-04
-7.208226633865342679e-04
-7.662094092498835567e-04
1.916265843946084407e-04
-3.504372078352232644e-03
-4.570902574943429622e-03
-9.439328147556102838e-04
5.424295103204132724e-03
8.873666867272150469e-03
5.391067235809138096e-03
1.237158583753974117e-03
-4.430206633058892535e-03
-7.248186031902822610e-03
-3.953019853032096673e-03
1.135023608127913889e-03
9.024786497605677069e-03
9.118537835393682525e-03
2.656029084856578867e-04
-4.930598975362950574e-03
-5.642641315645519594e-03
-6.752931785662473875e-04
4.078869834768247306e-03
2.192472470580654302e-03
-8.731596784918918813e-04
-3.722468918961330687e-03
-5.154871466405227913e-03
-3.657558030835887219e-03
1.087368029554009428e-03
4.430420004993904613e-03
7.527715530445409963e-04
-2.949963227900153501e-03
-5.452943238005445240e-03
-5.061749465846589538e-03
2.430720188973964878e-03
6.065210349935571538e-03
6.479573839005259989e-03
7.164258015735136889e-03
1.909724492084550205e-03
-2.682420874983050887e-03
-1.454494441307953474e-03
1.617536479832722314e-03
1.219371470564333936e-03
-1.009070731609598627e-04
1.283733319288099441e-03
-4.864196779458514544e-03
-1.195673704668589327e-02
-6.808734483438928960e-03
2.070119882031100540e-03
8.508250472474205781e-03
7.363159560391058407e-03
-3.075621348141879645e-05
-3.016023598128988667e-03
-2.674222945956583001e-03
-2.954994753127721712e-04
3.664868364018514929e-03
7.503007651194948564e-03
7.098627943297398241e-03
-2.733764725640442771e-03
-9.827029438656134999e-03
-8.479178722375094179e-03
-5.246411436694278264e-03
1.801676135436946916e-03
6.025420822943811268e-03
2.281376949662705569e-03
-6.529216678006735837e-04
-2.407427413102135576e-03
-4.635793898924669108e-03
6.256994914517464458e-04
8.978686499990565922e-03
6.318110605795698373e-03
-1.570917266593921434e-03
-5.663608315234591566e-03
-7.434804537076386555e-03
-3.429819450383183622e-03
3.277412346663950097e-03
6.950300462462069041e-03
5.585131307017958055e-03
-3.539715591058707322e-03
-9.705192858008238749e-03
-6.856962757275194241e-03
-3.600011186153229299e-03
-1.622872299858843298e-03
4.708608954256203981e-04
3.241479937301139716e-03
5.094293985045810283e-03
1.043870774112488648e-03
-1.205770169506784582e-03
6.300614635478186953e-03
1.014614301776249269e-02
5.392215129013259826e-03
2.856104530770789234e-03
-9.449145621252746452e-04
-5.160012969184667696e-03
-1.874296600428263871e-03
3.070151568154367433e-03
6.781718297136377083e-03
6.705385760857887449e-03
1.327140999282339041e-04
-7.177760864465749895e-03
-6.256208743104554534e-03
4.099367061122712388e-03
5.077852964002541741e-03
3.228742479472291671e-04
2.484053028697580726e-03
-1.723145676822277405e-03
-2.183550927987028614e-03
-6.329889220962705600e-04
-5.446658728019341915e-03
-2.843163162956997402e-03
-1.858945589178401248e-02
-3.419142067928362949e-02
-1.021217263202801526e-02
5.634178477706936611e-03
6.191066051886272466e-03
1.492184646958052800e-02
1.301663788932663421e-02
9.707358129798414337e-03
7.258433250378813067e-03
-1.766971513077480885e-03
-4.317330386968032570e-03
-5.127631693498621059e-03
-4.962056520390124500e-03
5.379712437391047895e-04
3.371541460213622887e-03
2.716326835572929234e-03
9.118605694687610067e-04
-5.547844726204336809e-04
1.698020022546623594e-03
4.982984068910940520e-03
2.001556368806800025e-03
-2.515559300886397072e-03
-1.677092409586848198e-03
-4.057486424584558389e-04
3.563983303604560497e-03
9.624548430956064368e-03
9.558799246040604325e-03
4.485928058138246959e-03
-3.445595159461948068e-03
-7.985186963133932003e-03
-5.459794208937099845e-03
-2.869495294448881195e-03
-7.087422545062297286e-04
3.480142106189222217e-03
2.980383435057350899e-03
-5.659901806901263856e-03
-7.013553447696030917e-03
1.088332693258676825e-03
2.442707711253626433e-03
3.403476807912883626e-03
4.315647031789294867e-03
-2.699237724268962243e-03
-7.065259469726918769e-03
-7.779338712406844679e-03
-3.797416098953527303e-03
2.653409153915775327e-03
2.441897741958253681e-03
1.952111695674283885e-03
-8.631432710006065306e-04
-3.542147100841920582e-03
7.987006051104165874e-05
5.688132127259593962e-04
1.507163799157847919e-03
1.982094438903548705e-03
2.793087525085309413e-04
1.010662172915138867e-03
-6.228415099947445452e-03
-8.265304991134481138e-03
3.832810567369296807e-03
7.313681928274125797e-03
3.958087807404181598e-03
1.888222583309426099e-03
-3.016887699848737770e-03
-6.438175217181623354e-03
-4.614522763627865176e-03
2.200969272083977413e-03
6.025834003605030215e-03
4.228357512960538057e-03
4.088471158412543272e-03
1.417376238206432366e-03
-2.932273503175462665e-03
-2.209515552411424333e-03
-5.818759868359826490e-04
2.034354331117852691e-03
3.947797169252970431e-03
-5.651270686869353833e-04
-4.289142404656487266e-03
-1.736790231533593071e-03
2.703610332223654357e-03
6.199495722764753608e-03
4.079965550168633374e-03
-3.092481355289208433e-03
-5.102139678955429532e-03
-2.681064762085823196e-03
-1.013485138315402918e-03
2.056516544499857081e-03
4.139892484400124230e-03
4.363666473901726441e-03
1.875804714409601368e-03
-4.799353884035135152e-03
-6.591604822827578682e-03
-3.072027719563791108e-03
-9.765481923983420926e-04
1.381908751277074457e-03
2.342384020411177829e-03
-1.249953374440150643e-04
-4.533837639761844826e-03
-5.671650449524265336e-03
1.937864271791092316e-03
7.713189579416051232e-03
3.568601485400013824e-03
-1.718008007508300874e-03
-4.724672932759458287e-03
-6.626854700805082099e-03
-3.978348185534770313e-03
2.006828831710803958e-03
6.537967331582654126e-03
7.962774068683240239e-03
3.565398578073542164e-03
-4.339243832566555201e-03
-6.264948944075770902e-03
-4.061880262028944033e-03
-2.394395949896619812e-03
6.142109675064144104e-04
6.858998376445277559e-04
-1.206938108952596575e-03
-1.462072375228925646e-03
-1.844956612895098848e-03
2.456004490682754324e-03
7.739259832809363207e-03
5.521497878491705806e-03
1.163729627998344581e-03
-1.490511650021312086e-03
-2.856520177882046312e-03
-2.456523779347740809e-03
3.039841044433030004e-05
5.381001375186617725e-03
7.744151232196387451e-03
4.277779253797974607e-03
9.174855948184716063e-04
-2.045268110529737098e-03
-4.135317599908954443e-03
-1.809583323014633295e-03
6.507820032922273078e-04
9.087786273376962818e-05
-1.750518111625349758e-03
-4.473781581698330588e-03
-4.820281720818244547e-03
-1.439536328405582833e-03
2.014321228558273343e-03
2.762522881321073306e-03
-8.682227762068389122e-04
-3.197594072987997374e-03
-2.156400185862944116e-03
-3.937344872887594410e-03
-1.141759506938960431e-03
7.413315465272534224e-03
8.635498809931444961e-03
3.696473188858991846e-03
-2.652011871149301259e-03
-7.153372118435343853e-03
-6.308531837737049036e-03
-3.573312410014955077e-03
2.025161376626842275e-03
6.039881115518296734e-03
4.502194595407671678e-04
-7.574685803448496374e-03
-8.126304547464423614e-03
-5.656425286147843132e-04
6.322552241698251203e-03
7.284900558683310087e-03
4.175204537832452253e-03
-1.771652214422821808e-03
-5.037069343170740877e-03
-3.598167073987113516e-03
2.538269089003244126e-03
9.680766492545194238e-03
7.814937274889278973e-03
1.958537263002302440e-03
-3.135450020834055530e-03
-7.390027258647419856e-03
-4.669990041076857792e-03
1.214025192777171266e-03
7.519917108801547727e-03
7.926867520589943317e-03
-1.103492608781247390e-03
-5.049933308881697502e-03
-3.437347304955194662e-03
5.349903062637325268e-04
3.764369984539806934e-03
-1.256505856746048663e-03
-2.789546887198163846e-03
-1.698915388736955447e-03
-5.377920762556029181e-03
-5.735435125011511225e-03
-3.169936043690795707e-03
2.791113565589206126e-03
7.541419621428942753e-03
4.351349363221567422e-03
-1.235162777485271628e-03
-5.126136140477082111e-03
-1.684785369552158681e-03
2.556379048440309606e-03
2.458595532786235320e-03
5.602337825862594226e-03
2.145345718580832749e-03
-6.015975197347762926e-03
-7.832580124432570595e-03
-6.313309749132333011e-03
1.624773560095121470e-03
5.708892781495663454e-03
4.753381157375145783e-04
-2.038981249754405131e-03
-7.262633246506626852e-03
-8.905591258069450386e-03
2.638384829657140426e-03
8.819210966503766846e-03
7.420989143994945539e-03
6.572296999296219598e-03
-2.286847498829096791e-03
-1.018116732308499417e-02
-3.934955727698614437e-03
4.479340433611745526e-03
7.300703840734806827e-03
4.318556970219423335e-03
-2.411164171629207303e-03
-2.585962424233032627e-03
-9.760715129841304478e-04
5.916723546559345126e-04
1.010019316606465718e-02
1.184387702380077997e-02
2.156687707078777487e-03
-3.103905643071135957e-03
-6.648193777524013214e-03
-7.019081789374573450e-03
-6.821023873088504332e-04
2.215778716985554540e-03
2.949272760005131489e-03
1.910798640311220072e-03
-5.357754421949555319e-03
-7.118005306820439013e-03
-3.250753404242961043e-03
-1.689277396939826157e-03
2.955435186213646245e-03
3.030329060859331472e-03
-1.945228562298450441e-03
-2.123562730689157463e-03
-8.053531065574050588e-03
-1.105707844150587843e-02
-6.741323764867570558e-04
2.562054756576577670e-03
-1.189272942136540556e-03
-1.958655345193153693e-03
-3.016702946688694896e-03
-9.110148184399400901e-04
4.274678898169595627e-03
8.388993465597779919e-03
1.022453819787498205e-02
9.367902509800640071e-03
4.155189369667407033e-03
-2.401325877796191798e-03
-1.375547995349201899e-03
4.878809994810604130e-04
-2.529870136486499005e-05
3.006046617464898721e-03
-6.537046049982872141e-04
-7.314528654384095351e-03
-5.532262332625979308e-03
1.210151114023029159e-05
6.765677133842290872e-03
8.131243804391721439e-03
2.493175446586863662e-03
-1.220098759963725819e-03
-2.800891133467010678e-03
-2.687642992245921347e-03
-4.678434953966450517e-04
2.412886438719570592e-03
4.529735707674423413e-03
2.925930962745579419e-04
-7.551413671796515861e-03
-9.282415138841900240e-03
-7.521820988142508164e-03
-6.401867648356354169e-03
-9.015534055842414638e-04
3.927670465941218193e-03
2.667632814141343393e-03
1.041633531768660335e-04
-6.437386734570530941e-03
-8.146775425904332832e-03
1.637216553427641320e-03
2.937728324583317816e-03
-7.196878440697088717e-04
5.066465367167782320e-03
7.315260331181818593e-03
2.358999322601721023e-03
7.520068660803918073e-04
6.001395552291207205e-03
1.041490686170104020e-02
5.555387895018720767e-03
-1.483439999298684841e-03
-4.828855535413702042e-03
-6.176400759149372130e-03
-3.380645118057251305e-03
3.061483542275517718e-03
6.840973251139248479e-03
3.421175374329688598e-03
-7.777457531827775819e-04
-2.515893187912360534e-03
-4.331458613934850710e-03
2.646334639484888515e-04
3.529484801355004323e-03
-3.607384036779348168e-03
-7.748931006740499353e-03
-9.301002469365099792e-03
-1.066488840750838378e-02
-2.982881800432534217e-03
2.438940265721288407e-03
2.434396015078439061e-03
5.441888754631009351e-03
2.260338003301950050e-03
-2.500976398096733336e-03
1.000813624381669551e-03
3.774346635230286812e-03
5.115704840737322207e-03
5.229195689702705388e-03
5.661187284117651531e-04
-4.163248883378951187e-03
-7.947373782386978752e-03
-5.690815867767511603e-03
4.372371253798045844e-03
1.026970116792676538e-02
7.257327933862610554e-03
-1.473410847480848170e-03
-6.753867182072183055e-03
-3.769042235483922951e-03
-1.457375409307493075e-04
4.567836773820116957e-03
1.022626200336670434e-02
8.293573705172110205e-03
-1.617452327876060629e-03
-9.129354340058270720e-03
-5.080072436923798937e-03
1.852338350954175908e-03
3.248347499550008517e-03
2.724554908461541795e-03
4.522239309247345126e-04
-1.129273860451077659e-03
-4.505299714467577918e-03
-7.675291456121863254e-03
4.493488760055856378e-04
5.461698539251965204e-03
-5.427166990663954277e-04
-1.188060710585708661e-03
1.141836612449034435e-03
-8.995862604419091577e-05
-3.651382963371654043e-04
1.242838998277011634e-04
-2.100214346051430120e-04
-2.664213109705593913e-03
-7.187128234637591567e-03
-7.819042525249519232e-03
-2.696315622668060685e-03
-1.109135573160419542e-03
-1.344886965359954733e-03
3.815070901549972096e-03
2.018366731076103471e-03
-6.061797005206291840e-03
-4.835060382034126955e-03
1.503225598357472905e-03
5.388928422937966194e-03
5.979813027162721346e-03
3.452135756360845756e-03
-6.987747979610936739e-04
-3.224144628316974372e-03
-2.617607819855259079e-04
5.369665030279982543e-03
1.319995771166799017e-02
1.591641377548160333e-02
7.227663894104409924e-03
2.399710951026521200e-03
-1.845778282180304906e-03
-1.018171415157178780e-02
-7.079430213791733720e-03
-1.379722788427344138e-03
-6.992066132729844383e-04
-2.458413818145182249e-03
-8.829638983935093888e-03
-8.694431346743186975e-03
-3.804727620136071770e-03
9.326127397021631094e-04
7.760878010332638959e-03
5.985860994733417130e-03
1.913132638712964576e-03
2.036930391944028612e-03
-2.121761153258114752e-03
-5.548983428109349574e-03
-8.549651694134512148e-03
-7.108727389055961507e-03
4.769528648206262413e-03
6.212483633654126113e-03
-1.213301190497652554e-03
7.679566818283228369e-04
2.698488692438559804e-04
4.963580464479965112e-05
1.063939645342268023e-02
1.339626044668151654e-02
3.937027365886008184e-03
-5.343432121835718987e-03
-5.127855957144930761e-03
4.116703468791188363e-03
4.343929151964858945e-03
2.906410897624200126e-03
-2.566919359980875375e-03
-3.080475277583611185e-02
-3.014968421253519729e-02
6.784320210173532158e-03
1.438241789846294097e-02
8.825030109800485745e-03
8.680888051802228625e-03
-4.040427131324908494e-03
-6.077737115408431666e-03
1.632697746059386806e-03
1.407304615866961876e-03
-2.131835678276882470e-03
-6.066177245512087944e-03
-1.846609314290164998e-03
5.057090887578378179e-03
5.038991878819531513e-03
2.285117526558101946e-03
1.673475445065213205e-03
7.727074655284787812e-03
5.884314417766750745e-03
-5.514806754674968052e-03
-6.654607613647501620e-03
-3.579238110905150726e-03
-5.456820965489845437e-04
4.697927204900572383e-03
7.661504981390020001e-03
1.123987078859001697e-02
5.794750579618437869e-03
-5.438865022238299068e-03
-4.250149214084231186e-03
-1.872426086778641082e-03
-2.848882383912725892e-03
2.909392263373378890e-03
4.038540799116024406e-03
-2.978052576738305680e-03
-6.567534847439417123e-03
-6.521609682319264717e-03
-2.023143485268449047e-04
7.136337103363848272e-03
-3.827477589860554417e-05
-6.408964283915100264e-03
-3.882294786670868313e-03
-7.496804406600847751e-03
-3.178389876210001037e-03
7.910952406948664611e-03
5.500266928420674724e-03
1.135513746505544116e-03
-1.104976821990679000e-03
-4.475986339084400689e-03
-3.176996903548624015e-03
-1.014024877566645092e-03
-3.210510940993759011e-04
-2.743345291265936181e-03
-1.001028162478976398e-03
6.383805714625654867e-03
2.952855338207680067e-03
-2.578319360452469445e-03
-1.716705904315337034e-03
-2.219735573051322998e-03
-4.097365154728743004e-04
-1.474750360728744984e-03
-3.597063151071782424e-03
5.699492902085827924e-04
3.113675861462480120e-03
6.910769931418018867e-03
1.147663418557420476e-02
1.156600640763134034e-02
6.887189368729155874e-03
-5.814791252546952678e-03
-1.054741577534503913e-02
-4.816574432952101803e-03
-7.025048896276925824e-03
-6.437321496205572480e-03
1.259004080635886189e-03
3.269124963930028667e-03
3.750653956229358342e-03
2.854740964539312278e-03
1.707366339270000206e-03
4.637810494198957821e-03
9.816623568689893369e-04
-4.492589710715974745e-03
-1.254530239238745145e-03
-1.715871961690949854e-03
-3.994492218146632363e-03
2.142229194282287575e-03
5.192168906708959260e-03
2.628921827016600810e-03
2.709582472273734102e-04
-3.829427342285100268e-03
-4.239153961135521710e-03
-2.020530727762029442e-03
-3.287048405094713296e-03
-1.292467318720167064e-03
1.770002425217633360e-03
-2.299971795820322882e-03
-5.752645153679661685e-03
-3.155648503030676622e-03
1.010368365898345029e-03
5.658104305321739851e-03
6.713731522473754924e-03
6.928672985651253193e-04
-5.359475085143352267e-03
-5.758983855403408333e-03
3.276542624645889393e-04
7.100335268087972114e-03
7.479682906204443600e-03
7.918751571001900191e-03
8.247229414637470210e-03
1.654269397568151672e-03
-3.946043171991583942e-03
-5.023238794401642740e-03
-2.918518332684605712e-03
1.949973316028972984e-03
1.160545180171905629e-03
-1.943150322263453812e-03
-3.693857795235424863e-03
-9.454754159926389082e-03
-5.441847972420288913e-03
7.179469122632076324e-03
4.787482694237032467e-03
-3.568038941293963286e-03
-5.340174904937660880e-03
-9.098983414961915248e-03
-8.417540670861083096e-03
-5.348060596790791448e-05
5.728433825475095185e-03
6.700694446761098697e-03
1.883947386824014626e-03
-2.847351207007397904e-03
-1.903817711267270264e-03
-2.867501882019361792e-03
-1.871249276191532494e-03
7.163762109357772571e-03
1.263597726535874675e-02
1.007249685926507946e-02
5.603665839249841359e-03
-1.307161037823210753e-03
-5.718598503139980284e-03
7.111947133900521720e-04
6.634826863813329811e-03
2.693539187128051772e-03
-2.749740831094116787e-03
-7.989841271980980403e-03
-8.653068217398716955e-03
-3.526569440495157725e-04
4.218231831546489022e-03
3.979297757649848805e-03
2.846467156482164126e-03
-4.244012086020878920e-03
-7.818852805626082605e-03
-2.383837857933736402e-03
1.931147760826220413e-03
1.789789328561984874e-03
9.694143239473880513e-04
7.715271605107921994e-04
-3.644769957090001830e-03
-8.866464803168166639e-03
-3.724888334695118826e-03
4.287388996807842481e-03
4.232995018565883887e-03
1.447885847113136899e-03
-4.530339832153527056e-04
-2.333794002122724018e-03
2.945584907069253374e-04
7.689195537719480285e-03
1.195053553416572725e-02
1.204189225614475667e-02
8.391427000787637230e-03
-4.699275600409938067e-04
-5.473528905180849620e-03
-6.443298307395654151e-03
-8.464800055074103019e-03
-6.309736578179426028e-03
-7.934874510483891016e-03
-1.538420185135045380e-02
-1.540699935046157057e-02
-1.026963672769912531e-02
-1.402337667800167406e-03
7.632545203507210343e-03
5.995410357394250975e-03
3.065130709224363811e-03
5.320907599948397973e-03
4.926004423363209393e-03
9.961872275145967296e-04
-7.640367528039909662e-04
5.482872891166294151e-03
9.622687949670475499e-03
2.567350690243912735e-03
-2.802150554597700009e-03
-2.198340561577433877e-03
-3.252266973325505014e-03
-7.382910809095435956e-03
-7.591727801324815034e-03
2.994786054641452320e-04
3.341792034672037490e-03
-1.990402150093546860e-04
1.386059109869498080e-03
5.254224031768459438e-03
8.576597927899297369e-03
1.026794012235413694e-02
7.471319504759394575e-03
3.641268875559297395e-03
2.686034164872117599e-03
6.017640970947119028e-03
8.109769073628937328e-03
8.095511032545283855e-03
7.980998571382093981e-03
1.146161687684474882e-04
-8.732001780224383017e-03
-7.003141521262614723e-03
-3.759562277608524856e-04
2.581025554773114412e-03
-5.134465672989638576e-04
-1.852842740206261029e-03
-1.044801360847322008e-03
-5.585838880725535124e-03
-9.599274434184713878e-03
-7.566814735308586420e-03
-2.350783198146728144e-03
-3.062635480925073820e-03
-1.071579514402241917e-02
-1.461015211353578445e-02
-1.935233269180983151e-02
-2.471034315470432147e-02
-2.224853628874059672e-02
-1.869706779449803111e-02
-1.180113924261579766e-02
-9.483788310499946007e-04
3.946460765665734532e-03
9.160046727391287641e-03
1.828766494707508711e-02
2.319571810389671473e-02
2.657595080704931376e-02
3.019297645437249780e-02
2.227873625689682016e-02
6.545025605499638598e-03
-8.017512321612477611e-04
-2.293778033344853143e-03
5.572825066880054447e-04
7.909580410523642247e-03
9.443990744546361393e-03
6.332342839959848556e-03
2.425204014662911216e-04
-2.760985785540291323e-03
7.560088381227924627e-03
1.470563249565874815e-02
9.800480864864484151e-03
2.813442820962930215e-03
-5.914650484809825561e-03
-1.212700758764398770e-02
-1.354439423613057469e-02
-1.193997160690258436e-02
-6.904768322870052238e-03
-6.848208715804673941e-03
-1.065641614107733399e-02
-1.122599583592378235e-02
-1.219951175505783539e-02
-1.007583913061660223e-02
-9.155661378945789295e-04
6.974952759636728061e-03
6.830988787565128208e-03
2.433550367097254974e-03
2.261326710732414463e-03
5.398731643817532636e-03
8.083841049248292540e-03
8.504951845617258685e-03
5.183930738697136234e-03
2.300660126058776643e-03
-3.640089297485040072e-03
-1.339456977595339035e-02
-1.758748080320158419e-02
-1.672028019754143863e-02
-1.331190436835701270e-02
-1.260558401613668007e-02
-1.633149633510124280e-02
-1.663003482878904968e-02
-1.512069501597372578e-02
-6.015285373583803205e-03
1.226167782580698216e-02
2.024047110572515726e-02
1.592660491751258373e-02
1.109152708123018090e-02
9.404428777400893058e-03
9.647780244727151636e-03
1.447359281743767698e-02
2.756594439321391130e-02
3.637765756321284516e-02
3.161466215129177942e-02
1.889044134519387089e-02
6.391363454998648733e-03
1.619981200928327300e-03
1.548666512805536724e-03
2.294383431750922006e-03
3.030523683324535655e-03
2.920219065920048873e-03
1.971022156625307567e-03
-6.934336336566018257e-04
2.035127110173592761e-03
2.399656765878554164e-03
-4.081714627067968039e-03
-4.623260742773539420e-03
-1.093202529391020146e-02
-2.009987256766261957e-02
-2.393159451159932241e-02
-3.212298795094182396e-02
-2.538630066371129132e-02
-8.863513037227941163e-03
-1.375532737110256830e-02
-3.232956227798649412e-02
-3.220641937567937652e-02
-6.556174454130382287e-03
7.111752763651599252e-03
7.574686251153340058e-03
1.413485404778084056e-02
2.438712174114280457e-02
4.434846913075299324e-02
2.957067094584462166e-02
-8.474418514018790261e-03
9.161301339824247901e-04
5.954681350136574979e-03
-1.483466778641680597e-02
-2.081116970218192808e-02
-2.681347611134301742e-02
-2.091127190255607712e-02
-5.010270772681622506e-03
6.844695469335164081e-03
2.613326956139874063e-02
3.151944730769373065e-02
2.541909699673614714e-02
2.401677314050863765e-02
2.011313497952085458e-02
1.529660478878440769e-02
7.962492299926394318e-03
5.148621837600189655e-03
5.902315603373038157e-03
-9.447436857138077557e-03
-4.530255007024974745e-02
-8.273019278790212649e-02
-8.979715155743510369e-02
-7.233182943004969057e-02
-6.436953813232303145e-02
-6.456916454118463711e-02
-4.700053348323330465e-02
1.272540067300718773e-03
6.704803950934327961e-02
1.182373162612536527e-01
1.329360391775630812e-01
1.356578614018917051e-01
1.379044635124178908e-01
1.087259701172931942e-01
7.231125108414659941e-02
5.527228537388232527e-02
4.145272578099500754e-02
3.154519445400934263e-02
6.954961552703145360e-03
-3.598314960513330357e-02
-8.272525434465445582e-02
-1.265160364047847874e-01
-1.280310798292372820e-01
-9.632805459449589325e-02
-6.184301014796793339e-02
-2.782138336964517025e-02
-4.506538691142712716e-02
-1.140773346316216880e-01
-1.457748308520487035e-01
-1.015717365625425639e-01
-4.047171464244246619e-02
-1.517513880530325238e-02
2.153555067291680267e-02
8.088233962006145805e-02
6.735032744579973196e-02
-1.276293127173095711e-02
-4.479961521835823524e-02
-3.461186612559852271e-02
-4.472109807959592093e-02
-3.049607643257206541e-02
2.241912810864157835e-02
8.249375896837811417e-02
1.685266489664793699e-01
2.454383727896081724e-01
2.568289003297826723e-01
1.946257412705474366e-01
9.973613432699512948e-02
4.984220220980299654e-02
2.656941883508032870e-02
4.926246078813700802e-03
-1.887342441850360653e-02
-1.337009338731411923e-01
-2.632877040654786893e-01
-2.773643304153375344e-01
-2.858337165836699612e-01
-2.885199682876735672e-01
-1.331970799826747431e-01
7.316864648448362374e-02
1.561962279383431462e-01
1.771918244734267678e-01
2.068066253081249639e-01
2.437174687741314461e-01
2.677722089472475142e-01
1.916199344445520258e-01
7.082810472506329003e-02
-3.361060281087622711e-03
-9.320880127839312190e-02
-1.290887737901789400e-01
-9.986348256677171631e-02
-1.442190702744163278e-01
-1.737152417083455413e-01
-1.143223022106320125e-01
-3.420234037072750893e-02
6.056709377635691172e-02
1.378098226946211924e-01
1.551288651187361645e-01
6.444315016131221818e-02
-1.311638377026086433e-01
-2.593872309805971832e-01
-2.312782066976280249e-01
-1.773592896622940840e-01
-1.762932457942204267e-01
-1.271937584848140956e-01
-2.441175435951516495e-02
3.204973075873483734e-02
1.050151049908413375e-01
1.810983954547777108e-01
1.386853578671633780e-01
7.064402646571260602e-02
7.451576390529643379e-02
1.074655235181816160e-01
1.262916109808532028e-01
1.263471020982580295e-01
1.288720178192348520e-01
1.010667158021495426e-01
6.424120417686444984e-02
7.925379107006121082e-02
7.732337061893641839e-02
5.001924989790211551e-02
4.051345039158227301e-02
-2.293554522359555082e-03
-6.688871202495655366e-02
-1.022928563756274611e-01
-1.104162402167589013e-01
-1.038262523800064507e-01
-9.886832481624585611e-02
-9.292067779388943349e-02
-8.003546575093607729e-02
-6.156607707166136118e-02
-3.846441171365726219e-02
-2.417272281960903754e-02
-1.499455960736750457e-02
-6.057279426692264469e-03
-6.180328497189447289e-03
-7.967982205348608099e-03
-4.930398635867854797e-03
-1.158508722226899964e-03
3.291476741440316038e-03
8.129511981303138429e-03
4.510126390112933863e-03
-7.202184085223675702e-03
-1.080650900554408489e-02
-4.464611389760029213e-03
6.100592954262830381e-03
1.664702868000652453e-02
1.916350044335978289e-02
1.959832120452158905e-02
2.248857269673237499e-02
2.445837927444997548e-02
2.564310926869359242e-02
2.457957678573854943e-02
2.681498164242384491e-02
2.516654144706522919e-02
1.168538473832890501e-02
7.081090659874179558e-03
9.542720937158409231e-03
7.265744483444617000e-03
1.328278809759197640e-02
1.745936293771988349e-02
8.083828713423429208e-03
2.177641433438360415e-03
1.629121744914301551e-03
8.484188353764660073e-04
5.194750362207314204e-03
4.729057990225521424e-03
-6.029923700208477538e-03
-1.017493194674438245e-02
-7.125779757052352718e-03
-4.447294237270813314e-03
1.976764483414097430e-04
1.772507537416999780e-03
-3.192523258522570817e-04
-6.655193719919299741e-03
-1.717765223180393180e-02
-1.818550700808018589e-02
-1.620606170417762323e-02
-2.056367427187266728e-02
-1.814196269729436220e-02
-1.361195709461776593e-02
-1.565446405727352608e-02
-1.938853593632292732e-02
-2.234097514563282080e-02
-1.433505748838698364e-02
-1.216200648766829501e-03
-9.737271149685980875e-04
-2.974492332585950121e-03
-5.365809381640153754e-04
-6.097726604515951764e-04
5.514221327700684870e-03
1.662385748749542133e-02
2.080343107083583096e-02
2.174004125205244997e-02
1.819385264024090190e-02
7.673322702251110343e-03
3.916579806497885730e-03
5.831397513160104136e-03
5.319073373027546035e-03
8.395490076852201930e-03
8.466409472726331431e-03
3.265604251499563439e-03
2.709299266622016648e-03
8.751287398680156768e-04
1.391577858362632724e-04
5.794452817088296612e-03
5.150413892549351655e-03
-1.936616617844265495e-03
-7.695991784920597385e-03
-1.104046197230547713e-02
-9.283203232575597957e-03
-4.617149983065732197e-03
3.881909644246474105e-04
3.405771901590224065e-03
-2.178093838591391076e-03
-1.083658516820633008e-02
-1.140867608577411478e-02
-8.318891013042978289e-03
-6.550694210203922979e-03
-3.349150849913311127e-03
-3.654073434201313662e-03
-7.555593045558211922e-03
-5.983131841939840802e-03
-3.158133362670819191e-03
-4.615345436728073708e-03
-3.205444999913323583e-03
8.059323288855609101e-04
-2.436053329531111689e-03
-8.836353578404204656e-03
-7.698992201283456037e-03
-3.224343348870087507e-03
1.305750748145340871e-03
6.789393418185336523e-03
8.770834985860948355e-03
8.634609810778846525e-03
6.930830848814118622e-03
4.476828197992391983e-03
5.881411822845791088e-03
9.103837098176704654e-03
1.427669794221545635e-02
1.820536715679652376e-02
1.661798513076852626e-02
1.438296447425321638e-02
1.043995462526968974e-02
8.787388307664562373e-03
1.468721107516200719e-02
1.622846568063033429e-02
7.873015168225208638e-03
-7.184709614318697968e-04
-2.355243352655157600e-03
-3.583432682294467996e-03
-6.914195607953132865e-03
-2.476894809791340638e-03
5.157640623268503442e-03
9.347082226238733957e-03
7.303357005102022008e-03
-8.536046146610810556e-03
-2.848563953424525924e-02
-4.561293936533369203e-02
-5.567523058287397741e-02
-4.969520618822729358e-02
-4.600102726578672585e-02
-3.868819081306839464e-02
-5.885535552769782970e-03
1.198576327909252857e-02
3.720908268367646016e-03
1.625544741889682968e-02
3.325108493904691681e-02
2.537525851968098697e-02
1.351842525707402758e-02
-3.855292196174283596e-03
-2.208915956290851898e-02
-1.563824860520367926e-02
5.287748606162703466e-03
2.983238454927436903e-02
4.457700229755855864e-02
3.566323174807513319e-02
2.713870519055126482e-02
2.547725673574446903e-02
2.086799432138604360e-02
1.703545136447875974e-02
1.055057795903099720e-02
5.641415435714372886e-03
-2.308851733574428852e-03
-1.298645318364861218e-02
-8.123243344672117713e-03
-4.412047388738021478e-03
-1.051860434058107113e-02
-1.063018406645346858e-02
-1.237062980086957656e-02
-1.419423778653199249e-02
-9.902224967390616667e-03
-6.361328984041102370e-03
-1.771845540512669969e-03
-1.099742288271538925e-03
-7.732136741350490242e-03
-1.133606555712024337e-02
-1.002838435643401034e-02
-6.482920071616399098e-03
-9.564505794832931299e-04
2.995961511085479603e-03
3.192090521368389725e-03
5.945369099768502748e-04
-2.627835014049143599e-03
-9.550561737524780343e-04
7.496131003317743277e-03
1.176763625788745417e-02
2.747269213080139137e-03
-9.325929430687945540e-03
-1.297110732511326525e-02
-1.405851955900119798e-02
-1.568162596302460562e-02
-9.319315940111394872e-03
3.786842246144964119e-03
9.591429400133364216e-03
3.779079523839305992e-03
-7.627593166513403546e-04
1.734993029009560591e-03
5.713338985943313200e-03
1.178906063232033549e-02
1.564706300872786490e-02
1.078434935876067952e-02
2.702611875918608207e-03
-1.083130582380392466e-04
1.641383365626772079e-03
2.046329251139491091e-03
5.506392031201452590e-03
2.740167463736907331e-03
-7.347863836160134672e-03
-1.439709996287031777e-03
-1.036814347544082887e-02
-3.504092839526183611e-02
-1.538145590600685161e-02
1.116505793725871762e-02
6.184744808185490585e-03
5.306393540317274823e-03
5.570332606143135572e-03
5.170697463642715506e-03
9.370047086217291391e-03
9.547361402454750817e-03
1.494880086071241794e-02
1.495406354523959834e-02
6.691824922244063965e-03
2.294865843729809209e-03
-3.223278146444075176e-03
-1.618136424912630742e-03
3.309259511101246987e-03
-2.432772965898129854e-03
-1.052521949485385813e-02
-1.459590604078601569e-02
-1.121031372305641809e-02
-3.600512641811189421e-03
-6.442727678091696381e-06
4.802769755832729005e-03
1.290302268842072851e-02
1.609910039381781330e-02
1.223083390219795695e-02
9.486900845541773250e-03
5.402069125806543796e-03
-1.007654325497978759e-02
-2.723594620761803434e-02
-3.930860561308675838e-02
-4.829745677198961362e-02
-4.124338412442364599e-02
-1.867480074862437958e-02
6.171554735967565639e-03
3.841247442677786506e-02
6.165942247589713959e-02
4.511273584041322615e-02
2.018070255480259451e-02
1.426382237811782069e-02
-8.229880948020150411e-03
-2.814050363203553576e-02
-4.584839754291874028e-03
1.376672785933352565e-02
5.894887778487167655e-03
6.898843278437273010e-04
-1.361744787652123534e-02
-2.382887324502218351e-02
-2.670113211672923981e-02
-5.654961270552228553e-02
-6.159845369775148599e-02
-1.392843832836150250e-02
2.082313948519804239e-02
3.814744929363761416e-02
4.528449372425428360e-02
3.045347068329913587e-02
2.498592862009552801e-02
1.987716166062409098e-02
-4.570258866947107205e-04
-6.627525195924382183e-03
-5.673290569695494008e-04
2.681974643364563177e-03
5.081601902045417354e-03
9.303999054547191713e-03
9.425205856407412736e-03
1.208894639250055223e-04
-1.157792920395906778e-03
6.815362790887733065e-03
9.396614892587447712e-03
1.049433333188390730e-02
6.011203069695535486e-03
-4.806087030663376038e-03
-1.157411724049719169e-02
-1.423551555212715890e-02
-1.348116217428182301e-02
-1.244492795052838836e-02
-1.454138946189727742e-02
-1.878167858296294485e-02
-2.140317699384585229e-02
-1.764383472069096584e-02
-1.335011833710943868e-02
-8.205239897326757625e-03
4.513958526484408360e-03
1.306344054637380639e-02
1.013547813577203235e-02
6.984002620689753506e-03
7.719898696568153196e-03
8.394012740226811445e-03
1.049214563410374654e-02
1.264627846775400605e-02
1.099247940420692952e-02
6.143809581007944089e-03
3.237466003839074933e-05
1.705025685562107666e-05
2.561749080188411784e-03
-9.124619065341281910e-04
-9.300226238500340983e-04
-3.222576346339457547e-03
-1.013361081220202214e-02
-5.736604495453710359e-03
-5.795610582362918824e-03
-8.529865636234751705e-03
7.038068637039190251e-03
1.387648189281518243e-02
2.952364505683785934e-03
-3.279438302210087655e-03
-8.228722862638747707e-03
-9.778649736586762439e-03
-2.952536349268666577e-04
6.630754289713283733e-03
5.424508343027559243e-03
3.787585041272322796e-03
8.392336525997199704e-05
-5.271701249660517251e-03
-2.287451540363892762e-03
4.398323064129708478e-03
3.180077877749370053e-03
-1.077817344527264585e-03
-2.787179699838473503e-03
-3.307795639633974785e-03
-1.824527234254619008e-03
3.528249576049411525e-03
9.996279924628766189e-03
8.436291973328778962e-03
4.685512927717344210e-04
-3.829625210617083799e-03
-4.887767290490683918e-03
-2.846936323524180100e-03
2.144396329277837871e-03
3.881387907723488854e-03
7.097704396845727431e-05
-5.903173630573237997e-03
-6.329440910123453577e-03
-1.988274165006665827e-03
5.771406645573630987e-04
3.899526578009856505e-03
3.269706135382738701e-03
-3.563080272460899482e-03
-7.669725962474057551e-03
-8.004991802331046583e-03
-1.360220638925964095e-03
6.994058523547969780e-03
8.644839958336182628e-03
1.062457362535548615e-02
5.418978467994398952e-03
-4.705751817166451030e-03
-4.002685004051808985e-03
-2.793445260848488512e-03
-1.504345218451738934e-03
4.052543162584439432e-03
2.989241425879405212e-03
-3.204374976701720654e-03
-7.638773556230372269e-03
-3.630060704180805304e-03
1.806259715823161542e-03
4.790429592380510224e-04
4.696179763542130000e-04
-7.649751198908890867e-03
-1.668899570664520923e-02
-6.783984494892153147e-03
3.021331811557836054e-03
5.627577427913888278e-03
9.717987103410074753e-03
1.031374912149381727e-02
6.729057346040998033e-03
7.328782101109914977e-04
-1.628246667999268607e-03
-1.380118009538082403e-03
-2.009627101183477770e-03
9.450529971612752541e-04
1.920297577581900990e-03
8.569023673887046257e-04
1.860176759042607908e-03
3.401254327349403916e-03
6.743538069959018923e-03
9.137221875213341962e-03
7.064816766686403404e-03
-1.781396576368860819e-03
-6.305548385904110979e-03
-1.014480142836814537e-03
1.262904920766233464e-03
5.414194680849700181e-03
6.533334005032091080e-03
3.088923482557188148e-03
5.680286523124736123e-04
-2.553325813699730204e-02
-4.080376264070129100e-02
-1.192301573447400453e-02
5.821843288539078204e-03
5.982171106660893328e-03
9.189804377013150935e-03
3.310410246309633021e-03
3.069369600654200708e-04
2.831629031804905176e-04
1.244282318948718115e-03
7.408380132063203255e-03
3.807275066803051961e-03
-2.247830175403712962e-03
-3.970196506196291102e-03
-6.072579113716119678e-03
-1.835263695172681311e-03
3.947480110610099811e-03
7.379408801624669050e-03
9.661148048731315469e-03
8.025200336926489875e-03
3.128952360925657799e-03
-1.960442540064737463e-03
-1.269345100841385438e-03
-3.982862282970184710e-04
-2.109587742035178102e-03
2.644515468759686834e-04
-4.262093612541291345e-05
-3.028293928298592987e-03
-5.360016613535046985e-03
-4.794863539454716043e-03
3.556162222565069971e-03
3.630746647230671635e-03
-4.408831272417554868e-03
-4.774237731535233183e-03
-4.208841142445443953e-03
-1.581464357302753447e-03
5.086653956430260519e-03
8.589478110765502022e-03
8.888571855935936336e-03
5.065483333992712792e-03
1.469208244994875574e-03
4.100951305171291915e-04
2.989106475079003752e-04
-7.077660960652796185e-04
-3.442081775938072956e-03
-4.187742884019502289e-04
1.827635359821740742e-03
-3.986689949008685296e-04
-4.040575308950177316e-03
-7.582549401127560915e-03
3.747488713993748447e-03
9.456425853939859003e-03
4.247815714008588636e-03
4.572326100083474315e-03
-2.435161918858031946e-02
-3.951057069354713819e-02
4.548467962576507591e-05
1.628913290565563859e-02
1.081775471625518771e-02
9.676650094785648262e-03
-5.354174260379687168e-03
-2.995621852225181445e-03
3.265339941671492868e-03
-1.643640907598099138e-03
5.564349939253016193e-03
4.270513635851796649e-03
-5.610094544230164772e-04
5.051110219874557295e-04
-7.079913453554195248e-03
-6.594245026836384124e-03
3.949671282432666748e-03
6.767440125194888745e-03
-7.633937810983652014e-05
-2.318701725088898047e-03
3.655855263550022473e-03
1.596028418541427848e-03
9.366135346325926312e-04
8.591156451740062858e-03
8.415939080961477858e-03
1.054201901350545686e-03
-5.369685103492434150e-03
-4.699206158690742013e-03
-3.841280893794251153e-03
-6.715661399469526407e-03
-1.065874800817346755e-03
1.008967378187483220e-03
-4.107829723725232862e-03
-1.122034707827366000e-03
7.155648407912718056e-04
2.073500915591588263e-04
4.091026677904134080e-03
4.034145539110641811e-03
1.129306495412109833e-03
1.467793884710649798e-03
2.515858837556753276e-03
6.339763781690785881e-04
-6.203501800778601569e-04
4.126260247815923682e-03
8.187030998034940804e-03
3.603272876501934646e-03
-3.143861302081123969e-03
-6.257381782847765139e-03
-8.208614208879225910e-03
-4.854180546285951844e-03
1.878754767637715170e-03
2.595118791361952955e-03
1.788170557311990127e-03
-7.439614913265415325e-04
-4.460047178956014907e-03
1.224849651511862115e-03
4.782426206066210314e-03
-2.366427295431355101e-03
-7.909226373494395237e-03
-8.556545554453799315e-03
-5.574177366115309548e-03
-2.253927784730204182e-03
-4.026067384870575441e-04
3.816856877178864682e-03
6.422271539329677502e-03
4.548868148235785808e-03
2.594724797742111485e-04
-2.381553762844928947e-03
-1.480014337063698441e-04
9.134096980049445430e-04
2.511695781112149774e-03
4.273262575295984356e-03
-7.247249577628164796e-04
-1.422280203000577444e-03
3.834238359070248374e-04
-2.609224484075739828e-03
2.610284196424840410e-03
7.097149001636974923e-03
9.062610020661013071e-04
-3.648725157155608637e-03
-5.907105504372888241e-03
-3.624002137822420009e-03
3.696719126450626232e-03
6.871388051112421562e-03
7.687310466563031415e-03
4.452400142623534098e-03
-1.754943830675944390e-03
-2.163899813506774909e-03
-1.990485928263526112e-03
-2.601791398994382238e-03
9.512780252554440662e-04
3.472570674516813408e-03
9.149473244389107890e-04
-3.557972196816337491e-03
-5.479604240515628145e-03
-4.517400763903659487e-03
1.312108035263699060e-03
7.708660762532316794e-03
1.880706119045352353e-03
-3.883193541730082295e-03
-1.143523114528466594e-03
-3.319586306728206006e-03
-2.243674581248630579e-03
4.105589774218671578e-03
7.040670549109351480e-03
7.444773519702046170e-03
-2.364120623118389289e-03
-8.899332755003852222e-03
-2.494585929973305079e-03
-1.539221818576583809e-03
-5.795312789768670980e-04
2.545486466387497648e-03
-2.530356780943816223e-03
-7.235205576203284500e-03
-8.574256286875107588e-03
-5.169592912595035762e-03
2.977316286673447818e-03
5.250275212439993108e-03
2.605434934428782403e-03
3.822979220414777579e-04
-3.034383609068371998e-03
-6.861993292588692249e-03
-5.532356053700690154e-03
1.757141252743539463e-03
6.589026920446816420e-03
4.226413178214306204e-03
-5.930411409309021371e-04
-8.877969040486981484e-04
1.893343029791890982e-03
2.466259084667282893e-03
3.093477162135458130e-03
4.494890694928254347e-03
5.044235346791317229e-03
4.582131269535544629e-03
2.440795055576840816e-03
3.084697255401997254e-03
8.695288087070613542e-03
1.032836338207235825e-02
2.156478038904075141e-03
-4.512564931415739833e-03
-4.607738625921059886e-03
-5.230624661217917783e-03
-1.827035449209318905e-03
1.998977630093109071e-03
2.425309092849218390e-03
5.483225299605559537e-03
1.959777223137738108e-03
-1.593017284153095325e-03
-9.736495937233573044e-04
-5.039769567251457978e-03
-2.742019784192445409e-03
-1.251092809466118963e-02
-3.190941957021975472e-02
-1.928753123676417089e-02
-2.390433939880716192e-03
-9.703219952470339919e-04
9.573127167379560584e-03
1.322004800287913430e-02
4.278607723714481816e-03
-7.499297634634377423e-04
-2.874639724844375507e-03
-2.800553203203271380e-03
1.134599264594844323e-03
7.100449374269835606e-03
7.559437702542183730e-03
5.550273427107068128e-03
6.708558838368085774e-03
2.067589228977845250e-03
-1.498538095540044406e-03
2.040876126783709461e-03
4.293151469702122941e-03
5.772799119521106886e-03
4.755444649470167047e-03
2.201283836443331757e-03
-1.019591223966943329e-03
-5.000751963375239285e-03
-1.976299877987706781e-03
-4.598385643808728307e-04
-2.907302653526081838e-03
-8.106420620396551872e-04
-3.103804701374162246e-03
-4.741569436897646699e-03
1.350536480086515084e-03
4.572712673950559900e-03
6.130574423521242995e-03
2.819223859048760987e-03
-7.949862490269231710e-03
-8.305531724349318051e-03
8.167615175156316349e-04
1.796077785680557813e-03
-9.137494741368942927e-04
2.122668691519003382e-03
3.686965308794539799e-03
-3.686450342185435989e-04
-4.391597134672456035e-03
-4.372394151678275775e-03
1.132260283204862290e-03
6.230846847480876229e-03
3.563179068064038866e-03
-2.704284684998316257e-03
-6.323355533912875838e-03
-6.640974917049061697e-03
-3.053017783585967263e-03
2.255925532009892941e-03
2.971288935821840473e-03
1.846649101151278663e-03
2.376057638769053706e-03
-2.727678350686467586e-03
-6.028293839886906223e-03
8.773113618414595492e-04
4.949285019829234057e-03
4.878169023947699634e-03
3.659370395978018067e-03
-2.968422221319248593e-03
-5.548363666794812674e-03
-1.781474869471015923e-03
6.129961081440101151e-04
2.518427495805687470e-03
3.484173708713687694e-03
8.571076112334089035e-04
-5.388337192468742320e-03
-6.860416863730510115e-03
1.522726131820893464e-03
6.598150888153753342e-03
4.503303700758414137e-03
3.698636961471025563e-03
8.838533752464876195e-04
-5.177033593311727161e-03
-5.042203100031837290e-03
-1.160013816355169060e-04
1.594053494835618234e-03
4.671526826215261635e-03
6.741736256414410447e-03
2.468233648922027023e-03
-7.354852416658376197e-05
-3.558943444157972730e-03
-4.074618899567690640e-03
5.225059750746756208e-03
5.562401091095762681e-03
-1.418060384671889244e-03
-3.189465471592755567e-03
-5.518806728930274012e-03
-2.562530743448166674e-03
2.742551527560919619e-03
3.566967745146227588e-03
6.050479930918445728e-03
1.376442664764552072e-03
-6.640662646571096443e-03
-5.227944997678943793e-03
-5.397444118413593540e-03
-5.987024076459420037e-03
4.537110898601854616e-04
3.525821987079970875e-03
1.674990443494515967e-03
-1.818559037534975319e-03
-6.598718451878545811e-03
-3.302815068218572462e-03
5.809545206681984188e-03
6.510264764518666238e-03
2.419535093577693339e-03
-8.753722659811319969e-04
-5.537109809557760366e-03
-3.387595341933669502e-03
1.425794353860035651e-03
1.152457632021436449e-03
5.798139521805942102e-03
5.910869849704408416e-03
-2.994043193575545835e-03
-2.771016168533274853e-03
-5.174154221494755516e-04
7.613345176331776532e-05
5.376765208183032808e-03
3.828041407770568956e-03
3.640167032332472345e-04
-6.710529462786599206e-04
-5.214540004760182847e-03
-2.015569125993818284e-03
3.295825898281989214e-03
6.091479409063913072e-06
-1.144295580372038657e-03
-1.628224401075191452e-03
-4.872943213792562886e-03
-1.528240662266832674e-03
5.525564630233483626e-03
7.561156864278945587e-03
7.414002613731961351e-03
4.385977476936054990e-03
-3.484672982683183380e-03
-4.965415594631483742e-03
-2.256439770368471980e-03
-4.670027452314996427e-03
-4.039926117606540065e-03
-3.497133013150002172e-04
1.322113203904197540e-03
-4.560056319000291509e-04
-6.078203195126115690e-03
-2.875294883822077617e-03
5.431910039972094074e-03
2.858249593096643185e-03
-4.346302327798968329e-03
-6.336684994068066124e-03
-1.889294350339796799e-03
2.403949334321434528e-03
4.038864764906973347e-03
9.412565603444868201e-03
1.028337294543556039e-02
1.856586996483769545e-03
-3.763620064617051800e-03
-3.361600778157272738e-03
-2.438395323456976800e-03
-1.556002592411477852e-03
3.258921828391904245e-03
5.552787129025116113e-03
-9.210844194093052110e-04
-5.104336959639598804e-03
-3.792574323422948090e-03
-8.706858067389511985e-04
4.132748215368732721e-03
4.907768007026650815e-03
6.398715604705421285e-04
-2.652814280724241462e-03
-3.772197461932781225e-03
-3.865841435008225691e-03
-2.484118895885757943e-03
2.702665782700762204e-03
4.798645982390005969e-03
-2.598982183897578704e-03
-1.110175153892587439e-02
-1.283599529664482264e-02
-7.403520488480235667e-03
-1.694339910490944359e-03
8.671472827014916349e-04
4.556435170931963201e-03
4.403709201842240413e-03
2.361623750182226429e-03
5.285638900596058287e-03
6.187732369945196480e-03
6.150168908060012728e-03
6.178899135937607374e-03
2.667584504066574259e-03
6.846371984931863899e-04
-2.395653579683718754e-03
-2.411256911949700293e-03
5.034832542529533821e-03
7.931880261380711006e-03
7.971531085162008104e-03
5.422285147007935985e-03
-1.004976469177046262e-03
-1.621199556037922554e-03
-5.091518836156116307e-03
-8.864281022794941178e-03
-6.888926920067589468e-04
6.170103849041014277e-03
5.913736591730996833e-03
2.439499625555918184e-03
1.105664951335536353e-04
-5.124356230286916322e-03
-2.285895566856236197e-02
-2.365863918892456910e-02
-1.143506694444427823e-03
4.708785669786452049e-03
2.516374434724659740e-04
2.150572582855140788e-03
2.368736988537446537e-03
6.006600418774125580e-03
8.615137725506287134e-03
3.967555140448551440e-03
-6.187261489809836893e-04
-4.092516913756832388e-03
-6.184773062986598756e-03
-2.870283353641330144e-03
4.383300795394812210e-03
3.652319243525397555e-03
-3.073690729271040707e-03
-2.956126415337258836e-03
-1.121263399028152698e-03
3.152391880724439172e-03
6.755946110907590924e-03
-6.220129651468945002e-04
-4.254267578474408944e-03
-3.605182533912763571e-03
-5.631260652954489000e-03
-7.277247985862814270e-04
2.368470866827867855e-03
4.191353365220848448e-03
1.234485479270333586e-02
1.148175188587419876e-02
2.864425666556589742e-03
-8.501307477111324238e-04
-2.096992213975613917e-03
-2.930737183299838948e-03
-1.420322740549973895e-03
7.827863099008699902e-04
-8.845217085269409317e-05
-2.860629728427071215e-03
-4.654079580864914530e-03
-2.146638983156925855e-03
4.302051142534749073e-03
5.810581794108284764e-03
1.844749959692302318e-03
-2.600578550482666920e-03
-3.825754554543055359e-03
-1.195480843807603284e-05
5.560353854260109566e-04
-5.730649893290815219e-04
1.215053863753240166e-03
-1.263544863507009728e-03
-3.578287484541601161e-03
-2.911775603848673882e-03
-4.754999935677951990e-03
-2.930151451150890714e-03
4.612519903936835794e-03
5.672151901789624154e-03
-3.456515435576968873e-03
-7.778343943165004493e-03
-4.644887765544703472e-03
-2.758065071950833395e-03
3.822814295287908608e-03
7.587158842737366966e-03
-1.221534355809358570e-05
-2.854364534489105178e-03
-1.380832059062589478e-03
-4.041813435383454119e-03
-2.798783873396614146e-03
3.732459978527709419e-03
8.227298591480469714e-03
5.994042919137321582e-03
2.358829842164617344e-03
3.039908155506293626e-03
1.700903049846870692e-03
-1.906005514715625269e-03
-1.578502420170016908e-03
-3.851642656805938044e-05
-1.029031218367225256e-03
-2.545146021344016265e-03
-2.813395047496724220e-03
-1.088980662265867389e-03
3.540530931805846958e-03
5.650976137410210209e-03
1.384148531989136096e-03
-2.803850958782546070e-03
-6.294487705169999302e-03
-8.740143330628965743e-03
-2.400895230383699643e-03
4.025595704046232640e-03
2.411649482485172559e-03
2.966063919012796105e-03
2.338025309654204274e-03
-3.523658091030967745e-03
-3.647539259264975364e-03
-1.197738227595424119e-03
9.986978203580135043e-04
5.752969991637672288e-03
5.017451617745224794e-03
1.215318757429727399e-03
4.949688305231068116e-04
1.933287127504560408e-03
7.714859282734029891e-03
1.013141354179979831e-02
2.985935833460671898e-03
-3.370299233434972085e-03
-5.330743682103184465e-03
-7.235649654209550495e-03
-4.843915684370762170e-03
1.043448086444745014e-03
1.037115095508480160e-03
-3.986424093862898921e-03
-9.041275596960916122e-03
-1.052247344909199890e-02
-6.960228099406568641e-03
-3.566959658678191605e-03
1.178329616286102107e-03
6.206705935420093675e-03
7.507100467379291577e-03
8.773061929240237242e-03
6.108291083154433927e-03
4.584021476174810275e-03
9.610120276843998888e-03
9.006329218634338482e-03
3.654519476436256936e-03
-3.340567565858178906e-03
-1.194180869975406713e-02
-1.389759834729071240e-02
-1.027689276333866759e-02
-7.073549294548051904e-03
-6.296864969761509050e-03
-6.058384701554596526e-03
-9.381111663189346458e-03
-1.225716479481646706e-02
-3.212730187813305719e-03
2.989582843619232374e-03
4.175434372800258982e-03
1.123039230834865614e-02
1.417096119821715204e-02
1.660365518259838968e-02
1.521691739837195516e-02
9.928682803317981018e-03
1.407418295301294218e-02
1.319781842611171194e-02
5.877574477898722324e-03
-4.659632472329309702e-03
-1.527676650319393509e-02
-1.354502998606369954e-02
-1.852115688700033472e-02
-1.275130038547436957e-02
