-7.731758933636194431e-03
-1.352294383368429949e-02
-8.544581456906688577e-03
-8.371717875280890175e-03
-2.502918857958902950e-03
1.695134043377371190e-03
5.224494343328681990e-03
1.057321694304966427e-02
1.004978579024899503e-02
9.939957814654325902e-03
1.086970789445862798e-02
1.437533381734148324e-02
1.696028100432630387e-02
9.024686861467300786e-03
9.188049585723298638e-04
-4.525908092721585979e-03
-1.074648533995252453e-02
-1.176865584964799892e-02
-9.800403458564975120e-03
-7.359915918887374904e-03
-5.059813278804577326e-03
-5.238906739425576095e-03
-6.777379931809724908e-03
-8.126308347601432502e-03
-6.529830625306840518e-03
7.674709643894711900e-04
7.547939531393165619e-03
6.153099062684574960e-03
6.223069433448923798e-03
8.879285798101483121e-03
4.034426141049164347e-03
3.561303116764415449e-03
4.734038022288689432e-03
-1.965122853394645451e-03
-2.529598208187417482e-03
-4.554841013359435531e-03
-1.048929533941230993e-02
-4.359342853718159091e-03
2.088914617150398802e-03
1.148294580829693377e-03
-5.097700597032071065e-04
-2.706907767171292788e-03
-4.230874926471051706e-03
-5.770223100610773724e-03
-4.312369928076852273e-03
1.928101357127295608e-03
6.863655355025461043e-03
6.898833223091529673e-03
2.251451095334023461e-03
-8.644144761728944984e-04
6.267575061823834736e-04
3.417232721410303972e-03
4.952904797877464779e-03
1.461405214064991033e-03
-3.076322711796983592e-03
-4.502137635944861681e-03
-5.178534790457659659e-03
-2.349174195678413457e-03
1.907562736770185459e-03
4.570817810114072635e-03
6.234603383406828875e-03
2.271897501981849903e-03
-1.790267131672148128e-03
-1.357887482953166938e-03
-2.699828776625011299e-03
-5.548094940714165578e-04
3.717322449091704697e-03
6.702591946784528095e-04
-1.886237821080071148e-03
-1.512193907837134461e-03
-2.697556713709857966e-03
-4.725475569279708366e-04
2.543680572561403657e-03
1.902723355194379379e-03
1.050634579360048811e-03
1.184991273621844839e-05
-1.421874795670858681e-03
-5.229492399767730285e-04
3.058528976162991179e-03
6.118321605834749037e-03
3.788097581364450756e-03
-3.990606652948751332e-03
-7.111079092900517325e-03
-1.780880267954541461e-03
-1.103762498006165054e-03
-4.384065907955182750e-03
-1.187208596955908243e-03
1.254682297499756186e-03
6.080794828718834050e-04
-2.370125513304706302e-03
-6.502189504276571254e-03
8.053802775084585857e-05
7.131411965567713285e-03
3.808157641933634669e-03
2.018916751362888947e-03
1.344418080257755738e-03
-1.832967049080707397e-03
-2.678268924560865075e-03
9.502681080187832521e-04
5.392612315457586888e-03
5.693102653912191120e-03
3.816034153994861400e-03
-1.406928856443842709e-03
-7.395300504067179974e-03
-7.668303231367920060e-03
-4.756688757080617183e-03
-7.983367490233501474e-04
-1.018521955004256328e-03
-4.187332637029444159e-03
-4.748197420872797558e-03
-5.240198808362733253e-03
-4.768551447475419020e-04
4.584540812771204302e-03
1.445244350642978888e-03
-2.032036021583746594e-03
-4.426723862915617029e-03
-3.959339680853875103e-03
1.554636751737892937e-03
7.101575496081538423e-03
1.081520802867656957e-02
1.152921718386589953e-02
7.308173825759662311e-03
2.553981239970666800e-04
1.296147184144518958e-03
3.802640844759746890e-03
1.452653316849666660e-03
7.985033339064631294e-03
5.014137721794078607e-03
-4.642299593826192117e-03
1.074528305569247147e-03
4.233259042758538530e-04
3.506952814294247728e-03
1.055422411514185012e-02
2.794129665497445576e-03
9.843032051640139904e-04
-1.402845346864165302e-02
-3.083493741701151189e-02
-1.891386250634231186e-02
-2.056636996827616165e-02
-1.600318491157265086e-02
1.214867183466564540e-02
1.278556178658624143e-02
3.688693339127561369e-03
4.856844423551351896e-03
-1.115396652409546578e-03
-5.480266136274502230e-03
-3.189616415888167807e-03
2.079228715044741539e-03
3.582127580028768559e-03
1.095699349727120527e-04
1.157629051962997136e-03
5.938968391556754232e-03
8.540881548196746845e-03
5.809679036241808051e-03
2.372912765897797465e-03
-8.555125318757536221e-04
-4.273272678938696764e-03
2.081912325909670344e-03
9.193678392458638771e-03
8.549722848122923505e-03
8.746582264288120176e-03
3.530067148956474339e-03
-5.441908118068303039e-03
-6.327373534831499252e-03
-4.969859813886470454e-03
-3.200215858068926854e-03
1.179880261928364319e-03
-7.897191049463200049e-04
-6.314794336242848978e-03
-5.112732601908817967e-03
-3.237441285769618229e-03
-1.824983660790856568e-03
3.188895282172127428e-03
1.808639500805316394e-03
-3.163814853427297184e-03
-2.980777133381011523e-03
-4.023450308749911518e-03
-1.984353500034766963e-03
4.840349158230001884e-03
5.229684727249692827e-03
4.177444607498755937e-03
3.844952411717826070e-03
-2.023456854258183155e-03
-4.089005352714045194e-03
-9.560564413193919963e-04
-5.502310524648068970e-04
-2.107629160767210169e-04
1.161374254876573146e-03
2.253605895511893911e-03
-3.452907094013418429e-03
-1.152897361209043355e-02
-2.541610640513302256e-03
8.288593158801293645e-03
3.769786349691395429e-03
-1.101187108435751263e-03
-3.721224942195139589e-03
-2.989280831188633955e-03
1.670159133636979140e-03
2.961185131207851734e-03
5.635020135055005507e-03
6.024606245123142328e-03
2.642828082596230480e-03
-4.419292415126591859e-04
-4.172010510904804008e-03
-1.629397812126483778e-03
-5.712590047921700925e-04
-5.815952057252765130e-04
5.657338784942261833e-03
-4.617515640424083110e-04
-7.548143285310357151e-03
-3.580181929566167084e-04
1.883951195192508019e-03
7.280523500702805722e-04
2.971659543795309756e-04
-2.595475150069468436e-03
-2.332802867161273917e-03
-3.504510613992656808e-03
-4.023428330184293869e-03
-1.011609621217708687e-03
3.098180289604050451e-04
3.681852183507204005e-03
6.812660888475416399e-03
3.957735165160836815e-03
-1.588857131060032995e-03
-3.790552326815977910e-03
-1.151097974142888331e-03
7.886719068566581383e-04
1.434257607903443926e-03
1.062969937827015461e-03
-5.709744289779936696e-07
1.518664722957263147e-03
1.164234773610633121e-03
1.707443905470202184e-03
3.942314136472992343e-03
-1.701281552626903891e-03
-6.425928943443279251e-03
-3.536462662306635949e-03
-9.101054034730078537e-04
6.002393309269922136e-04
2.081878792321533150e-03
5.376846437722127003e-03
6.817609510618308569e-03
1.131173387715387647e-03
-3.884785188837186747e-03
-5.865169824620018041e-03
-6.756396674661019341e-03
-2.328701849244533498e-03
1.809680037975545594e-03
-7.209357203099211065e-04
-1.821207058980344514e-03
1.048949609878297795e-03
8.613199233827932262e-04
2.195194372098519236e-03
4.501081013747638970e-03
-8.697971403005591009e-04
-4.167445206439562150e-03
-3.424599018443246889e-03
-3.918566777941750144e-03
2.125309088522251734e-03
5.838677339377605462e-03
2.835118074189315902e-03
3.197613355032350065e-03
-1.687448867359533184e-03
-7.948905802959911268e-03
-2.359300981786343569e-03
2.819844032585016452e-03
1.082567010130179022e-03
9.667835165865925435e-04
2.160390143765613009e-03
3.628235399938971100e-04
-2.223368028248371830e-03
-1.622995424840542643e-03
6.684460946123751751e-04
1.588381372338585132e-03
6.759748682891864036e-04
-9.676348069165875698e-04
-1.721968916585726525e-03
-5.647673768516823286e-04
4.086774909466500856e-03
8.280989161678964372e-03
7.477534252289722190e-03
4.297593399899657385e-03
-8.522725242981762190e-04
-2.979189102530896676e-03
-3.015292476954503924e-04
-1.690559893731613788e-03
-7.343756275240840214e-04
2.481266068306460949e-03
-2.867986305138920961e-03
-6.626729021289872248e-03
-7.217241597516765340e-03
-9.093994415538288884e-03
-3.285222903779033785e-03
3.220751766818458987e-03
1.874353358180096086e-03
-6.146045272247127123e-04
-1.357148720406372222e-03
-1.127471370733669140e-03
-7.333247222231295418e-04
5.082575670290229337e-04
2.650277790675108214e-03
1.152117098382181987e-03
-2.229576741423653415e-03
-1.578961331850088677e-03
-1.189839148899306774e-03
-3.258952420521976905e-03
-6.697584420321522078e-04
2.643552891718415222e-03
2.959573522859473664e-03
5.563789201006796685e-03
3.069836733470409675e-03
-3.627679161041815273e-03
-1.802954286413797468e-03
1.209140433221177072e-03
-1.158829601882956561e-03
-1.986654522718696476e-03
-1.794817117498310544e-03
-1.677200092334844199e-03
3.816320893370899175e-03
1.074283863730364844e-02
1.052382438365349372e-02
6.938497140971166231e-03
3.498152755043561126e-03
-8.535632887985790179e-04
-3.508723943253957197e-03
-4.218782110097439760e-03
-2.957582446604650230e-03
-1.004265097577296565e-03
9.931566618394494319e-05
7.058091152054477794e-04
3.796038114690421933e-04
3.576062673045559467e-03
5.722185304392468121e-03
2.330029892891390553e-03
1.252414947776880720e-03
-2.153924132564275298e-03
-9.097726406224726156e-03
-1.261995284677286909e-02
-1.113421634294640972e-02
-6.182626007900799033e-03
-1.184195076221460433e-02
-1.841672528829171873e-02
-7.179503323149928097e-03
4.075497942732445901e-03
8.613441854044742371e-03
9.695098684658617211e-03
6.859875047129588947e-03
9.616054253980403296e-03
7.135607022047589856e-03
-3.520914742146166992e-03
-6.261074713824984518e-03
-4.334359162592040828e-03
-7.517011461491712341e-04
5.669831441359123904e-03
7.349694290771644975e-03
1.847960655127291229e-03
-3.403995155562971296e-03
-1.123722261902040378e-03
5.588071639424689423e-03
9.361670279925472446e-03
8.543182970955026309e-03
6.596343825530991828e-03
3.043873901563033321e-03
-1.633206403768719958e-03
-2.611029632817255582e-03
-3.691130967979389284e-03
-1.740823901987716572e-03
3.534216244578011670e-03
-1.218186971642736980e-03
-5.583263915223375153e-03
-3.211813557334884401e-03
-4.482204943230754836e-03
-1.683985514623997752e-03
3.038631209375401102e-03
1.140898656533060988e-03
-1.638815247576169047e-03
-3.269541013535005522e-03
-2.710076125966693304e-03
-7.024196690185711446e-04
6.919434516815353665e-04
1.675680473415975614e-03
1.279673443838757032e-03
-1.628849194275625023e-03
-8.349328810815827284e-03
-9.492527256406826930e-03
-1.614318836281909177e-03
1.692471214699184726e-03
1.458748294471856350e-03
4.071122956615860246e-03
4.025992107738787448e-03
-1.307333756413509886e-04
-4.549926782747432119e-03
-5.754557925213831318e-03
-1.651366012898887502e-03
4.734700654107621039e-03
4.799153080555382256e-03
3.052817123253498215e-04
4.603946494958411533e-04
2.043893448967878685e-03
4.065707645737272682e-03
6.300846817435446293e-03
1.571031276034921126e-03
-2.359905283655329509e-03
4.577496092999943267e-04
3.550490901951941091e-04
-3.118983790398439059e-03
-1.532750959069748356e-03
2.830801094312229444e-03
1.545021431332873219e-03
-8.656899252742468681e-04
-9.611982509508693192e-05
-1.586186921046966189e-03
2.730536804054386319e-04
5.211627036334337375e-03
1.986656421578489838e-03
-2.256334527434517966e-03
-2.520459132858642991e-03
-4.658992319536751046e-03
-3.385534779500658405e-03
1.235832285917473150e-03
3.282752914221132284e-03
4.863371172279676649e-03
3.288917417168866000e-03
-1.528818106639404919e-03
-1.422444856296800749e-03
9.859336136702279499e-04
-1.474171761359165090e-04
-9.432939659842969971e-05
1.357474548034523585e-03
-2.817527513912831787e-03
-8.803599703601155263e-03
-7.802146803209866928e-03
-2.535536947440119541e-03
-3.227079757221262358e-04
-2.099898873436322616e-03
-3.033841660799452278e-03
-2.554501218379186516e-03
-2.714427915869719633e-03
2.218574147832057860e-03
8.683828738428763655e-03
8.871822987835713964e-03
8.925932888585601938e-03
5.196549080171423279e-03
-2.670501462835234586e-03
-2.721004803596646648e-03
-2.329529102195952977e-03
-2.904533522713954093e-03
2.405959754154442937e-03
3.992095675419513046e-03
2.245705971930084342e-03
3.191951551381153355e-04
-2.738625781636421126e-03
4.043106167344336067e-04
2.865489974381477990e-03
-3.718898223959633711e-04
-1.161958870574307783e-03
-3.184990157525165178e-03
-5.720590559522713107e-03
-2.741317118945529700e-03
1.075880475445266252e-03
3.523114755965641148e-03
2.015657635181859059e-03
-4.049863087459094554e-03
-5.759251043219819170e-03
-4.087141386140438933e-03
-4.721281473995878053e-03
-2.075030762741301386e-03
3.401220187655438435e-03
3.834967327219553426e-03
3.382484456328460534e-03
6.723437583868387309e-03
5.676365151516785286e-03
1.277397141271640430e-03
1.393843487407116699e-03
3.348945495450887655e-04
-2.188803271005765154e-03
-3.193679295464562588e-03
-5.925080196347497392e-03
-2.724627984459907556e-03
3.560105750284038497e-03
3.537741143677211684e-03
4.947524401580545746e-03
4.578005314619558279e-03
-1.279680330033993027e-03
-3.132477143721200136e-03
-3.916248327898579594e-03
-5.844276976951507351e-03
-2.791361723840126742e-03
2.576629606360356442e-03
2.923263616399024000e-03
-1.444883459967449433e-04
-6.990016422380045157e-04
-4.768688227891524863e-04
1.680554270793353355e-03
3.586049861932343215e-03
-8.816238312820443923e-04
-3.346049955484566713e-03
-2.965830824971310911e-03
-3.662797458950776876e-03
-7.220148717017123210e-04
3.192973625320704497e-03
6.808271993617992859e-03
6.365031166888759050e-03
6.154457979401695058e-04
-2.080897895267850694e-03
-3.198230035314083078e-03
-9.934058825214536412e-04
3.122568167120744372e-03
1.743004453796873760e-04
-3.250776092960512044e-03
-4.217592402105230232e-03
-6.447916206625881053e-03
-6.903249131793493844e-03
-3.930669705367548575e-03
-1.213539654001385406e-03
-1.910784602892296206e-03
-1.249602021239105574e-03
-1.957304884590570053e-03
-1.669219899727026170e-03
8.436504158133737927e-03
1.123098643310276035e-02
5.187196569840566915e-03
3.158929366646196901e-03
-2.541210103373318929e-03
-3.832693613556722653e-03
1.245612687808800908e-03
1.620621084588688959e-03
5.005281692407046942e-03
7.356559862768450794e-03
3.133674333095099601e-03
8.743538684835773945e-04
1.174795606353352690e-03
3.059843635068850397e-03
4.719411180684546063e-03
2.237811877744886897e-03
-4.296039686904467095e-03
-8.460318978542451587e-03
-5.000049415529730749e-03
-8.387990891258778918e-04
-2.534097597824133208e-04
1.561394200809800232e-03
7.128214399334963439e-03
8.359138513386621741e-03
1.822693628360238854e-03
-6.251149662997957865e-04
-1.095414802687076812e-02
-2.937016248245682623e-02
-1.922297213934252152e-02
1.725874443543558073e-03
3.788564275157293125e-03
4.726614588705988981e-03
3.338162701715452225e-03
1.205384315111165559e-03
5.100620555865567271e-03
2.385353614324479141e-04
-2.019036643225783929e-03
3.323525158050422926e-03
8.762653974879176756e-04
-7.271800470937284534e-04
1.116654288388237029e-03
6.154075382675443587e-04
2.604248901144909974e-03
2.310785264553035390e-03
-4.897308853139612297e-03
-7.507440869394344483e-03
-1.199209312462348737e-05
4.082755528019292764e-03
3.897885922535451915e-03
6.999431430078669261e-03
4.874401053141645158e-03
7.524015363200462977e-04
-4.398366291904305322e-04
-1.445793423526655925e-03
5.404870132323207066e-03
8.063198683861082933e-03
5.103754419828897726e-05
-1.488688169686468599e-03
-2.144399758488340236e-03
-3.768377583160451624e-03
5.201250981262384426e-04
7.856421057934034674e-04
6.797278366914227214e-04
4.575521319886460998e-03
3.339595198562007004e-03
3.458735727355414071e-04
-2.776995734421550469e-04
-3.869971587561201018e-04
2.615787561644327460e-03
4.349386734988034200e-03
1.154186107249821841e-03
-9.787032092227661035e-04
-3.495271684744729983e-03
-3.023819944751353610e-03
-2.938235202936129685e-03
-2.103505156832064307e-02
-2.851533091214764407e-02
-6.908387949853439167e-03
3.098938606546927568e-03
3.614190527146447784e-03
8.137303975886673799e-03
3.469806356435456429e-03
5.866668674643679693e-03
9.516557843012793394e-03
1.326393847498738218e-03
-9.269619563320451476e-04
-1.584662031183511422e-03
-2.795935640471436997e-03
-4.580709309048503668e-04
-2.086590491063702868e-03
-1.464598658080944887e-03
3.742926981841702277e-04
1.631221761185621994e-04
3.604227078468469347e-03
7.195041735100850093e-03
6.549273626192185331e-03
1.058414459468313149e-03
-1.580158071383945323e-03
1.360000663790319683e-03
2.413600756582321544e-04
-2.320990759912853335e-03
1.871354282147061018e-04
6.368470697796444098e-03
9.370174623420022414e-03
3.976845857400300617e-03
-2.564571451641417706e-03
-5.781997606798972705e-03
-5.468061324456394666e-03
-1.448453776990052530e-03
2.295845757771143711e-04
-6.756505916856884791e-04
-2.942563393414487764e-04
3.392115653372405784e-04
-5.847400784296019399e-04
-4.207343648756588488e-04
3.695300578294368442e-04
-2.782206855460286551e-03
-2.320087173566229288e-03
-1.241206031174471548e-03
-7.345502965512454990e-03
-3.513381913627040658e-03
5.472729799129869878e-03
4.741570263235084411e-03
4.626613229951356474e-03
1.355658066375069323e-03
-4.989554180917414941e-03
-5.206930564904283312e-03
-7.935169834517882478e-03
-1.052354752516571068e-02
-3.781196487540891028e-03
6.413046898872680653e-03
8.440847539404237876e-03
2.905788551951658284e-03
3.597228399360240681e-03
8.205756429911299082e-03
1.013958645930711049e-02
9.816491498373394742e-03
5.340727448648534097e-04
-1.072277782039591718e-02
-1.089596402117801177e-02
-2.790942015827472394e-03
3.731800443674744474e-03
4.775383861085099289e-03
5.646894793224413629e-03
3.699968687605553318e-03
1.085086563590690473e-03
2.630074233782927953e-03
-2.929158069390450266e-03
-6.420331355313653975e-03
-1.859521501136267513e-03
-5.685758420316436995e-03
-8.046339707783605605e-03
-6.428193942456705140e-03
-9.958495783597785117e-03
-3.384515541702724176e-03
7.026575139724552423e-03
4.639805132194420659e-03
-1.505900398003183266e-03
-6.836017404994714636e-03
-8.565140873136065786e-03
-6.281142265851422882e-04
6.973614962225843650e-03
7.197917382086247047e-03
7.875441011005623881e-03
8.167402736832505422e-03
4.117244250286978581e-03
1.881905058249970508e-03
3.289344516318947701e-04
-5.650183476951431611e-05
4.310008340565407194e-03
3.156592634432531415e-03
-2.437145839875169999e-04
2.598380957631387777e-03
3.200134881916268624e-03
4.346377929907789886e-03
6.253603118623862409e-03
3.717446140481242209e-04
-5.353648995928189658e-03
-7.733275406164877297e-03
-9.285984037079926534e-03
-6.762339644738351273e-03
-2.910714684968173770e-03
4.522034704300860117e-03
1.169688082607428861e-02
4.979001570263674216e-03
-4.622501540825172187e-03
-4.609977345045049302e-03
-5.197497250594898706e-03
-6.019964525436236231e-03
-1.559324255273840864e-03
5.936328350513384857e-04
3.521557732377917672e-04
1.837227562528396889e-05
-3.077604840053442450e-03
-1.374591903388529442e-03
4.100210970801935334e-03
2.401594566820118570e-03
-9.020884385811691036e-04
-1.640070509517690608e-03
-4.534782815335964765e-03
-6.741147809723970451e-03
-2.898041510203324973e-03
5.911880204911991454e-03
6.629784261963434996e-03
-3.304703201042339007e-03
-9.243062815969781132e-03
-9.523557723971773359e-03
-5.937362777678040736e-03
1.502327895530268347e-03
6.670323094387540890e-03
7.305414582932260280e-03
3.459382515886052622e-03
2.253191963832964703e-03
4.974697609125693608e-03
7.500289266795816603e-03
1.196090321904549718e-02
7.070994092166532803e-03
-1.842522740205224238e-03
-1.681234065760538708e-03
-4.865660680644893696e-03
-2.883918555554366471e-03
6.575791908483880240e-03
6.162418911351385219e-03
5.345328862952066461e-03
5.204403791349203855e-03
8.302626278280421726e-04
4.375377476922380341e-04
1.887651226725503128e-03
8.552709321562688288e-04
-4.737184293419362778e-04
1.434457419741686163e-03
-2.619464899301988080e-03
-9.388978220539870301e-03
-7.323545649316667155e-03
-1.691070007394689795e-02
-2.348029513775382049e-02
-4.025296854223057996e-03
3.695452026760338415e-03
-4.454384501687799411e-03
-4.973576032662970804e-03
-1.820499989847222362e-03
2.436363045213014739e-03
2.935523919480283357e-03
4.623926558718451270e-03
8.467128711658205437e-03
4.145519708537080857e-03
5.492277170555786561e-04
-1.074053352760247172e-03
-3.443622557013069265e-03
-1.892988291314523681e-03
-4.730626567184533860e-04
5.267456418613943427e-04
6.769991408635945120e-05
-3.460955459459482113e-04
3.101984723661327381e-03
5.586400851728402263e-03
6.613749491912707112e-03
5.457289585181632034e-03
1.563472270557521044e-03
-2.980740277211668936e-04
2.542262093542318416e-03
8.084806808735679057e-03
8.796425415936481515e-03
7.897349177930597028e-03
8.162084561021213866e-03
2.061515132207290292e-04
-8.178914788340797826e-03
-7.812620159011853319e-03
-5.642924607209496776e-03
-2.103887034491415831e-03
8.322712704651722727e-04
-2.032556456347144568e-03
-3.947099010336498071e-03
-2.057438418726862187e-03
-1.215988326007885062e-03
-9.132222919528902680e-05
3.124017762010986412e-04
-2.135357540801961426e-03
-4.759332096262012916e-03
-7.784361952844397192e-03
-7.834805777421165879e-03
-5.349563684331365768e-03
-6.097360780200481931e-03
-3.733561822949224215e-03
2.279522605487658681e-03
4.126853233907596188e-03
3.564067713050032837e-03
5.001454882567969891e-03
7.976944974312659767e-03
5.005458020502940447e-03
-3.116807505888333262e-04
2.206369113966176899e-03
2.311818938777766667e-03
-2.649690056013568034e-03
-4.055178918691554465e-04
4.226529874484841881e-03
3.915799037036867686e-03
4.887417726835147427e-03
4.785848113372149874e-03
-4.113407358995140387e-03
-9.599998116406043003e-03
-4.065015880439947459e-03
2.123151710936431024e-03
4.054797337023149581e-03
-1.896048224214048807e-03
-7.455680326480174612e-03
-2.863674403582631370e-03
-1.780778297461411627e-03
-3.720493820483470292e-03
8.489573555128927893e-04
4.836786910679915195e-03
5.703641593270147164e-03
2.590101084362937678e-03
-2.283520301215510688e-03
-6.363008130395073720e-04
5.730679753248799080e-03
8.021194699173570322e-03
3.428228370401049420e-03
-1.118474233762509727e-03
-3.451918293242526616e-03
-3.527525514471782121e-03
1.301402671360910122e-03
4.210907445304258589e-03
5.144137842349178272e-03
3.880384733723746433e-03
-3.774572710856906235e-03
-6.109305115413002710e-03
-2.704873070380744635e-03
-1.094159161112643041e-04
1.846391508154540543e-03
-1.931834368943505633e-03
-1.908944265700408816e-03
1.591980093511782303e-03
-3.712535138190415154e-03
-3.085975505118636504e-03
4.874420270061640553e-03
4.438438594614662475e-03
-3.056303892662154929e-04
-5.101211671007693446e-03
-8.526201552685814394e-03
-6.615929656672812041e-03
-3.676221885679554786e-03
-1.992572222231123007e-03
2.097133092390320377e-03
3.587315440600107389e-03
-2.782849322364771161e-03
-5.557766964283613470e-03
-2.196998662754867128e-04
2.277677782784502669e-03
3.590344345476199819e-03
7.239029204058125555e-03
7.523966967182819064e-03
5.557881784480960853e-03
3.488195479336504007e-03
3.269141451793621325e-03
8.608552868198442176e-03
1.130109157768637539e-02
3.379427889627618052e-03
-6.030559722299518380e-03
-8.777169896261647827e-03
-9.547612789489991203e-03
-1.069556312276877773e-02
-8.938274951189668222e-03
-6.500940244520869021e-03
-6.951626261924717838e-03
-6.444468794353092923e-03
-2.789665698653547975e-03
3.123226544265658038e-04
1.096044880754124158e-03
-4.464925628089240787e-05
-4.489012943599174940e-04
2.813482590132405144e-03
8.302385635382741880e-03
1.175903519495588058e-02
1.230641405732290673e-02
1.703952685304695180e-02
2.243878891329190856e-02
1.909299612398925733e-02
1.764759123067932006e-02
1.869954516733003669e-02
1.136027846389166436e-02
3.506135146410490136e-03
-2.059716835076725282e-03
-6.304431262811688308e-03
-9.391129951970741616e-03
-1.710993226903581924e-02
-2.071847693357935227e-02
-2.007756763169482594e-02
-2.381913180143087339e-02
-2.171724991756461901e-02
-1.400944165559586847e-02
-1.096074757418794357e-02
-1.038035736374511367e-02
-9.628419170981450392e-03
-3.468336598662527352e-03
1.115263916415701155e-02
1.484794740506552996e-02
-2.409915041371395346e-03
-1.431934609032226198e-02
-1.102906418656906043e-02
-3.922930514839536274e-03
1.371187991875547421e-02
3.664298447613861809e-02
4.674354609467503557e-02
3.642056044974835427e-02
1.150595389431940084e-02
5.725109959745690183e-04
5.169053063027419931e-03
-2.112879593666907099e-03
-1.192507650964204705e-02
-1.271882438722500390e-02
-1.547339843701550643e-02
-1.641101953439845842e-02
-1.278605405595246991e-02
-1.080703243092247939e-02
-5.106263630757033184e-03
1.606507878946586160e-03
-1.102080528313527114e-03
-2.120808619906945722e-03
3.061730407613291564e-03
7.320018286448358273e-03
1.888151067577943307e-02
2.872346943415115053e-02
2.306601378045945727e-02
1.152102161805993938e-02
2.357800646841686290e-03
2.097212183188483688e-03
5.993586390722288257e-03
1.787172723982103284e-03
-1.013864801193358617e-02
-2.872052184150803225e-02
-5.105068442226853853e-02
-6.416415830448232716e-02
-5.754840994282091338e-02
-4.765669431296395975e-02
-3.785428318407082354e-02
-9.718640829383022942e-03
-3.014264306968013948e-03
-3.556631111412295737e-02
-5.520949104545441743e-02
-5.188644940664949301e-02
-3.302389919145280739e-02
-1.389029562857445723e-03
2.263494271756904402e-02
4.018942817553339264e-02
6.946694509239909054e-02
1.326897540524015207e-01
2.026337594725800273e-01
2.146371599278521503e-01
1.768257836153326323e-01
1.311934387772225596e-01
8.164374948091794593e-02
1.380576402728937203e-02
-6.468696342146323941e-02
-1.181051730437349540e-01
-1.284772131301552267e-01
-9.803127904070675636e-02
-6.712369401740465868e-02
-7.315444834499081062e-02
-4.462160958983500680e-02
5.401064882153604196e-02
9.180546562998825877e-02
-8.223052278664655379e-03
-1.260523552547579140e-01
-1.598034688338688392e-01
-1.708459126348384760e-01
-2.076491926254832587e-01
-2.037736733278513179e-01
-1.104902577534377650e-01
1.504451560045129595e-02
8.915050210497235672e-02
9.839103641456166394e-02
8.970685613963616523e-02
1.128192264107475695e-01
1.268142092970653279e-01
9.397057618349612118e-02
9.413894378462989154e-02
8.899097475914898026e-02
3.273255140883531839e-02
5.133018403033361154e-02
9.015537363925771319e-02
3.297655744301171421e-02
-5.433297861271244727e-02
-1.162958266529748735e-01
-1.154777257030674131e-01
-9.331417000131804473e-02
-9.675287789446777864e-02
-6.375423451943783293e-02
-4.096102677795926406e-02
-7.815002146118202320e-03
1.391903986993511810e-01
2.477311163246293524e-01
2.017473999556715358e-01
1.169511595826503020e-01
4.897564612576508353e-02
-3.206552772458051703e-02
-9.607739665786513283e-02
-7.724180782086757791e-02
-3.993045164161029142e-03
1.340197737201237471e-02
-3.247549652013408811e-02
-2.100002289929457991e-02
6.142548537665912939e-02
1.004575954588675796e-01
8.837873198783233186e-02
5.145285821569327289e-02
-5.825006021222147931e-03
-1.120423149648103710e-02
-2.370178135237459641e-02
-1.391454056712409237e-01
-2.536424604842655306e-01
-3.082692373872562008e-01
-3.350483566446817996e-01
-2.936994274824136220e-01
-1.816028246688569381e-01
-4.886586925160398692e-02
8.215740091257069111e-02
1.541942451781684875e-01
1.447492902926473535e-01
1.535237362511730763e-01
1.967543161581224442e-01
1.898090727387555521e-01
1.495435649463109085e-01
1.071376147705557086e-01
6.456913148762395693e-02
5.120943075194787919e-02
4.915787775815059352e-02
4.387237889800418150e-02
4.523019688385761933e-02
4.165277929532611167e-02
3.810363414961748935e-02
3.024134377429864295e-02
1.375653619707349097e-02
1.145891942514217290e-03
-1.529119220480183727e-02
-3.184195869585788874e-02
-4.157835222961440980e-02
-5.635118223615481758e-02
-7.395441974514964378e-02
-8.456942407768863745e-02
-8.732008328462777247e-02
-8.351444464969548509e-02
-7.283604603789478604e-02
-5.715639425313207012e-02
-3.883420920789137226e-02
-2.034810468131744918e-02
-5.314868843616427953e-03
1.043180220100728244e-02
2.692843715684455769e-02
4.019888193214021105e-02
4.671638352926003879e-02
3.676794589406100211e-02
2.617943859929543204e-02
3.041518074176200598e-02
3.052581117046968689e-02
2.447175035267623588e-02
1.750864907759909148e-02
2.459249116073416661e-03
-1.203167742486022790e-02
-2.357534977055652028e-02
-3.437430335603550852e-02
-3.309508020844920823e-02
-2.456079270333726486e-02
-1.898252950371817974e-02
-9.375513526631089681e-03
9.564024283992415051e-04
4.266361360539129566e-03
9.500263426485910934e-03
1.886772897053351147e-02
2.737055102094251152e-02
3.407230219969246271e-02
3.432795463263799141e-02
2.828927613312825357e-02
2.114028471716609611e-02
1.394141327818367547e-02
7.283755710560457092e-03
4.738319364942571339e-03
5.345623967613029933e-04
-1.292693476200265298e-02
-2.069418719175489946e-02
-1.879927317252859040e-02
-1.804788372225030538e-02
-1.242384119084344665e-02
-8.859664020746539637e-03
-9.809822611477463442e-03
-5.703909639570192876e-03
-7.452912607535346588e-03
-9.211802692118067556e-03
-5.213376374204890633e-03
-5.674317630053625494e-03
-1.987679547903288286e-03
2.848122399054289853e-03
7.631505333645115024e-04
-9.570471087298720436e-04
-1.346726718035201956e-03
1.118759033780195207e-03
4.238839703930944239e-03
3.577047994559778583e-03
1.169580783005509314e-03
-2.431611715211183435e-03
-3.250144482340015534e-03
-4.408654186940673468e-04
3.646007015556464257e-03
7.801274977815270129e-03
7.096184754542077429e-03
4.145991624552101788e-03
2.090426994308581480e-03
-1.725758064685194897e-03
-3.821502021280014268e-03
-3.669472528434441615e-03
-4.169009472140998603e-03
-1.690861146112616030e-03
4.611393473210312604e-04
-4.072433655305548843e-03
-6.531486174270280907e-03
-3.170329130605302557e-03
4.187383657216119857e-05
2.462823331258386875e-03
-9.017046194985664032e-04
-5.255667307630954889e-03
-2.187385243010766481e-03
1.578981474185220087e-04
3.233421165613531781e-03
8.029486600769252663e-03
9.553742974896644799e-03
1.045308463736190942e-02
4.582806108370084640e-03
-2.070363827620775275e-03
-5.508683059843490085e-04
-5.954311769310858832e-04
1.243761957554758270e-03
4.251036700395362071e-03
1.678581431032360148e-03
2.791011549200747739e-03
2.340134957857606390e-03
-3.333343151135993807e-03
-2.127948093731168772e-04
5.134698632864500428e-03
1.261150004962468749e-03
-3.666520090551664626e-03
-6.278405088842924260e-03
-5.775261718412485167e-03
-5.187832708557067914e-03
-1.823472799686678969e-02
-2.250538746893765082e-02
3.282753316828337020e-05
9.909544505227295061e-03
3.519489276979171147e-03
5.436105831235694963e-03
3.536341540520381195e-03
1.139688777378790329e-04
8.587985435401176721e-04
-2.446066962647304097e-04
1.306800433839379457e-03
3.268384663086600648e-04
6.498430270273229713e-04
7.144104169884176250e-03
8.558323030216658661e-03
5.874819745334552631e-03
6.521630666338327663e-04
-4.242997109283591813e-03
-2.163636275406851436e-03
9.576927006372757409e-04
3.352503447549155021e-03
6.028027273441799623e-03
5.765133024492014729e-03
1.529131110311643046e-03
-3.347424062381034252e-03
-3.549252880098311205e-03
-2.444142126986256422e-03
4.731001522039359852e-04
3.733729697137822597e-03
-1.955603469501025066e-03
-6.110379591051936544e-03
-4.090051999097770591e-03
-4.166179599091246119e-03
-4.869617020493663970e-04
2.819783131980214703e-03
-4.734256968308294495e-04
-3.983278380183009025e-03
-5.369762286949533725e-03
-1.677261658644808385e-03
3.790307520191665055e-03
5.918014960360274898e-03
6.588851672328404491e-03
3.956875038854357554e-03
-2.253063110429841622e-04
-4.857525521668334956e-03
-8.192910739838946479e-03
-4.656141143523329431e-03
-2.929229939485100166e-04
1.441605280713951533e-03
1.490165529377794748e-03
4.352085914421659923e-04
1.109414145035378428e-03
-3.312047635857961157e-03
-5.184882692376423588e-03
3.222251080274320806e-03
5.250576838337375069e-03
3.008279484724776798e-03
3.256428076808571019e-04
-6.938990369425794558e-03
-3.029624869201180942e-03
6.782182516924464485e-03
6.534160919428619839e-03
4.225506324398216156e-03
2.785298576007868426e-03
-9.427238938549034174e-04
-5.874167059996513417e-03
-7.024551530001320147e-03
4.862931881880369319e-04
7.141217793562497883e-03
4.595534832192884993e-03
-1.387561561194871869e-03
-6.469365343247880998e-03
-7.513382111066809269e-03
1.106117796151485227e-03
9.259747988980576716e-03
4.434950285339755299e-03
-1.560323041919593843e-03
-3.780159929026274696e-03
-6.423621354043910527e-03
-1.691931706337189293e-03
2.904380143927515114e-03
2.971362530516794085e-03
6.524107088943804922e-03
3.703649207094371430e-03
-1.570084050200912674e-03
2.063523227286647615e-05
-1.961580813728190393e-03
-2.409786363317954413e-03
9.988765524365761893e-04
-1.113319453919589400e-03
-1.457017892945049404e-03
-4.801160002866890707e-04
-2.783201232813801995e-03
-8.110820787174578697e-04
1.489930628891196268e-03
3.074968440188691567e-04
-5.339915090633264494e-05
-3.730768766156488704e-03
-7.295681471313136129e-03
-2.304070445456123453e-03
4.888793367409311960e-03
8.453733465059865351e-03
8.882611072774658154e-03
4.171997739404453669e-03
-3.019612356897738870e-03
-6.102351499767118964e-03
-5.003972133064323209e-03
-2.045111970517635939e-03
3.115280223537221071e-03
3.865846123786706619e-03
-2.365307333557760926e-03
-3.440614333142361179e-03
1.096666920459280674e-04
1.687369056784644673e-03
5.403578241261513398e-03
4.419672977968304786e-03
-3.203990193229458352e-03
-6.974401618527970026e-03
-8.007578212447647587e-03
-4.781183295301570137e-03
2.686525360998697019e-03
4.397214393585291946e-03
2.522740320036276438e-03
2.024160776502954492e-03
6.183233552228688560e-04
-1.068241637662135923e-03
4.440286318788646191e-04
3.789858190352752339e-03
3.089180597009088397e-03
6.668749769314888561e-04
-1.686318597795078485e-04
-1.347100780710355468e-03
-8.971669865688458459e-04
8.348611347977818791e-04
3.345050115146236749e-03
4.637620862933702209e-03
1.193821366268172442e-05
-4.214420992252177964e-03
-3.839987445627095989e-03
-2.565856182360396788e-03
-3.366835348190149770e-04
2.648847982037026965e-03
5.170452567953101077e-03
2.776841028987105196e-03
-3.362477553587910322e-03
-4.349496381572043498e-03
-3.458720116632920966e-03
-1.884411755236791407e-03
4.818257330931383260e-03
5.641403702303629877e-03
-1.763932330366473067e-03
-4.268521063217131130e-03
-3.080477269245017208e-03
-1.825824985970206284e-03
2.282419461969918423e-03
2.906079730975263606e-03
-1.626453599586535079e-03
-4.686760898092594968e-03
-6.299682566672896999e-03
-4.227323041072261756e-03
2.969632459857655254e-03
7.370940753289917727e-03
5.772764402811074967e-03
2.535774169206601175e-03
1.702278829854921753e-03
3.457996603040257180e-06
-3.617989362979264975e-03
-6.650397782215411099e-04
2.362635896590296880e-03
-1.630382650525506174e-03
-2.455731566043058839e-03
-2.947287838177254857e-03
-4.189387896164812643e-03
1.343468564508724277e-03
4.771927680373446411e-03
2.129205424831809388e-03
-3.270556097873404677e-03
-6.221981882356092397e-03
-1.011478221001665219e-03
7.071009612202955276e-04
8.554932931468880878e-04
7.365882533560937431e-03
7.803734483925301411e-03
5.696288079607159278e-03
3.077855450586423208e-03
-4.001701616439507815e-03
-3.486224056221547390e-03
-7.779312474010860977e-04
-1.325395787767449951e-04
3.406361335619142831e-03
2.327230592058535021e-03
6.876720621589132824e-05
-1.939817014623462094e-03
-2.504541610099405777e-03
3.108369073459027639e-03
2.272377402459931171e-03
-2.757549740446835988e-03
-4.941854960647345391e-03
-7.417441885351506829e-03
-3.024243356658369315e-03
3.764457996504045213e-03
7.195459387100498760e-03
8.960177275390709961e-03
5.063704063333567158e-03
-5.217003974503276256e-03
-2.230485234376122783e-02
-2.771715376026063701e-02
-9.143195272799832865e-03
5.229973683960084489e-03
5.783081197303603822e-03
6.975148770227087430e-03
7.653911281682308776e-03
5.198086850899480416e-03
3.835752328271347603e-03
5.721350775119298654e-03
4.751863407890751824e-03
-8.626354413678268863e-04
-4.939101712758765632e-03
-6.051855376580221949e-03
-1.525962968360144089e-03
5.433456074437258143e-03
7.109823988529208501e-03
7.188384486184662761e-03
7.097561366076428346e-03
2.436982896188680855e-03
-2.488154151955586802e-03
-1.704226992525126631e-03
-8.859648313941327277e-06
1.375182909385080227e-03
4.308711374960431419e-03
1.022152541348981831e-03
-4.967903627180051893e-03
-7.187049091034173297e-03
-7.894552541969857007e-03
-2.964306682333229734e-03
2.481629219240808187e-03
1.724561784114910911e-03
-2.221471419774318640e-03
-7.166203462475081130e-03
-5.769332475671439149e-03
5.851428493099687916e-04
4.670865368553693379e-03
6.806013342735383991e-03
5.436652940945281044e-03
1.811952190705079469e-03
-1.616113780354489328e-03
-2.215400323406285007e-03
3.163923632412751687e-05
9.231527755637377979e-04
1.961132999527065099e-04
-4.009024766925163921e-03
-6.168665811640760069e-03
-3.755157285184889011e-03
-1.583645149112379406e-03
5.033015973125109198e-03
7.439406080238670713e-03
2.348958887191344644e-03
-1.960574322906097344e-03
-7.918960215421926019e-03
-5.055684898205444443e-03
1.607241277862497472e-03
1.215005830953770107e-03
5.584087956393471094e-03
3.594751643614117059e-03
-4.879602959294122681e-03
-2.068206987973491597e-03
2.613205818850332547e-03
4.843230617773905400e-03
5.298387124673340116e-03
1.276659206948694376e-03
-1.373471196163358367e-03
-1.910430309772397474e-03
-2.350629597196845274e-03
-2.007447648201667566e-03
2.215620886395508384e-03
5.570695925493901642e-03
1.221387919118092176e-03
-2.597627487803761282e-03
-3.670758254364344785e-03
-3.581104598835446393e-03
5.360661185917750451e-04
3.028102813038802046e-03
2.663536118975425200e-03
1.708139897897069858e-03
-1.062393298165655161e-03
-3.521252752801102594e-03
-2.521673368366629617e-03
5.144767032484941997e-04
1.221324235305219080e-05
-2.437265666113178162e-03
-3.602581675449924824e-03
-3.215319330322314977e-03
-1.219604540415863319e-03
-1.641337602895047562e-03
1.434889968472858289e-03
6.740171455505126336e-03
3.023952912295963056e-03
1.307605596776827812e-04
-7.889221745212810595e-04
-4.222658414726481249e-03
-3.324403632813956698e-04
3.905218798575759136e-03
5.312671623129585838e-03
7.392981183629411014e-03
8.657296361616913368e-04
-6.021913334726101269e-03
-2.663365817061593734e-03
2.166022607891781269e-03
1.677861866519819332e-03
-8.932405127093031878e-04
8.019363332058854644e-04
1.759282889179547517e-03
-2.577670923971398746e-03
-1.568466413847933701e-03
4.576646637851224282e-03
3.780642862837529147e-03
-1.913147036341960932e-03
-4.018791102155424601e-03
-4.413924150825874852e-03
-6.219517868548285304e-03
-5.553390531477519175e-03
-1.100796572702531688e-03
2.251084011004528002e-03
3.670491012727415377e-04
-1.291848707102621202e-03
2.836594365863207793e-03
3.163865798913798912e-03
-2.539968512487394514e-04
3.647676261064177524e-03
4.974933193267752456e-03
-1.455615537973945720e-03
-3.335568203811587092e-03
-3.087580899570245910e-03
-4.154028570533372863e-03
3.292751294385104412e-04
5.597015790975360186e-03
4.329472790269694310e-03
-9.043777897914855122e-04
-4.805635945464337838e-03
-1.944034937923606703e-03
3.757335467924764576e-03
4.053820468599942349e-03
3.113771689998927773e-03
2.012781407540854307e-03
-2.650699993506447968e-03
-3.589778098588302085e-03
-6.127296239727235416e-04
5.433651279791492771e-04
1.922573088666335679e-03
2.880072287330563436e-03
2.996678984635743614e-03
2.467863573506223675e-03
-1.006631466440227824e-03
-3.081213645448855135e-03
-1.274932328687248531e-03
1.663376096719651378e-04
5.473303802682029460e-04
1.009543218865811224e-03
1.334774029050599109e-04
-2.419800999739694404e-03
-2.391648673545225794e-03
4.650165774649735249e-04
1.597528011713692485e-03
2.324010292470229944e-03
1.773469583593589860e-03
-2.104347613345792026e-03
-5.534179082192296553e-03
-5.394612619518917088e-03
-6.273745408353785307e-04
1.815051340279568012e-03
1.446354126927889595e-05
1.436163875226473827e-03
7.783208568378521775e-04
-2.330976583815949806e-03
-1.320239305027625298e-03
5.357365226654936573e-04
1.475779640126706179e-03
-2.591743059892369361e-03
-7.733202266027729144e-03
-4.812325567952251311e-03
-2.436339359580708022e-05
1.458180725512123362e-03
6.343049450635517526e-04
2.904171181642664981e-03
4.765677689135208381e-03
-7.781006197085037993e-04
-7.218145344196719116e-04
5.632035958865160962e-04
-1.710108180119709843e-03
4.443121786548893254e-03
5.504497000510423857e-03
1.182257315818707700e-03
-9.301778328391999162e-05
-4.297255071620023972e-03
-7.428694181435420950e-04
7.010691685892502835e-03
6.667428690744904400e-03
1.655122549251976773e-03
8.917903113264165219e-05
5.486401779311820062e-03
4.700733375417252315e-03
2.315375753511213219e-03
3.869109215526674115e-03
4.104169252346439277e-04
5.903875371629588049e-04
8.049306232203581662e-04
1.937914244912707735e-03
3.749223530158405770e-03
4.212821466466648459e-04
4.693971833934150809e-03
-9.670289359244755786e-03
-2.625253097961061793e-02
-1.230580985022711703e-02
-2.370075003129018532e-02
-2.799533384472724720e-02
9.333027180621003213e-03
1.415899949988698101e-02
5.442947635522909534e-03
7.794151953160366637e-03
-3.134167615247901439e-03
-1.823238920378403511e-03
4.397185625428201919e-03
5.767601983521454187e-03
9.096549703084622421e-03
7.579169182000925365e-04
-3.337083293166516040e-03
-3.999038291827108926e-04
-8.815167546467106213e-04
4.434460651835862507e-03
9.387436487768617902e-03
7.850097889497652942e-03
2.744578149599372074e-03
8.774603927738674038e-04
3.756094962523314276e-03
3.717703697748733511e-03
4.928941484755556927e-03
3.248557316956973695e-03
-4.597678621917055189e-03
-6.830635602679638665e-03
-6.930664810158846702e-03
-6.694575412566234132e-03
-1.854207965769712760e-03
1.974878044488445703e-03
1.938421518570990470e-03
-2.177548251206910812e-03
-5.148078200231592100e-03
-3.745649628642257808e-03
-4.352568865170763392e-03
-4.704342137223622468e-03
5.637692675270827240e-04
6.988908561941373915e-03
7.317433155516678452e-03
2.441410495865268745e-03
9.415479327486717467e-04
2.651702499188471514e-03
1.459914062875817273e-03
-1.223881957661932408e-03
-1.464530320849698067e-03
-4.391690957773487216e-04
-2.571903575982073184e-03
-2.969416076293559473e-03
2.183927207033410384e-03
5.590390150683356187e-03
6.671110586568800536e-03
6.750827570585362205e-04
-1.067906202593061661e-02
-8.120090392937840199e-03
-1.762073198198586951e-03
-3.238949405038617745e-03
1.063922994302049247e-03
2.089866783510362178e-03
-4.126057903173360568e-03
-3.913672397322883779e-03
-1.148529843967759740e-03
1.717590552100007814e-03
4.018127187190909284e-03
2.887422620167610140e-03
-6.106009278474428545e-04
-5.639637160668636677e-03
-3.750271208503181634e-03
1.642280880666590736e-03
2.929827093707009032e-03
7.556508560656496898e-03
1.087059627238553053e-02
7.415974238971597375e-03
2.565974426574611951e-03
-2.416789978724145482e-03
-2.180471960534816848e-03
2.469578196503543089e-03
2.370695253377160753e-03
1.946225769794986105e-04
3.534488130839793987e-04
-1.305138429124320237e-03
-3.258946951711137394e-03
-1.519577614603500508e-03
-1.655640232916878165e-03
-2.015389058489811328e-03
-2.474285454333347858e-04
-5.298752382859525656e-03
-8.258978795677947293e-03
-7.482330751634089748e-04
2.641376095278776155e-03
8.831931455221891328e-04
3.482208943827729171e-03
4.516504149666311640e-03
-3.056651589180225514e-03
-7.821302468301840477e-03
-2.596328119457611081e-03
7.317551610468426941e-04
3.818893998166573989e-03
6.716901358929145902e-03
7.592553020213257215e-04
-3.907590508297300799e-03
-7.564135432249280248e-03
-6.683260858158134726e-03
6.261610761146360268e-03
9.606777927537115194e-03
4.964674261904653864e-03
1.041445206978666846e-03
-8.163591226861563813e-03
-5.534112829117967744e-03
2.577295862746827818e-03
2.466169262436192829e-03
6.518161457388396002e-03
5.475410448382480449e-03
-4.030566557798951309e-03
-4.769882626136181560e-03
6.307178412976413736e-05
-2.854678289222558913e-04
5.418731943168742307e-04
5.923297352191095842e-03
3.509329727128526928e-03
-1.293599029949667190e-03
-7.127275101600314289e-04
-1.683227310443019195e-03
2.081559423916753016e-03
3.918800759602815605e-03
-2.490698002555399426e-03
-2.974105501410778240e-03
-3.171500943190403658e-03
-5.707551992269956249e-03
-2.548563985665447049e-03
2.161518905181862051e-03
4.326783986497443474e-03
1.937857488638529239e-03
9.259010544807785284e-04
1.125323334750878614e-03
-3.002206273744171747e-03
-2.709419044089890830e-03
3.674341829762902941e-04
-3.556448151877099903e-04
-1.759764299935743593e-03
-3.248085933000123722e-03
-2.311061129157165536e-03
8.438469362830249444e-04
2.656005699182140481e-03
2.162286607815073255e-03
-7.741032676035744433e-04
-3.871022304534103235e-03
-5.368970242441088725e-03
-2.139851836265063614e-03
4.274572917180698498e-03
6.540580557183638469e-03
7.081936433432228957e-03
7.831548858776456873e-03
1.879306586375448706e-03
-4.651877208185680075e-03
-1.889070433431625732e-03
2.007084158832169872e-04
-1.408091284272606526e-03
1.777312638092335339e-03
3.722968341196565903e-03
1.081424157619056796e-03
-3.362570561215564528e-03
-3.289874675029083768e-03
7.214029369051087708e-03
9.396129350472234160e-03
-4.747155742396420679e-04
-4.578866436196405397e-03
-7.912790293426790952e-03
-1.009728219827740227e-02
-5.830499551905131243e-03
-2.177427987754160157e-03
1.558318318346034372e-03
8.673983127151738701e-04
-5.506072045773787414e-03
-6.607539131588699953e-03
-4.638040003440290979e-03
-3.045669588520151429e-03
1.384939128714186623e-03
3.302441648051657186e-03
1.838877275694588516e-03
2.385738731614201608e-03
1.531654682493247596e-03
1.648245358927553049e-03
5.275474254830213837e-03
5.175306843640628887e-03
5.820753358680040221e-03
6.531799938818779253e-03
1.420681462202332207e-03
5.062413974123169697e-04
3.651977532929332002e-03
5.788112658841992886e-03
7.848118278710698031e-03
5.159348827797382957e-03
3.152831044318268709e-04
-1.442100963623981153e-03
-1.507714768445208783e-03
-2.695625973388327944e-03
-2.494276604825634586e-03
1.880992718259661767e-03
3.550802669844655476e-03
1.046403522315087885e-03
-3.163239200237646757e-03
-3.852039285811955510e-03
-4.426900442243563924e-03
-2.098619075910761883e-02
-2.855562353287521837e-02
-1.073187860117124325e-02
-3.629157037096934942e-04
2.089787018230046447e-03
5.325115946280318049e-03
4.565391020184155803e-03
6.984260418254549865e-03
5.974891741623635302e-03
4.565175492926789105e-03
6.497033572923309637e-03
1.601194591663612863e-03
-1.304838402184079447e-03
-2.637999564272586802e-03
-6.634289128139828420e-03
-3.241757647512798646e-03
1.516502897206371782e-03
-2.899310052672882327e-04
-1.528661431692832475e-03
2.498230364966865912e-03
4.885965621910213358e-03
3.602109369256845627e-03
4.775693511741574589e-03
6.187055385866804119e-03
8.380673749654123442e-03
1.098106690902219025e-02
8.474029125591557229e-03
3.613812440844567115e-03
-3.006298887704304725e-03
-8.014800784012876197e-03
-9.736383167577271000e-03
-1.390501473465619378e-02
-1.122543140541520761e-02
1.853676180155400212e-03
9.079840951306839339e-03
3.860697589067108200e-03
-3.966008861565043300e-03
-5.068830136246951952e-03
-1.863646424495146552e-03
2.810399903217449067e-03
7.825545745501245529e-03
6.504685696899592355e-03
2.526593822147619778e-04
-4.177822526628026216e-03
-4.518026736386592836e-03
-1.680538522225565176e-03
-5.832246223680373942e-05
2.725498917726629743e-03
8.264397348014842354e-03
5.945021423779169728e-03
-1.124867311949695123e-03
-1.740934348653167289e-03
-6.551624628836147900e-03
-1.219824128749889998e-02
-1.445822957135598896e-03
6.129412239821436029e-03
1.523899514456447278e-03
3.050387072999159125e-03
3.649902138414054531e-03
1.578784703205393398e-03
1.509139954052786045e-03
-6.152472831766620832e-03
-1.158700330258858983e-02
-1.215256131373661404e-02
-1.552604148638301630e-02
-1.121853930432341502e-02
-3.289780890945938948e-03
1.644548344646085125e-03
9.382522780328460613e-03
1.247149767235226220e-02
8.992693699064420454e-03
6.404892765055432771e-03
4.079623433844344234e-03
2.550386340970492698e-03
3.564437739551733816e-03
5.465328721638076752e-03
5.104288871814472404e-03
1.159528553477728874e-03
-9.163701292561227422e-04
1.922875819422670881e-03
2.373180599367496514e-03
-1.648575567361147643e-03
-2.301091127220472338e-03
-1.390858833316951275e-03
-3.553698643420566492e-03
-2.177921265593756386e-03
2.284885894811028179e-03
2.948364351712060710e-03
1.146313611674447570e-03
-7.550099053403926683e-04
-1.432511756285826743e-03
-2.035816832262180368e-03
-4.938700864362675046e-03
-4.408941116156531864e-03
5.664538921421705423e-04
2.022203419105256337e-03
8.009133331022723215e-04
5.024605683353458368e-04
4.842973132209803635e-04
2.199209069689895928e-03
3.111931577484076256e-03
9.974716218702269627e-04
2.181609333965736403e-04
8.669389999704985895e-04
5.373964694657515275e-04
-8.502470641123055723e-04
-2.347479733664928694e-03
8.122680367538824856e-04
4.106377207172621537e-03
-1.611060389989903098e-03
-6.242703133984849745e-03
-4.407455661979739481e-03
-5.678625824427375839e-03
-3.962511941846011063e-03
2.856505115167105521e-03
1.335420855577602829e-03
-4.137664037066357894e-03
-4.718711032483945654e-03
-2.518437799851756115e-03
1.935287586888219391e-03
3.629123676844162906e-04
-9.088734577705157372e-03
-9.775025000758710489e-03
3.991933535102911877e-04
8.686257605759613656e-03
1.087196884619566657e-02
7.579202828383074103e-03
3.374246997944000889e-03
4.806264903640967805e-03
8.093446789855898368e-03
6.333099987778044275e-03
1.687781173772074164e-03
-1.960148508051792575e-03
-2.149013427051398549e-03
3.681726687742279433e-04
-1.310916875085952563e-03
-3.769199722420529201e-03
-2.101273998465822031e-03
-2.194631237913320827e-03
8.800599886452658985e-04
6.441196882578488318e-03
3.980160435756260016e-03
8.292200215409160566e-04
-2.137464179052783178e-04
-3.344903126637795501e-03
-3.250662573659830225e-03
-1.420074286419687457e-04
2.043246486103184913e-03
1.279927364617187285e-03
-8.707670449529566602e-04
-2.387808022413600868e-03
-4.988649726704747107e-03
-5.488759621104518684e-03
-3.177230890800748341e-03
-4.607423349073334071e-04
6.480683420848532992e-04
-1.915822052220264322e-03
-5.803272495345954086e-04
2.141860825071474454e-03
6.011027382233486132e-04
3.110667374245424700e-03
2.713306740904292743e-03
-2.036347893195765597e-03
-1.515101780269431132e-03
-3.831749040652214847e-03
-5.538907969173779457e-03
-4.609967713695968614e-04
3.976439390733856744e-03
6.516770601834650546e-03
2.289962594002942740e-03
-5.884689643430286721e-03
-7.117283092492541693e-03
-2.940075850873637067e-03
2.021254054046534715e-03
1.830783747129822742e-03
-5.762675655270361064e-04
2.504067011950478813e-04
-1.103265603759564671e-03
2.399603304564303400e-04
4.357825892658720446e-03
5.022009876176714536e-03
6.093728710100808528e-03
2.624055699642439607e-03
-3.577673055411644421e-03
-4.963079891573463076e-03
-3.700541192353396999e-03
1.979347942040337888e-03
5.308549719618992080e-03
3.449770369513422037e-03
1.668298021092166558e-03
-3.155661174998426050e-03
-3.671077989474279876e-03
-5.993163221979555099e-04
4.666792471638025628e-04
5.330320528314452452e-03
5.697219525904748463e-03
3.514592789501328873e-03
4.774345570348690303e-03
3.520070252990381825e-03
8.330695238584741313e-03
1.501866663350616936e-02
1.345103157535176147e-02
7.371332150670385427e-03
-8.681216771803452375e-04
-8.107895064744219046e-03
-2.368239235357974537e-02
-3.377228299804667377e-02
-1.720661521307177352e-02
-7.019140610156711715e-03
-1.117511558247007326e-02
-9.422521475666181465e-03
-1.016026608892078853e-02
-8.808146057495297790e-03
-3.717278221710264806e-03
8.932704063250500402e-04
8.097888011731464025e-03
9.436706581315023462e-03
9.912234622821466945e-03
8.885476634684317046e-03
6.388154257265281181e-03
1.456770910629774651e-02
1.032846393292451322e-02
