1.617389111571931534e-02
2.156405021725910434e-02
1.131786227534200759e-02
8.260019639440181749e-03
-2.004029638682086004e-03
-9.739439430741693091e-03
-1.490264115602699287e-02
-1.792136548757011436e-02
-1.255687394561557854e-02
-1.101819613767994130e-02
-6.397363799055782140e-03
-2.839581769000009380e-03
-7.504613587588454711e-03
-2.030311963525135467e-03
5.457544471456626280e-03
9.537408319203650314e-03
1.584525550497950519e-02
1.522522112302766503e-02
1.036283454551742596e-02
8.912758252709825947e-04
-4.061512609357964890e-03
6.218851941438396924e-03
1.123953123622710958e-02
6.088863240144709588e-03
-1.281483136193928025e-03
-9.562011169990459677e-03
-1.201759607780157960e-02
-9.660533136201793561e-03
-5.133149979231812002e-03
-1.323605191115788176e-03
2.221107790889774621e-03
1.885831103810293617e-03
-7.517968370790518821e-03
-7.214575007727011720e-03
1.393898669034694801e-03
5.573823137910341452e-03
1.019441740034201030e-02
5.740364706475338703e-03
8.656844356417608662e-04
4.820923102544448155e-03
4.943519287481220638e-03
5.232905458470838919e-03
4.681992068727611547e-03
2.754149121140739374e-03
4.579358249694521522e-04
-3.897586421422760163e-03
-3.536544541094639553e-03
-4.055668491899029442e-03
-1.655352668672239232e-04
1.683530775141979172e-03
-1.510494489303457156e-03
5.825195365996769375e-03
-1.643531872707364519e-02
-4.220440245833236015e-02
-9.840701637752384198e-03
1.252613932875597073e-02
4.519068893736568476e-03
7.309994398740175640e-03
5.713433370475645354e-03
4.642765354904097516e-03
3.513279679335830005e-03
5.124520687881478588e-04
7.035830036586591257e-03
4.611596088271019758e-03
-1.219240621992937965e-03
-2.190338713888884646e-03
-5.748638020374991983e-03
-3.253778954320460902e-03
3.200757940332864347e-03
8.465800824800844698e-03
9.235498853340441683e-03
3.606476187896619223e-03
-1.872485118034083714e-03
-2.695215458346287077e-03
1.041322025958609518e-03
2.700348474905159128e-04
-5.943609118466968311e-04
2.368827477925004258e-03
-5.877506041124651867e-04
-1.897195229737709717e-03
-5.058864671647316479e-03
-9.873367855173554447e-03
-1.458528081708922999e-03
3.268217669840848931e-03
-1.923017239344839259e-03
-3.932568411028134273e-03
-4.626495417515306616e-03
-3.892706562444294815e-03
1.742929397152003120e-04
7.861968181095847080e-03
1.035927494615523914e-02
4.103219856687459650e-03
6.193991836238889586e-04
-3.165795516503267133e-03
-6.212963036787610450e-03
-2.365424872055728062e-03
2.425510621740851157e-03
4.618977033718838290e-03
-3.679067334712145211e-04
-3.935267771915133481e-03
-1.834782598800856201e-03
-1.710898701622515705e-03
5.841772077821866423e-03
7.090170146828978469e-03
-3.450245807053585641e-03
-1.810396643540864402e-03
-4.920135841584356851e-03
-1.076037815105654848e-02
1.987937534458871641e-03
8.140070012926867160e-03
8.020588458936703247e-03
1.067214469102632790e-02
2.319380123954725183e-03
-5.099211513222663347e-03
-9.441545008631316988e-03
-1.192954990387914971e-02
-1.785013349273534364e-03
6.481890148862376987e-03
5.030459462449473826e-03
3.171719083877879938e-04
-4.340719107569506949e-03
-2.499157678235530353e-03
3.078233061047680463e-03
4.355630222417859396e-03
-1.057605795551535980e-03
-4.736364481629007361e-03
-3.717463839014090252e-03
-5.349484473048706813e-03
-2.097438880257006255e-03
4.545712353296082857e-03
6.597625218777244775e-03
7.122177975428850040e-03
4.285878607717316375e-04
-3.296596903771317928e-03
1.456450980597282603e-03
-9.104791141003890304e-04
-7.461334507048575024e-04
3.507243160317822551e-03
2.104735823755746877e-04
-3.019079459685603418e-03
-5.547183143180534938e-03
-4.124235576892881089e-03
4.502976624408955644e-03
7.025653480837545754e-03
1.269340756412815725e-03
-3.908317473766478867e-03
-4.448624858997386224e-03
-3.677980809991021269e-03
-1.587756137017762650e-03
5.149492105794730053e-03
7.883276753728485700e-03
4.605418068968295496e-03
-6.498238979453969683e-04
-7.227564693186605028e-03
-6.080984952242176819e-03
-4.262510620756705540e-04
1.346152736595021071e-03
2.699292715634785643e-03
1.068012871850046062e-03
-2.083387319450191906e-03
-2.185168178679153424e-03
-1.633130033076947646e-03
1.558060383209361596e-03
3.036680392323983131e-03
-2.015764493322217028e-03
-2.876948915067614396e-03
7.505169567879467853e-05
-2.609083709811750064e-03
-1.477664683608528569e-03
5.333023634227935031e-03
6.984751372651335985e-03
6.081683274029203896e-03
3.071372444719605490e-04
-8.532620564688892309e-03
-6.041882394454938486e-03
1.785936388753452510e-03
5.314336388109736423e-03
4.121483514230903089e-03
-3.224765281462430824e-04
-1.989866889061641438e-03
-6.027621515947749302e-03
-7.506255203831592969e-03
1.319287122197248998e-03
3.305804647406527120e-03
1.160929342689245468e-03
1.993493185616650350e-03
-4.776410401994141131e-03
-5.772430241278836589e-03
2.895814756818211426e-03
4.360597780553137660e-03
4.915859765948145908e-03
7.016968474691873646e-03
3.349569140402234701e-04
-4.706181469243758686e-03
-1.204458375684169585e-03
-5.281658075664606797e-04
8.138624856168310846e-04
4.407765300803577480e-03
-8.332843462450763381e-04
-5.587063886195561997e-03
-4.587503048877519807e-03
-3.684592227979198876e-03
1.903257332382806604e-03
4.348006995272839584e-03
-1.505885177130195107e-04
-2.531848618849761538e-03
-4.879564718384674094e-03
-4.680049315491329603e-03
4.353220458621115028e-04
5.265982226685823539e-03
7.012788327492783594e-03
3.716459217134094641e-03
3.181140112478762034e-04
-3.150574378280731128e-03
-7.084926695471225819e-03
-3.213641091339834287e-03
3.109148492835241313e-03
5.751275156658111967e-03
5.042363303014092343e-03
-3.042438505177451477e-05
-2.846980408609079121e-03
-2.550665113797635514e-03
7.573788693817655373e-04
7.624917920682097554e-03
6.585972208091843069e-03
-1.952332513142128814e-03
-6.756320039154176116e-03
-5.778145113387195622e-03
-1.301623407974060800e-03
3.700261490288436848e-03
4.387905537832387237e-03
-6.631899615331121470e-04
-3.896811521806581476e-03
-6.060422422113746072e-03
-9.027852012725670616e-03
-3.081778214509753137e-03
2.697870145722555766e-03
1.461022519980473798e-03
8.465135980363386759e-04
-3.128685348459640022e-03
-4.516228600943508233e-03
-1.075114641484890225e-03
2.509752913433288719e-03
9.329681776324960304e-03
6.163261682046273365e-03
-1.328297633560487911e-03
4.268036846038797839e-04
-2.518316384828383613e-03
-2.654841100570337013e-03
5.265190541724072172e-03
7.459913357361330939e-03
7.924051729208732991e-03
4.511402003203173264e-03
-2.053762834961623922e-03
-2.218571365855431365e-03
-2.980050571346808553e-03
-3.160292105584244348e-03
1.426049393620570579e-03
5.449097655187456124e-04
-3.434980210912143457e-03
-3.458444182611290427e-03
-5.043027677269102185e-03
-3.083422992658368857e-03
4.607924257040789048e-03
2.769757931705250573e-03
-3.222147846703655831e-03
-4.146816552165540071e-03
-6.633108432533466915e-03
-3.260897302896989189e-03
3.900285357043820587e-03
4.385972763737504797e-03
4.410538547009976683e-03
8.278742994014315262e-04
-5.333293779371225778e-03
-3.904942527854334249e-03
-1.947978620465231443e-03
-1.421961091660457234e-03
3.958991572020537086e-03
6.696889144957863561e-03
1.177940155567378574e-03
-4.117163511338638171e-03
-4.073498222940621742e-03
-3.115319207059248402e-04
4.732540652651635350e-03
3.226083886589437965e-03
-2.959043666878866108e-03
-4.388997464099204764e-03
-3.338956468780464662e-03
-5.900790709114208049e-04
4.135814810521627055e-03
7.802550812304886660e-03
1.001997791439755356e-02
5.458940597351240320e-03
-2.788904274291847084e-03
-3.116903175731324752e-03
1.216400514950520236e-03
2.323117774111351386e-03
3.804951543076176904e-03
5.366440773946294304e-03
1.874419669499683880e-04
-6.103780323019152715e-03
-7.888524626437415019e-03
-4.912155756492850647e-03
2.422244744767199347e-03
2.672633719672674532e-03
-2.647933826097566539e-03
-4.553772381088731953e-03
-7.477913026846258818e-03
-6.203872024716419915e-03
1.383199831859946969e-04
3.270023097952840224e-03
3.193201007844534162e-03
-1.900667647570394641e-03
-4.580963300270080897e-03
-2.557381934045697622e-03
-5.760716912484271229e-03
-5.157204646894482727e-03
2.499968493735821307e-03
2.694074148620119978e-03
-1.782668916608962833e-03
5.602401901022985298e-04
2.403120314769806483e-03
9.235712728762338541e-04
8.019930324434775687e-03
1.058426228794649704e-02
3.100911674985983480e-04
-2.699137962151947848e-03
-1.495572429683923992e-03
-2.732050791460220035e-03
5.419305734493588909e-04
5.910704696253099577e-03
1.092773968104602915e-02
6.908880250116145733e-03
-3.071233057964059369e-03
-3.304688335401872144e-03
1.615637898071461877e-03
3.984890170356882727e-03
1.114042162735965746e-03
-4.089672953437210184e-03
-9.353891372952947633e-03
-1.654230854374226165e-02
-1.108601032646218745e-02
3.677914641377511007e-03
1.110281418212046706e-02
1.276310321150768250e-02
3.600193638347003091e-03
-5.661057592474526626e-03
-7.098865669740183661e-04
3.341093399978902270e-03
4.902259374331693204e-03
1.206399576235276348e-02
8.996723865217735872e-03
-1.753770850293845732e-02
-3.223539246656966645e-02
-1.050247295706605889e-02
3.766191309075053208e-03
3.200038396727341184e-03
9.411090646856573941e-03
2.809551584931280904e-03
-4.722172091348651041e-03
-1.011521241804951531e-03
4.061604410191930678e-03
1.247476979324268695e-02
-3.718352567935669269e-03
-2.382207105570843114e-02
-4.150848218113198027e-03
7.849386624860630116e-03
-2.192329889836597875e-03
-6.887403213531359102e-04
1.285634517733057289e-03
3.364551693167287805e-03
8.952335918754942418e-03
6.231408541046287546e-03
4.805173134718454531e-03
6.727194500905113971e-03
2.014439963939520031e-03
-3.360963960798147546e-04
3.980797474193447857e-03
2.446085258101936711e-03
-1.335245128260837159e-03
-1.850683539441810768e-03
-5.495666245791707913e-03
-4.067557000885214068e-03
3.600853898199960043e-04
-2.421540692563388820e-03
-3.708293312200372418e-03
-3.202190819456645059e-03
-3.229546165779717450e-03
-6.519477207861758055e-04
2.326221560579545735e-03
4.859472559102546475e-03
5.448609104977621305e-03
5.224616586297285530e-03
1.224697147565341525e-03
-3.290402391794242879e-03
-2.235022489354264279e-03
-4.894810311362934874e-03
-1.167657194312227229e-03
7.604729529532398141e-03
3.156797277419889393e-03
-1.488570141845604964e-03
-7.908135724984104165e-03
-1.074747563423693320e-02
5.444303827017183415e-04
1.524452751063838435e-03
1.237588829511330688e-03
5.134542096402247915e-03
4.757062904346703695e-03
8.153514757999406892e-03
-1.288168032869171399e-02
-3.316847704982989892e-02
-7.802956176061989421e-03
1.238752446859126000e-02
6.984965674547248884e-03
-6.521654476710415276e-04
-8.530970815707094451e-03
-5.229046481434821911e-03
3.061476620585565182e-03
3.788150434815678799e-03
3.983839438434475660e-03
6.832926086285441916e-03
7.286596762211981250e-03
4.417284614425961119e-03
6.093459087905559422e-03
7.320779688938666881e-03
5.520407870678509937e-03
7.296321989698177288e-03
3.950486651402374330e-03
-1.963180489856162711e-03
-1.794054914078501480e-03
2.712496972960695089e-03
8.468818552885185036e-03
4.386837374122965448e-03
-2.180302141666796631e-03
-3.824119942404078125e-04
-2.911152753801550335e-04
-1.383569797167621051e-03
-2.503244132259645031e-03
-6.485319466430447891e-03
-1.086383388130516409e-02
-1.531587115157540674e-02
-1.624865139562399127e-02
-1.432430716927062669e-02
-8.823893792222918531e-03
-1.313004256086140568e-03
-2.296089167890006440e-03
-3.021613590048159888e-03
6.464128806881594934e-03
1.433135944620624741e-02
1.256249736642600645e-02
6.836888011518244858e-03
4.616480205379724575e-03
1.433284178047420721e-03
-7.196674748010235476e-03
-1.321947545671264129e-02
-1.185339692727558139e-02
-1.493831068396681266e-03
1.197945967320719271e-02
1.594322886711405096e-02
1.631674360840157031e-02
1.602111266808340165e-02
4.016681576138240659e-03
-4.733237187031682190e-03
2.125808023528213964e-03
2.352610953262528580e-03
-8.152105228602572404e-03
-1.270270984877018734e-02
-1.140891672656809026e-02
-8.462969232810750586e-03
-5.013807795224646882e-03
1.283702719218223886e-03
1.306447957285626973e-02
1.657686470868355300e-02
4.714040702909023592e-03
-4.847261188931680474e-03
-2.724470948525094943e-03
-1.110859346190002945e-03
-4.932179473952131091e-03
-6.055426595859995063e-03
-2.414695222299559525e-03
8.869275344717484624e-06
-3.761859100267136817e-03
-6.294633737504371808e-03
3.521585653351636501e-04
5.194137841848750145e-03
1.371598583452423008e-03
-2.656520379202213789e-03
-1.267472406292185615e-03
2.413440861708731049e-03
1.943859524949801115e-03
2.355079879714164302e-03
8.157222184642206469e-03
7.108840668959327119e-03
-2.147696973232418420e-03
-9.115886428470955025e-03
-1.205043316621130962e-02
-7.377587570730132112e-03
2.526951695968611671e-03
4.653653359335297411e-03
3.552819141069361950e-03
5.324889459935802302e-03
1.183174144081250130e-03
-1.285213527361019764e-03
3.895157523999302502e-03
3.763241600957917179e-03
-4.612362046261569612e-04
-3.379608068657054092e-03
-7.320505633475813193e-03
-9.208804603943477815e-03
-6.052951678002896005e-03
2.795638207113159551e-03
1.015936428418955616e-02
9.182811938129403079e-03
3.656506200218086373e-03
-2.058829174129823275e-03
-5.341532017996686570e-04
3.363808400107250098e-03
5.344650357469205330e-05
5.221024509338478619e-04
4.282389724179473819e-04
-7.751809642300393557e-03
-9.222441981455862386e-03
-5.158719843313585608e-03
-6.061985686747104699e-04
3.047022282122472010e-03
-4.907715258084664094e-04
-2.506632901583809303e-03
-3.287896196148792742e-03
-5.541104831398838484e-03
3.062918476018187952e-05
6.040898198280729783e-03
8.650028383492800593e-03
8.940641195838157362e-03
2.700002217659059137e-03
-2.310157387719941838e-03
-3.039412938567223957e-03
7.009271222053754368e-04
6.503013479522793197e-03
7.920817405665313976e-03
7.682663790393364639e-03
2.743932861354595430e-03
1.186409162466685996e-04
4.736032254427723943e-03
4.077833606447208749e-03
1.890751519434588418e-03
-5.191806416396087948e-03
-1.198747606882781709e-02
-5.571922769569034352e-03
-2.413582390973244285e-03
3.948010953122313774e-03
1.000475643341851469e-02
5.656227763803488122e-03
8.536780683339517672e-03
-1.734612286668552744e-02
-5.614162653300862338e-02
-3.416002893984407957e-02
2.535166534846332743e-03
8.065062355772551622e-03
1.029149444142450978e-02
1.064768065489465898e-02
6.656237694132607907e-03
8.305202724429849577e-05
-5.031472708335406330e-03
-6.663702390112616336e-04
4.964576993128489227e-03
8.787739008278320010e-03
8.614783651055824693e-03
4.891005204396814063e-03
4.576415465100737781e-03
5.259252982782397848e-03
7.551111384350158579e-03
9.289941256492574920e-03
6.829532558086835563e-03
3.804603271243616695e-03
2.930149494142837328e-05
-2.025901327876339017e-03
-1.253278882849154273e-03
-9.223598099719364013e-04
-4.556727394555789732e-04
-2.115910901937272191e-03
-6.862335962769920000e-03
-8.122898717770891258e-03
-3.125081520001422603e-03
2.490981331958749736e-03
4.854766171317304903e-03
8.386207218659554562e-04
-8.467594644252545572e-03
-1.107195597931619722e-02
-6.953142815372128152e-03
-2.254774661475428005e-03
4.690097283282678407e-03
6.684809583321867262e-03
1.119704450066046943e-03
-5.806410276952369588e-03
-7.086481115398979812e-03
2.105531203506139787e-03
7.327762461642929430e-03
3.802377729518058389e-03
3.533773061586928735e-03
1.753978900341712430e-03
-3.111235473226049014e-03
-6.132051534712651235e-03
-5.828073673866869878e-03
1.577656738181339603e-03
3.820175277762265752e-03
-2.776847084489906213e-03
-3.834552642412390397e-03
-6.414666414816183430e-03
-8.658913384454609494e-03
4.111352083530881406e-03
1.440762416157331631e-02
1.274443982399137490e-02
8.791194802828514177e-03
-2.939201882056894548e-04
-5.417401472485539049e-03
-1.523769802947804505e-03
7.076027638381636106e-04
4.412851465440217370e-03
6.012399745635906186e-03
-9.460005576813164461e-05
-5.681226047454690509e-03
-8.085131682709177994e-03
-4.397368750971270002e-03
3.948571649431260183e-03
6.327109388355411229e-03
-1.993130025547248853e-04
-5.995563231645541051e-03
-2.617280480331851157e-03
-1.799958092984782140e-03
-6.106386069200054646e-03
-1.217153120443069695e-03
5.142476993268293994e-03
4.613339164954326395e-03
9.420562388008453438e-04
-2.647970321448849234e-03
-4.540850059468321247e-04
-6.434162464197880653e-04
-3.916853347028333675e-03
6.215649163008319907e-04
1.248876364886640977e-03
-5.209624493583283125e-03
-6.329548080112283939e-03
-5.297237520154996979e-03
-9.778993901293081548e-04
9.412946749226240237e-03
1.135148867265647551e-02
3.755017733399900956e-03
-8.108501983357261017e-05
-1.659319981202463275e-03
-1.183237676947303295e-03
2.874160172596985918e-03
3.707094620048562595e-03
4.778160775787226172e-03
3.578700152187764324e-03
-2.715178022667261246e-03
-2.734188996001594377e-04
2.883474930395519328e-03
-2.624710626838425501e-03
-1.954646259056711400e-03
1.733679260326236385e-03
-9.668938359396227807e-04
-6.060286806865777115e-03
-1.219796263958023569e-02
-1.207448857197555500e-02
-1.636554839265125412e-03
5.892318280863929024e-03
4.847720591559295279e-03
2.906361040761800719e-03
1.969363711466371510e-03
3.482540787718844694e-03
7.205341611097777939e-03
6.088944085736135853e-03
3.294678511290063776e-03
-1.158713780608834317e-03
-1.087414938394164025e-02
-1.298580621197280814e-02
-7.458172027721264412e-03
-3.046950674865549821e-03
2.403729536514286839e-03
4.390150117690299995e-03
3.887390740080478354e-03
2.942884246665319024e-03
2.447353911162755366e-04
5.330192790326627149e-03
1.153549139635522830e-02
7.328424731013406974e-03
-2.412201945402593607e-04
-7.031633823020884758e-03
-9.729839784804607261e-03
-6.233887544754540544e-03
-1.490956568929650665e-03
2.286907232048845332e-03
3.244401905027854364e-03
-5.110262721976949760e-04
-6.290116675080807337e-03
-5.503368874619806068e-03
4.053568844153881794e-03
1.085211913321330705e-02
1.007661775492367864e-02
5.754468149988875916e-03
-9.397626898629700453e-04
-6.217339486603417828e-03
-4.523250040916449409e-03
3.390318963503683326e-03
7.490970882038421909e-03
6.388685941990965116e-04
-7.975967118313597240e-03
-1.188266081893381808e-02
-1.453259489275478787e-02
-1.182131314000301088e-02
-1.665188849394137445e-03
1.013368626741147950e-02
1.808943797311849191e-02
1.421816554971305595e-02
1.760109535059585766e-03
-4.783923069451475642e-03
-5.591549917409933956e-03
-6.377226701826505494e-03
-3.402469376893671633e-03
7.049949132224260853e-04
1.437340357169635289e-03
3.067207074368324612e-03
2.833803359681038615e-03
-6.577272141316814209e-05
2.305203038826949061e-03
2.538854596423162271e-03
-3.246802004029235300e-03
-4.098612585422873114e-03
-3.405574461672265275e-03
-4.137575023433840045e-03
4.387167198494647778e-04
6.205288248121256824e-03
6.836739985646083512e-03
2.502785779650094477e-03
-2.787316743622677510e-03
-4.631659647434340291e-03
-3.954271040403269794e-03
-2.239717150214960706e-03
1.035419928292613881e-03
2.763619441970737063e-03
-4.369809955183348213e-04
-4.348131753964699572e-03
-4.681211109654989308e-03
-2.998262425422597668e-04
7.371057319412307671e-03
9.845744626199149849e-03
7.545055349056754151e-03
3.888608414169048878e-03
-3.006777698125127126e-03
-4.630715226685359377e-03
-2.024407193112332318e-03
9.674502581635744097e-04
6.787618724696218436e-03
6.253217661898331434e-03
6.187264964427232998e-03
7.517662105077187878e-03
2.602224197617649011e-04
-4.143754873125595622e-03
-1.762087152032861675e-02
-3.384388199466589059e-02
-1.812488445912298352e-02
3.073093958895989570e-04
-7.357228437379704014e-04
3.673315602272446238e-03
1.074153816817458203e-02
1.037662048506547696e-02
5.874618727307255941e-03
8.684517261984187921e-04
-1.517617984505265040e-03
-1.935021165782766514e-03
-5.945111707012578034e-05
1.496201360065029830e-03
2.823862376506707655e-03
3.368202734072794566e-03
2.390189296261395978e-04
2.196612977596255813e-03
7.010853075874849856e-03
6.049420679881963893e-03
5.453631392974662810e-03
3.931337752147187441e-03
-1.449744636406040052e-03
-4.342885779786465755e-03
-2.479825068393107755e-03
1.926010048058845233e-03
2.017871925424074252e-03
-4.206029920371031142e-03
-7.411558562525842261e-03
-5.622833325850661382e-03
-5.531301098632739749e-03
-4.554322805249123862e-03
1.042642606290754672e-03
3.599876861671685076e-03
2.456216471250228291e-03
2.820029408335360255e-03
7.665147730867120652e-05
-2.101409729253206696e-03
1.153616548987132333e-03
1.855813796873604206e-03
3.903768008574151974e-03
6.904500100079142069e-03
-3.278273592747132145e-04
-5.350684058084864692e-03
-2.881065222732365032e-03
-1.834312043341299351e-03
3.247360252897771218e-03
3.051094110370616147e-03
-4.326056724583212873e-03
-3.925993409234098883e-03
-4.895187855592516603e-03
-2.581099913059784791e-03
6.327558780939018801e-03
4.303276387888790508e-03
7.168785434651717831e-03
1.072959835523437655e-02
-3.948511853298120565e-03
-7.087325128259869093e-03
2.175676170675355445e-03
1.845919277100272100e-03
6.101040324389186151e-04
-2.249538754458395209e-03
-5.979985605743054836e-03
-4.675958124485549497e-03
-3.983628291145957512e-03
-2.683466693532584896e-03
6.777310226897322477e-04
4.148106666642714484e-03
2.087699051877139021e-03
-7.265689199467417064e-03
-9.016088528851353562e-03
-2.602462547609435493e-03
3.773252827524981425e-04
3.668681022888585150e-03
8.390653119077582517e-03
7.418522986328659682e-03
1.673849524613645534e-03
4.954385247558511403e-04
3.734722480991937467e-03
1.827727645969047477e-03
-2.416681751938115294e-04
1.367466034820864632e-03
-6.998089161302590080e-04
-2.937552175636328790e-03
-5.783565073276552421e-03
-9.112523495557097938e-03
-1.904767422394915187e-03
1.894217907046044083e-03
-8.390020046132580164e-03
-1.314899257852404461e-02
-1.261391128672478996e-02
-1.083326533203261659e-02
1.257493187300966989e-03
1.087784551895646171e-02
1.379133252930198408e-02
1.351739961554586714e-02
1.284783881090357203e-03
-6.078177352385838970e-03
-5.157618288976459396e-07
3.296370656431198316e-03
8.120068700186350991e-03
1.332350049282179233e-02
1.363386711557899346e-02
1.966775783062784874e-02
2.604428429784198806e-02
2.427257628568769282e-02
1.801876698775772834e-02
8.686266786731197329e-03
4.637527929199827120e-04
-2.008094600000152625e-03
-2.127519184958512072e-03
-6.442567437763183080e-03
-1.404217259327873724e-02
-2.039610493683839676e-02
-2.579659680521243642e-02
-3.156506593583961739e-02
-3.833967459447960857e-02
-4.094800652468313235e-02
-3.546755536196326275e-02
-2.680800155540262811e-02
-1.353974787054512512e-02
5.160879872771468972e-03
2.042089251058516047e-02
2.567528412123853965e-02
2.223977716239950234e-02
1.894643365442718816e-02
1.636459469300875769e-02
5.532660341613557763e-03
-7.640996177052794026e-03
-1.080229038905508587e-02
-6.564566206727746010e-03
9.148106633311515676e-04
1.576096200585386242e-02
3.462477608140583640e-02
4.679988284189407627e-02
4.197345319919694451e-02
2.027409204920329472e-02
4.343670304830810763e-03
4.424788618543761161e-03
6.284287646168137606e-03
4.597156463311620651e-03
2.928459251272028368e-04
-2.913230204069560021e-03
-2.940265431457905927e-03
-3.973173364748661812e-03
-7.153936824326197208e-03
-1.866562909630134492e-02
-2.986426804707243907e-02
-2.502664911276047954e-02
-1.334383599413163125e-02
-1.836567132551117322e-03
8.416852297740678307e-03
2.356340413951039936e-02
4.349749683430274155e-02
4.109907147180296566e-02
2.059913875649874507e-02
1.265605171171436559e-03
-1.799798026291181408e-02
-2.714401898996077200e-02
-3.277205583884632706e-02
-4.470775672494214925e-02
-5.279694758459825554e-02
-5.951837652482448726e-02
-5.954319140800343885e-02
-4.550215691813398744e-02
-2.676525545341084875e-02
-7.503901461661847960e-03
2.813840938784906761e-03
1.716225874578313892e-03
8.364948174994590521e-03
2.337528255866948984e-02
3.168781963775386262e-02
3.716034561635168931e-02
4.399831494413812549e-02
4.771331834684771483e-02
5.334956169796306602e-02
5.954498521296922725e-02
5.676086869158468440e-02
4.999598679245359500e-02
4.166585002676390787e-02
2.111892720090132944e-02
-4.669917262578109421e-03
-2.460995060039955148e-02
-4.612286487984966488e-02
-5.765498708542209777e-02
-4.949402932588659737e-02
-4.091825270443540802e-02
-3.432483007385153662e-02
-3.059596390302258065e-02
-3.791739873012836548e-02
-4.281596697682547858e-02
-3.665174001689869981e-02
-3.356302279181776205e-02
-5.185502775570745987e-02
-7.293593765742351076e-02
-6.974866422098027763e-02
-6.192403345472382442e-02
-5.197469609805639712e-02
-2.300899063683560161e-02
2.777925885632612224e-02
1.312530785238789355e-01
2.654491886472382101e-01
3.276286182465890096e-01
2.970998575916224960e-01
2.355720325332707199e-01
1.480159131236317427e-01
3.334234784052334671e-02
-6.273173633464174115e-02
-1.338653169277556898e-01
-1.707410085506305408e-01
-1.643585338943389651e-01
-1.723261090706059151e-01
-2.023699032208688686e-01
-2.200273230504663780e-01
-1.793691155072273113e-01
-5.206410670024190501e-02
2.307314114714121775e-02
-3.338808464263641820e-03
-5.004779858394745908e-03
1.522158299450817025e-03
-1.140592382597670207e-02
-3.536799018297210467e-02
-7.766880062019680675e-02
-4.160912188520862753e-02
1.528473597052674125e-02
-1.327874150906158124e-02
-7.319707052064024048e-03
7.255122884371480174e-02
1.412733108595281561e-01
1.326059713591477007e-01
1.033147218373614423e-01
2.229232782449649675e-01
3.451801332360886487e-01
2.592812728416240553e-01
1.516403076936427841e-01
1.428202644554625589e-01
1.128349576560822437e-01
-3.047761704568895808e-02
-2.601481213212993304e-01
-4.097038582755756497e-01
-4.252154747445778260e-01
-3.713243338018644146e-01
-2.214769965109361360e-01
-3.640903311524793656e-02
6.065856011356676736e-02
9.760959907534286217e-02
1.452111405006472344e-01
1.715053058396971142e-01
1.011489535506567283e-01
-2.022801411540646119e-02
-8.231145919353477503e-02
-9.093890712359620210e-02
-8.204925084893409382e-02
-3.062963351746654170e-02
6.247302477183262065e-02
1.454698018919143576e-01
1.637115507291441452e-01
1.311435442842904531e-01
1.407888905081909336e-01
1.876381168167398361e-01
1.346788040366396211e-01
-1.990227617635702620e-02
-1.353265370047183058e-01
-1.644277595194818808e-01
-1.490883742404725265e-01
-1.208565255765272628e-01
-8.119989043753451929e-02
-4.634527464986047673e-02
-4.565592821138487328e-02
-2.113622091680947279e-02
5.812230245432178227e-02
8.576132853728495042e-02
2.686372480165199333e-02
-2.964436768541084052e-02
-4.311201942320388308e-02
-3.416701527831707969e-02
-1.803553119887865708e-02
-3.906569062123628651e-03
7.618191178773140240e-03
2.294620756471189155e-02
3.506618865435559562e-02
4.095630090725930345e-02
3.934483367469513576e-02
2.575306412900249531e-02
1.622159132837316248e-02
1.548895273578017144e-02
1.559276516728321481e-02
1.313597905026652087e-02
-3.711712435179009405e-04
-1.791558395391842223e-02
-3.524369250507015938e-02
-4.535236242653589017e-02
-3.377841716260687743e-02
-1.735344960908034168e-02
-5.289079914914473525e-03
-4.351239990080898632e-05
-8.387385066864636030e-03
-1.203713757871307730e-02
-8.715252376560343392e-03
-2.976035357243854863e-03
1.159993979561319000e-02
2.926877595422976153e-02
4.870487717687690954e-02
6.207031753798879226e-02
5.710443388237645274e-02
3.475397236140517765e-02
1.112064364112735036e-02
3.849484142460586102e-03
-3.233888761472789204e-03
-1.603594524491456022e-02
-1.804324314616536154e-02
-2.019950022416936233e-02
-2.436137824230710791e-02
-1.927863457447061279e-02
-1.206132980836563916e-02
-7.319568046278820440e-03
-5.588688182961041792e-03
-5.161512849780655610e-03
-6.878423823517184883e-05
6.773748386650619083e-03
9.925763001123199397e-03
1.201600265594515021e-02
1.366216796282625212e-02
8.880210852765690888e-03
4.133927380627370682e-04
-7.183839835710179034e-03
-1.346132231528902011e-02
-1.408882739428937367e-02
-1.808466850281104099e-02
-3.009173845101735523e-02
-3.389134190779827943e-02
-3.120498659943336112e-02
-2.953767010609459689e-02
-2.033661522669226104e-02
-6.132373819428433084e-03
4.173246522501407839e-03
9.113519842706398200e-03
9.964478534082232136e-03
1.133561190770778632e-02
1.520568430683536670e-02
1.796242214908107260e-02
1.681915764611676897e-02
1.359081859393382850e-02
1.052916497605000008e-02
8.152941589514609358e-03
6.502046136226284634e-03
4.560793191227261942e-03
6.008443520357171878e-03
9.067541070156292377e-03
4.659946601283120396e-03
4.094222703960321143e-04
2.824497485752173326e-03
3.932027747724831102e-03
6.067543124005098619e-03
1.066334926146253470e-02
1.062392900960584113e-02
5.306580577541183258e-03
-1.728792599700791025e-03
-6.689486505787309301e-03
-8.823495645282107905e-03
-7.580385799170809638e-03
-3.382343292802562039e-03
-4.897776407324025590e-03
-1.043954868702536877e-02
-1.022813622142236013e-02
-1.040074656891573114e-02
-1.163786944530318529e-02
-4.424469383235435024e-03
3.882870783776641316e-03
2.804251534185863738e-03
-2.173075904306001616e-03
-2.483002132804786911e-03
-1.153657534546903909e-03
-2.503218476481502454e-03
-1.281801173082168879e-04
4.394000711973057235e-03
1.281387165817663354e-03
-4.938669526918239641e-03
-5.663228094417767193e-03
-5.693044578066357338e-03
-9.277908380567993427e-03
-5.769122132073544601e-03
2.409984596994989032e-03
1.976657003070104329e-04
-4.136916920019113007e-03
-4.833367000083970896e-03
-2.939791121120436789e-03
7.726326271564016440e-03
1.193643523179698657e-02
4.275901962461859697e-03
4.364213598769565647e-04
2.254529826772207462e-03
6.336373342239009880e-03
7.932084885196947696e-03
1.015874889942025225e-02
1.361022115032215797e-02
7.650868082092080434e-03
-1.168645680462966630e-03
-4.020186472687568152e-03
1.737263645430099732e-03
7.591201208584566831e-03
4.737985069954990698e-03
5.869458302799398543e-03
1.688754893546989865e-03
-7.060503391448741568e-03
-3.213032455769971891e-03
-9.382900649770030974e-04
5.759790959353440314e-03
1.009483043096981621e-02
1.244394231129227315e-03
-1.793028772998468950e-03
-2.543346802794002257e-02
-4.343694076256065378e-02
-9.950666773043216617e-03
1.063245302478048326e-02
6.889012257122905346e-03
1.092754303346134617e-02
2.934597477018735870e-03
-3.740750590059947235e-03
-2.001341123458794200e-03
-2.529161433811234587e-03
3.736424617318583746e-03
6.776979376260816590e-03
4.620430015613877185e-04
-5.484428386588644302e-03
-5.551694833731247482e-03
-7.084098804605737116e-04
3.623032939460249600e-03
6.919490544304684153e-03
6.749247573074121896e-03
2.490210745942172260e-03
-2.342509700510267412e-03
-3.457378497826464180e-03
9.758027745045921939e-04
2.268078086529098317e-03
3.570184734654562996e-03
7.388733274918955415e-03
1.529399160745695046e-03
-5.338838613264593018e-03
-3.880424399001057827e-03
-3.122287777113667319e-03
-1.259647866030371788e-03
3.598746775686854048e-03
1.178351529949979524e-03
-4.522348544853727927e-03
-3.175522899989209526e-03
-1.974502657237687826e-03
-6.219475752173292534e-04
3.879093166770696769e-03
1.921045790669661168e-03
-1.029034320117357820e-03
-1.891017085807728156e-03
-4.393280009609942457e-03
-1.504798966747778084e-03
3.377880725768049163e-03
6.910320935734648798e-03
6.906018518768597403e-03
-1.396534542947146500e-03
-6.803217844609806865e-03
-4.906751767556097668e-03
-2.786994280032871994e-03
-7.575450864586161844e-04
3.233442465820311144e-03
3.766950197612561543e-03
-2.323736488681372135e-03
-2.283645167120788508e-03
5.721945282483388876e-04
-9.296899287477781559e-04
4.343469930212869382e-03
4.612767388075688160e-03
-2.669552036640682191e-03
-1.834993205877706634e-03
-1.186484067671104850e-03
-7.554994357134288494e-04
2.853958704930022964e-03
6.050541357375634720e-03
8.045140045605039814e-03
5.403933050881378191e-04
-4.675572663809350604e-03
-1.764648818517551652e-03
-5.209239479510630912e-03
-4.191151246049480868e-03
1.741896944258667290e-03
-5.568536301019512500e-04
-3.375497110702078453e-03
-4.751503968847185441e-03
-4.909774415599900410e-03
-1.510877792382387232e-03
4.535566181027623654e-04
6.030484177972046190e-04
-2.238547747954843913e-04
-1.019616170270702367e-03
3.287172840532614528e-04
3.643080632294630646e-03
6.585630609472591622e-03
6.713469029823629364e-03
4.636388902153615668e-03
-2.589027526378906430e-03
-8.506075794200996729e-03
-4.055722912264925380e-03
-9.589231934662719543e-04
3.341723363430509431e-04
5.968050789338483382e-03
5.314472816799583471e-03
1.787448984193200753e-03
7.766198204846278159e-04
-8.245031525375590576e-04
2.170144811662922356e-03
4.272801874770105861e-03
1.573244890968331132e-03
-1.983690817588707757e-05
-4.522309294122370954e-03
-7.767008619499930246e-03
-3.365868931854603188e-03
1.566265904502592244e-03
4.884885762980763907e-03
4.539569479681199518e-03
-8.646781951606370177e-04
-2.808153065301844959e-03
-7.632258432423405081e-04
-1.800901854229831987e-03
-3.232264925407992741e-03
1.752228009505532201e-03
4.374361066475354956e-03
-3.356748135973981317e-03
-7.430582949919843118e-03
-4.820769603845196857e-03
-9.170441705611419216e-04
6.161678249978665665e-03
4.072618093150332137e-03
-1.900352185527216971e-03
-6.756103756885145769e-05
-4.728196264132560923e-03
-5.993497084939341558e-03
3.692261075068890841e-03
6.861495419644943368e-03
8.522202557358204283e-03
4.847789680373371275e-03
-7.793051265765769259e-03
-7.774899283784257424e-03
-1.304514174793366954e-03
-4.543157718133450634e-04
3.640869199644672892e-03
5.754763856010466049e-03
1.633811578656624991e-03
-1.531776069799559463e-03
-3.500145165163404300e-03
-2.822068433942896866e-03
1.957502180567002176e-03
4.000098435074050246e-03
1.042930962125228952e-03
-1.075881336682650178e-03
-8.162182866507407524e-04
-2.705995564298939709e-04
2.125822844376068933e-03
6.891857589246238106e-03
7.183312247364050974e-03
-5.448546914375019786e-04
-5.480395554193374236e-03
-3.343479865354345368e-03
-2.660072449566567004e-03
-5.921256904987708862e-04
2.888860053436437605e-03
-1.671394409766461305e-03
-5.849841275931566380e-03
-3.776946103394742630e-03
-1.423780795195678977e-03
2.835971739252153481e-03
3.226279189953250477e-03
-3.103670530985414271e-03
-5.120940626423465224e-03
-1.917342964945912501e-03
-3.882676776965253364e-04
-1.460176948880458677e-03
7.119870997248959558e-04
6.333781805156334967e-03
7.415573574894026437e-03
2.742479237650559312e-03
-2.989989829117433752e-03
-2.052522502505121482e-03
1.673548651877095018e-03
-1.838767968558992823e-03
-1.514861245086740124e-03
2.588555016407751222e-03
-1.981471609075305222e-03
-5.404830928101928868e-03
-1.399841280572993851e-03
3.129934647335119117e-03
3.556224082789460807e-03
7.911144271227735529e-06
-4.137849143315877262e-03
-5.921731309940092211e-03
-3.690976189112947850e-03
-2.040027546040808736e-03
1.905258116287720724e-03
1.000358844804405747e-02
9.899416757118422935e-03
3.554426018173793052e-03
-2.218365121530842168e-03
-3.552718243397398439e-03
2.889438394340030497e-04
-2.612866047985771645e-04
1.759554739017982856e-03
5.472073959836832452e-03
1.887950249238160927e-03
-1.026167184596842941e-03
-4.193496603047747705e-03
-1.433431469435758371e-05
7.857858717072124452e-03
1.307546708570978510e-03
-5.329178482544365963e-03
-4.168158848036110885e-03
1.448657858691376364e-03
5.476245954281035513e-03
3.817867814832494409e-03
5.992560168202737403e-03
-1.046957332235152853e-02
-3.294877539110940140e-02
-1.636592183755926702e-02
5.072527814549806363e-03
4.640386383820376340e-03
3.747447539604731662e-03
6.712102817330912324e-03
7.647475075059101228e-03
8.043879769742095891e-04
-3.318988546370271221e-03
-2.376979746957990670e-03
-2.092489740457812580e-03
6.051494383974815629e-03
8.939130530320034407e-03
2.514915349908607677e-03
-1.308604761530394404e-03
-3.973080562021395062e-03
-1.085214240756940786e-03
2.915604445029363646e-03
6.052954015759341895e-03
1.024206529220557903e-02
4.108141000839185542e-03
-4.500674733021741911e-03
-5.794064779604532651e-03
-4.204220098285213134e-03
-1.682187689283394386e-03
-1.012799456710988030e-03
-1.143194718958681806e-03
-2.519468285411491284e-03
-4.717727410271753755e-03
-4.227244981176658811e-03
-1.814307298000467647e-03
2.731058355226974321e-03
4.911764628100204547e-03
2.065269161791249454e-03
-1.896211554169544749e-03
-4.840236908335245926e-03
-3.759608313546377884e-03
1.355558899701639125e-03
7.075255700417762764e-03
8.910303579212769387e-03
5.983641598171266472e-03
7.902180711267227592e-04
-4.107199031930547362e-03
-1.866910044992006485e-03
2.083284145102618640e-03
3.101940372495482455e-03
5.793661993944182464e-03
1.841271727929366642e-04
-6.479395696369459265e-03
-3.872862760094075707e-03
-4.437236029585019982e-03
-2.388309244681144621e-03
1.566192935066603245e-03
-5.132295530524835043e-04
-1.829933630653481210e-03
-9.757766138572900733e-03
-1.076458510066572068e-02
6.428256128592230861e-03
1.115540463428196273e-02
7.066612436654993307e-03
6.436367499980588311e-03
-4.189671942843318023e-03
-7.171352052735128525e-03
-2.509425689143556589e-04
-3.067951759048896838e-03
-2.557092838107875160e-03
1.755971837073028782e-03
-1.266634214662676241e-04
-2.239092913358638973e-03
-5.951514024538413598e-03
-4.375093355354296373e-03
4.665778542628897310e-03
6.664621844571347667e-03
3.580111516968330094e-03
5.049890276376076560e-04
-3.542881193896959581e-03
-3.357051389192484015e-03
2.086707199022257587e-03
8.315866289637392078e-03
7.874097744618672318e-03
-5.710790786454631330e-04
-6.209762447136957415e-03
-4.683959642199113892e-03
-7.873793851679846897e-04
2.448175788776410858e-03
4.010654087220867463e-03
4.093675091400158887e-03
2.823404585088983183e-03
1.182080749714766246e-03
-1.210197733841521987e-04
-9.958067892290093075e-04
9.896122868998324072e-04
3.427479361451352992e-03
1.965497449181450359e-04
-5.621982680486246539e-03
-6.953283230294113847e-03
-3.339521446968963820e-03
4.288869875784591282e-04
2.422525942122995962e-03
5.051388716913262668e-03
3.843838112131538025e-03
-1.640068479748587596e-03
-1.981241429008502239e-03
-1.450538319900413582e-03
-3.883661739996577527e-03
-2.310701291057910486e-03
-1.409275516683133759e-03
-3.267805525897533783e-03
-3.127835259035649084e-03
-3.042587283888603840e-03
-2.081291566955562554e-04
6.215257117452006527e-03
6.907642603115590751e-03
-1.114438232909730278e-03
-7.828622341482198779e-03
-5.073390371914084269e-03
-3.528892526784142727e-04
-3.902942304381568518e-04
1.502976093934493048e-03
8.031951869035151848e-03
8.752583485794400778e-03
5.613905475227011586e-04
-3.036757040834965355e-03
-1.813213141723890587e-03
-3.670961061585021733e-03
-1.097205703829948718e-03
3.832365656340932028e-03
4.073395971841156649e-03
2.251363401125031343e-03
-2.793633332057114671e-03
-3.700217649487166742e-03
2.901955075215637871e-03
4.316322712238794025e-03
6.785157885003964637e-04
-1.424399171878678845e-03
-3.289499849373876770e-03
-4.318300817877141623e-03
-1.014036533713649942e-03
6.329840996498060923e-03
1.062759646766766458e-02
7.243423636781479678e-03
-1.211227917987565137e-03
-7.352145889514538450e-03
-5.404833356684778448e-03
-1.825456277825139887e-03
-9.734256130416879278e-04
1.111392261323018889e-03
6.215819937746938943e-04
-5.129048338749477888e-03
-9.280380349818977137e-03
-4.686801729596280081e-03
6.716818220867082703e-03
1.228696175419147218e-02
5.264135957553300188e-03
-4.516806315536947211e-03
-7.287749800151637272e-03
-5.622742619761920621e-03
-8.621039612048969495e-04
5.530807049943702383e-03
6.200778327655040792e-03
3.879724525303174416e-03
1.480671964930465418e-03
-2.180898114147669740e-03
-1.675383908226942995e-03
-1.887392348838771831e-04
1.771152522957606594e-05
1.835402472405568306e-03
-4.636469256937543015e-05
-4.057193140891980111e-03
-7.280895115663217620e-03
-7.129745731323689807e-03
3.772817334078149834e-04
4.128329258735483585e-03
2.153763415749862867e-03
1.250712181926152055e-03
-4.117682319045795972e-03
-8.122130330042054425e-03
-3.825000406168474563e-03
1.833323903063685013e-03
7.312129842358054514e-03
7.974742589670699364e-03
7.814633153019375899e-04
-2.193067316247039773e-03
9.339364063808238596e-04
1.774558179919479787e-03
3.104517116618114251e-03
6.146216582941142759e-03
5.090613077198982359e-03
6.549213726809690250e-04
-2.127394596711508663e-03
-4.583711711827459360e-04
3.717735232146369626e-03
5.664322741516856878e-03
1.865285874712674201e-03
-4.336085220348464241e-03
-4.119768594828618000e-03
-1.528128080044504787e-03
-6.741257720877601818e-04
3.368976819505342148e-03
5.606378217877138609e-03
6.364540673976521422e-03
2.360855553875914996e-03
-5.957621352041694157e-03
-8.709052441585735105e-04
-8.423033043738915177e-03
-3.280230406652261121e-02
-2.091232899227212991e-02
3.071231814728824557e-03
2.087857949957288000e-03
2.335981857928473484e-03
3.762316983982846516e-03
4.775322404890951743e-03
1.078779517691244756e-02
7.578768835477497565e-03
2.305411206869838799e-03
-5.534106406732514864e-04
-4.963572054918587335e-03
-2.737238951602818590e-03
3.746512997536913768e-03
1.045858166576722932e-02
1.171500898154450437e-02
1.352405239636079960e-03
-5.143958632416316921e-03
-3.951263143978010176e-04
2.708784771334619545e-03
4.339624005794060803e-03
5.905339331824408997e-03
5.929333879979453194e-04
-4.867182050402074286e-03
-6.273153304432494901e-03
-5.717800917946351189e-03
-9.405260119306969229e-05
2.363249714488032532e-03
-1.829988734941473405e-03
-5.559982904609577989e-03
-9.072412597670595491e-03
-8.178137372159586388e-03
-2.381265650238207493e-03
2.158669226543833385e-03
6.708220698088287678e-03
8.506995695009724953e-03
1.712507998007635349e-03
-6.758335996434944835e-03
-3.967818415105560728e-03
3.572696986965431896e-03
4.949504822549260011e-03
6.042486706006628717e-03
3.512734473296004380e-03
-2.581006431335310623e-03
-4.901551885374637839e-03
-6.988012502812166078e-03
-3.402072013687121007e-04
9.027586121446464634e-03
4.612992493773880077e-03
8.312674006459205281e-04
1.122987948087102519e-03
-4.647210275853594884e-03
-7.341980709664403318e-03
1.998656894032769821e-03
1.046193923711760156e-02
2.914132613159547275e-03
-4.280466545831883296e-03
-2.000069812798894748e-03
-2.280791206078000479e-03
-1.004927759049090586e-03
-2.131251243904105593e-04
-9.465466802590769739e-04
1.395027178968944771e-03
-1.354521982027339245e-03
-3.541225302460490089e-03
-1.434791596949867723e-03
9.213857429007150544e-04
4.645295110391658294e-03
1.831380344173950264e-03
-3.833135017300882616e-03
-5.721060080948734729e-03
-5.294466307405742631e-03
-7.107080352293876574e-04
1.947429396983529687e-03
5.295092778937676020e-03
7.808043621141203330e-03
-1.147221040407437947e-03
-7.008464197727055922e-03
-2.641249564662966585e-03
-4.329766210198413554e-05
7.119822327668794484e-04
4.209742745597779522e-03
5.112255192642616713e-03
-1.279920093199118491e-03
-3.433860306992848627e-03
3.285113547538814080e-04
2.069254113738409288e-03
5.170400911161891939e-03
2.507772745298895642e-03
-3.459285331502395724e-03
-2.905690113497770045e-03
-4.099092150746583979e-03
-2.173487099189470861e-03
3.926427597767795895e-03
6.067198631522129071e-03
8.161530925544273340e-03
3.727179512321680908e-03
-3.532038087215832144e-03
-1.666812237578540112e-03
-2.812843427003256088e-04
-2.968430401164405714e-03
-3.906230568425584498e-03
-2.292415006051466524e-03
-1.900664123504064711e-04
-3.054858069089479503e-03
-6.208195952951385023e-03
-1.103647277042311319e-04
7.160723193610725457e-03
4.449126184049984750e-03
-1.007317964899428131e-03
-1.255050388858058126e-03
-2.135631241533794461e-04
-1.357963865138689212e-03
-3.075405251776438045e-03
1.328127293345190930e-03
7.854127075715033879e-03
3.317973192400795919e-03
-5.101609995864086512e-03
-6.665252641136640288e-03
-4.094751560675231709e-03
5.067909536295533263e-05
2.691518291038962844e-03
3.766144993983883398e-03
2.450597905005775720e-03
-3.251693438834459601e-03
-6.652552534044730258e-03
-2.986098744825619981e-03
4.106515813256034382e-03
5.750990344812913560e-03
7.016731857826109635e-04
-2.605980288936847467e-03
-3.404657246388868245e-03
-9.161261370027420133e-04
5.052638789176370007e-03
7.726663698054314806e-03
6.198091649572886122e-03
6.002902861303444212e-04
-5.899706545212978284e-03
-5.449203946334207731e-03
-7.865616327145947672e-04
8.741717734374038337e-04
1.534158179472973902e-03
5.155352566857955739e-03
5.112139745882452943e-03
-1.050897587017328699e-03
-3.790716469004732584e-03
-8.448490612030105972e-04
3.688716933898155727e-03
4.793192081665690642e-03
8.839794569823216817e-04
-3.442418550800692423e-03
-7.854132173456488536e-03
-7.504093628860251074e-03
-3.084285806219749467e-05
3.799804416048109968e-03
2.962218255885311607e-03
5.483344342447415498e-04
-2.208696890348978582e-03
-1.766074261869038028e-03
-2.180550175038679581e-03
-1.523771545011122540e-03
2.632952590376563210e-03
2.525173612278450944e-03
-7.276059454941184203e-04
-3.329374458097985288e-03
-4.663960899491664293e-03
-1.961462390043091329e-03
2.159699958448530344e-03
2.970759835981113661e-03
7.479732083837227962e-04
-1.084683922969108608e-03
-3.662721622018697692e-03
-4.750270323300598979e-03
2.448181280294301453e-03
8.536866278305009839e-03
6.651191446283052054e-03
2.812849625873632513e-03
-2.762674137847710362e-03
-5.755377244468252822e-03
-3.603714350344293556e-03
-1.041922799721031615e-03
6.661684103629963733e-04
9.434605041243073181e-04
1.964241250457385984e-03
8.321436044172451267e-04
-1.860158243411311066e-03
1.991532896261396981e-03
6.069146002821771552e-03
5.984100923890929916e-03
2.164677337819359559e-03
-3.844920408532842473e-03
-2.376828493514332799e-03
7.848893481047069381e-04
1.659600298097240476e-03
5.412077725318241612e-03
7.469306399511986203e-03
5.781841518562643584e-03
-1.434799480383947088e-03
-5.828241243635207992e-03
-2.435758102559753766e-03
3.992359304618224537e-04
5.444154607321994438e-03
3.618517750896484662e-03
-1.410919680389811828e-03
-4.806734289132404657e-03
-2.717696077895750614e-02
-2.987201129113741666e-02
1.593571476038680270e-03
9.408684776102122296e-03
2.642981214780105569e-03
2.314675690144984543e-03
-2.451433937026878656e-03
-2.138186848448749445e-03
2.084943429860889523e-04
5.533736283938851634e-03
9.618950492865395441e-03
1.417613054019307983e-03
-1.610825292281108795e-03
-1.348885828050660888e-04
-1.067001382734959758e-03
1.518790215783199582e-03
3.650433547595811814e-03
7.648660835275016522e-03
8.611719770625874196e-03
2.596232528331178253e-03
-2.450091988975809827e-03
-2.253952816791842100e-03
6.214882564377824554e-03
6.834162284974747321e-03
-4.568539156147458612e-03
-6.470943139164653593e-03
-4.149495833658022395e-03
-4.052741980563345260e-03
9.884830267014872284e-04
3.356907468134809683e-03
1.830130366502667749e-03
8.943581726035727559e-04
-2.818737405180024493e-03
-5.117880647465996614e-03
-2.251990861441077480e-03
-1.201423342313961973e-03
-3.398424512959118040e-04
3.190251067361894993e-03
1.281244599646880721e-03
-1.786355988811763260e-03
-1.647237260860162211e-03
-1.311893805714139461e-03
5.549909510875485584e-03
9.880678492268675853e-03
2.150984343227143204e-03
-4.597663008481658181e-03
-5.290733636683233633e-03
-2.603980368796174685e-03
1.084534116903907624e-03
3.582041171023189318e-03
5.982172132563385626e-03
3.644408445613568203e-03
-3.460940715611411731e-03
-7.559449313200060708e-03
-5.331562038197399864e-03
-3.032983091730354595e-03
-6.994133445904730274e-03
-7.896450899355044600e-03
-2.918679690519102379e-03
-1.101866959843292911e-03
-1.014816059036912927e-03
1.183356697125295849e-03
6.230890215117016427e-03
8.736010020169045903e-03
3.531747118876301175e-03
-4.298229633938284444e-03
-9.783318886544970297e-03
-4.875322549524678875e-03
6.416829989629216011e-03
9.323297717726242509e-03
9.305116292633601807e-03
6.882049658661838071e-03
-1.215624553676894915e-03
-3.576134755256153534e-03
-1.013750537505126890e-03
1.880212219120919355e-03
5.040711998044327541e-03
5.904812046870871502e-03
4.499991698184971703e-03
6.973901372810738675e-05
-4.416272973971385914e-03
-5.624479317001191726e-03
4.122475803404600670e-04
7.820703848873105518e-03
5.423591132005763701e-04
-6.619285839540368574e-03
-3.512440023221172734e-03
-5.759232124027017369e-03
-4.945617505964652362e-03
1.734968024565149104e-03
5.525349196456052527e-03
7.896738507246189864e-03
8.527666361925326016e-04
-7.290838222875122010e-03
-5.218074959921592364e-03
-3.867163605518862332e-03
-2.513144970642138421e-03
8.533413481172539639e-04
2.817232236272178714e-04
-3.053014774966633562e-03
-7.135550787516117474e-03
-5.865574072871179712e-03
3.054154443670710310e-03
7.773576014382233175e-03
1.953147924005953912e-03
-3.517038304926195513e-03
-2.097690479390922069e-03
-9.321541134583761915e-04
6.994489224636977424e-04
5.761423419039272791e-03
9.007020833306424862e-03
8.239341342230956100e-03
2.758255119169127946e-03
-2.060138934225629569e-03
-1.281443235335450945e-03
-1.366866813989489528e-03
-1.740287139314251625e-03
1.680918978757518388e-03
2.724143101484592915e-03
-2.073370539547042188e-03
-6.425340803248726952e-03
-4.357387119265438563e-03
1.674207764257946247e-03
6.894238145026647391e-03
6.722093154161872669e-03
3.623664746995792661e-04
-4.469694497449640258e-03
-5.016182325701863155e-03
-2.424042380611470242e-03
1.933831688947161044e-03
3.097072306757254773e-03
1.400240888108052455e-03
-3.028529575800017332e-03
-7.137264713562354972e-03
-4.652976628858510044e-03
-1.392148312791999720e-03
1.293842191882361038e-03
6.387401610055623222e-03
6.320120265458886895e-03
-3.370968230338168255e-04
-5.671927332874041050e-03
-2.423900012469104408e-03
5.390724925192358005e-03
6.039673937031054922e-03
8.154935668996011891e-04
-4.491567433902403719e-03
-7.409631325189448142e-03
-4.589557060311523322e-03
6.832174011402521608e-04
6.115888758240992443e-03
1.028672759216581883e-02
6.720303003073201803e-03
-6.214069324920988568e-04
-1.922406660412569451e-03
-1.913742146960837557e-03
-3.620438663506051445e-03
6.679451641704432742e-04
5.732393044022513623e-03
3.148551000539877472e-03
-2.419434481518127709e-03
-4.893911625573757647e-03
-2.807931598869086321e-03
4.034967525974926137e-04
2.888788734244017789e-03
2.762352278442444919e-03
-9.920371511938539614e-04
-3.748315973981136522e-03
-7.249457407499281664e-03
-6.856426176411063375e-03
3.337847678447731711e-04
7.426976193316261934e-04
-2.011958514567540809e-03
-2.759516011753346612e-03
-6.024061922124341120e-03
-4.364895568685587916e-03
3.209156268278642583e-04
2.915789159435549192e-03
4.891613695226195574e-03
5.417068744751999364e-03
5.045590104751889425e-03
8.320638428015010796e-04
3.079697607782152244e-04
8.352211908251281486e-03
1.092047310604964648e-02
5.445259685295879108e-03
-1.659275765367858270e-03
-7.076684017767622195e-03
-8.418369835500863138e-03
-7.552880737351315085e-03
-7.130282035974467268e-03
-7.597409451128681566e-03
-6.062964567732635757e-03
-4.926987782029680456e-03
-5.430303677135948914e-03
-5.314964844713439968e-03
-3.250540836936717960e-03
7.011972804115488601e-03
1.414190191212061527e-02
1.347804078078218906e-02
1.736569674865656027e-02
1.868222015427771499e-02
2.180944155263860734e-02
2.372569793453610867e-02
1.596227092674616307e-02
1.050938193338172601e-02
-1.426234227530758306e-02
-4.020243064778332431e-02
-2.484767759623742259e-02
-1.018599816186778646e-02
-8.835857207212617637e-03
6.483573186101760158e-04
3.649945999313540480e-04
-5.153883588450750529e-03
-4.655545971784562191e-03
2.945433374699417232e-04
