-9.416928807842769866e-03
-6.177765189940673425e-03
2.944097688424145067e-03
1.025622878540205160e-02
1.744622593557708726e-02
1.845264093823377818e-02
1.961524472693520343e-02
6.495045928086029541e-03
-8.047413851165381021e-03
-1.740443452086527765e-04
8.318546050043836492e-04
-3.145195801719408678e-03
-3.048651813276974289e-03
-1.664215272237438287e-02
-2.042485580600406775e-02
-7.531463352822558889e-03
-5.842039141127210872e-03
-1.294419721649669661e-02
-1.439096859958744444e-02
-1.115111776568077084e-02
-7.628768176558334106e-03
-9.557571509966717675e-04
5.471880524448727648e-03
5.597441312098033056e-03
3.023876736483997480e-03
8.363450571452332640e-04
3.844359085595327585e-03
8.282982435213850567e-03
9.487529868676333744e-03
1.322165642137811646e-02
1.066153002277023254e-02
2.271716597448175581e-03
-1.684132281946193683e-03
-6.956176782179022619e-03
-5.096662035157935658e-03
4.392076047631603489e-03
3.122458634152293008e-03
-1.093731040719947943e-03
-8.113669425775892194e-04
-3.536761535842914989e-03
-3.449098019068016531e-03
6.986062593575944821e-04
2.236902946199308823e-03
2.849468647201199717e-03
7.775749147784499901e-04
-3.043301270596574654e-03
-2.228376351371396617e-03
-1.150664994568386876e-03
9.774110067877522963e-04
6.028485820142085415e-03
2.950753586787664001e-03
-3.549225816474204254e-03
-4.989751127510783785e-03
-6.541656846561758054e-03
-3.576169402631384532e-03
3.759432123559356808e-03
6.196434443580377087e-03
4.940211962754887873e-03
4.802062520820968121e-03
8.682441996960972921e-03
5.349276997240565330e-03
-1.106381089889906313e-02
-1.473481114410172751e-02
-3.005480995056571472e-03
-1.020939708341967551e-03
-3.576346610527273481e-03
-1.997071197360445263e-03
-1.367362577774972185e-03
2.148556449902697812e-03
4.236715327574576244e-03
8.255693788406768836e-04
-1.730157847247967926e-03
-3.195070782743120695e-03
-2.016856701951405886e-03
2.812696287008453842e-03
6.667724721028572658e-03
4.674243391230060302e-03
-6.602753248853783551e-04
1.416567141650796214e-03
2.896529382736997161e-03
-4.203181491863434809e-03
-5.423442615974122943e-03
-2.880068415963029488e-04
4.322008684919857388e-03
3.075812852455754674e-03
-5.879045100292575737e-03
-5.556914046988215006e-03
-8.974915325338894256e-04
-2.935836800928270148e-03
7.645484344694097618e-04
2.710319911113088717e-03
-1.621456613537629625e-03
-1.735089825740667672e-03
-8.033015215503822807e-05
2.722614284231498084e-03
7.965547072530715822e-05
-3.944334340953366096e-03
5.013107015339748722e-03
1.032072769071363735e-02
7.855073919330846435e-03
1.104414341468246998e-02
1.065675865058523381e-02
7.976655724337795503e-03
3.523104459131844515e-03
-1.401534904306540354e-02
-2.595832918460554486e-02
-1.987829472837083708e-02
-9.786445826619905725e-03
3.544040472190740972e-03
1.586580330045526954e-02
1.748580139875595754e-02
1.828000215016041541e-02
1.577829694770635505e-02
-3.780913274937303288e-03
-2.114078449763506784e-02
-1.938175941597545388e-02
-1.577756906145835053e-02
-1.623459575669114127e-02
-1.167672467539318526e-02
3.479954323020535071e-04
1.558032698457239434e-02
1.716469541036605428e-02
7.838469519732209345e-03
6.115672879748156217e-03
1.863192774032776085e-03
-8.454124113255728074e-03
-9.877774845528245265e-03
-5.922657260703046399e-03
-2.533452091203144702e-03
3.143259463627757089e-03
8.568639078483064955e-03
7.682395005872596529e-03
2.416399629635229002e-03
-6.576868541873738191e-04
-2.483845317914864289e-03
-4.107456653780371635e-03
-2.686522738577276376e-03
1.956023578283169490e-03
4.836240106586077968e-03
4.267869668204430679e-03
4.951377328964867361e-03
3.364649969622722329e-03
2.414621195959519486e-03
4.408029616651686251e-03
-3.303935244755316740e-03
-1.006548437001750750e-02
-7.546117093885048796e-03
-6.721589196448909259e-03
-1.863543582754836848e-03
5.460711093506239247e-03
7.741338357833161057e-03
6.345706171826155303e-03
3.416903693467291617e-03
3.247039400267721487e-03
4.109417814894574320e-03
8.268268120536183957e-03
5.764189207672901737e-03
-3.461691359933890665e-03
1.550970471399925211e-03
-9.480276038619540879e-03
-3.234480480439494432e-02
-1.788371900165895353e-02
-1.812353994006878598e-03
8.659875935001537820e-04
1.383878258195938953e-02
9.278706169780373200e-03
5.902427862594611212e-04
9.859262253064143139e-03
4.447977471168057355e-03
-9.877240209985399533e-03
-7.319190687649013843e-03
-1.001014570774825564e-03
2.765823584897888956e-04
9.385320520586341560e-04
-8.685645250343371334e-04
3.127327859590800182e-04
5.007517221046917273e-03
3.755526644880337848e-03
-2.003139534907489531e-03
-8.652172722146739617e-03
-1.262532082910092224e-02
-1.045069855419391083e-02
-5.420281618603501640e-04
1.590917488586070239e-02
2.025648276344060514e-02
1.051954770480111739e-02
3.887365500468707540e-03
-6.976709205652457295e-04
1.643161274739163953e-04
6.262836999407172395e-03
6.709337251037213699e-03
2.946272658280602984e-03
-4.803892076865486777e-03
-1.055820955867999011e-02
-7.292880962369521596e-03
-4.882030727487093012e-03
-8.133188090756181612e-03
-1.046115935199156202e-02
-1.115857629032766460e-02
-1.153776191546426570e-02
-3.325897966464408688e-04
1.594713595304726381e-02
1.490068232797356861e-02
8.000943850333815457e-03
3.764442971813483640e-03
-6.456847182545247081e-03
-8.769043737772029903e-03
-1.879505273582171305e-03
-4.778535631137865482e-03
-1.202674663821296820e-02
-4.450855186070850657e-03
1.185528298900469929e-02
1.838476267164066216e-02
1.228446410235105833e-02
1.789222008552436355e-03
6.883972788815192123e-04
3.406884508385573003e-03
-6.436725976376074521e-04
2.224864261136814438e-03
5.049340247388903885e-03
5.793166274336629352e-04
2.470617020201357986e-03
5.226328836966451577e-03
8.129893173737469739e-03
8.729454246235062928e-03
-2.515698160411117355e-04
-1.061265044514093925e-02
-2.600978829863204861e-02
-3.688797902078532615e-02
-2.284724111298486529e-02
-3.500570604672841469e-04
5.034495355253429914e-03
-1.273517519408956652e-03
3.634827605069093333e-04
2.838596881691468187e-03
-2.095632364167196557e-04
5.918042191745973360e-03
1.213866981050237999e-02
7.771286373234338914e-03
2.651172386406939682e-03
2.055873026578699473e-03
4.257417494231760871e-03
4.371184500984265538e-03
3.914231333589957527e-03
1.199988466620700552e-03
-4.617912525741183286e-03
-2.940282488073409604e-03
2.979722852740437043e-03
7.686518101926212952e-03
1.212839833950882934e-02
1.201668772625653567e-02
6.575643724112841676e-03
-1.205146201027120769e-03
-4.526232332513169601e-03
-5.583550387852044376e-03
-6.351456993886935541e-03
-1.587105888441591676e-03
-1.780980209793962951e-03
-5.097811361967899933e-03
-5.005526945958042526e-03
-9.044801285830909171e-03
-7.772301397607737222e-03
-1.961697721816194583e-03
3.815710957423217682e-04
3.002681996028365788e-03
-2.377747785703609312e-03
-9.584494224401485934e-03
-6.492365424348208423e-03
-1.213494752229366978e-03
2.130340553944886587e-03
2.498100372510034597e-03
2.377217234144851990e-03
4.263170057970529572e-03
-1.029166037241083676e-03
-8.270319550926111957e-03
-3.083611547773658021e-03
3.903805909920916167e-03
4.489550772767746632e-03
1.089810839127981247e-02
1.514757674646509747e-02
1.396074270340859173e-02
2.394278661549670631e-02
2.276767536927920901e-02
-2.805408809048655881e-03
-2.100925544594310981e-02
-2.489495311654280757e-02
-1.868999572322993866e-02
-2.751581316202256992e-03
4.223152919793925035e-03
1.013349186601229888e-03
1.123731311289330893e-03
4.428961923500100532e-03
4.014280036551759294e-03
-3.195684198605274005e-03
-5.697515799476782737e-03
6.858048690631655974e-05
-9.341290448253901585e-04
-5.983465175092117332e-03
-6.288205486304655235e-03
-7.933507071539457750e-03
-4.910937938413717160e-03
7.089368420634531952e-03
9.514065912020747487e-03
-1.302971474735344342e-03
-7.086578396045694131e-03
-2.624686276664395159e-03
1.938610211407859000e-03
7.305905528649268908e-05
-3.498580683159639802e-03
-2.282051274171623123e-03
6.107978004588148456e-04
1.296161561150706515e-03
3.987509057308129788e-03
8.331363745113357783e-03
6.985600301005668103e-03
2.946585155188992129e-03
3.645624957273361361e-03
5.296245009846354407e-03
3.149142989996422254e-03
2.881595055126060217e-04
-5.697334532400694329e-05
-6.586021774228255571e-04
-1.490929442005499038e-03
1.235807176202844858e-03
1.053316218992965143e-03
-3.821665420845490966e-03
-4.266691190370461989e-03
-4.117839689227956700e-03
-5.769218629973112307e-03
-1.207722499615305556e-03
3.514900922093055612e-03
6.870226457786082373e-04
-2.616082620222345313e-03
-3.537428447787636411e-03
-2.461089504618462105e-03
3.798932741703958758e-03
5.846017690361435780e-03
1.851528031968632457e-04
-7.653675217251661948e-04
8.647611986816152374e-04
-8.996234502065313457e-04
-3.300632946605775928e-03
-4.627222729896724070e-03
-1.683583700665838064e-03
-8.281415273614857638e-04
-5.934187285711560803e-03
-6.011415451406898827e-03
2.323923480805846942e-04
7.620432592200365902e-03
1.656403726836864349e-02
2.555132757865696824e-02
2.265752238108362585e-02
-6.613668433218969443e-04
-2.492392951242122096e-02
-2.982760913587080218e-02
-1.935171684181801258e-02
-4.830116158078594235e-03
3.789333758787410706e-03
5.548553202302519693e-03
4.298039207996420460e-03
1.473307739463980805e-03
3.847007399586049956e-04
-1.070859130483948042e-03
-5.276374191821156523e-03
-5.583767452492558077e-03
-1.310770871474257831e-04
3.497764383377669883e-03
6.189547835375895299e-03
1.244347405051905199e-02
1.610224198152791428e-02
1.320409911219172679e-02
-4.422032311230804261e-04
-1.564648806982741822e-02
-9.948578500479539344e-03
-1.741902187182632926e-03
-6.178109448142146860e-03
-2.668267985170839213e-03
-3.811268556825932186e-04
-4.769212229695083370e-03
-1.878141098922477470e-03
-1.203686528330577673e-03
-1.483582784042712915e-03
4.716847566698540231e-03
1.021200673435653308e-02
1.531963618993212838e-02
1.995709659742721589e-02
1.642993483909901270e-02
1.872618496915950872e-04
-1.702762119648557060e-02
-2.088222967470881181e-02
-1.535123977926155896e-02
-5.256147028330218456e-03
2.195692768808014169e-03
-1.922482325057414676e-03
-7.089718040678247291e-03
-2.670077358663981194e-03
6.028943005536478543e-03
1.146320471637849066e-02
1.212555005788710193e-02
8.137190590521869993e-03
-1.440461411233289043e-03
-6.642659248126033152e-03
2.720697610705462657e-04
1.669234259639019394e-03
-1.157763330852067118e-02
-1.870010539857061213e-02
-1.285108031833073761e-02
-6.470608189059627417e-03
-1.064977123726126721e-03
3.387028410908318483e-03
6.289078069718885208e-03
8.184913147217818055e-03
6.396213239486811877e-03
6.572083493671499778e-03
7.565023428367291004e-03
4.912775110142858677e-03
3.683113194953787500e-03
2.695502944470855484e-03
2.177160165984801023e-03
4.295107132829407677e-04
-3.840340885700692722e-03
-3.047376560655406727e-03
-1.595905674370375841e-03
-7.455390150052458847e-04
9.508696934167429901e-04
-3.933870767531691751e-03
-6.865706757019301477e-03
-2.108400320748521350e-03
1.082405555612986217e-03
1.911458524782482871e-03
4.399203868500100797e-03
5.016007053732817952e-03
-4.220523610998021496e-04
-4.460962914088107897e-03
-3.550224496705420545e-03
-1.916674515858786398e-03
-6.944493046548797519e-04
-2.964857014706012445e-03
-4.237972401774814379e-03
-3.055267887958333563e-03
-3.856913344378294986e-03
-2.521869947148358917e-04
5.787191545675531359e-03
8.789140412371084302e-03
7.822334383183259660e-03
-2.395033138112337076e-03
-1.360486837717341663e-02
-1.219918869265717784e-02
-2.371975847447361108e-03
4.512542770379802080e-03
7.045152189983002258e-03
6.048762837894960942e-03
3.562353573722548076e-03
4.911847174558653557e-03
3.465817288630356104e-03
1.878346149596761766e-03
4.072122692996765075e-03
2.553399480660659094e-04
-1.634036284043109948e-03
-3.866018675027552663e-03
-7.956517250817073464e-03
-1.538445185225490374e-03
1.644584149800046649e-03
5.566565876295254123e-03
1.253704856367061742e-02
9.720613186888169346e-03
8.580685250940770989e-03
-5.265515292136635321e-03
-1.864018722767971786e-02
-2.431105103459793061e-03
2.743216423541422998e-03
-7.308644182353322971e-03
-1.078016227158790259e-02
-1.375351168303815853e-02
-4.193394218920944334e-03
3.271938704334940908e-03
-1.114269608167083080e-03
-1.885218820448978641e-03
-7.358732663379845620e-03
-8.506270437795266856e-03
3.536165207779507218e-04
5.991716402032461371e-03
1.370631405460310398e-02
1.732650500768995877e-02
6.388931786378657975e-03
-6.463795982289786447e-03
-7.415101632557443388e-03
-2.286931138078888461e-03
-7.454517154915666580e-04
5.464048857665863672e-03
1.262597000461452082e-02
4.785427772505950784e-03
-7.119629294635332339e-03
-5.758263696277769392e-03
4.632708989853257658e-03
1.182621783677623335e-02
1.033933412798727740e-02
2.616168767387750446e-03
-3.364389409681774364e-03
-5.053075222900736685e-03
-8.594317653873808152e-03
-1.017075327514083485e-02
-4.709978786906659706e-03
3.441268080212466374e-04
2.678392110722439389e-03
2.440533856287248511e-03
-3.757037041810804348e-03
-9.936077220994102982e-03
-4.888914921997128231e-03
9.429638092315657458e-03
1.688531012216708260e-02
9.768932047557271625e-03
-1.880401463634667628e-03
-7.819065617171327975e-03
-9.814646045178983605e-03
-4.885425498489289441e-03
8.064230001299941414e-03
6.487959058161560377e-03
-3.443265227213870589e-03
-1.839871458502721931e-04
-4.480293872671394124e-03
-9.125305099985275489e-03
2.024942498273123778e-03
6.743155012028911313e-04
-4.522200566742518024e-03
-6.226127442293316258e-04
-6.272179712940339699e-03
-6.235120741989266281e-03
7.201303918847141647e-04
-4.201726337478262595e-03
-3.239528727538600310e-03
4.045787862711737459e-03
2.094137876314054996e-03
1.273147906467469309e-03
-1.381148142212975998e-03
-6.100588720716430650e-03
1.214615796943972428e-04
3.963721266192307691e-03
3.211225821727471067e-03
8.243977670701381141e-03
1.087117536969966353e-02
1.663051569750523262e-02
2.446917204474064605e-02
1.296354977338699810e-02
-1.074304383201329753e-02
-2.018833894299018258e-02
-1.462552649177574493e-02
-9.554186112845875975e-03
-1.322721235839664864e-03
7.949690031815961899e-03
7.605678349595706815e-03
7.213738563873481682e-03
2.957123179575985028e-03
-4.140937025736427662e-03
-3.378260294061015238e-03
-4.632538627400496420e-03
1.451344174044057406e-04
6.374001105601716406e-03
2.604442518740636165e-03
3.266875186911168214e-03
-2.874685808940499743e-03
-1.119024794146416049e-02
-8.325862479478762096e-03
-6.481354238204953960e-03
1.202624856058216729e-03
6.173629310618261937e-03
6.388530045225979982e-04
-7.428194952084410385e-03
-8.845155104719981329e-03
9.639171967231487809e-03
2.487755228963196407e-03
-2.488980142069274412e-02
-8.249311886114692530e-03
7.035469218797797512e-03
1.076835180965124341e-03
1.061840776983121251e-02
1.150226683319358935e-02
3.037891160702801355e-03
-1.866348967942967844e-03
-4.559641821274470867e-03
-7.136117978223760440e-04
-4.924155888805442811e-03
-7.069722922618588805e-03
1.211657133350168896e-03
3.348199934017041281e-03
4.082721202244529377e-03
4.560576367128674029e-03
3.825570556443735632e-03
2.987497552537779835e-03
-1.963540561065621644e-03
5.785697512458592724e-04
3.896801479089373726e-03
-6.531904277860602417e-03
-1.310742111356568568e-02
-5.166107878921724107e-03
8.361421258856605379e-03
1.704487030357989402e-02
1.463203007460303975e-02
7.422339949347225851e-03
-1.945160768245273418e-03
-1.143577598913627855e-02
-8.864972296378672081e-03
4.712255603749866337e-03
1.536495845175182319e-02
1.244192397037830605e-02
1.975868962267715578e-03
-3.659150703740703635e-04
-7.519624075572975430e-05
-2.337154635109085690e-03
1.853474509598729454e-03
7.580029489952014136e-03
7.010614046043437374e-03
-4.858593294840119576e-04
-1.698576503915019686e-02
-3.455437054607660152e-02
-2.995363512288209962e-02
-6.660001888188703603e-03
3.748447487515539677e-04
-6.713072092523463333e-03
-9.904324235078426283e-03
-8.662105623775626442e-03
1.762392891648777811e-03
1.094379718808791493e-02
1.946283219156302174e-02
1.608039274581153644e-02
-1.885635945586105686e-02
-2.650799225076511806e-02
2.284223697890667721e-03
6.524178718593656202e-03
3.874629253783051092e-03
1.128599363365983752e-02
1.582501506264628877e-02
1.732916232422492681e-02
8.319072637218422397e-03
1.984258166425910842e-03
2.280761500459011545e-03
9.082401984140269641e-03
2.562141908940981927e-02
2.486890358034161627e-02
7.052893977453455164e-03
-1.183143368091991998e-02
-2.475599859617384074e-02
-1.824671565449204752e-02
-8.580489808158075354e-03
-6.968083889377280939e-03
-6.653756807334791287e-03
-1.030285613080055181e-02
-8.530369029627820482e-03
-1.885539371240865835e-03
-9.150469993457295212e-04
-1.259187005516573679e-03
4.376011350467794506e-04
2.753271052892135827e-03
1.904826545607407216e-03
-9.935787882412604102e-04
-8.632867175953056610e-04
2.743565702469064581e-05
1.342733463485184945e-03
5.773708120074017361e-03
9.977495225825094155e-03
8.014206755808659863e-03
3.235219689028139348e-03
3.582474780778546839e-03
7.130788236606921439e-03
7.625508921579685420e-03
2.730421233762844822e-03
-2.932702669033139357e-03
-6.513041354495077186e-03
-7.863416071827696377e-03
-2.038220142620496885e-03
1.862268157264002858e-03
-4.659531519183223065e-03
-1.135767028424344155e-02
-1.504473496180005164e-02
-1.523717382590043107e-02
-1.146177095825413189e-02
-6.011463282269579982e-03
3.064557814052161922e-03
6.746784358899795761e-03
3.617317452118492486e-03
5.092108859478280784e-03
6.951228731574817486e-03
4.896961311558155165e-03
4.038178472187820001e-03
6.879554757661815630e-03
7.203085655650044369e-03
4.638531923287038720e-05
-1.531473660600383632e-03
3.095086254693485851e-03
3.026133569363464657e-03
7.714295796110139970e-03
1.056655432705452639e-02
-2.280858049105118600e-03
-8.603983969998910131e-03
-4.528089427771091126e-04
4.656686807068679082e-04
-2.401542071381461071e-03
1.770496270930626117e-03
2.579405466478937401e-03
-1.460705889903556086e-03
-4.104170993867398837e-03
-5.680963088891937893e-03
-4.681687879424796354e-03
-3.361314785331086415e-03
-2.316990105736275746e-03
-1.399916284196842022e-03
-2.564112798260139749e-03
1.587743312641956561e-03
5.897532870939194496e-03
5.863667001675342515e-03
1.418784029137773808e-02
1.930475788513143914e-02
1.039590799437930049e-02
3.321284410261959798e-04
-1.021963232595857890e-02
-2.046264115815936077e-02
-2.109345927966450526e-02
-9.350276220524972662e-03
4.862164951742535893e-03
8.170001113964053124e-03
9.680770121092486732e-03
1.454040343462473066e-02
6.542394099273131369e-03
-9.497560855820005518e-03
-1.198683039456132152e-02
-2.083601647724600547e-03
-1.003268267510046535e-03
-6.539535317795724598e-03
-3.082480072637685219e-03
-1.831913957749632324e-03
-2.711093179867165356e-03
1.648372554475393279e-03
-1.046027401185786569e-03
-4.306580124089237106e-03
-6.150834092129318920e-03
-1.574577878846666196e-02
-1.983113126324479239e-02
-1.600969687288743629e-02
-1.270065015135377583e-02
-7.959639253034290693e-03
-3.953241444605847823e-04
8.431497735597573776e-03
1.333422403781696006e-02
1.573522508477983098e-02
1.858627807129994286e-02
1.633482456454148427e-02
6.560366637896296316e-03
-2.839759394695517882e-03
-2.233261811824540592e-03
-1.473735382107684792e-03
-5.028744955575962031e-04
1.471035233460835610e-02
2.027089609167433484e-02
7.620413197401085421e-03
3.719441413486944317e-03
8.145589823108012259e-03
1.609137391937375677e-02
2.409078752347301386e-02
2.038985817348135457e-02
1.462819437707166791e-02
1.799556474299201722e-02
2.033613064184832883e-02
8.832381768273429509e-03
-6.865350196106935476e-03
-1.653009632792151046e-02
-2.497885779611589904e-02
-2.064156718399930493e-02
-1.353669686586627709e-02
-2.910835641810037566e-02
-4.048109056810469952e-02
-3.276538571958415719e-02
-3.093680396670400040e-02
-3.250384606047949931e-02
-1.901347732079292085e-02
3.278673297183441662e-03
6.456412567147093093e-03
-8.149983531186476282e-03
-4.409395612919743586e-03
1.610311920140398631e-02
2.536827603948187473e-02
1.848730640846802178e-02
-3.512274940576147041e-03
-3.258843817409720622e-02
-4.650275283093709133e-02
-3.986071035331079787e-02
-2.666861319737077671e-02
-6.033972530767196113e-03
2.876841246856039550e-02
6.103968722964154409e-02
7.748726798525919224e-02
8.117495480947399533e-02
6.428420203198215166e-02
2.862218453702157148e-02
2.024593912536031860e-03
-9.845753142878378023e-03
-2.477689399946200050e-02
-3.190430207744011926e-02
-1.825797031101428214e-02
-6.268795736320409775e-03
-6.568309048934652811e-03
-1.416613860266948332e-03
1.667709772818658578e-02
3.188644385837313688e-02
2.213338698496950668e-02
-4.785453795754589235e-03
-2.059719009823338109e-02
-2.810958027085301916e-02
-3.671465102078246001e-02
-2.813196347757682125e-02
-3.177973597828370311e-03
9.384314296083591175e-03
3.431867030234484091e-03
-4.960746427304396113e-03
-9.130632072911263469e-03
-1.313090673915568753e-02
-1.742278262387370394e-02
-1.137924377166591762e-02
7.894055512845216463e-03
2.147909899958120455e-02
2.430829452475172930e-02
2.612937635986586557e-02
1.389279413143985897e-02
-7.697167562991850606e-03
-1.321436675593863630e-02
-1.969370141987744627e-02
-3.191752594028690604e-02
-2.319549382512025096e-02
-1.132955216673143563e-02
-1.145803524237190910e-02
-2.222477786274206814e-03
1.767587699710333748e-02
3.584759377489764309e-02
3.818683562284244659e-02
1.634536360205270447e-02
-1.209894957476882402e-02
-3.029483740975798256e-02
-3.167155770746598459e-02
-1.622356085289278216e-02
-2.019907128321683180e-03
1.655778097198542728e-03
2.477249710373117478e-03
-8.410404471202227207e-04
-4.635302496691769310e-03
7.576371438208835685e-03
3.219902434329596080e-02
4.744088455838046253e-02
4.022310323252636238e-02
1.488538110368844980e-02
-5.811232094950265908e-03
-9.188198700726894763e-03
-7.365770910942402890e-03
-5.531694265864139058e-03
-7.089362462010969073e-04
2.450472469725229179e-03
3.236928504701434102e-04
-4.512462883075141727e-03
-4.199064632255179383e-03
1.255703457354276353e-03
1.999413838442037818e-03
-1.832011533080049430e-03
-7.501473695214183786e-03
-1.173465636571328213e-02
-8.373546621986657432e-03
-9.035713936080280034e-03
-1.630451222644881126e-02
-1.510439345918744916e-02
-1.301607541130461558e-02
-1.072276196728536718e-02
4.204643074411184775e-03
1.615876879342628691e-02
1.507768866422786076e-02
8.242555976041825855e-03
-2.986158618635969316e-03
-9.905818119380205636e-03
-9.483673924314022646e-03
-9.833758260184351230e-03
-9.394741893708943511e-03
-5.503450597949465992e-03
-4.797795949980529723e-05
5.739283726416852423e-03
1.105856238751355865e-02
1.613373950077812494e-02
1.686862617682809498e-02
9.564692277155941932e-03
2.522119199831983176e-03
1.736120948962190580e-03
-1.469996317076186160e-03
-8.501944693094313707e-03
-1.067043037004484878e-02
-6.592563294148412294e-03
4.511676069512334311e-03
1.465709330164362972e-02
1.069025755402123502e-02
5.942082931029446687e-03
1.063469750831295621e-02
8.525544250808191407e-03
-4.058690140879412083e-04
-5.251457175581051608e-03
-1.110704234005742939e-02
-1.350947877682111276e-02
-6.131116146728370596e-03
-1.337819433111227946e-03
4.437042273470823660e-03
1.653833439411987044e-02
1.831646446713315612e-02
1.355938665727168292e-02
8.954722840292804117e-03
-1.343924321820713771e-03
-8.649910685419853057e-03
-2.268046378876394098e-02
-4.380520085788899148e-02
-4.436994874507121239e-02
-3.766091710404662757e-02
-3.050924979073490681e-02
-3.050839705609847095e-04
3.553786260067866992e-02
5.847968748950498064e-02
6.457885581117339679e-02
4.459381754479977561e-02
1.975512573251548762e-02
5.902408766052515306e-03
-6.561055204440797289e-03
-1.099152860677866245e-02
-4.881910039146915466e-03
-8.059083130037082753e-04
-6.166097777294520139e-03
-1.815368763766178617e-02
-1.951026270664218271e-02
-7.504254190387007507e-03
-1.153233639246381342e-03
1.207689863198040245e-03
9.264964773062113121e-03
1.270149028921416755e-02
9.731921967302858620e-03
7.142509316594782519e-03
2.758755995542213658e-03
2.887492007966270188e-03
9.700429419299496162e-03
1.258225719479065530e-02
1.097562662537678556e-02
6.572603566953963590e-03
-1.213528924349342036e-03
-7.979188664395659922e-03
-1.020512503640464037e-02
-1.235823649319262377e-02
-1.923044525994284035e-02
-2.450403543728981240e-02
-2.944737855522804384e-02
-3.314225995893138599e-02
-2.557543201129381522e-02
-1.792528719046668911e-02
-1.267030806254740641e-02
-5.510728440312489922e-03
-8.746571924488572361e-03
-1.236929802968490810e-02
-9.341798442402068220e-03
-6.692261108066463460e-03
-3.553709420112928985e-04
3.892626828788900515e-03
5.304481061829062483e-03
8.199488753641443958e-03
1.410726909677161196e-02
2.412349035359349220e-02
3.187218433706854454e-02
4.265577089727797672e-02
5.191759059515197589e-02
5.238119507695909033e-02
4.879392506448061717e-02
3.209898732333468091e-02
9.173835001561323962e-03
-1.110217710507827374e-02
-2.379893768091685680e-02
-2.540012248280240290e-02
-4.321885422950680344e-02
-7.135932126843444467e-02
-9.177759674055822881e-02
-1.040030723187665984e-01
-8.136053926769902522e-02
-2.734149008890104232e-02
3.041340090852509212e-02
4.917188977845061981e-02
1.474251627214219831e-02
1.865833752173604379e-02
7.659758598748137026e-02
1.017870765465611060e-01
9.731868460100077944e-02
1.075090776106530227e-01
1.345509540647901459e-01
1.587649984043051354e-01
1.435681359760001274e-01
7.533657032209402360e-02
7.661666151270913466e-03
-2.379218035165396594e-02
-7.156738098023573968e-02
-1.639044315664294760e-01
-2.642266913838222653e-01
-3.146453484798405476e-01
-2.856239406279730830e-01
-2.218527407273230001e-01
-1.358357203060865936e-01
-1.894147425437305021e-02
7.144179119563566494e-02
7.735986966524319164e-02
2.674214762762783942e-02
3.717067853394079302e-02
7.590841683875643175e-02
3.621561767992179104e-02
-9.184363704124751202e-04
-3.080028791569089375e-02
-5.318719336808701292e-02
1.770794590965942689e-02
7.133763282063279587e-02
9.942853210890838234e-02
1.856074328713310240e-01
2.442216413910804629e-01
2.966706942686219151e-01
3.437251458890338007e-01
2.985079064306196961e-01
2.341483531438454113e-01
1.705486556489460015e-01
3.894936069965441311e-02
-9.433548273237402082e-02
-1.679697074475102747e-01
-2.670466987200373343e-01
-4.030988270315433719e-01
-4.465857349207630889e-01
-3.847417852223800061e-01
-3.260470122789480008e-01
-2.806620364384509458e-01
-1.084966224532490503e-01
1.548189417262142153e-01
2.225361415545417665e-01
1.493532630629223479e-01
1.529145252069769312e-01
1.266002370005462063e-01
5.193153651098037643e-02
-9.094539301559225949e-03
-5.649263619014915222e-02
-1.296650015612230318e-02
8.078755135121195446e-03
-5.080023160301684604e-02
-2.128655921864714903e-02
4.754039637388090406e-02
4.868140528011502544e-02
4.016019615514147822e-02
1.002249351949068418e-01
2.113472611542236423e-01
2.137466006451176348e-01
6.814578519996733474e-02
-8.313581296268428289e-02
-1.572230248115443207e-01
-1.466019617281888177e-01
-9.569122204919397467e-02
-4.262650264142255757e-02
3.942025084152995379e-03
3.626290284827457522e-03
-9.949909579931279918e-03
3.469500436610769428e-02
8.305594213968478523e-02
6.674847756940757715e-02
2.901310449216182308e-02
1.770323064205205771e-02
1.976689446393669822e-02
2.698728888230891854e-02
3.579716640546233564e-02
3.754119574826947359e-02
3.747531469628972989e-02
2.751365478086828173e-02
8.926006783943682757e-03
-4.918431951042346456e-03
-2.244336124039502181e-02
-4.012855866149181439e-02
-5.253667398701741820e-02
-7.484145686963766808e-02
-1.023095805791661289e-01
-1.158889092446658414e-01
-1.123808092328436592e-01
-9.103221070946269922e-02
-5.294461709417512540e-02
-1.049500617613870201e-02
2.847100049537949068e-02
5.082555675833472231e-02
4.450100616391700764e-02
3.933089788311611157e-02
5.767388636576869371e-02
7.258045008760556638e-02
5.474465605318357131e-02
1.599673237096721403e-03
-4.218501721410878452e-02
-2.915811014285998523e-02
8.101824940638515521e-03
9.877361559679871325e-03
-9.102740522953491065e-03
1.129107863326893162e-02
6.139586944477249536e-02
7.427063627846357263e-02
4.028579327121318415e-02
1.505057589526870646e-03
-1.202620588928077737e-02
-3.971633690999047499e-03
9.435637674188553699e-04
-9.796904692530347247e-04
3.533729776177614335e-05
8.777876348244001772e-03
2.352813791845153116e-02
2.801216688170945698e-02
2.235991462727672172e-02
1.335801573455188719e-02
-4.145959241818259269e-03
-1.894537408572596546e-02
-2.406159940498705727e-02
-2.177806157337988310e-02
-1.241258854427428060e-02
-1.132726570076782527e-02
-1.894972092645039533e-02
-2.454922114659423282e-02
-2.919011698766502821e-02
-2.513699079692081548e-02
-1.921978160177062814e-02
-2.325360275209118269e-02
-2.362957595908763558e-02
-1.938162447045292669e-02
-1.488623137828054034e-02
-6.066948682226152266e-03
8.596214297918174530e-04
6.391096284812324523e-03
1.010387071326530016e-02
9.159722455167981781e-03
1.202894683952720686e-02
1.584291996595155183e-02
1.667182788372305324e-02
1.943349929281094207e-02
1.948779624074463424e-02
1.350076204496618824e-02
5.448794577383975560e-03
-4.610470694258320297e-03
-1.319221378361102107e-02
-1.125524538922500865e-02
-4.916612982622315005e-03
-6.233643523675758656e-03
-8.199634575539752057e-03
-2.339505635745050757e-03
7.414733489320663590e-03
1.054319093814867249e-02
2.910970116383461382e-04
-9.219983158781600019e-03
-6.301109941178965543e-03
-2.200559637011187224e-03
-1.750624941034851709e-03
1.849318657261447927e-03
7.346069970139998059e-03
1.071111357360576312e-02
9.597411514003532582e-03
1.835953242121677285e-03
-5.349488124409416262e-03
-8.356997187940884766e-03
-1.131294394095070689e-02
-7.109064012850009259e-03
2.911826571077227453e-05
-3.510372158416617816e-03
-8.128961551654698137e-03
-5.708434361552157214e-03
-1.734745606128647918e-03
3.069297985699801640e-03
8.847122643347473184e-03
1.348931688512704057e-02
1.635149848372054876e-02
1.798098837232063249e-02
1.855406966324398693e-02
1.661151191677492228e-02
7.987953151099720303e-03
2.999155904141417861e-03
1.022688070871882564e-02
4.026164594919373792e-03
-1.319087997573980924e-02
-1.310753192001271744e-02
-7.153179684724428160e-03
-1.672365366852858947e-03
2.731829431520614235e-03
1.134240756307048357e-03
6.188136701774663018e-03
1.476361720589349641e-02
2.462436611818627497e-02
2.214127488580825559e-02
4.714831877463760887e-04
-1.141026234337663182e-02
-4.117076613384574452e-02
-8.259459495391752171e-02
-6.558687998327791813e-02
-2.808310728895165032e-02
-1.785739337509869087e-02
-9.267934277148245567e-03
5.511134000060968589e-03
1.573144215868891096e-02
8.947111106077897114e-03
4.056745821825804080e-03
1.613382653059097088e-02
2.047250592974753439e-02
1.899152088610641873e-02
1.729506634899954237e-02
1.464937307304769488e-02
1.903558754684322660e-02
1.649298787954936799e-02
8.429624053866350761e-03
6.457416662126672612e-03
6.667401609309072698e-03
8.805254216604658027e-03
7.688889574135419729e-03
6.139764511420077973e-03
9.536608718494760453e-03
9.242678501894852766e-03
6.988653332360830750e-03
8.075242462743905530e-03
6.099379626199346975e-03
-2.572695537239997124e-03
-1.213299084888476431e-02
-1.843257462164585997e-02
-2.032494089945250174e-02
-1.758153107032127752e-02
-1.512135837146815452e-02
-1.313224927962303515e-02
-1.169095447480648919e-02
-1.102158589186274726e-02
-4.542246111773570218e-03
2.796740659686003665e-04
-1.088265629397209416e-03
1.944582225923143512e-03
3.708937900530364078e-03
-4.865249111998504964e-04
-4.692976898212135274e-04
2.278335180740440665e-03
3.574767600918238308e-03
5.602892959272476499e-03
1.992460511892936176e-03
-2.889692636123745821e-03
-3.707305708130291099e-04
-3.223791303305877532e-03
-5.117505846817384935e-03
8.107405714272097018e-04
-4.325750796180448561e-03
-6.955848202244627881e-03
1.740356568579057945e-03
4.711200885181487594e-03
8.247396777333576567e-03
9.701457558925473748e-03
7.685157354978806518e-03
1.263728222144546408e-02
1.102762735331304020e-02
4.052466720911303104e-03
3.878009786501443804e-03
3.629916165787549446e-03
5.668932346343775498e-03
9.764158049972909703e-03
3.933459497542233368e-03
-4.586543568983609577e-03
-5.940005910519186895e-03
-6.844050243027165192e-03
-5.909775108734412023e-03
-2.560585855051918363e-04
2.831573280318764284e-03
2.666122841631328802e-03
-2.183855023851830404e-03
-9.535763067591259898e-03
-9.743198022673442774e-03
-6.784505328060438760e-03
-5.795316624132483552e-03
-6.414633196460987549e-03
-9.440570960416528115e-03
-1.039117793287707564e-02
-9.855224632998583340e-03
-9.377924610898979996e-03
-4.904539678074891669e-03
1.029931043174802047e-03
4.694287771287837530e-03
8.299474432768955481e-03
1.147534029187805699e-02
1.023035071061299123e-02
9.608193881651853202e-03
1.229330722340862304e-02
9.277315680109810003e-03
5.206448735703568184e-03
5.688124036675220284e-03
2.078145407779785625e-03
-1.114641990891278083e-03
2.614545650374442039e-03
4.012389404965382295e-03
-7.402912408982251051e-04
-8.099961985017577193e-03
-1.720390605317042090e-02
-2.080332568022523476e-02
-1.443505969229269548e-02
-8.538870843103441716e-03
-5.481686025048478419e-03
-1.844813102376706556e-03
1.075315914465721978e-03
9.752714160495060819e-03
1.743242147597832276e-02
1.680263661721308546e-02
1.790095551417546574e-02
1.089828880712289012e-02
-5.298188078214359151e-03
-1.212436233232435170e-02
-1.477068023950041907e-02
-1.432764701278115352e-02
-7.190936774248401706e-03
1.773031028150882666e-03
1.910996890863688943e-02
2.780785285129520196e-02
1.161707770234157201e-02
1.182336068068373127e-04
1.792879371800591226e-03
-7.626129386339059206e-04
3.544323266435019711e-03
1.643406924632902569e-02
1.244194312131385524e-02
-7.149389809039710143e-03
-2.124393132363562933e-02
-3.193943369674563659e-02
-3.771409579482682545e-02
-3.107818515259307135e-02
-2.569360139810926077e-02
-1.381799728937070128e-02
1.127723309750178378e-02
2.117091808171863224e-02
2.117974078242398916e-02
2.315729517442613808e-02
1.267399802852538747e-02
1.780958590733618509e-03
-3.736638895151199718e-03
-8.957057808011439914e-03
-3.150031516870678821e-03
5.285723545814092691e-03
6.360925709274407348e-03
3.820130150542960182e-03
-5.908119768352881190e-04
-2.565150696879262612e-03
1.016044904553758304e-03
1.074131247490879050e-02
1.417044794601149751e-02
6.811813650122648320e-03
4.258881680624446511e-03
3.788109153544191691e-03
1.392396672668434364e-03
9.326535348900340423e-04
-9.169451062643405991e-04
-1.391703283987379830e-04
1.766969531727921421e-03
-2.867845951386840454e-04
-6.379439164193179655e-03
-1.373542810987184171e-02
-1.210028199653728764e-02
-5.021475272436464951e-03
-9.037231248127357156e-04
1.157561472851907245e-03
3.484081499497898105e-04
-1.985124541788349864e-03
-6.752347591243004765e-03
-5.729286118836100783e-03
6.445644218336768309e-03
9.042560008585769082e-03
-5.217098164311174567e-04
-4.637611976629162774e-03
-4.463486772362145610e-03
-3.646524951987680039e-03
-8.643759720242122227e-04
-2.578155450928620342e-03
-4.067782878156639241e-03
9.127348139790639539e-04
-1.620321386256051753e-03
-4.648527816573176652e-03
3.892945600397440618e-03
6.294030555539404347e-03
5.847319730855086647e-03
9.824870085641606091e-03
6.906009224856933700e-03
1.130630198044923432e-03
-1.800052397105129064e-03
1.794558948837187556e-03
7.623053354402600443e-03
8.553569076221756787e-03
8.254999372055255372e-03
1.199912569661285835e-03
-4.421385212280277456e-03
-2.671862252715556489e-03
-2.696204687372361075e-03
1.320013998739398564e-03
2.256705586723787085e-03
9.185583011923557613e-04
6.430682033008321185e-04
-6.604776351741574805e-03
-3.977124999411872121e-03
-1.255808804879455370e-02
-3.290710056142463757e-02
-1.417334544282857108e-02
8.589933732459177629e-03
5.287259336832364834e-03
2.995114546527658742e-03
-1.709521359643611420e-03
-2.203960198705479621e-03
2.808318909324321322e-03
3.535619855163442925e-03
4.868561907894743308e-03
2.203832240178427247e-03
8.682277423955534054e-04
1.398515946423095624e-03
1.907760955362479112e-03
7.120734480059801030e-03
5.740989165921301166e-03
4.577972201083906284e-04
-2.286741401972081610e-03
-3.677565726489269828e-04
7.206496803046077287e-03
6.471967876312521156e-03
4.129101905517583264e-03
4.451952775028944140e-03
-7.118493217305692363e-04
-3.581765661246580704e-03
-4.961676882792217733e-03
-1.553020372805895971e-03
3.240037911741480790e-03
-2.284070737783124548e-03
-3.494043958622070241e-03
1.424922788650009788e-03
7.932632853135540302e-04
-4.055379284618862781e-03
-8.295119162724127679e-03
-5.334759719672009168e-03
-1.712492724884653091e-03
-3.446924505146969908e-03
-9.945232675132877585e-04
6.276654874909796088e-03
5.122642644018138465e-03
2.217727788818633201e-04
7.307121819316738341e-03
8.908841786001967314e-03
3.740748819917375217e-03
9.167638530974631106e-03
5.706733509241210256e-03
-8.131476485276890832e-04
-4.285626793766160285e-03
-1.453443676460098276e-02
-8.313383932838992393e-03
-1.327219043253003751e-02
-3.410610169780965706e-02
-1.079206418384584011e-02
1.729416911839914278e-02
9.756288994202619649e-03
5.867033606652532693e-03
5.539551202278484958e-03
3.097954405017323051e-03
5.659609049349026075e-03
1.377380418194826522e-03
-3.366473771087333342e-03
-1.191960319173320740e-03
-6.829067419581556645e-04
-5.338452817143917242e-03
-1.080757849632590570e-02
-1.040821879942495191e-02
-4.403124602569138263e-03
2.703315888172117421e-03
7.482900917515325663e-03
1.177393204150281592e-02
2.097300744172276091e-02
2.897302037322919965e-02
2.426929617271854356e-02
9.181204755025533515e-03
1.602256638196805443e-04
-1.073817686364837709e-03
-1.123682742197574733e-02
-2.264844204239018985e-02
-1.900837631404707698e-02
-1.001862024213268088e-02
-2.359785095001475097e-03
3.573453799624041766e-03
1.513255985207405917e-03
-3.157228284817441971e-03
-4.193781074739696794e-03
-4.438735163208854494e-03
-2.555044447033313383e-03
-5.778989207609420758e-04
-1.063096654071421510e-03
1.425095708402026413e-03
1.892469550389786186e-03
-3.119380041317471736e-03
-6.336871452225337252e-04
5.068220724027929641e-03
2.761446526456582621e-03
3.159723807977492770e-03
2.551747237124781659e-03
-7.484772776864207292e-03
-6.108904680777003417e-03
4.298165222700708193e-03
3.534858579155525284e-03
5.454284526094979428e-03
1.023511200731958351e-02
4.760517019991276563e-03
-3.798357960214403034e-04
-8.137042917201062209e-03
-1.098098878498454320e-02
3.241627858438400622e-03
6.865853615415106782e-03
1.215011666192508276e-03
1.777683976785411840e-03
-3.146777567605992497e-03
-6.558302518741396421e-04
5.010430485355761403e-03
-2.312726074348926079e-03
-5.944038751275115481e-03
-1.085622755809912722e-02
-1.310348836982463093e-02
3.211890244485825913e-03
9.783418529450750925e-03
1.771440214169100850e-03
2.389487226142983985e-04
-1.241977996989346127e-03
-4.569259207910799682e-03
-5.340405466043147108e-03
-1.683285990491661640e-03
7.197763076898932785e-03
1.063004672204142902e-02
6.428793770929995544e-03
8.460069954152112538e-04
-3.104094194055883726e-03
-1.656834949799302617e-03
2.196474272807606275e-03
2.974633499712151397e-03
9.283128694561552235e-04
7.470467212891752137e-04
2.508076862422515922e-03
-9.323104669001958025e-04
-5.422972266384805569e-03
-3.072948715329078349e-03
2.926759653975227835e-03
9.991934514283011201e-03
1.222125550019217619e-02
5.581076250065221921e-03
-1.824059743430919527e-03
-6.392683633828618629e-03
-6.420185432180324642e-03
-6.560317739276899001e-04
1.140583057703832082e-03
-3.917868985998658286e-03
-6.976240899770513176e-03
-5.175524601359590519e-03
-1.528707481918152112e-03
5.828676979105196741e-04
-5.618811056839309766e-04
-3.653886179950994930e-03
-8.344456407536253104e-03
-1.233724938716805435e-02
-1.022678266901855260e-02
-2.352144423347875442e-03
5.863206763521111066e-03
8.983995509524280235e-03
6.118000169384734711e-03
3.793293983420991441e-03
3.097085358312669755e-03
1.785932098279370810e-03
3.902704713561892195e-03
3.568353745134258351e-03
-2.288672485276742243e-03
-1.745542802956440154e-03
7.322238943725321424e-04
-1.048966037949556392e-03
2.687091874879018582e-03
7.243149990165948307e-03
6.988879598186060506e-03
6.574718360497238193e-03
2.052045661149858122e-03
-3.573061048645698786e-03
-7.274226644176936575e-03
-1.053802933778146163e-02
-3.561785109246660801e-03
5.528169875108044501e-03
3.784172562935052015e-03
7.568255810195686443e-04
-1.588727170502256258e-03
-3.411106982823752624e-03
-1.301941871062012269e-03
7.448892312065871768e-04
2.248931424924348332e-03
4.702903636781247500e-05
-3.479525370711554141e-03
-1.610777821352535766e-03
6.597548082247268629e-04
9.114496825801506530e-04
1.832928624416807050e-03
6.523862101382018296e-03
6.145264782381900694e-03
-4.521564487698565178e-03
-5.245405556893779214e-03
1.529905171423357087e-03
5.624171172225529702e-03
1.213210558366399454e-02
9.307254746283608743e-03
3.179399457151063819e-03
-9.645158384627485273e-03
-3.746944087071207852e-02
-3.199035385662466618e-02
1.102399325466999922e-03
1.022172856155382017e-02
9.964820893726003895e-03
9.524047590116534526e-03
2.119505786461327746e-03
4.620071651246873305e-05
1.432367959990799239e-03
4.682650006634122078e-03
6.499869500726807373e-03
1.596732087146006786e-03
-3.066696791087955391e-03
-5.672916595492826126e-03
-4.795781498169878442e-03
9.429013319641885637e-04
6.412627604707406281e-03
6.296675332093593785e-03
1.797385805312990423e-03
9.876377639137247345e-05
-1.287903377131628842e-03
2.270590045970057415e-04
7.496896530489271723e-03
5.362822933696744648e-03
-1.715407663690509841e-03
-2.365462498647092834e-03
-2.778800236463479546e-03
-1.043064292493052795e-03
5.454529917185445059e-04
3.232233874904197205e-04
3.368388131668467733e-03
2.001830337556378156e-04
-5.380164060926596881e-03
-4.949117342775757704e-03
-6.753533744563527952e-03
-3.824564855674128256e-03
4.033944378145261009e-03
2.464510896358227711e-03
-2.804484362583985722e-03
-3.639102975165140873e-03
-9.551827301551129700e-04
-1.071978236129073666e-03
-2.338022468988890188e-03
3.890633432810831991e-03
2.595329260801926014e-03
-2.732264082666401809e-03
2.438201073983128735e-03
1.274523901447020390e-04
-5.556631304518851568e-04
7.280102672628054050e-03
6.172304466376435719e-03
4.606713472948076663e-03
-4.686578024203794622e-03
-1.622854029881327931e-02
-8.550886105141748336e-03
-2.995470775841060744e-03
5.029052152055167070e-04
9.878827908521964005e-03
1.048614843666490805e-02
7.966057403123777761e-03
6.377918344191143250e-03
1.143298929319536486e-02
1.384527877200185039e-02
-5.119426409970199987e-03
-1.890290600094138990e-02
-1.373134746379763710e-02
-6.304487335092737524e-03
-2.112065596951901315e-03
-2.561864422611637160e-04
4.468597249294392788e-03
6.729408546364712244e-03
6.156824442001138792e-03
3.093104288678059054e-03
-9.982198407464337730e-03
-1.256778004271055620e-02
-2.412449878860564289e-03
2.108567429942369894e-03
6.827525643162441794e-03
8.744988164460945276e-03
4.140614836861014440e-03
-4.276350266342658808e-03
-9.609048792706574235e-03
-5.823905776681792545e-04
4.578271530040988607e-03
-4.514234858149681197e-04
-1.498193274862199501e-03
-3.490066422432976621e-03
-3.522487328298240516e-03
6.883972076797257277e-04
3.481951751843963445e-03
7.004187223305569608e-03
8.255794484460865848e-03
4.335555065780285350e-03
-1.787723567037629484e-03
-2.322826735908624027e-03
7.229330735672319895e-04
-7.338432134293091389e-04
2.772549257122006866e-04
9.121893674064534500e-04
-2.258464522115064248e-03
-3.471102319447263128e-03
-6.904774611878787896e-03
-6.317204252470124543e-03
-2.811091772158192358e-03
-4.094774759096942232e-03
-1.043212837770295912e-04
2.667000434711877272e-03
6.622456844986804669e-06
3.857034432590263160e-03
7.094407570893843107e-03
5.904590317516326958e-03
4.689619504597939727e-03
-6.157742560938123111e-04
-3.782515356301443393e-03
-9.827234768503773435e-04
-1.427454252158432465e-03
-1.184604260435122378e-04
5.286841246063834696e-03
1.810676650192565365e-03
-3.080405971491174434e-03
-3.874677845888889298e-03
-9.336078442513337863e-03
-7.650385560791527796e-03
2.097101820934550893e-03
7.547031159387493707e-03
1.022819563411470935e-02
8.517366637174427976e-03
9.158637295188093441e-03
9.184161791164336883e-03
-3.940832963066995091e-03
-8.847324892321350651e-03
-3.363978107967754202e-03
-8.293956220239104629e-03
-1.096490773076101884e-02
-7.406173583562861498e-03
-7.229911986570242491e-03
-3.635726205017280645e-03
3.289375168388225003e-03
7.417353985642445927e-03
6.338182156059654279e-03
3.247577078370784010e-03
5.376984681087191437e-03
8.109455306290676638e-03
6.112863958011987946e-03
4.791791193751214831e-03
6.624173599365732086e-03
2.405151079049865949e-03
-1.072124090067204036e-02
-1.295295805888469452e-02
-3.480491762588091686e-03
-2.662188551019795991e-03
-3.955068103258717500e-03
-4.319677730167815165e-03
-9.281310622257985671e-03
-6.121030770464502488e-03
1.295382445200246981e-03
2.079005367689762841e-03
1.337026989589124243e-03
6.369306641843937517e-04
3.907264431830235227e-04
-5.319498765876488075e-04
-2.422892779715917540e-03
2.187964111878849208e-03
9.165385227384853853e-03
9.477882872754453750e-03
1.034284611643107414e-02
1.071790364436498062e-02
-6.176774922222982552e-04
-7.604230562568114506e-03
-8.249589921038100052e-04
8.260975837758163451e-04
-7.112549874999250701e-04
-2.370422720992582111e-03
-1.033030976715447642e-02
-1.021623825065644947e-02
-1.399205576793162865e-03
5.333943728195437821e-03
1.020581829376891216e-02
9.626235462033673820e-03
9.033225371262216044e-03
8.299728654134745642e-03
-6.482806631933060379e-03
-1.943242004846141777e-02
-1.262486614852670504e-02
-4.668245932875883866e-03
-2.912267689807760459e-03
-4.784262600763991677e-04
-8.277569072497060467e-04
2.683676776117670856e-03
5.396626884262333348e-03
1.042817522470753863e-03
4.274028968787950931e-03
5.654026489111820854e-03
2.880892541701377896e-04
1.091118809505060936e-03
2.151804223594318624e-03
5.918797999688903654e-03
1.049261861919315725e-02
5.387678899571249867e-03
-7.753869802259933004e-03
-1.769217379718905289e-02
-7.383743134122325996e-03
4.412891532534831719e-03
6.017979263603329826e-03
3.360164459310683357e-03
-2.403402218914622510e-02
-3.543259714206660471e-02
-3.374060824465351799e-03
1.597303502966987421e-02
2.253832319452215779e-02
3.208377022892699992e-02
2.715998978540554165e-02
8.926281545355702757e-03
-1.400531325968499413e-02
-1.849522102231063864e-02
-9.103037673845947378e-03
-7.362080958946028500e-03
-2.349199107227545151e-03
4.780165002635048820e-04
-3.466127032802034363e-03
-4.798341733903096519e-03
-4.625189594160373716e-03
-6.133730847887393541e-04
-3.576943926917825552e-04
-3.896424625245740493e-03
-1.746843895530033903e-03
-1.326063920104169225e-03
-3.821366397359619253e-03
-1.324897321119778565e-03
6.604068200570949870e-03
1.154858185347003123e-02
1.002047680144046125e-02
3.878701343500216576e-03
-6.618176188483287925e-03
-8.668015457779240998e-03
-2.039511721399678637e-03
1.383020370985947904e-04
2.050966580827768681e-03
1.564390343177562027e-03
-2.976509007882039218e-03
-8.238843928076056578e-04
6.550339930447559786e-03
1.445675368787979406e-02
1.896879694598099450e-02
1.566103209990233475e-02
1.455200966851258500e-02
1.432196332366187513e-02
-7.260909812601629501e-03
-3.336207182693128048e-02
-2.603726441753798082e-02
-1.920914065362613670e-03
6.944428036810827709e-03
5.873805641394378048e-05
-7.330894640277276636e-03
-5.550345332750775650e-03
-4.208574335113985689e-03
-3.432142284892285115e-04
4.084532711755663181e-03
-8.138682762713489102e-03
-1.382376631646452768e-02
-4.742704627368195085e-03
-2.698929949090056197e-03
3.919457769496450714e-04
2.432337027919667573e-03
-1.344565387952649429e-03
8.524199103292672474e-04
3.267526399588314458e-03
2.902672561127119400e-03
2.985494026580359870e-03
3.284820453592213630e-03
5.547515902918492836e-03
5.150557769782362037e-03
-9.184571669649135937e-04
-6.984845435244844448e-03
-5.404435357841371086e-03
3.543633650487485083e-04
2.905446188452480948e-03
9.389862857362768142e-03
1.858032178978188606e-02
1.831409036798016185e-02
1.098142029462719806e-02
4.045315415178021151e-03
2.916490294263535295e-03
7.130055248751040325e-03
2.186888374525607255e-03
-1.614522508558180816e-02
-2.672407841671158024e-02
-1.758609962151503128e-02
-4.523970696484766983e-03
-4.124531806902043520e-04
-1.054587352852025869e-03
-9.923584209798943785e-05
4.652662094705932016e-04
-4.909347137708915988e-03
-4.772587646057876477e-03
1.208912044924233958e-02
2.141913425131927382e-02
4.586082336195170667e-03
-1.431632966463958906e-02
-1.550618300188847699e-02
-8.229719719757579849e-03
-2.218820693181998167e-03
3.657117610266816775e-03
8.917094358923830302e-03
6.462179416876853537e-03
-2.976370136134025160e-04
-3.177740833867100448e-03
-8.602998288764589219e-03
-1.046520369037794856e-02
3.293390127709553208e-03
1.492177031109729810e-02
1.356994682088784668e-02
8.744262481376142981e-03
3.398659484553865620e-04
-7.543527507748477336e-03
-6.928844291900556653e-03
-4.765985956093746201e-03
-7.006198520471897291e-03
-6.133659631705414179e-03
1.019113293514417725e-03
3.592539603084224983e-03
5.308937021907133452e-05
1.523362653840922270e-03
4.552375205356330029e-03
2.177598299398553032e-03
1.462620394252378553e-03
3.727133353602254777e-03
5.459830806303743109e-03
6.818549411840700569e-03
3.981903189012590480e-03
3.500453525722419749e-03
9.295735168745921165e-03
7.457712247576777677e-03
1.411946099352031888e-03
-3.850719603202759286e-03
-1.377259196423510391e-02
-1.324092767070147655e-02
-3.605204420546255679e-03
-2.330269407285360216e-03
-3.367457567565497988e-03
-4.948264840508910696e-03
-6.440465020317786768e-03
-1.378841701936598914e-03
2.043069458245535923e-03
-3.678332699067275561e-05
-4.048510557094890140e-03
-5.669423344544992187e-03
-2.989778217138038680e-03
-2.883503276358597833e-03
-2.504418852252340757e-03
9.627210358837219248e-04
2.550279665337052727e-03
2.519095823079511940e-03
-2.833329500215592137e-04
-6.770244754922174601e-04
2.532895434045005952e-03
2.430910714416899005e-03
6.612657318600198390e-03
1.313923822390579942e-02
1.113750900595838686e-02
5.391697720809013154e-03
1.228460328508725660e-03
4.053388412364815688e-03
7.783385048094089778e-03
-4.121843474531588537e-03
-1.558812774510189188e-02
-7.092172237001697667e-03
2.917033102574352523e-03
5.544675845803181610e-03
8.666788217682571543e-03
2.055862824237886157e-03
-6.832546714259072132e-03
-2.301510861577013393e-03
-3.385153543598477550e-03
-9.216340991088353696e-03
-2.728825240528532682e-03
3.197629108183886772e-03
7.494717592192380769e-03
1.104839554343379875e-02
2.512148687875889568e-03
-4.734658676978918332e-03
-3.655590591089523909e-03
-3.732392611205022533e-03
-2.251902701403807501e-03
-4.474073925110422039e-04
-5.157629934465796789e-03
-1.236664017033104954e-02
-1.618501556979000042e-02
-1.522876034559105321e-02
-6.520833527288737164e-03
3.382542196008558009e-03
5.426687529622780011e-03
5.653991481413410576e-03
5.163202118984994149e-03
3.454523659550822953e-03
3.113677958335452686e-03
4.174560964214316799e-03
1.429387237127044755e-02
1.657359919166299933e-02
8.857483168200636775e-04
-5.653787409721990238e-03
-8.520278117378038765e-03
-1.018883699377018046e-02
