9.231218601917643568e-03
1.340642086482733697e-02
3.653537862096077355e-03
4.869713697265247833e-04
5.700143392328731531e-03
5.663941913039989562e-03
2.539354002560815886e-03
-8.375556434826708641e-03
-1.591924051287704062e-02
-3.805548077162074216e-03
1.300403939769141735e-03
4.156239734930423750e-03
1.042362371850296884e-02
-7.423377509794541751e-03
-1.649138623115042196e-02
-1.250446531929191342e-02
-2.296066668032785765e-02
-1.506475762235988045e-02
1.663648278044483914e-03
6.295966663599249398e-03
1.357566944371409179e-02
1.129609642683402151e-02
6.345365585659567230e-03
4.873854882937809184e-03
-7.967367819614201317e-04
1.679918134504677875e-03
2.037929194329159491e-03
-4.350216668132860301e-03
-7.630401738262741068e-03
-8.868618194273003921e-03
-1.753398993224124887e-04
9.398268025493747291e-03
9.984089647577023066e-03
9.918901986836838741e-03
6.551904183785798100e-03
2.985517366542721120e-03
3.073922823288742501e-03
1.273193695089298123e-03
-4.698577012250942779e-04
3.478734022850688717e-04
1.150025222326290239e-03
-3.091787452726690259e-03
-6.627023749151344373e-03
-4.361404230932006305e-03
-5.951340847726214155e-03
-6.056719284633073526e-03
-9.283679410411387143e-04
-8.708408064586519240e-04
-8.157877715503956224e-04
8.550604838917964399e-05
-6.150343205291006372e-04
3.191799421852793955e-03
6.232398527476789782e-03
6.256610106267165329e-03
4.583083622174256508e-03
-1.713351512512255401e-03
-5.937479576047395395e-03
-4.299826532843520691e-03
-8.375621089458260221e-04
8.816804681666536936e-04
9.650142133696020842e-04
1.817854909638063048e-03
-6.538471251539703473e-04
-3.924862755722261128e-03
-1.433982755285574629e-03
8.825252631026044795e-04
-1.170845245787917148e-03
-5.281435850794193899e-03
-6.739036103086049577e-03
-2.656623626066459409e-03
1.473213609886340775e-03
2.857745128991413114e-03
3.607336622865211281e-03
3.252745149060553426e-03
3.897215988191695887e-04
-4.181036284696896654e-04
2.780794837817409260e-03
1.010229588914786586e-03
-2.346552410878377775e-03
-1.031397443285282482e-03
-2.045624794550330704e-03
-1.135023127610711256e-03
1.861157444002284160e-03
2.426707821400090909e-03
6.512449611513580240e-03
6.729522293933446093e-03
-2.187723080702665070e-04
-3.955204129138851880e-03
-4.073442492902996231e-03
-3.135544748709345048e-03
-1.851082327627448596e-03
4.952524112426951244e-04
2.774031946558275490e-03
1.334069495735107488e-03
-7.049116219254708809e-04
-1.959827380966729440e-03
-2.057196280381226768e-03
1.933058747743283392e-03
4.766161581438443061e-03
1.568970794087108829e-03
-2.991667955239424390e-03
-2.579608950502498051e-03
-4.043519538243360882e-06
-1.687159437861406345e-03
-1.696830824889800646e-03
2.024257374260807901e-03
1.343980527614407504e-03
1.904110172338274384e-03
4.460068502945087679e-03
-2.538239733133096192e-03
-8.538766261860914614e-03
-3.484696976093296702e-03
1.423985691648621467e-04
1.224960282092293082e-03
4.330166700042935822e-03
2.951257899956921150e-03
-2.165146363272336429e-03
-5.635917793221739865e-03
-3.912952766443380907e-03
3.404834201629230485e-03
4.630071013056333284e-03
-8.413070575573823769e-04
4.929098919749612655e-04
2.071518935970672118e-03
-6.086683371517834142e-04
2.591277949298459622e-03
3.138703690255768841e-03
-3.317971877031959064e-03
-4.956844620404801498e-03
-2.248685935709514912e-03
6.412345060852240415e-04
1.891678083088262768e-03
2.487774343210345882e-03
3.668283077603622360e-03
-9.421169913877218112e-04
-4.005707853982959712e-03
6.699001947967016301e-04
1.220438278866971303e-03
-4.050718953753402888e-04
1.677252288914558463e-03
1.904601041783036790e-03
2.625021743305509326e-04
-1.996725098438443570e-03
-4.638598042674028227e-03
-3.143826780054584033e-03
3.463676530727148161e-04
-6.061549665806496368e-04
-6.482613046017779565e-04
7.919141342311909488e-04
-1.234580312016931919e-03
2.956031590449365639e-03
5.003967489439964909e-03
-4.437162401790269162e-03
-4.163671304544758200e-03
4.264130233247633429e-04
-3.786192743210763621e-03
-4.253985437658609932e-03
-2.811962295146774957e-03
8.921188663565283051e-04
5.626317329016940899e-03
1.719458633645131363e-04
-1.354725171595411257e-03
3.617648440299897888e-03
2.004005103158616741e-03
4.497508213511677844e-03
9.790801459749599520e-03
4.730355969131198358e-03
-3.983730053333387942e-04
-2.001588463325801662e-04
-2.524039264582659658e-03
-1.083953561144809351e-03
4.308310264041504030e-03
2.329472298501072351e-03
4.604257514877774259e-06
7.839947737255016256e-04
-2.017129270315914068e-03
-2.394043245970993786e-03
-2.188955909586752947e-03
-4.718067016877477982e-03
-3.971184189475118753e-03
-4.283571479150112722e-03
-5.916592674122114065e-03
-5.025348674117741457e-03
-4.666207396074455692e-03
-3.347113469454569053e-03
-1.677955446697376209e-03
-1.919113163875864336e-03
-3.582482909778695636e-03
-7.104368519613430202e-03
-8.115489947492263503e-03
-3.327605159876340438e-03
4.765400731388224655e-03
1.035092311631046619e-02
9.635042146553520967e-03
5.943822159625991759e-03
2.305160984661961017e-03
1.992056714376299296e-03
3.741511620226645098e-03
3.403497235437304320e-03
7.392250965706830858e-03
1.108749976358715424e-02
5.789985337903859504e-03
2.359325055200674984e-03
2.554437768805663343e-03
2.400522947590267089e-03
6.031935268073266264e-03
5.080596415720366708e-03
-4.216896729256906957e-03
-7.102354630589252649e-03
-5.602408526189119314e-04
2.194410078676803291e-03
1.605669428034076605e-03
1.309682847594472637e-03
-1.234619131266103363e-02
-2.838603341624197640e-02
-1.891511099508202953e-02
-5.312786195352833633e-04
1.733492760776769812e-03
-1.265815320451266213e-03
-5.972646127584383020e-04
-1.337362056394330104e-03
-1.773840344137753069e-03
-2.180617892982963761e-03
-5.269672301438800555e-03
-3.615655852943469497e-03
2.893684103941641418e-03
4.581995462551158131e-03
1.954683075731069013e-03
-5.302694570621458228e-05
1.607617817229146538e-03
5.954771457724288355e-03
7.351898376880412235e-03
7.425781826794144655e-03
8.757921667267973623e-03
7.861789617752143813e-03
3.614194226194241549e-03
-3.176000138841330689e-04
-1.228612673165381422e-05
5.484001196260095048e-04
-8.979320296702087215e-04
5.534380850511696212e-04
1.156114532193169928e-03
-2.290737452138748905e-03
-4.743731149742932626e-03
-4.029348463587985145e-03
5.540551643774268382e-04
4.231793198884769951e-03
1.239577065777002721e-03
-2.815715385845629637e-03
-3.571101823868001734e-03
-2.608374775351450688e-03
-4.516516127485305883e-04
1.162833902132612805e-03
1.956972917060948412e-03
1.831422746083821978e-03
-1.292537285910126373e-03
-4.568472033917649576e-03
-4.605089434502030420e-03
-3.965175304669986758e-03
-4.403390055683683441e-03
-4.992200649355263593e-03
-5.110991117284361535e-03
-2.207262415152315502e-03
3.477707690148692556e-03
6.576962781343341155e-03
5.515322273979115023e-03
1.026659505122533289e-03
-3.320532058038688610e-03
-1.974582288456267452e-03
-9.362565134282252845e-04
-1.103420371853186185e-03
4.344332895904863545e-03
4.905763753416943901e-03
-3.592322369988969265e-04
5.768495886315070818e-04
1.570548070981535272e-03
-1.523200456834355012e-04
-1.854435398727921484e-04
-6.043222485491485125e-04
7.243758471248542890e-04
3.572212706961403871e-03
3.896287634530605590e-03
8.038631722721526363e-04
-1.059917507841771521e-03
5.246805983757257298e-04
-2.042594131465731103e-03
-4.615768956800790634e-03
-2.536317599462785573e-03
-4.416287134368376312e-03
-5.442836277171936819e-03
-1.731628268337451898e-03
8.254815334455104002e-04
2.765612854823171641e-03
2.265145098215166995e-03
3.561657159951622234e-04
1.205442931310361440e-03
2.392365478531203841e-03
1.310179072363477698e-03
-6.156834647836614350e-04
1.368268549915079577e-03
4.295427636046152478e-03
3.096374422937952717e-03
1.724961733093054042e-03
2.875441810531766118e-04
5.049669185684772799e-04
3.455171993401724533e-03
6.484379535546724773e-04
-4.194015238451947146e-03
-3.805720727439705110e-03
-3.306038121730678781e-03
-2.713815242587976247e-03
-8.137111781794462975e-04
-9.281019367204762201e-04
-3.114544144600883365e-04
8.553233213533803850e-04
-1.927839710886623857e-03
-5.181753826523442449e-03
-5.064215851548627134e-03
-3.202273180635656878e-03
-1.015703875121140446e-03
3.541333530611271200e-04
6.499123222909193153e-04
-4.437293567996923507e-04
-1.419977495293372940e-03
9.824887865767760464e-04
4.199045707177293495e-03
5.701012360858388403e-03
3.919847631823694667e-03
-7.061584856797769108e-04
5.023018510556424366e-04
3.902974260101604777e-03
1.714925021283896910e-03
2.522233867390949458e-03
4.006736577914104050e-03
-4.868541119964330129e-04
-1.844633972218519919e-03
-8.891696539094549965e-04
-4.059839382265397270e-03
-3.686514404503115142e-03
1.800500101415679040e-03
1.920021766049166212e-03
-1.964341527486677692e-03
-1.734278653346623886e-03
-1.164774323172250827e-03
-1.730767800638709003e-03
1.374925884045029171e-03
1.811704323235679027e-03
-3.672596617050101313e-03
-4.220077868144540660e-03
-2.622506634166167855e-04
-8.557219408305715867e-04
-4.653829551401792667e-04
4.818358997955044139e-03
6.551053518257171811e-03
2.514264888201186206e-03
-2.738114205971153587e-03
-5.774319677950018152e-03
-3.755557520086487411e-03
1.181764192990924101e-03
2.361101484186353336e-03
7.367526760175598793e-04
1.470342993450416682e-03
1.775855940490763296e-04
-2.852372228789816239e-03
-7.675106278696594781e-04
1.273644680939325534e-03
3.579721002281294738e-04
-3.097161442001125989e-04
-1.653417438421946007e-03
-8.455220688247081125e-04
1.355332624374384985e-03
2.304594199038497142e-03
3.541298690561354209e-03
2.139230454182062396e-03
-1.240592382524975017e-03
-4.562757952352379867e-03
-5.907182817377562740e-03
-1.685560507050382593e-03
1.820477917710532816e-03
4.186599251104690042e-03
6.824343231180560881e-03
2.527935172844446039e-03
-2.537209471298151886e-03
-4.181067633052996425e-03
-3.740055755143626825e-03
2.583887070952502110e-03
3.298986226793612815e-03
-4.847296241462236560e-03
-8.326835280864012048e-03
-8.113268691532450963e-03
-5.043098619037999879e-03
2.696331026218745219e-03
6.806069892512441218e-03
5.686995261946881097e-03
2.107561233022522268e-03
-3.825655492967784937e-03
-5.530189937953958884e-03
4.012515917029736028e-04
4.089890221318381695e-03
2.519959347469446879e-03
4.412573419954537654e-03
6.531882447327763512e-03
3.868942374766837135e-03
1.822571360893759148e-03
6.820338260906696863e-04
1.443640782493779782e-03
3.443312427779473758e-03
4.405969713900719171e-04
-2.594447799040618986e-03
-1.894921774051126946e-03
-1.357366845309050012e-03
-1.119503918577062062e-04
1.321409296913642712e-03
2.597413319011582147e-03
4.605016042528075650e-03
4.045017492598980413e-03
1.178868023898537896e-03
-1.017757925080447134e-03
-1.043040409840729349e-02
-2.789015990280279203e-02
-2.453395133534784500e-02
1.882041053883619234e-03
1.045326606365178275e-02
6.263327834704889583e-04
1.170583297285729396e-04
5.643405556705516531e-03
6.690353924086274960e-03
1.947737089081911285e-03
-1.475917173855403148e-03
1.736628284757737615e-03
2.081311901179881772e-03
-3.139467103796762587e-04
6.552038401718809956e-04
1.658348072776669050e-03
3.198286189213452469e-03
4.056737535225317555e-03
1.956939396960281040e-03
-2.552593671633182257e-04
-2.070757655512738167e-03
-1.333337702795001859e-03
2.217127798354108677e-03
3.670692221912473345e-03
1.283028373736121337e-03
-3.176557653989482352e-03
-4.736956055147628283e-03
-1.523125803686363727e-03
2.412089120322058380e-03
2.291522843188443809e-03
-3.585256496567420202e-03
-4.701435170801544251e-03
2.008022349515068295e-03
2.847860060483828250e-03
5.301594758493735670e-04
1.682026089869948600e-03
2.102321885964904616e-03
3.097688853218246406e-03
1.380069206750101024e-03
-7.822772732678265036e-04
1.193928120172897808e-03
-7.598634712562708218e-04
-1.021925297017177480e-03
1.837418634327006237e-03
-5.573694890826119165e-04
1.042956905518185439e-04
3.984424165105674548e-04
-5.240346467183418580e-03
-5.102073698588332519e-03
-3.364605498093271494e-04
3.039611023856191876e-04
-2.608442664562910223e-03
-3.758930541533341777e-03
-4.032458243923697262e-03
-3.716426976496845728e-03
1.732197187883691885e-03
6.832365557593273820e-04
-6.433004455871869746e-03
-4.336774322265011389e-03
-1.547341427012537129e-03
2.358002616057133685e-05
4.668400516141302074e-03
5.562383527766072769e-03
5.200042103954701823e-03
3.771750668906939316e-03
2.827323485235483380e-03
2.992366082077915421e-03
3.653918605479163041e-04
3.150925525895958458e-03
4.356741607833343466e-03
-3.229415297367305062e-03
-3.659849173353569522e-03
1.277367061709129732e-03
2.180415951853777005e-03
3.137049357442223650e-03
3.973083841032641617e-03
2.379255260285648328e-03
-4.379926660697319794e-05
-1.375558257103019029e-03
-3.246768633540893061e-03
-4.821890201467375452e-03
-3.702932793529821204e-03
-2.906336582600391356e-03
-1.783554785179444595e-03
-1.918273352948853807e-03
-4.491479183160423938e-03
-2.671452135044876698e-03
-4.923041642984543392e-04
-8.066082235710439474e-04
2.164444610670950616e-03
1.963439754975428945e-03
-2.973424425175696419e-03
-2.906632196020431796e-03
3.765619523164078896e-04
6.978568760543682166e-04
6.140443443371585092e-04
3.286370235237100028e-03
5.510203542846023317e-03
3.144903838294597475e-03
-1.276675846299366642e-03
-2.590134561106781277e-03
-1.646984304467750482e-03
-2.399639369252317377e-03
-4.857254989282936038e-03
-4.222704797072094826e-03
1.906735623409922540e-03
7.128152454995166122e-03
7.959486365736069893e-03
6.727367328529069990e-03
1.746466011503392110e-03
-3.236632776152977963e-03
-2.862763924041373306e-03
2.443144301148867737e-04
4.219846536159341070e-03
3.876001204129395691e-03
-3.814556572796039529e-04
3.666463215870110755e-04
3.108276912662645639e-04
-4.108046492514399670e-03
-4.478635041501823587e-03
-3.781233233308368882e-03
-4.749766980912710317e-03
-2.587952074046113125e-03
5.557712325523473220e-04
1.841413674076474404e-03
1.857443378005738110e-03
9.351591119054747641e-04
1.701216009963213817e-03
3.461053220027273704e-03
-3.722632425172842595e-04
-5.922408471624158663e-03
-4.306222279392059142e-03
-3.272255640070176504e-03
-6.554708635730249061e-03
-5.045375982482918319e-03
7.137469185390914878e-05
4.762146260164618235e-03
5.899284865917777884e-03
2.214895828220032632e-03
1.185428210230640060e-03
2.431613724852060322e-03
3.558670583320678107e-03
4.862266651495836950e-03
1.762224800575036771e-03
-7.840885333402413879e-04
-1.818194013934375328e-04
-1.351341991619583582e-03
-1.319154854734895608e-03
-1.322177135629734233e-04
-9.471616005801735587e-04
-3.600794269872640771e-03
-4.461937439131057927e-03
-9.946333112959551345e-04
1.337913726601058220e-03
3.313797954399656364e-03
6.756571073600090710e-03
4.697201799820861258e-03
-1.845067456103356403e-03
-6.079261185501516791e-03
-4.073934683816297399e-03
3.438239002959573502e-04
6.290163459473896955e-04
9.778247670932827419e-04
3.868202662721053654e-03
6.551740049889625758e-03
3.834490638425158519e-03
-5.647382495008626373e-03
-6.752521726901313491e-03
6.374586244570567368e-04
1.771862742248353625e-03
-3.840278515723120163e-04
-2.295220568850925291e-03
-3.309574045959331415e-03
-1.656892202825991332e-03
8.069535991325975756e-06
1.903792829324835439e-03
1.964518630653753779e-03
3.406910659743030687e-04
-2.940742645426808449e-03
-7.694210875841739350e-03
-6.095063431477627455e-03
-2.872969410523415566e-03
-1.338435109122411426e-03
2.505141540407298997e-03
4.365632789155381166e-03
6.324162174243397848e-03
4.085164401418283665e-03
1.331136262772320846e-04
5.889752446977153041e-03
5.212634108879397529e-03
-2.752980078297118712e-03
-2.964376212693225349e-03
-1.820462535930992415e-03
-1.146721797584003468e-03
-1.001480349120951671e-03
1.038022752428557818e-03
5.606800292790780661e-03
5.096057231531753162e-03
4.629428212188284840e-03
-9.762237087422498058e-04
-8.544373342389293205e-03
-3.358130295784288958e-03
1.104409865289998280e-03
4.967112156953344508e-03
6.405191110491349760e-03
-3.634810552204873878e-03
-3.447448307211919624e-03
-4.416055675533854877e-03
-1.523339019998866742e-02
-7.617617827234151977e-03
1.703949306441322580e-03
-2.507500652984434066e-04
2.115250400483068959e-03
2.398307848987889235e-03
1.270894707105376482e-03
1.303035052173632949e-03
-3.474005679238871590e-04
6.302120061039919894e-04
-2.133003833382648930e-04
-1.342095621681742073e-03
-1.273100928568020535e-04
-3.596305340837877181e-04
2.628057909780911680e-03
5.322707424319694271e-03
3.887658424428201785e-03
3.535892656025509638e-03
1.159430562575537943e-03
-1.770224428107765530e-03
6.466972481088497683e-04
2.280327112789829955e-03
-9.238540692256227331e-04
-2.354613663007662418e-03
2.895459560879650850e-04
1.457764409296273588e-03
1.581166296060241162e-03
2.833564482415411225e-03
3.076852046162103366e-03
4.078681366994296731e-03
5.649093512167282756e-04
-7.848208126628061082e-03
-6.477990922788303546e-03
-2.739825475145694911e-03
-4.929522876557995877e-03
-1.730804635509366985e-03
-2.684619761157431964e-04
-3.043415760272748238e-03
-1.077059575127973487e-04
2.265582752095963558e-03
2.380397251475570210e-03
2.119674998150714636e-03
1.528280070685176162e-03
2.197608790246260557e-03
-1.122969676477984661e-03
-2.915116484435832309e-03
3.826682846718056216e-04
2.257154916499232340e-03
3.585709169472203924e-03
1.572007415564746454e-04
-4.059545521914979457e-03
-3.395699352374842266e-03
-5.959345108646203586e-03
-4.579266906236094219e-03
-6.118100603934157038e-04
-4.249966802619450056e-03
-3.521282190881980939e-03
-9.361719519815883597e-04
-3.180954843903425599e-03
7.457274265325015495e-04
8.834660469118042411e-03
1.328456973170463566e-02
9.541256518864263750e-03
8.899508056004156158e-04
-1.862512254206074571e-03
-2.030743209433111263e-03
5.765796657231305085e-04
6.627013458269963818e-03
4.662370135106752925e-03
8.831323595606232601e-04
1.263051320032110601e-05
-2.329506912935161780e-03
-1.666588052964166841e-04
1.313450588492311166e-03
5.052727907326944609e-04
1.808802195197353919e-03
-9.441691513256059284e-04
-2.923126479973679141e-03
-3.414889664585914891e-03
-4.874697776400344941e-03
-1.764779873217666101e-03
-6.725444807082922539e-04
-4.290714011773907530e-03
-1.076898981903351427e-02
-1.318811634206725966e-02
-3.592444025174286893e-03
1.049853730994837258e-03
-1.384808507492854774e-03
-6.935851295348327648e-04
-1.872735743119605285e-03
8.444735326570539796e-04
2.757921680241505035e-03
7.126814521334705853e-04
7.371219666723382268e-03
1.331545780479418545e-02
1.105399795226557312e-02
3.952260178506142134e-03
-9.011580564284748423e-04
3.693107305233660556e-03
2.863889845611235219e-03
2.037506620180366823e-04
5.768537207838619375e-03
1.994473848349582502e-03
-5.480084932443220376e-03
-4.858635804871705779e-03
-4.032771656766276878e-03
-2.499449705058503710e-03
-3.574416038660361769e-04
1.381288039475716363e-03
3.468108863399518241e-03
6.670689164929167591e-04
-6.615511584151270892e-03
-9.292299545090355190e-03
-3.927988837123938190e-03
-2.462628477583852149e-04
-2.098931996652670176e-03
-5.053443152224439995e-03
-8.113117723871391199e-03
-7.392249355533364076e-03
-4.269119326869387498e-03
-1.000635180624624134e-03
3.709537132264823390e-03
4.543829442167540526e-03
2.899969948192085683e-03
2.899627777600151477e-03
5.574852434234933533e-03
1.152107059841712099e-02
1.330637688489581978e-02
8.980800113742443136e-03
2.527251965783919307e-03
-2.209959994734266801e-03
-3.105229650200667761e-03
-5.084996881658373526e-03
-4.487621182184350736e-03
7.743597882493481353e-04
4.201039914409661867e-03
6.300090743344521731e-03
4.837385452947544524e-03
-1.547678319367069497e-03
-7.981012393193976512e-03
-6.346417816975166368e-03
3.407182950042437434e-03
5.919379712656636615e-03
3.109405436258155450e-03
2.075684070081347792e-03
-2.765744044974336856e-03
-6.500768189463866122e-03
-7.002717477286928179e-03
-3.009961214476857515e-03
1.068996971325105860e-03
-8.420748786720222423e-03
-1.685532982300544033e-02
-1.306712733504472590e-02
-6.761673335744373438e-03
2.715158844480898039e-03
8.088079486939368790e-03
3.682004808618272174e-03
3.379811653415929038e-04
6.667039354210806991e-04
6.775222469160098915e-05
1.259477454767096976e-03
7.305286398242811369e-03
9.247200188411708668e-03
4.034743795248973801e-03
-4.675414072409510595e-04
-2.489779648931726187e-03
1.592317021972704250e-03
8.331596338095484042e-03
9.692444528939306997e-03
1.066238313812595609e-02
9.341684450515259919e-03
1.848796835816020985e-03
-4.130938794203735560e-03
-4.680266859377489944e-03
-3.334003228082531040e-03
-3.809342241075154914e-03
-4.662676273566512472e-03
-5.865661224875058991e-03
-7.822735109433926262e-03
-6.254735482854423094e-03
-1.822649725386262095e-03
1.596069106671058578e-03
1.395553615324486791e-03
-5.816760180255175399e-04
-1.947387703743240191e-03
-4.251068950742972405e-03
-1.698855932645793043e-03
3.206724410390638779e-03
2.856349774682020570e-03
4.502892793599124442e-03
4.898593338866925537e-03
1.392564134610406804e-03
2.871895464933926605e-03
4.061358968076835864e-03
4.607876800767615744e-03
7.374400284980970818e-03
3.711046493826513065e-03
-3.410196432646375644e-03
-6.745875730318050961e-03
-4.482019703879396889e-03
2.283002264565084372e-03
5.098536277553382921e-03
1.441043450726644951e-05
-1.465252242556279623e-02
-2.920878672739076962e-02
-1.999542636197498141e-02
1.039458892614715047e-03
5.049564180849956847e-03
1.569208083197531217e-03
3.821038266860365094e-03
5.667625621561990165e-03
5.661024299253563513e-03
3.675540193287992960e-03
8.016769342762729636e-04
3.908641474517916305e-03
8.347922963915413441e-03
4.820035344709338622e-03
1.475600533544007241e-03
3.244949135230441005e-03
1.032474504885681462e-03
-1.774237519441037832e-03
-1.390466638804863748e-04
-2.189368602092873085e-03
-6.080539964341779430e-03
-1.288653294265426543e-03
7.058103545058963708e-03
7.248613153180310555e-03
5.890027982053069877e-03
9.396685701384669201e-03
8.136513094045517633e-03
1.303558502717337393e-03
-3.209931079370064409e-03
-1.561652376131647492e-03
4.960076013571647173e-04
-3.353198329827060137e-03
-2.567316805681948283e-03
9.469652719804191139e-04
-2.044694106863382405e-03
-1.370258456514444586e-03
2.982655751379148859e-03
6.309443290059126540e-03
6.822186198621443126e-03
1.028759611656480206e-03
-1.703663899566097836e-03
-4.159551300228433307e-03
-1.060292443291666227e-02
-9.488096118215149158e-03
-8.024254679299302334e-03
-1.259851053017458852e-02
-1.105454432605473825e-02
-4.434171978759336372e-03
-2.288860882423978272e-03
-3.832602117397367059e-03
-5.353579170100885437e-03
-2.625615735538708697e-04
1.368574765909013648e-02
1.820286693035104084e-02
1.031911210576178829e-02
5.635815843716176533e-03
-1.060018820259987565e-03
-5.088778789360020455e-03
1.397885374876742248e-03
2.687985700061233749e-03
-9.262758511594228411e-04
-1.989717156805008436e-03
-9.314354138706340417e-04
3.206731617210341421e-03
5.124984650717479863e-03
5.504728165064727043e-03
5.705295199053891410e-03
1.976251321542755578e-03
-4.372228051235420125e-03
-9.081785302640473651e-03
-6.612141009934170005e-03
-3.865326330467200137e-03
-5.911814678695209886e-03
-5.775201910618446739e-03
-7.364086008356579907e-03
-5.509710768784726112e-03
5.940744251372907271e-03
1.258463509428809496e-02
1.600238069675872718e-02
1.990060658101408184e-02
1.556440928571498593e-02
1.373950636732707876e-02
1.660630466369282521e-02
9.570265730676352431e-03
1.366390008748961937e-03
3.269537601719671362e-03
8.517868694942521551e-03
7.042975867052224219e-03
-3.791612830261827799e-03
-1.183027792991609567e-02
-1.563954280260165461e-02
-2.367874956800880212e-02
-2.841085027496749807e-02
-3.030096700320056291e-02
-3.573140818342401825e-02
-3.895776518613391221e-02
-3.422925710452048159e-02
-1.869116290886995574e-02
-5.891729745987722179e-03
-7.679577477413185305e-03
-7.800537992427438588e-03
7.562741465295018221e-03
3.259071959789627132e-02
4.371398033228135471e-02
2.522838612369181222e-02
-7.254050578718264017e-04
-1.961505781849129382e-02
-3.528496492512832317e-02
-3.671733846863167033e-02
-2.238228470928246144e-02
4.164059236260884457e-03
4.056281013115304451e-02
6.760623571337669169e-02
8.050927880766993450e-02
8.170254906725328559e-02
7.766375493752636361e-02
8.679382989959624761e-02
8.511011167807641664e-02
5.880417220771455566e-02
2.702877172128817507e-02
-3.197746212375045943e-02
-1.011693808766644248e-01
-1.259577712817256112e-01
-1.137951139292882330e-01
-9.133241714387398125e-02
-8.324865548399074111e-02
-8.470527863118698653e-02
-5.186827453977655572e-02
2.517484778021964950e-03
3.980093252799083575e-02
6.918469785781153347e-02
9.125328461261474067e-02
5.831670193298137128e-02
-4.830131815592814126e-02
-1.517122058167698351e-01
-1.648943611461635428e-01
-7.234890449215015951e-02
6.906528357960618758e-02
1.445269373810742775e-01
1.131824072207343046e-01
7.758560524095600708e-02
9.963239413107818909e-02
1.145266539755774304e-01
7.534787065892907532e-02
2.660448937292493338e-03
-6.459864593019339074e-02
-8.761970089084461510e-02
-6.637527056493860989e-02
-2.953853629471515224e-02
-5.101359342241302761e-03
-8.477738763671169991e-03
-2.146107759650215871e-02
-3.772201602414873567e-02
-4.128010480295327828e-02
-5.970124067082977458e-04
1.205768058039926108e-02
-7.584401977340642087e-02
-1.705914921640343807e-01
-1.539334432437963196e-01
-6.959251770082365562e-02
-2.054754122517629331e-02
1.860485435472631829e-02
9.116350195206894547e-02
1.497110811620127324e-01
1.704370388027177941e-01
1.837297206037858399e-01
2.312637691203580925e-01
2.679051408294688130e-01
1.976658221506306379e-01
7.951870626649119866e-02
-8.299998622460525236e-03
-1.016992410136657032e-01
-1.775547439641618208e-01
-1.887317976559698685e-01
-1.586836949628487314e-01
-1.156229886289755066e-01
-8.023567314224241964e-02
-3.866998469581510445e-02
4.095336326689964779e-02
8.873442221172207767e-02
3.892425732238832120e-02
-3.210579229599801881e-02
-9.157633885824474629e-02
-1.622516428548606005e-01
-2.016914255278747514e-01
-2.214108570780114471e-01
-2.070287173545286019e-01
-1.172692413519921262e-01
-4.778431419933835272e-02
8.903446451931629896e-03
1.391307223532210757e-01
2.440796835964453571e-01
2.566334634584099272e-01
2.290329884331983035e-01
1.872241850383243589e-01
1.475738463096115949e-01
1.036303295085665432e-01
4.213288979738732953e-02
-1.975635179121168483e-02
-5.858273339768720056e-02
-5.931475826197665085e-02
-5.157468440404875537e-02
-4.141091542965501943e-02
2.142525121389112289e-02
9.429008036877510601e-02
8.644787724018020147e-02
1.628044623364808402e-02
-4.733921405299447438e-02
-6.590169812352997258e-02
-5.189395904916306590e-02
-5.216061143427464658e-02
-6.573607284860440159e-02
-6.885930290036801349e-02
-6.785735736682875496e-02
-5.906928725419697407e-02
-4.129523660665660595e-02
-2.550777409394823156e-02
-6.391670782473024212e-03
1.232396907033684978e-02
1.626968223956799797e-02
9.446336503472228807e-03
3.633435135346354313e-03
1.708113959410505721e-03
3.868907498513876869e-03
8.450949243346602552e-03
8.591037028874908693e-03
6.078207252791381979e-03
6.173365154845068294e-03
2.814586048790771334e-03
-1.503406533574409799e-03
1.534131895976899003e-03
4.559258336709994149e-03
5.261928253977357292e-03
9.143270028953071060e-03
1.077718137025489124e-02
1.185492922320999579e-02
1.556562071456124054e-02
1.425845966434074671e-02
1.604715691341472572e-02
2.314571638177139595e-02
1.858798036992209690e-02
1.044860462409591233e-02
1.289043010660484261e-02
1.494988363780884282e-02
1.019431199041477901e-02
3.127088735924623848e-03
-7.183181943533863308e-03
-1.557462421184837784e-02
-1.408995803733729436e-02
-1.163530677268300069e-02
-1.440085358287247069e-02
-1.662956846064498478e-02
-1.705765309190947210e-02
-1.393889249413201095e-02
-7.656274350432744694e-03
-2.207195346704127117e-03
3.123928901348565004e-03
8.132404828502833374e-03
8.488146120188288374e-03
1.157682998317688004e-03
-2.972749636384104492e-03
3.379478014833397202e-04
-8.203652969513563912e-04
-4.901928731497009507e-04
8.148629582756108458e-04
-3.318741703168855660e-03
5.448518515033537804e-04
4.521896370820875817e-03
3.764877937113428005e-04
-1.289770253184281679e-03
-1.839737500871970561e-03
-1.312857329559668140e-03
-3.946053104232445305e-03
-8.258022963086173590e-03
-2.845688413810867380e-03
-2.258106359765613743e-03
-9.343087967943232430e-03
-6.010876219929387268e-03
4.897496546834307751e-04
6.176262632268696888e-04
-6.397706457686947118e-04
-2.967497060803734807e-03
-4.885893720289623612e-03
-1.052669286101097675e-03
5.017050107036608204e-03
8.829266033460691360e-03
1.051679212433368794e-02
6.508021427002982570e-03
1.436161934744561519e-03
8.022402150117710997e-05
-2.791451793987614720e-03
-3.106218623351050898e-03
-4.788378713402507351e-04
-8.162051393858210234e-05
1.417245002103668071e-03
2.174675295405569409e-03
3.021619951034476559e-03
6.534365573656246082e-03
6.617709378712619689e-03
4.440170101839217842e-03
1.875033505150278503e-03
-3.852945465504295681e-03
-6.249414003276787706e-03
-1.556060910920058086e-03
7.463846228787826250e-04
-1.298615183130381011e-03
-1.323746245466718560e-04
1.493287184204560069e-03
-1.285266399327244960e-04
-3.622394015349881657e-03
-7.080888552694898121e-03
-5.096078674387011058e-03
-9.717583472111211576e-04
7.294382436518715785e-04
6.470950628213727619e-04
-3.261051767145049362e-03
-6.830528793398955682e-03
-8.306480209807367426e-03
-4.936081407886497296e-03
3.793317739388756861e-03
3.322390990429422222e-03
-1.145041664503433686e-03
1.309423791407516387e-04
-1.110505282048248167e-03
-8.159255643627981447e-04
8.977925051046052899e-04
5.458969507645951248e-04
4.108322627148297025e-03
3.791699553407197176e-03
-2.154405635977572984e-03
-2.356500921450101205e-03
8.307824721924427685e-04
4.685322721008786865e-04
5.169064491196220541e-04
3.093635952928749759e-03
1.911534659671515002e-03
2.507803492936600573e-04
3.636856696676705417e-03
5.371174773139771215e-03
2.168481665845387821e-03
-7.025774501588219131e-04
5.544904893610470582e-04
-1.188390503464848260e-05
-3.460878757004867776e-03
-8.151747631415550202e-05
3.669825762955276904e-03
9.472015713501277454e-04
6.993820986194770797e-04
1.631459206992112070e-03
-1.442065340805190896e-03
-3.088725793864384450e-03
-7.144037253685900195e-04
3.476625919555788400e-04
4.204783434529353711e-04
1.759271922625182819e-03
6.463722826419653717e-04
2.629475972851800028e-04
-5.872646125230788008e-04
-3.459520380460936843e-03
-6.487468920246742448e-04
-4.163120980082025274e-05
-4.078626451151843441e-03
-4.456900778564721124e-03
-5.170322173412780428e-03
-2.107075576686131060e-03
4.058895347781955876e-03
5.320393647319049575e-03
4.812836017627944267e-03
1.228345471456265348e-03
-2.973338181573612982e-04
6.707777036291088677e-04
-3.479773637785018182e-03
6.838941465741284805e-04
8.638950805118367215e-03
3.810946265864610660e-03
-1.099046616658963050e-03
-1.911223392197200152e-03
-2.931605332973975103e-03
6.122031377357042099e-04
3.380495846553387574e-03
1.220736305371031890e-03
-3.686046761196418945e-03
-6.430392313272677816e-03
-3.328212276259214387e-03
-4.914596697355788158e-04
2.133160597029568843e-03
3.007258651401030838e-03
-2.456076358657463717e-03
-3.106654226656332951e-03
1.828114605357336999e-03
2.978174671229266712e-03
2.232534711669982054e-03
1.719460298008936017e-03
3.256394527189606335e-03
4.158457926795716512e-03
2.407988572792881064e-03
2.522548048314966936e-03
1.504973127045549156e-03
1.182912848266193771e-03
4.291852310754249236e-03
3.295534855678975729e-03
-8.845425584827186103e-04
-2.327700933111476796e-03
-2.341342919320209531e-03
-4.259977288656841346e-03
-3.532042157695608302e-03
1.845925750478955669e-03
4.864514181271511160e-03
4.295038328330797600e-03
-1.239723482220856212e-03
-2.987083592243357840e-03
-1.981814211187599237e-03
-2.158346272261482679e-02
-3.072377375349052975e-02
-5.173437487844366814e-03
7.545173018015224366e-03
3.478574091034703115e-03
4.737470598736567839e-03
3.909732618138405877e-03
5.995233312020958535e-03
6.718293736252852269e-03
2.386691501494225733e-03
1.494743698415088766e-03
6.181445164336711595e-04
1.744951185017356047e-03
3.477455363092540365e-03
3.022693283606043505e-03
2.590024672253305772e-03
-3.118918844384296245e-04
8.976836153510490100e-04
3.828653291159126761e-03
1.312893931830787534e-03
6.251166889241208720e-04
8.825747197058776954e-04
-1.400552837916396861e-03
-3.091640470661645174e-03
-1.877820239331474657e-03
6.624162161238107780e-04
1.790890275246192868e-03
3.390490704008369306e-03
1.594584355080686444e-04
-4.841081090536299494e-03
-2.123549451145505251e-03
-3.480319819813819642e-03
-5.741437140595045431e-03
6.172806238774923094e-04
1.742637794436990807e-03
1.502231695133463300e-03
3.649750438374288475e-03
-1.239519371438316643e-03
-3.228652411606958410e-03
-8.926436342242237421e-04
1.151455587533743675e-03
5.381204320805708062e-03
3.813341960846356946e-03
1.566510534302139983e-03
1.644335662694207476e-03
-4.703644328115878966e-03
-4.484626405002880428e-03
3.182520883573268251e-03
3.295939042777196182e-03
3.505237169523540302e-04
-3.084126467968671919e-04
1.179928946235185919e-03
5.840521354800878124e-04
-3.481749449946437876e-03
-1.503807098077491891e-03
8.885647463362644901e-04
-3.669306086414964377e-03
-5.718691080885166325e-03
-4.209312137165466261e-03
-3.244620255810609817e-03
3.447487722085031012e-05
4.047830534301148989e-03
2.507321015152878807e-03
-1.234112573616702631e-03
-5.773713721309148809e-06
9.334033554399431788e-04
-1.089114075186868417e-03
-1.647786698490523384e-04
9.438799923917442006e-04
-1.837825386009354217e-03
-2.508585766139899160e-03
-3.749013814283413525e-04
8.067638499606437786e-05
3.617446161742459126e-03
6.360471193736999887e-03
4.472005305109476997e-03
6.258547128826579334e-03
3.335456514329874361e-03
-2.237090572736778315e-03
-8.957097529873226261e-04
-5.574737286271475890e-03
-5.676231622543319311e-03
2.418322878147528311e-03
5.212077235623600781e-04
9.167938188940014934e-04
8.843967483115443154e-04
-4.924715867189618373e-03
1.235315863852867128e-03
4.076469900345294078e-03
-3.568378701708454885e-03
-2.856106148177612724e-03
8.055334504392759262e-04
-1.460780562652921552e-04
5.031831671753653852e-04
4.294627643667394204e-03
4.703336418231151769e-03
-1.357136015145369982e-05
-3.850724460156024643e-03
-3.545590000574279713e-03
1.162810213330210066e-03
1.725492419966054465e-03
-1.957380567352577129e-03
9.756317020414656755e-04
2.358210818621181166e-03
-3.164997559935868302e-04
-4.245653455708538453e-04
-1.898850994798855375e-03
-5.425361492453830174e-04
1.751693176485953369e-03
-2.050960657978994532e-04
4.525430901250826021e-04
-1.507219910067442864e-04
-3.267038232011415175e-03
-8.244806993358591270e-04
3.025873518445589515e-03
2.530401141346164205e-03
-1.119411392406799172e-03
-4.206726667145502946e-03
-3.032640277751063110e-03
-9.571027541408680655e-04
-1.529113886993518695e-03
-1.604483487186758356e-04
1.927343891414685321e-03
-2.518623830757428546e-05
1.955904487323441795e-05
1.249294412626424534e-03
7.962745166386736009e-05
2.729171950872628753e-03
2.998626481632647289e-03
-1.842403554694531896e-03
-2.335603123754884276e-03
-1.943676862261272667e-03
-8.894146661598136645e-04
2.713221855314570073e-03
2.706880335280130098e-03
3.446170297874081873e-03
4.696953959641982437e-03
5.065669000165870430e-04
-2.096885911282605087e-03
-1.200878125152297655e-03
1.091583414544383549e-03
5.978681003776363349e-03
3.868387536693942367e-03
-4.656617122118462959e-03
-4.099844980020077301e-03
4.797236227358552744e-04
6.184200033887149320e-04
3.256455971540860028e-03
2.119894725553084398e-03
-5.917789148183040179e-03
-6.610305193142690557e-03
-3.147188777835713356e-03
-3.850038964276290832e-03
-2.304066538771924657e-03
6.615206213890502092e-04
2.848881358344212099e-03
2.739510014088172591e-03
-3.402407746787718991e-03
-4.338076113644079128e-03
-2.353849794929467067e-04
-1.450049384803452036e-03
2.139460966036095882e-03
7.212157989801121563e-03
3.340865006163647438e-03
1.938476565890089303e-03
2.460864111081070664e-03
-4.110652384273302969e-04
1.507721612295597749e-03
3.898429010302554946e-03
7.102330408451622149e-04
-1.153126971914245459e-03
-2.032756362770555061e-03
-4.211027419812170269e-03
-2.207394162515289096e-03
7.840079994461820415e-04
1.850283385729285194e-03
2.871667919176283321e-03
-2.323498949587321331e-03
-6.390628660445306711e-03
-2.471688778605828779e-03
-2.059721669501380151e-03
-4.181035350366468957e-04
4.118666268975969963e-03
1.704184604414607420e-03
1.160185890299693444e-04
3.690299313429845521e-04
-6.393423132926308707e-04
3.003543342412668543e-03
5.687620467799090265e-03
1.519986964483847685e-03
-3.925074636809436530e-03
-3.930732662030517362e-03
3.821463489734689746e-04
2.414844259898379919e-03
-4.292292769413750446e-04
-2.278408339866117016e-03
2.240793401144584602e-03
2.683834173469105359e-03
-1.422964083130049805e-03
1.789677172581575484e-03
5.318285225234809822e-03
6.755079891951324203e-03
5.269716417881040345e-03
-1.739256945796859347e-04
-1.186015358360042820e-04
-9.748981879151593852e-03
-2.268492276397321775e-02
-1.029415598417832665e-02
4.630039687437925017e-03
5.042435462581376475e-03
3.984534992269029609e-03
2.788684196794179518e-03
1.256641647157271530e-03
-9.268019346255149940e-04
1.501455411574446246e-03
7.389131996164548591e-03
7.871908055341138299e-03
8.266844415393430345e-03
3.113475547144790509e-03
-9.583281472277048116e-03
-1.342066742540768548e-02
-9.905369093762526195e-03
-7.116177639238641627e-03
-4.540096654218236417e-03
-1.904397667205054174e-03
6.774426713093436138e-04
1.870620592301894735e-03
4.561488368017029005e-03
8.823607557010396812e-03
6.237856011785112773e-03
-1.129142532060424661e-03
-1.034909139084006988e-03
3.157368935454299332e-03
2.425474902806805822e-03
3.857393725379766429e-03
7.885196135294231246e-03
6.660973772149973889e-03
2.246506171805795395e-03
-1.720665805522402381e-03
-1.251549790489315302e-03
1.213558147373020035e-04
-3.339513245037836493e-03
-4.310664472617951361e-03
-2.115199058924910856e-03
-1.732121740945904553e-03
1.161699875250951500e-04
4.159834752450380924e-03
4.666620456791829852e-03
7.198436898082890070e-04
-1.537703273776372306e-03
-4.904243652079568264e-03
-9.712660586715337468e-03
-6.681884830682966771e-03
-1.001907448649062577e-03
5.091989590913111301e-04
1.576769384909522008e-03
3.020887436850531755e-03
-1.230932899642370485e-03
-1.099574128747576353e-02
-1.004724619825151342e-02
-1.287548487239374186e-03
1.936626105853953310e-03
6.645242402992870834e-03
7.214613542704608612e-03
2.028825398659755540e-03
2.527903305607980509e-03
1.673143881357640498e-03
1.013857985941535832e-03
5.002174650434117013e-03
4.572233518971033882e-03
7.056936747480935202e-04
-5.446268366756607058e-04
6.841504819171493213e-04
1.721023020339356900e-04
-8.382139926500591347e-04
8.994224799920426221e-04
9.614271829360579533e-04
-1.206811241631054700e-03
-3.779486563537332120e-03
-3.066827474827914235e-03
1.381979338255204855e-03
2.800970694634055420e-03
5.713804148935413760e-03
7.314775070789517400e-03
1.921707944963628543e-03
1.070075511621517480e-03
9.198406181683249075e-04
-1.464182365715161567e-03
1.495238110522310567e-03
-1.011083082573298753e-03
-8.672905834321608179e-03
-8.978088053437692159e-03
-4.592539579266749668e-03
-7.121186176355380655e-04
-5.946998171590671032e-05
-6.252099962652200036e-04
1.346993077591518385e-03
4.830918727952172842e-04
-4.367836366037412127e-03
-5.605762153259368115e-03
-2.426697508535389809e-03
1.875742778014339598e-04
1.252720159020994642e-03
2.479831428427982810e-03
3.298829277528061814e-03
2.157305672808912736e-03
-6.909892847657553901e-05
-3.184415942814071616e-04
2.259897825189776614e-03
3.210511424416731454e-03
1.569143644452449362e-03
3.696701747668181535e-04
-1.906509875556497988e-03
9.164647917452570019e-04
9.296643985996786222e-03
6.579599570723499921e-03
6.704138458229464250e-04
3.587395527916420815e-03
2.010148545298945551e-03
-1.545456290859952616e-03
-2.217185075001792960e-03
-2.894852908612486741e-03
9.568165779990404299e-04
-8.615051464356747154e-04
-5.912622978621428008e-03
-2.044965024248473172e-03
-4.711396954978840329e-04
-3.858641441217406688e-04
2.133809583518417579e-03
-4.830447064733298882e-04
-3.575644100917720145e-03
-6.606727016244449968e-03
-8.661673466848289135e-03
-2.698946516629463846e-03
3.322556072055099681e-03
2.910318422939385183e-03
2.140575502573480258e-03
2.244154656704548320e-03
-8.753873399208900597e-05
-1.142846605552456799e-03
8.607486448599218016e-04
4.173373557057481059e-04
-3.931636650216038418e-04
5.019184632470717394e-04
-5.218528531977038431e-04
-8.620118927943200109e-04
-2.213526226104109722e-04
-6.904197905138894330e-05
2.613234944952037495e-03
5.470269737666283785e-03
4.869722975172712486e-03
3.649608545234218383e-03
5.882885305574665422e-03
1.040279344590309615e-02
9.738818513102506444e-03
-3.469449510833435955e-05
-9.832973712109302142e-03
-9.216848287323848449e-03
-2.679619401404449014e-03
-9.376251272324281341e-04
-4.391847523438191167e-03
-3.724075458106819274e-03
2.406649670538564794e-04
-1.072597315516104566e-03
-2.517821368483246468e-03
-1.717268332375089133e-03
-1.525723406778430264e-03
1.773026653695543471e-03
3.066543977091316410e-03
1.940914102840674851e-04
-2.300553339139820713e-03
-3.789008840365247401e-03
-2.274462300484671965e-03
-1.258726181612174026e-03
-2.029756684000656969e-04
1.735470162266475238e-03
3.200861746371160997e-04
2.976288094784890984e-04
4.838624819185359440e-04
4.199878762733291011e-04
2.960941756182841850e-04
-2.274953981517943008e-03
2.174848728686082453e-03
4.971655134019139707e-03
1.756077533800441551e-04
-9.686588511951040471e-04
-1.486895782463796027e-03
3.459807762652089991e-03
6.209109225479312287e-03
-8.469632002856836020e-04
8.944916783305533739e-04
1.241391727036177247e-03
-5.240523161833867891e-03
-3.619026452036007164e-03
1.875924697575065371e-03
6.318704051219185651e-03
3.934599596804929690e-03
6.477133994148530360e-04
1.261329474677208833e-03
-8.917912124820491677e-04
2.940140782337021062e-03
5.778695968978520177e-03
2.144119929742025442e-03
4.640136483415961124e-04
-1.594182095926776266e-03
-2.027127221677832219e-04
-1.593424928359444192e-03
-1.052809109541831371e-03
4.625317029833358323e-03
-1.952005923942273964e-03
-3.829324787401488898e-03
-7.908618476219866564e-03
-2.250315582898679626e-02
-1.072133881277023172e-02
6.952267256905285062e-03
7.887081132788589799e-03
7.390665627096880755e-03
1.035010325946476460e-03
-2.114813533303556373e-03
-7.941557442551920370e-04
-2.678706807996094393e-03
-2.622905056836376779e-03
-3.208450871484773512e-03
1.706988414723582077e-04
2.061751366903554102e-03
-8.145851942287131312e-04
1.899412332392978872e-03
3.656805781306725865e-03
4.480205340957906131e-03
4.308458825978260867e-03
-2.378867703246526229e-04
-1.839030917195368228e-03
-2.842449695498470812e-03
-8.513329007194673278e-04
4.577789427489728155e-03
5.227170808929297412e-03
5.747541454137258289e-03
7.603714102312976800e-03
5.980116868731539560e-03
5.786506390697099093e-04
-4.171061033484386484e-03
-3.959970556474286078e-03
-1.221078695665844382e-03
-5.328714282447100667e-04
-4.621828837416062409e-03
-6.437074231899036526e-03
-1.692938367971646377e-03
2.342995911115429691e-03
4.030512683629325008e-03
1.908515105661682480e-03
-1.424904841835979673e-03
-2.909429474685971029e-04
3.899951934861293221e-04
2.301346987543302516e-04
1.192690404112202625e-03
1.873746405463860322e-03
2.409356010934899338e-03
1.064010956486497941e-04
-4.907340961463954945e-03
-7.442422613939080750e-03
-4.646688863277532305e-03
-2.190589972481049412e-03
-7.458671071013555547e-04
1.507919065406630125e-03
-3.152002242106171585e-03
-3.342802146888173686e-03
5.386323900796353460e-03
4.757012377671448501e-03
3.207107155508274066e-03
3.310391974624353646e-03
-5.014891718239795383e-03
-7.852991106115895723e-03
-3.929200042580639415e-03
-1.234600990945577091e-03
2.661851207321738137e-03
6.367761014780629406e-03
8.727481311958464744e-03
6.378742216444982342e-03
7.280991876023669733e-04
-1.615305522267826248e-03
-2.440287931553754893e-03
-3.592740626895759995e-04
5.175265064227543496e-03
6.601030096189861550e-03
1.415882592008091021e-03
-2.442463408629955580e-03
1.080801017572848282e-03
2.525479724828128252e-03
1.001348814210716829e-04
6.909012315783134416e-04
-3.669511057790393431e-03
-8.214101378170223997e-03
-5.031678742833069727e-03
-4.080794853694463646e-03
-5.532584721707655339e-04
4.636286381541844005e-03
6.462412601741217028e-04
-4.171937782186076020e-03
-8.229875359253166489e-03
-8.929143909831261175e-03
-1.352683253885522338e-03
3.390972752002051251e-03
7.045686039838943565e-03
5.698578741679683965e-03
-5.555604833232696826e-03
-4.290146322249504748e-03
2.633298452885497829e-03
-1.136501207407799099e-03
2.245559156479217007e-03
8.568480913907923144e-03
3.635609389619252809e-03
1.519710727290891862e-03
5.726106764722824032e-03
5.221244740748024436e-03
5.006548643851948741e-03
8.404077986168559389e-03
6.337132804268701645e-03
3.592691880137835730e-03
2.804151738280416788e-03
-5.469197033526666980e-03
-1.298673252138495861e-02
-1.050632000190364519e-02
-3.165888332648696731e-03
1.839028453246186606e-03
-4.090479633890595017e-04
-2.694241260937675110e-03
-1.278928380419903183e-03
-1.365295014942912452e-03
-2.002423117934378546e-06
2.307259911544637387e-03
1.263989135797851998e-03
-1.924940927506161486e-03
-4.466858849376612213e-03
-4.804793056029305238e-03
-2.819548793755035504e-03
7.195734173964131583e-04
-5.571833446468774922e-04
-5.468756563120717555e-03
-6.574535110807301110e-03
-6.683885165488798533e-03
-1.859872433450974593e-03
7.336887036940952303e-03
9.806549822511764769e-03
1.061537021004150920e-02
1.046143849021207058e-02
4.981230742491213163e-03
1.361185549512913687e-03
-1.140149896997643287e-03
-3.348778845369842442e-03
-2.122739289752728110e-03
-1.467330671558282704e-03
-1.437690491592155152e-03
2.722419233288358585e-04
2.943107229403784959e-03
4.683910421100614778e-03
2.977768083132230261e-03
1.835585746730511447e-03
2.847386861435558664e-03
7.031791942781648016e-04
-1.127219529677617790e-03
-1.845890900704930549e-03
-5.223662376805647024e-03
-3.769365102116471744e-03
-2.204057563256561173e-04
-5.779577822402891816e-04
1.872442584233080954e-03
2.763319613891368921e-03
-4.694992412228191298e-04
-1.989073552376031690e-03
-2.767784300191634701e-03
-1.084634386426325736e-03
-3.002998219296420428e-04
-3.255390521803947640e-03
-1.890429485388927296e-03
2.965432658599228589e-03
5.435291440621309485e-03
4.350923033045902416e-03
8.264457369436094139e-04
-1.456565136411842919e-03
-1.797037192669242349e-03
-2.552344179271194037e-03
-4.101386203612699885e-03
-3.461304765227251907e-03
-1.222078300855950535e-03
-1.312116904628192774e-03
-3.035037933331984159e-03
-4.348155147501518193e-03
-2.195680222854135954e-03
1.684139239566956412e-03
1.054674922536849449e-03
-6.886710837850190366e-04
3.604542571259710835e-04
2.190567957027322009e-03
4.698265008075274904e-03
6.017620383299155870e-03
4.841470708857030861e-03
6.754100169113446198e-03
8.917648226229103400e-03
1.091946418476057732e-03
-4.921416453948982209e-03
-1.318645692794661282e-03
-2.677047376033665251e-03
-4.844199510368601101e-03
7.930571007031457259e-05
4.381117322766307949e-03
4.214957508296545557e-03
1.908928884569107906e-03
2.540203167982111286e-03
2.166326049157087466e-04
-3.088412791100048332e-03
7.495925088378649521e-04
1.041895951848280464e-03
2.380845292785077356e-03
3.562839904077872832e-03
-2.919888198090206822e-03
-4.089178248121256784e-03
-1.486937082015546419e-02
-2.485589622646988683e-02
-3.147789310858645478e-03
1.237511473263348816e-02
5.391792979268726291e-03
5.205098052207935908e-03
8.504413125489050304e-03
4.420239978725704066e-03
-3.070367571451045399e-03
-4.361878848752045665e-03
4.309732413721739658e-05
1.812495072889973259e-03
2.384803907602173114e-03
3.535534061867422109e-03
4.231807396420729332e-03
-2.707423405341526871e-03
-1.233280948848817539e-02
-7.635288101961315750e-03
9.155117408937280248e-04
1.298097717794111702e-03
8.966749059799170377e-04
3.361860367908082407e-03
6.293549842618779283e-03
6.323333817459321146e-03
5.985388502968098066e-03
5.602529264263960730e-03
4.356785536179885385e-03
3.137987565696061243e-03
-3.895271027897874612e-03
-9.472338938962475766e-03
-7.473729471649108794e-03
-6.289106698912818282e-03
-2.019930595437176204e-03
4.061347218287848608e-03
1.952221471272061384e-03
-2.492784574035223927e-03
-2.734660275010947043e-03
-1.704264138045846061e-03
-2.384002952941528396e-04
1.682170116824438337e-03
1.301445692257777176e-03
1.192114288060226474e-03
3.093821872403419108e-03
2.349314258160844181e-03
3.366062314158286883e-06
-1.418471393399622048e-03
-1.001924570171143763e-03
1.673061929654798014e-03
2.093797456439744614e-03
1.875137480329157769e-03
3.964259325114904975e-03
1.728182822856885476e-03
-2.642521975964594403e-03
8.966284590796276197e-04
5.000749084879405233e-03
1.791347927288277839e-03
1.837469185324580871e-04
1.995887694772406715e-03
4.476775261357575017e-03
7.807062419183649410e-04
-1.141313261364424597e-02
-7.981993717760586804e-03
3.337062833553235564e-03
-4.923506701436482919e-03
-1.125577389903244588e-02
-4.649238830691907604e-03
3.864977713365840375e-04
4.077346253973801113e-03
4.007816010132243985e-03
1.416005055153650221e-03
5.924322556065106165e-04
1.394739148748679264e-03
5.102886581099069958e-03
5.428888221087218614e-03
1.468937775094394070e-03
8.802837001347193395e-05
5.935015546460829360e-04
-3.474974305700691789e-05
-8.750063825952272053e-04
-2.055010003045205490e-03
-4.023708142307575418e-03
9.685612545759801411e-04
6.774698532550887074e-03
-1.984289070816686908e-03
-9.818173169250432597e-03
-4.550242307963073794e-03
2.081630544403959959e-03
6.924014189293661511e-03
6.102770564118129362e-03
-9.563280284297490021e-04
-3.765131820108668162e-03
-3.921305519606252052e-03
-3.439647420241518771e-03
2.466919356989808951e-03
4.057875694849409631e-03
-3.147687788866312258e-03
-3.033455975281509204e-03
3.309365335931148226e-03
3.355008951141646382e-03
3.355323596976419152e-03
5.033344042561976872e-03
4.915642488685198659e-03
4.966087847512644371e-03
1.657757043354765895e-03
-2.185474591974239777e-03
-2.639082485946928156e-03
-1.384042916141520327e-03
1.296202758891612950e-03
-1.475258289660750155e-03
-8.040802323017827435e-03
-8.425027600630794963e-03
-6.095331236084756618e-03
-4.569951346056846421e-03
-2.269078723850309555e-04
4.822357973970506882e-03
4.343350275756154184e-03
1.715478876070782423e-03
1.947823301389561531e-03
7.244228250158025659e-05
-1.541949155676094552e-03
-2.031968964962677354e-03
-3.783526058556719099e-03
1.423553454795560731e-03
3.560616626317049394e-03
-2.060985808579619046e-03
2.542329517854225070e-03
7.554346376080720363e-03
6.443487692345250921e-03
9.987273362528038476e-03
7.440709565632806430e-03
1.712403028340690671e-04
-1.583068980349933152e-03
-2.872493668344554881e-03
-2.376869319243570151e-03
-2.025632669432708352e-03
-4.356965914850509554e-03
-5.314464608770857156e-03
-6.759540616589261065e-03
-6.404497828199700107e-03
-4.148563155211471357e-03
-2.698570210188239171e-03
1.058364569130621109e-03
2.739321568048288386e-03
