-7.369843377083878933e-03
-1.902546233672743406e-02
-1.655508240566140946e-02
-1.602195262604074952e-02
-1.157036244502901781e-02
-1.271121010733956662e-02
-1.444493955354081600e-02
-1.281118051702557960e-03
6.085547525289496107e-03
1.147505848332436816e-02
2.644106931984660513e-02
3.304962189085082491e-02
3.524799419506984000e-02
3.608088062179732464e-02
2.663794014246118752e-02
1.392120212750099992e-02
4.278817099187615450e-03
2.104534121198188990e-03
-3.311888913966685565e-04
-1.023647178957675513e-02
-1.288735203196765371e-02
-8.401484858437878803e-03
-8.080811820539128207e-03
-9.958144050553022208e-03
-9.518011394766963743e-03
-1.062634368769216527e-02
-1.557256007028003965e-02
-1.137115217840507266e-02
-3.490375445978551386e-03
2.294172516734172842e-04
5.951830502453506720e-03
-1.009576231936029980e-02
-2.743085065053751936e-02
-4.636824014507090301e-03
1.069554433437837349e-02
3.646080642708029920e-03
9.238961583802676736e-03
1.060924832652583583e-02
4.124761834667584406e-03
1.173874091917105102e-03
-1.303338287588963517e-03
4.072344559275273973e-03
8.336655366789657781e-03
4.950187500688616425e-03
2.530270255369323606e-03
-1.018753876244823508e-03
-4.048197733005340360e-03
-4.123500059892658970e-03
-1.690589715254778302e-03
3.365937991399523509e-03
5.509745599182205508e-03
6.679458812632099729e-03
6.589979419549456090e-03
1.215418846072977531e-03
-1.318323025313717853e-03
-3.478317209881694790e-03
-8.098313902587781637e-03
-5.006426766451201570e-03
-2.914628267706137477e-03
-6.199123193181748336e-03
-5.893184355373468596e-03
-6.834812401346083109e-03
-4.018087254186402876e-03
2.475621288015263446e-03
-3.205875557461852082e-05
-2.578350918966078667e-03
-1.865769042365326936e-03
-2.413480077496261977e-03
1.593444181068089517e-05
4.834615868880943329e-03
1.068120517712861477e-02
1.151601598354486805e-02
9.303669412493871180e-03
8.105281370883657757e-03
3.645130763473682610e-03
4.338202404384126215e-03
3.368169597490535631e-03
-5.599017510042281383e-03
-6.162215169980584696e-03
-1.789685861909212465e-03
1.530125751748680793e-04
-1.374282381523816445e-04
2.022499133042867173e-03
7.606870195562037001e-03
-1.402912763557230763e-03
-1.145690733293827646e-02
-7.802516546563447938e-03
-7.770750890309992276e-03
-5.385923657168117593e-03
-6.275873869856414284e-04
-1.771747054954199451e-04
3.128852120827498723e-03
1.409088995898123372e-04
-5.256174738445723582e-03
-4.974950958722348590e-03
-3.989683760567312200e-03
1.258524125161284346e-03
3.348919400858831052e-03
-2.846171819934099553e-03
-4.296202226951510370e-03
3.419386969177010301e-03
1.168439121922447768e-02
1.417206983858993949e-02
1.159470306760466626e-02
3.899560387756939236e-03
-2.932898609539829823e-03
-6.158979806182099566e-03
-1.122198990040714113e-02
-9.384787023263098382e-03
-2.079335713359503710e-03
1.766133323011198869e-04
1.851200608611084601e-03
-7.168213610109778122e-04
-5.705431694878355768e-03
-1.768160383623076839e-03
7.508247229989069467e-03
1.317416289592250080e-02
6.963552751591746762e-03
-4.087767712971182923e-03
-4.609380051362843393e-03
3.649256781097556779e-04
3.759904001166629837e-03
4.385636197832394612e-03
-2.089981628250434618e-03
-7.981920751893538737e-03
-3.043150223148052662e-03
3.744616981755938354e-03
5.157830756209999534e-03
6.669814652440878705e-03
4.223297111084541727e-03
-4.301252575969520759e-05
2.913675596578515440e-03
2.535680046024015120e-03
-2.771352584914876446e-03
-4.246637136225492846e-03
-5.993141676641091688e-03
-7.372969842320309039e-03
-9.024488963825435042e-03
-1.081956540579705195e-02
-3.189170516188682362e-03
6.291554774407549788e-03
7.314701783541402609e-03
6.772374748316769937e-03
4.006623656851410892e-03
-3.192001783945738920e-03
-6.202247398903872749e-03
-5.425123889102230652e-03
-5.273612484978987963e-03
-3.115470390007035739e-03
3.771187211692349152e-04
2.480219555325457147e-03
3.081266731177646247e-03
5.285271454636934242e-03
8.695680143676534982e-03
6.227839633380744325e-03
8.125765477991472646e-04
-2.096988299868750641e-03
-3.374638244355939246e-03
-2.642627462763108039e-03
-7.146590703646617075e-03
-1.075123049801910043e-02
7.519845439184142440e-04
1.009238715178898196e-02
8.540458334983999644e-03
9.195468488112895633e-03
8.489719963420336302e-03
5.645799556855863460e-03
2.078362430725809017e-03
-8.383072240594044780e-03
-1.471221885438545214e-02
-8.991120681717945998e-03
-2.708045960082834051e-03
-8.372875014038596024e-05
2.974361410933231472e-03
4.121465676174398095e-03
2.539898541649394242e-03
2.985275132650929211e-03
2.718411784381723206e-03
-1.537129854190594485e-03
-4.340317712743209724e-03
-1.621540764647662770e-03
6.042892680440233033e-03
9.411483685164121621e-03
5.265088555557723322e-03
5.662750735532076467e-03
4.399019085210429530e-03
-6.358636199332293702e-03
-1.010606929535551660e-02
-6.438721841168061968e-03
-4.167844776684801952e-03
1.454638978316276365e-03
6.386371588890629898e-03
4.798478018490077643e-03
-3.753875906286628043e-03
-1.393536985845228449e-02
-1.196001704838787344e-02
-3.363401955274202861e-03
-1.192159607601578570e-03
-1.541035027238770111e-03
-3.555800151860759664e-03
-4.464169215436430450e-03
-1.759216042280550233e-03
-2.410572941476041807e-03
3.993323534133588933e-03
1.556477419327335215e-02
7.606541208975957716e-03
-4.174410625319392547e-03
-2.122130555650497685e-03
-3.659681106149254449e-03
-2.780934169944539007e-03
5.230688134628847831e-03
5.845173924894648231e-03
7.165699103872619907e-03
7.371140226299200716e-03
-2.173877083328507997e-03
-3.214709321803481054e-03
6.518410160590067809e-03
9.713296568427490577e-03
3.888143227945116062e-03
-3.760828333640107643e-03
-5.066270182803289321e-03
-6.369839089806052321e-04
4.919469419679338255e-04
-4.278976728076106222e-06
5.023537964652900756e-03
9.309524643731732427e-03
3.618165713979311880e-03
-6.726224354173695845e-03
-7.953650689310262992e-03
9.543164490952517386e-04
2.464576956054213668e-03
-1.916759336844200187e-03
2.705141284188293440e-03
3.162445850556346114e-03
-1.066616133637855388e-03
-3.072658491108101481e-03
-1.280819043045250231e-02
-1.023733538268118207e-02
-6.218262300400582455e-03
-2.759042832852342392e-02
-2.503144309835639292e-02
4.318179088373241999e-03
1.196995515609651853e-02
1.529647935803634361e-02
1.816839262955988535e-02
4.524120884851569151e-03
-4.257200540051245090e-03
-3.952816860654503016e-03
-4.341273287348365248e-03
-3.235370957180017971e-03
-1.999971254566174691e-03
1.492528552989989214e-03
8.716002089932653810e-03
9.564443863268662013e-03
3.458031937231557419e-03
3.339642606024783612e-03
5.076543266527524211e-03
1.665630699227117805e-03
2.345747017541484781e-03
3.454939235988722240e-03
2.217680830605768170e-04
2.081180653248181751e-04
2.049352580171989822e-03
4.481640270777552566e-03
5.297817809647381061e-03
9.628787868166433254e-04
-2.011672427799218732e-03
-4.108659319171277698e-03
-6.477183281566867117e-03
-3.532180230253882149e-03
1.301287302949439011e-04
6.885077670185854593e-04
-1.209096949752430997e-03
-5.834865154445534330e-03
-8.038672723884924404e-03
-5.853749033408164361e-03
-2.532611476213504111e-03
-1.988883861182487185e-03
-2.562387669303121777e-03
4.022084484743448820e-04
-3.235020002628689710e-04
-4.044541677692751981e-04
8.961054483642575189e-03
1.073578306501681359e-02
3.510717825137724211e-03
-3.500877768644655632e-04
-3.789562290151603924e-03
-4.697264614924454712e-03
-4.475536057646734185e-03
-1.195623445947213877e-03
6.310322860414436033e-03
4.284028476403757861e-04
-7.665312230377117203e-03
-8.765087371961546164e-04
4.525496546032081908e-03
5.504867516517749672e-03
4.510645197846460328e-03
-1.213747621265833746e-03
-1.541388821816268555e-03
8.441123919984271518e-04
-3.387603740511641905e-03
-6.715793542917199328e-03
-1.528175624012794234e-03
4.557763141301379717e-03
5.103451475230639731e-03
4.624093085751112935e-03
1.486822194691923664e-03
-3.039935793412537179e-03
-2.551313706279055571e-03
-5.800226873328212171e-04
2.601793971234226972e-03
3.581704807657419033e-03
-5.924675229331221021e-04
-1.575537031837866446e-05
2.576665065147723272e-04
-5.883692997191779066e-03
-8.051296259006567382e-03
-5.076379944768216572e-03
-1.036838492244858883e-04
2.917347991008469987e-03
3.303592951799304788e-04
4.556925325901345922e-04
3.716210061757469537e-03
4.698402434332362571e-03
6.410387015394152128e-03
4.223697235719983678e-03
-4.110509922738481148e-03
-7.310202029161098902e-03
-8.697762033712355982e-04
6.679472711058135649e-03
5.843442765214173183e-03
2.658490567140756999e-03
5.648704265166974367e-03
3.341032846868462799e-03
-4.809720222772284094e-03
-5.912480853312842601e-03
-7.217444997301609294e-03
-1.101898206857947378e-02
-7.385778310610242349e-03
-1.309997623490882432e-03
3.455605845236852779e-04
-8.416011356132167636e-05
2.957579822120868021e-03
9.009284593178026879e-03
9.788935651079095496e-03
4.816641789547193228e-03
-2.342369786664214200e-03
-8.684599077035507625e-03
-1.059005526679803952e-02
-7.994425905280246047e-03
1.730766619359023388e-03
1.028153284495791214e-02
6.822234495075602846e-03
3.331022465177237765e-03
3.645346649131768133e-03
1.719993675020902195e-04
-4.854627608036064020e-04
1.115262641367946060e-03
-1.182960457420414524e-03
-1.161193880914676091e-03
-1.341180854319546072e-04
-3.036184656329960364e-03
-2.026100217221561781e-03
2.896315743526750152e-03
3.755370429374224606e-03
1.505076741049361788e-03
-2.677149860690875537e-03
-5.660431296341718148e-03
-4.444641382123455317e-03
-3.155449318699310272e-03
-4.004561992046659896e-04
8.870202321680127622e-04
-3.130554096774281533e-03
-6.905338593091231089e-04
6.639676360544231361e-03
5.207582394217942674e-03
-1.259591608269685823e-04
-8.639959176127511888e-04
-2.173093870805249976e-04
-2.764418378420521846e-04
3.793194313313498576e-03
7.310307642550480968e-03
2.558610450390882366e-03
1.212342456214665371e-03
7.345818206623487903e-03
6.849650105995369262e-03
-2.310213193542087935e-03
-1.046585966632424848e-02
-1.087777329552325374e-02
-9.738724795022867670e-03
-1.246380253533733648e-02
-1.023127739574664595e-02
-1.535886486168874451e-03
7.228374248712033691e-03
1.052883850783005101e-02
5.838442887267782794e-03
1.071620361620255132e-03
-4.994354730813243366e-04
-2.767169119905662535e-03
-4.936492021707547875e-03
-4.222355329428374889e-03
-2.826396378123171237e-04
2.596266223449269356e-03
7.520468059715500544e-03
1.487539743991736670e-02
1.196700416893348856e-02
4.941366894113703202e-03
1.822102042725265089e-03
-4.974836976464560960e-03
-5.711899073370216469e-03
2.212498555310370846e-03
2.763751651631076844e-03
-2.048384841418852444e-03
-6.520316090610688183e-03
-9.985820953331746297e-03
-8.135104937069113917e-03
-4.879832361195129975e-03
-3.831872285633003417e-03
-3.209796888099638538e-03
-1.169542142294413209e-03
1.708763337474339134e-03
3.936867596561586407e-04
6.087310575091009392e-04
5.722772720116550693e-03
7.168945399150316450e-03
6.034808108593775478e-03
2.088012392656242791e-03
-1.483859889307682315e-03
1.311044395828227759e-03
1.692716057654977940e-03
2.306320493959220473e-03
3.732680785172060121e-03
4.570241023065145991e-04
3.030797012042796019e-03
4.804735026625950658e-03
-3.455646517962884107e-04
-3.003964032443265982e-03
-3.856881643010037514e-03
-1.935009197315647233e-03
-2.361236700534727513e-03
-6.651150251146932882e-04
1.578093370897163924e-03
-1.949880499590264313e-02
-2.807957829898101096e-02
-6.992652731778096044e-04
1.200486826890412133e-02
6.568754106961079316e-03
3.646111746242874842e-03
5.591708675459493598e-04
2.750720510900832392e-03
3.490388880009524970e-03
2.511383543710167445e-03
4.233066559102115906e-03
4.016356564237796682e-03
5.996746724148539591e-03
5.242850204956266656e-03
1.307151455546658007e-03
3.318286304235926643e-04
-2.075722995308435393e-03
-2.712181786718171651e-03
4.726569697215755091e-04
2.652482631059648391e-03
2.392070354263629763e-03
1.908462951228515319e-03
-8.642762727990671665e-04
-9.494746868269307236e-03
-1.038797794729140987e-02
-1.821910082002123994e-03
9.656708894132120949e-04
-3.593860570075413244e-04
-2.674981309984781220e-03
-3.270923565630842311e-03
-5.188843444553286818e-07
1.030353118597300511e-03
4.847709234037724814e-04
5.001538828241890037e-04
2.995902300442226593e-03
3.673309387112300584e-03
-1.448194894481027745e-03
-1.914027862762027188e-03
1.441356827194363761e-03
4.632697535019312564e-03
8.442577340877072817e-03
7.680136083150435923e-03
6.332394528623721056e-03
5.880950039438255852e-03
2.505507938262920183e-03
-1.841447654504775426e-03
-4.061047111102951412e-03
-5.199537391704137611e-03
-5.430024183564044482e-03
2.410195745315015393e-03
4.646837794380321955e-03
-7.486473245684030411e-04
6.318582456418819510e-04
-2.019798408756616134e-02
-4.446655286695889997e-02
-2.399963367301103517e-02
1.461438914402483870e-03
5.059049582129601826e-03
4.368755748192779641e-03
6.805241362068301623e-03
1.690413690967024207e-02
1.805608350368122922e-02
1.028850069196491669e-02
8.335907223796795371e-03
4.625026426397883979e-03
1.705120695492277124e-03
1.394466913355852343e-03
-1.979834780995256725e-05
3.339711141663146039e-03
8.009344651327359940e-03
6.133670362174221957e-03
1.565434498324105817e-03
1.253498236768693652e-03
-1.844477585246376500e-03
-6.521561141204734909e-03
-4.754045814875242082e-03
-6.549727350936418793e-03
-8.600854849080222589e-03
-7.001691342515189813e-03
-8.916902537145146926e-03
-6.317270729280151723e-03
3.497811065294965591e-05
3.406321697777525779e-03
1.462800730727154127e-03
-2.188150303204811336e-03
9.032339469450759856e-04
-2.155923331782101052e-03
-8.969237015993124923e-03
-1.024505952528458009e-03
1.166232680276373460e-02
1.873171460992149179e-02
1.773123459025018403e-02
1.194037828032676503e-02
8.453120345067578409e-03
1.755572357140191718e-03
-3.493299683373320662e-03
-4.933775041253110789e-04
7.133506398039374426e-04
-3.101065392447597928e-03
-2.695154349062629882e-03
-1.986353807967183882e-04
-7.186971869821422686e-03
-1.450902096922268396e-02
-1.288267421157792032e-02
-1.012028830235663091e-02
-1.261290038665704299e-02
-2.171749148647297498e-02
-1.836305143143689145e-02
-2.176491312058960285e-03
2.368886157770518390e-05
-1.085743748835151564e-03
4.360646547671575765e-03
8.161319341582826473e-03
1.243593357503079179e-02
1.051496443460188911e-02
9.085008788054724227e-03
1.215792869238396107e-02
8.059546644132250040e-03
5.548708992557176492e-03
8.382744316039232244e-03
1.151711376814712473e-02
1.505637416505163119e-02
1.453271826876942341e-02
9.024559914752577211e-03
4.022922232507921509e-04
-2.051276901388967688e-03
2.098109023354190292e-04
-4.844094333463658773e-03
-5.642573914094385808e-03
-2.633719231306543875e-03
-9.895634270714031427e-03
-1.590551537325610165e-02
-1.278023699743047713e-02
-9.810980282443952302e-03
-1.256290092524960968e-02
-1.268553596577512953e-02
-5.573646736743788181e-03
-2.686565961638634308e-03
-4.464414811494447043e-03
-3.832106632612468106e-03
2.139666916127183800e-03
1.111899243147624478e-02
1.110594103905097017e-02
7.908586311814435818e-03
9.054528823077723221e-03
5.209239738718306201e-03
1.327909243720089847e-03
6.486766947520234295e-04
1.519654403434980358e-03
6.171013592454634329e-03
2.453848677678284809e-03
-4.248651535004834695e-03
-8.212016767471788312e-04
-7.401083076470750879e-04
-4.318009311879902369e-03
-3.834546813519372401e-03
-4.980280951058074432e-03
-5.562962595141299378e-03
-6.725928191269371810e-03
-6.103639947384341229e-03
4.281820149834018006e-03
1.072625183569852342e-02
1.092307103787013706e-02
1.295760739980741059e-02
4.562804652581380592e-03
-4.347282476214026602e-03
-1.303033184964596364e-04
6.178232698229132363e-04
-4.797391221084823651e-04
2.865461295971953679e-03
2.540251390430697635e-03
2.632823499980949718e-03
2.573238143694803279e-04
-7.471363842692231062e-03
-1.070698574575333108e-02
-1.098759830237720433e-02
-1.126163609927228332e-02
-1.068590757210204426e-02
-1.081469393052160617e-02
-1.062184992016986657e-02
-7.893764579309925714e-03
7.459293656771545655e-04
8.963442410727844381e-03
9.426720222524026527e-03
7.240417094534443501e-03
4.082920077236996612e-03
2.173935941939757199e-03
6.416618342323772428e-03
1.372394157840139094e-02
1.723708888481503138e-02
1.561880435224549495e-02
1.475207736765297810e-02
1.198692342823942485e-02
4.043990216520243486e-03
-2.328741696978286341e-03
-3.792332500315201849e-03
1.229402351316786959e-03
4.293661674620241446e-03
6.576449593911834479e-04
1.117218157539312442e-03
2.750208444039818016e-03
2.543183370399644191e-03
-5.129968281944553366e-04
-7.739791283956121842e-03
-1.177931663053701297e-02
-3.176225414577483336e-02
-5.735564085577454091e-02
-3.961301143985191536e-02
-5.942110005100672068e-03
1.087159136097780266e-03
2.196562106710907899e-03
6.041555237029819919e-03
8.200514625616883713e-03
1.509874161350471811e-02
1.606673457211973272e-02
8.482922351938747621e-03
6.612497771352454298e-03
5.806062018870477952e-03
1.437257426314633929e-03
7.520964281511137960e-04
2.557434888240566959e-03
9.685030497821286652e-03
1.424419030508198604e-02
7.210712253823890056e-03
8.572763143788993470e-03
1.023024904536056628e-02
-4.603550397032105633e-03
-1.150819469865944217e-02
-7.459353496280603582e-03
-4.697717843874921022e-03
-1.364863067939062159e-03
-2.417360093682497432e-03
-3.693890980797096771e-03
-4.492583973837983857e-03
-8.102799078118134296e-03
-5.630042186158003975e-03
-1.265484565264096911e-03
3.341270368807572506e-03
8.681175524315800154e-03
5.141578883577963346e-03
5.042958955644116087e-03
1.277926633192736847e-02
1.353780672409860518e-02
1.239722868473512769e-02
9.776384516887550932e-03
2.713787931291847515e-03
-1.368031419577481938e-04
-3.863820580708672570e-03
-7.916405214528559470e-03
-3.981865277004017177e-03
-1.645963557602901422e-03
-7.207292611987166364e-03
-1.227267369216230794e-02
-1.269037547193596453e-02
-1.373879525261688037e-02
-1.462102522098615402e-02
-1.527423394498510917e-02
-1.855335023322903301e-02
-1.096956852156831010e-02
1.061196762168516378e-03
1.346311634720869822e-03
3.670556603205700832e-03
3.333245922836925237e-03
6.516078996299753436e-04
1.339711932800375684e-02
1.860690141793200011e-02
1.069519663202592348e-02
9.451140641640888226e-03
9.708251114300372325e-03
1.270457042523238586e-02
1.677335867239276163e-02
1.323965300982743801e-02
6.417692370367875272e-03
1.668397015959537143e-03
4.575616257568295916e-04
-4.405846346883573669e-03
-8.940547980116462026e-03
-6.322383594060133546e-03
-8.811232887829095403e-03
-1.393605616997044966e-02
-1.399866263506716405e-02
-1.199250269019954893e-02
-7.002240054100270124e-03
-4.272935544815853297e-03
-2.734822337772829706e-03
1.130438230074090741e-03
-9.102182316506437273e-04
-3.204795702559994422e-03
2.523090198078878355e-03
5.505125880653688464e-03
3.144325324746288786e-03
6.499855154308429445e-03
1.140783178679295740e-02
7.830649675673963250e-03
1.126337417678945942e-03
-2.065159528353710614e-03
1.176691236403281391e-03
8.271460436167684879e-03
7.680431876963511942e-03
-7.867806484621829837e-04
-5.261690729272854201e-03
-3.674801473509639593e-03
-4.647469833935535637e-03
-6.567061875131447249e-03
-3.960004143245370901e-03
-6.068058345512055037e-03
-1.089126525245595958e-02
-8.055237889400932924e-03
-2.989678333146218898e-03
3.688663453424154571e-03
1.042829015200835187e-02
9.695943856023547455e-03
7.775171690425246480e-03
8.412923343205220422e-03
7.012576797947834076e-03
4.300388053547939127e-03
2.512437467468258290e-03
5.615446610325321814e-04
-5.323471108832851561e-04
3.553218093021456771e-03
9.304190473268258293e-03
1.243243912079496083e-02
1.264171597430238658e-02
5.818503898177366726e-03
-1.954392036377690899e-03
-7.266822036290726539e-03
-1.751681660586486278e-02
-2.214365193876047591e-02
-1.457747705227514963e-02
-7.306710660198130654e-03
-4.767478064632779504e-03
-7.745198304861540539e-03
-1.148660134246596264e-02
-1.176158087011187209e-02
-1.684441313104757462e-02
-1.836917222532316943e-02
-1.080126998170634345e-02
-7.080991868312327443e-03
1.219033063323501399e-05
1.038852468552534450e-02
1.212040287645571937e-02
1.476907274499593935e-02
1.784855368132602302e-02
1.811678058300748156e-02
2.010621509107739582e-02
1.503402077353510093e-02
7.830057513853157583e-03
6.162040361225216978e-03
4.364969550360833957e-03
4.325885444877609377e-03
3.976518835995345932e-03
3.196667996544285285e-03
4.876782181976509027e-03
2.203838313097849361e-03
-3.802851513185572484e-03
-6.341392528201497680e-03
-3.870784423596367561e-03
-3.498794807321388076e-03
-6.848975268792565664e-03
-4.638103794285063260e-03
-7.144577929886156836e-03
-1.133781932381823336e-02
-6.085672949474743923e-04
4.367304849285251304e-03
-2.634017931958099884e-03
-7.318595478916826123e-03
-9.860906081102766008e-03
-7.181632659142944512e-03
-6.523711887682581700e-03
-4.530488077562957842e-03
5.812539762183616815e-03
5.376283383490131941e-03
9.698280302790419135e-04
4.378573460744787128e-03
1.732770923355594255e-03
-2.052290949473615199e-03
3.187245402946332559e-03
8.922149748059583774e-03
7.409868854747214857e-03
5.306845304880431803e-03
5.193791697111244283e-03
3.846932553203254428e-03
6.974648479152485009e-03
5.732262806293795740e-03
-4.802838350753206240e-03
-1.144352095494810713e-02
-1.489743639078971831e-02
-1.426226898728008563e-02
-8.013765321682821824e-03
-1.628565282660952591e-03
2.332279476597228732e-03
7.004331540418700600e-04
1.568614390288491055e-03
6.188527124578614876e-03
7.728062477550616191e-03
7.408634773285548321e-03
3.122691136775153191e-03
1.929812000581327671e-04
-4.424406389460916293e-03
-1.341170525231481260e-02
-1.304991840154119849e-02
-7.977328966849345920e-03
8.734339467426173106e-04
1.339798003878239774e-02
1.838392405618120840e-02
1.877367318868764651e-02
1.174683506613950768e-02
3.224035401660453257e-03
1.250831189424820872e-03
2.616737214390474180e-03
5.424339013326649923e-03
-1.261730766311323047e-02
-2.877531981777531334e-02
-1.072012529038703955e-02
-2.429466540274496499e-03
-7.163341610152006329e-03
-1.343979019468438067e-03
-1.822018539291807944e-03
-1.742657716484742299e-03
-1.261493799907468637e-04
-5.485162968359227897e-04
7.891340683788527696e-03
1.221267225425427816e-02
9.344541593799287130e-03
7.525584027111202265e-03
4.501408689396301475e-03
-5.148489215856511501e-04
-6.929079237863084578e-03
-7.314039632304099314e-03
-3.909440279979576119e-03
-3.486106764113472683e-03
-3.970858082935885118e-04
2.692367123394747309e-03
3.600542315860580291e-03
3.604146068845047630e-03
1.300910934747930925e-03
3.247925644475351155e-03
2.861549306170585536e-03
-4.152647873966550801e-03
-3.289805665030413797e-03
-9.198146348045108502e-04
-1.281958949979115914e-03
5.970275723704330552e-03
8.486772234554653543e-03
2.753320603035241607e-03
-2.277158774177885040e-03
-7.370302519566583783e-03
-6.390676468355917933e-03
-3.534770035907283670e-03
-1.051990042104762428e-03
6.499822378049198435e-03
9.492999711409358735e-03
1.472902028318228210e-02
2.223282576399031665e-02
1.724632297800495276e-02
9.795369463028677851e-03
-1.656893290202258052e-03
-1.850809472219526117e-02
-2.654134747524883320e-02
-2.950324315053456589e-02
-3.026305172528535523e-02
-3.086684766440548136e-02
-3.005705437806725777e-02
-2.608558929424187323e-02
-2.990332407929873967e-02
-2.634663813986175274e-02
-5.682708223341797170e-03
1.340212241050815767e-02
2.844811633150744201e-02
3.100168755534008988e-02
1.568652712140544692e-02
7.670015860039711836e-03
1.706822973959602752e-02
2.623322544835417561e-02
2.595657793351092979e-02
2.303999351173667900e-02
1.955801772502828786e-02
1.751148020284074361e-02
1.851358000858781272e-02
1.445387621368544699e-02
1.117543542871843668e-02
1.711665913494917618e-02
2.401746868848710428e-02
2.624821318807852091e-02
2.253987471129652309e-02
1.440722816255677816e-02
2.915566013287571208e-03
-6.252976418890253581e-03
-4.270658358975414591e-03
-5.620247427144221992e-03
-1.842037610280924248e-02
-3.031867946309045603e-02
-3.903693896440032368e-02
-3.922346658066170472e-02
-3.432705618209940662e-02
-3.386495321998529706e-02
-2.469556921257616208e-02
-1.255271274557089728e-02
-1.191243737527653695e-02
-6.421411223259204659e-03
7.275190160887717167e-03
1.946050390581900713e-02
3.004174365229284049e-02
2.705190308535511748e-02
7.954512921609261517e-03
-1.280341314399852624e-02
-3.254066633328354941e-02
-4.328091108195812609e-02
-3.648609041273731535e-02
-3.073886284191467561e-02
-3.746436984815266352e-02
-3.637218954619497735e-02
-1.613346910666338049e-02
7.644745017504009192e-03
2.784840395443345315e-02
4.847200075794327184e-02
5.978313259242663824e-02
5.729748213959263980e-02
4.809966472613930871e-02
3.627801875096605538e-02
3.217664406023813123e-02
3.395304919765760460e-02
2.120613719265661626e-02
-4.972161433566570782e-03
-2.462361371840453284e-02
-3.386752556428312272e-02
-4.032232061795670841e-02
-4.191577508769458310e-02
-4.029165966387318609e-02
-3.692792711263635785e-02
-1.938139027280783716e-02
-1.060173687292289245e-03
3.278759159042762480e-03
1.234270061434070663e-02
2.037195629391976362e-02
1.641701119794797617e-02
1.666968242655299595e-02
2.119556128342050053e-02
2.032727121607258436e-02
1.505722730940476511e-02
1.072685320348520759e-02
9.466184921226908008e-03
1.556690187639413192e-02
3.410423290297157073e-02
4.551707282759326345e-02
3.348794523690358516e-02
1.599594266813719745e-02
1.489854011291513562e-02
2.072416810419273545e-02
1.220660961747555007e-02
4.792585964442677010e-03
3.679664211621944819e-03
-1.122981928969844778e-02
-3.778150464688961874e-02
-8.094541150275656738e-02
-1.154361614822876220e-01
-1.084616018885574268e-01
-1.016227654393366125e-01
-1.089368235888378278e-01
-1.003506961716539303e-01
-7.167165419165764939e-02
-3.338633195182193897e-02
-1.939168224115852841e-03
4.069193622052624804e-02
1.024926601089691386e-01
1.446411930483258168e-01
1.467261350236755690e-01
1.062914696590855218e-01
5.766224727578323633e-02
4.315033804761268799e-02
4.139458107400251219e-02
2.817989560040686653e-02
1.772356761442034703e-02
1.991979117555201656e-02
1.462219823168882729e-02
-4.579539933767105830e-03
-2.198382555463896521e-02
-4.227199058398676407e-02
-4.625899281051471662e-02
-2.611545035595352893e-02
-3.037234961356811633e-02
-6.459765021220802150e-02
-8.439870910564321871e-02
-7.160831928148519987e-02
-5.746423877498093441e-02
-4.887763640114162894e-02
-1.714363973721488507e-02
5.744049875839058600e-04
2.152727941509949977e-03
4.802263075571374523e-02
9.588625324994141941e-02
8.748438147826140265e-02
5.399773811818434771e-02
3.972421792447615452e-02
5.279659422238008187e-02
6.479968981718618737e-02
5.571257761914709394e-02
3.744865626496171607e-02
2.388660842488905117e-02
9.338352655708407127e-03
-1.170881621889530502e-02
-3.055270217672004587e-02
-4.090076951056082627e-02
-2.988523441641357040e-02
-1.211908541372258216e-02
-1.990598822281327077e-02
-3.859362400876002047e-02
-5.608391626911130717e-02
-7.027054440133333191e-02
-7.660964724351493338e-02
-8.168376596832181702e-02
-6.958617500334235428e-02
-4.449497145872282483e-02
-2.176147032210024729e-02
-1.483246182640266106e-03
1.382174298972710380e-02
4.242554990215090249e-02
5.584387691387582286e-02
4.043753405121857519e-02
5.161034651948250701e-02
6.386128406155375248e-02
5.039999337463708234e-02
3.751533191938195150e-02
1.692244335459027263e-02
4.664526794055686224e-03
5.673195009805506034e-03
-2.335861014110931447e-03
-1.124620377599295888e-02
-1.792995155487162040e-02
-1.669902452232348636e-02
-1.041078668741093893e-02
-9.356204400573922900e-03
-4.319180809009475451e-03
-1.395793987952171885e-03
-3.589121624564438600e-03
-4.329532669762124752e-03
-4.150791089620941773e-03
-1.768934989404572636e-05
1.405837383424276546e-03
9.906240161575573418e-04
4.505429931313807354e-03
8.122736657510716204e-03
1.340860645061318392e-02
1.473889992023069868e-02
1.402530100924226884e-02
1.796521938835713220e-02
1.488477426813054026e-02
1.165693644581734106e-02
1.804125591059002956e-02
1.014415235778146074e-02
-1.654602133869436525e-02
-2.790010766775461587e-02
-1.371634247240970800e-02
-3.267480517227342677e-03
-9.751488161166657273e-03
-1.523363028260430081e-02
-1.305806863690412573e-02
-1.177102032098575196e-02
-1.031504643217158110e-02
-7.512707241641090362e-03
-5.894551126233358446e-03
-1.653942267279223969e-03
1.778247109279018721e-03
-7.919057379425442850e-04
-2.986469260985565900e-03
-1.135335126468015217e-03
1.267265386129501261e-03
2.125621483852286643e-03
7.592926455048076319e-03
7.026086613368969294e-03
-1.701470233074097241e-02
-2.494207358538788610e-02
3.080705960993206875e-03
1.547147462310136980e-02
1.144036853723573964e-02
1.311186396834071108e-02
4.679644913850602994e-03
-2.936705529499322059e-04
1.231720702707340834e-03
-5.175611788792121998e-03
-3.063882497060264887e-03
1.198639291540291949e-03
-3.317582260358495957e-03
-1.740446718469188751e-03
3.634772652872837045e-03
5.686223112362614671e-03
3.954510948608095343e-03
9.431194632747769602e-05
-2.402174987111433367e-03
-3.404060832107954140e-03
1.183108917218335561e-03
4.598301730827514776e-03
3.632579995721571531e-03
6.417588344568600327e-03
4.643987252942529363e-03
-9.382626655227093533e-04
-2.809462369218381113e-03
-4.016109177001958574e-03
-2.754416030731617320e-03
-3.040550902369160667e-03
-4.814359899295218848e-03
-5.296743793434878153e-03
-4.084541820641353176e-03
3.201583276747197674e-03
2.524632575911051231e-03
-4.137435199658091346e-03
-1.968276257049465620e-03
-3.641119529438005976e-03
-6.598711474087546290e-03
-3.336846296431130593e-03
4.327562748860191814e-04
4.981277112360516825e-03
6.820617057719622657e-03
1.037965329498714319e-02
1.003964742904213912e-02
-4.260513733327043139e-04
-4.984970976490879502e-03
-6.751053112165134734e-03
-9.662709749745342427e-03
-8.785183632702526016e-03
-4.869035526975046789e-03
4.771294224743370324e-03
6.437797565467363349e-03
2.543516071613285186e-03
5.969510004683399422e-03
5.083709742388736914e-03
2.497974268218032881e-03
-1.961697666279033341e-03
-8.707126867957167005e-03
-3.403873791284495361e-03
2.769278424128029156e-03
3.002330608307938412e-03
2.757448897096632240e-03
-1.391485186787500645e-03
-2.657938986732803852e-03
-5.674652068550625544e-04
-1.416807029227326901e-03
-1.949305299162585464e-03
-1.899540554663231486e-03
-3.800932680354690042e-03
-2.609737009568460601e-03
2.815358295769563798e-03
5.068841277401526374e-03
9.467142687276419374e-03
1.436052972348414447e-02
5.275028972042914224e-03
-6.115154031642892549e-03
-6.874753098039095012e-03
-6.261837833814214854e-03
-7.851534202400133403e-03
-4.328782759338259574e-03
1.719770992696954392e-03
3.668473074559417887e-04
-8.468924080251543762e-04
1.399679192069914037e-03
2.868386615431810552e-04
-2.077958014197713726e-03
-8.844415381369196208e-03
-7.948654316170027101e-03
6.947742371332923418e-03
1.037446577016430324e-02
6.390962118877150343e-03
1.180326428000180033e-02
1.469470972616164148e-02
9.039192730634677472e-03
5.494722223709338008e-03
5.680235055978702201e-03
-1.156947792107409362e-03
-7.929464550998419417e-03
-8.099354936494140497e-03
-8.309720897672125475e-03
-5.666068524517427554e-03
-6.357270112414521203e-03
-3.829276099789429271e-03
7.921451784393544401e-03
5.572590122510990597e-03
-1.683740943947268417e-03
5.490532085221725951e-04
1.834661695434259242e-03
2.012308208421170926e-03
-3.797805911739039319e-03
-1.079630819656132723e-02
-1.320749290219417997e-02
-1.630212548833576136e-02
-1.207423489846477620e-02
-6.183238716304771329e-03
-7.194796774833656268e-03
-7.449622507997286092e-03
-4.074699761511473006e-03
2.246250151713432598e-03
8.875901845071856519e-03
1.530233192394245961e-02
1.582424231518067548e-02
9.490950341308248758e-03
8.338849887771304994e-03
6.436141548532866956e-03
1.866809527149608777e-03
1.516268964223019006e-03
-2.952479776866288354e-03
-5.711631770798479731e-03
4.161911361017060773e-04
6.238153362656722982e-03
9.272304714091544886e-03
8.897207091610728411e-03
7.214776598625013276e-03
8.830269997365474896e-03
7.883843444006222168e-03
2.964701260222119168e-03
-2.911482121548830963e-04
-3.331786969338888446e-03
-4.686467490939505778e-03
-4.802203158713443110e-03
-6.431386849528132610e-03
-2.566933592444539582e-03
-9.692251332528158906e-04
-6.965285229064161615e-03
-6.872230952665657304e-03
-3.822061409641479886e-03
-1.958900985336481642e-03
-2.001308067808235842e-03
-4.096593652173442790e-03
-8.977888204128323460e-03
-2.830071999764899662e-02
-3.034512384744612531e-02
-1.486362524997998820e-04
1.347913143586675078e-02
1.243329950299457837e-02
1.272426553511693016e-02
3.436612757514913123e-03
8.725038185525721911e-05
3.720167674008638316e-03
5.419678112655170604e-03
5.555914023185455630e-03
2.734642593690392223e-03
2.863954450420463232e-03
3.282643606989261173e-05
-3.825205786477218345e-03
8.565001100729742294e-04
2.996479882427341077e-03
1.826849334965017114e-04
-1.988773065480306664e-04
6.002764215063613462e-04
1.496086354421018345e-03
5.251601378376185257e-03
7.990305063115524589e-03
5.419675452558820813e-03
5.503690300071255488e-03
5.219771653754492167e-03
-1.733060988919034144e-03
-5.674536842148289462e-03
-3.424655635187377929e-03
-1.214881658607373403e-03
-1.373481524480180604e-03
-1.242769558929473031e-04
-2.724007424611216924e-03
-9.269510795504637760e-03
-4.031798081248351429e-03
1.667057944266826623e-03
-1.311263682922089550e-03
-7.809608697264181941e-04
-2.364827607636538643e-03
-3.759545122261323882e-03
1.054074302217427629e-03
4.735481768228323556e-03
6.277965852457734544e-03
7.164923860756470565e-03
6.775676781124047830e-03
2.289465821800492316e-03
1.177644708376813848e-03
4.074249304876537484e-03
5.478862636564326566e-03
6.887575549126770044e-03
-1.761389794985577378e-02
-4.379575560752963642e-02
-2.188544414874087421e-02
7.638317112580924337e-04
2.515961734917318126e-03
8.490750335368424037e-03
4.372519895497328259e-03
-4.796993886581060133e-04
3.123275964652195372e-03
4.675824709087117448e-03
5.342605313380059152e-03
3.520510936047923332e-03
6.289560429221880723e-03
9.128069840703028834e-03
4.502878090295427474e-03
5.870301145741416192e-04
-3.927360376738468078e-03
-5.230775283940902048e-03
-1.010407848376694909e-03
2.818052054457374084e-03
4.168345946495163878e-03
2.543490171932194857e-03
4.155552182528428860e-03
2.519264845756537946e-03
-3.857757931019140541e-03
-1.169236752549865236e-03
1.214120762274835440e-03
-2.102256662270837392e-03
-4.592691530869903900e-03
-8.386507542850115196e-03
-6.555431754092480752e-03
1.207727692824458413e-03
6.134571484435628018e-03
7.946477601379644401e-03
5.765541461538059402e-03
6.868385126901851729e-04
-4.995803262722238978e-03
-7.193736168065133045e-03
-1.527710018036458443e-03
1.839719328559229379e-03
6.774331619710084003e-04
4.147865067130795426e-03
5.353571496937160369e-03
2.677824296785937495e-03
1.772653115330006949e-03
8.743339309626196355e-04
6.414289631846575596e-04
-5.159227227503691837e-03
-5.789804825927421898e-03
6.230214939666534231e-03
3.282528749557913402e-03
2.766700434294999244e-03
1.156110836200753035e-02
-1.542434406944047202e-02
-3.537440988990971785e-02
-1.084362230720578753e-02
2.522565379852600379e-03
1.702547578398130119e-04
1.720450655475199179e-03
-8.114726849079459360e-05
3.565159868880428580e-03
5.579209179947391094e-03
1.844741293732566050e-03
3.322231646850480440e-03
1.851714822681654968e-03
-3.158234917997662476e-03
-2.943756008048898417e-03
9.355855089840916985e-04
3.288277388872780371e-03
7.417533313078018831e-04
8.990664978538547274e-04
6.925567353568580324e-03
1.074295521173276001e-02
1.149089650356951292e-02
7.761972737093493675e-03
6.703567995332154490e-04
-2.658727546103885689e-03
-5.034507978923579916e-03
-6.437398947787401071e-03
-2.582866508517356330e-03
1.634957572654757848e-03
4.122540472049963413e-03
5.787790940088369251e-03
3.711573443368311378e-03
-3.097052729347391387e-03
-8.226546730182776601e-03
-5.437894400341475656e-03
-3.615889320045849800e-03
-6.200493250448293678e-03
-3.679331683779834931e-03
-1.253400147232878016e-03
-1.430183291899579396e-03
3.751981981462686449e-03
8.430797691167586996e-03
5.182803574801092723e-03
-3.285271799564662074e-03
-9.320817847536150974e-03
-9.544651827246364642e-03
-6.207777628600069826e-03
-8.861380686109106460e-04
7.601055946231319435e-04
3.735868902556330716e-03
1.168079569901928766e-02
9.485939388684623205e-03
2.970565194587264368e-04
-4.532793422335272895e-03
-5.629148341080940886e-03
-2.638235390778153819e-03
-3.659457207703885415e-03
-7.776045664293588545e-03
-5.742578219827922277e-03
-2.524938396157347387e-03
2.004626786333137296e-03
1.074759848394238847e-02
1.791092194247352262e-02
1.496424227454182763e-02
3.470376741013742397e-03
-7.324290187151672642e-04
-7.166552048301366457e-04
-4.599749520208429483e-03
-2.908635334332632561e-04
5.466915414968897061e-03
-2.584097704670629617e-03
-1.104206303616279798e-02
-8.434464025482465988e-03
-2.724439150450979740e-03
2.791089445961303546e-03
4.031096702415398053e-03
-5.012884990437635122e-03
-1.188829574384962090e-02
-8.490692170810779787e-03
-1.875028514027824150e-03
3.276485040905969138e-03
1.764403901372123750e-03
2.241789028283939968e-03
8.687982201070485258e-03
3.567253675974255134e-03
-2.462698602293383280e-03
3.514325913468743789e-03
3.943510595730093625e-03
1.160905682615743714e-03
2.912387779435050578e-03
1.161185488454949573e-03
-4.727385059176554788e-04
-4.296665649079745540e-04
-2.901328844287732935e-03
-1.703747365090136105e-03
4.396417900999148240e-03
4.930663128322087391e-03
-3.526854300915430434e-04
3.558397003345913426e-03
1.432717461498937174e-02
1.239658238944717737e-02
4.977826548120626443e-03
1.550289754633469262e-03
-1.844542046553745637e-02
-3.819363777390503284e-02
-2.233338348548600735e-02
-2.277766493294039810e-03
1.352859835652242375e-03
9.610834146360387742e-03
1.224762841337936718e-02
8.181573083147002448e-03
4.304936836994083943e-03
-7.530655184056194579e-03
-8.344890030519186777e-03
-1.100197331518238232e-03
-3.597218322858416768e-03
-4.982750053598614896e-04
3.439672468017045646e-03
1.390854108247991478e-03
4.476860316471170491e-03
7.250602113041944817e-03
7.268317751291375299e-03
4.406111381921232369e-03
-1.746581217489653112e-03
-4.307405211595836600e-03
-1.954460586494720722e-03
3.340120016434790402e-03
3.286097702980985032e-03
1.596383298277175358e-03
6.442365789003340337e-03
3.648049610635153116e-03
-1.831578596956429973e-03
-4.083247840247354902e-04
-3.814539162159466881e-03
-5.341226520201644047e-03
-4.099489529058739958e-03
-8.674295275926068721e-03
-7.549138153909865263e-03
-2.927714119120722065e-03
-1.775081316909264207e-03
3.979217805457685962e-03
8.100368734857830988e-03
5.035606272625297967e-03
4.511134234208273412e-03
2.137530719768365901e-03
-5.913002727001495130e-03
-4.582578381916163970e-03
2.702529827272428901e-03
4.133423746000204103e-03
5.464677486862687568e-03
2.040653107004975538e-03
-5.136037674360962452e-03
-5.260636398047248766e-03
-3.855943574638140154e-03
4.661870422268055624e-04
1.988878931796088986e-03
-3.562912172233058221e-03
1.942636507246437046e-04
1.754350934705383737e-04
-4.945455842942254703e-03
4.474071106586033006e-03
7.337784294527398103e-03
3.418620205425503683e-03
7.453699418640003134e-03
3.204534530987702794e-03
-3.562263308752951566e-03
-4.381120926124926380e-03
-3.949733864865483460e-03
2.543463616242274371e-03
6.609880277209833482e-03
2.805438246367260302e-03
-5.915111345381397117e-04
-3.271362994509145923e-03
-5.597177733625889259e-03
-6.019431084266082393e-03
-8.065359740153162094e-03
-1.015950019932917135e-02
-4.412591189749140441e-03
2.922494151158946344e-03
5.631556710926252131e-03
7.743773088335140220e-03
4.538925890380402298e-03
2.759490855013408891e-03
4.698747102940764066e-03
-6.142701461143087885e-04
-1.988062526208804904e-03
-2.078799471595386972e-03
-7.289670217060900334e-03
-6.332331026625524772e-03
-6.835263145017075014e-03
-5.534391151644202020e-03
-4.234394238526575168e-04
-2.129714555013066321e-03
-2.720499648985077405e-03
-5.563700037328000482e-03
-2.592880293484311604e-03
1.150680923786380656e-02
1.092100638384127347e-02
7.745014946127029738e-03
1.476339013973286367e-02
1.484988163946526600e-02
8.642547401766195389e-03
2.497882752415333694e-04
-3.526437388419967518e-03
-2.891118736634325833e-03
-3.267011626772940627e-03
-2.096776939286918492e-03
-3.408599459299189831e-03
3.005865741994451484e-03
9.995704542114187963e-03
3.505930923848701950e-03
4.625686430345578998e-03
2.597115365771287057e-03
-9.227306568745863996e-03
-8.179202782370309163e-03
-7.294458128621675135e-03
-7.390588319770219870e-03
-3.669022371548490841e-03
-5.266061226396261813e-03
9.415736693778947123e-04
5.185434417109669770e-03
-4.047174759168938388e-03
-1.201288393433378593e-02
-1.979039240175025152e-02
-2.277287226794545705e-02
-1.378450809172925874e-02
-3.550277953043658760e-04
1.259637862606615387e-02
1.814560675587133243e-02
1.617621112509438908e-02
1.226327018480363566e-02
8.898553808040856467e-03
5.556065234107101548e-03
-1.629205511510694584e-03
-4.269818142393436329e-03
-2.926776035622087602e-03
-6.640683507538448424e-03
-5.330116969761816183e-03
-8.874524322274099505e-04
-3.264465904761207826e-05
3.545813178254066545e-03
7.712950298135626097e-03
1.040646644652804681e-02
7.856456254002839104e-03
2.128213384609686006e-03
2.190352261588307016e-03
-3.687105084372102604e-04
-2.336943992126902514e-03
5.472178529290576930e-03
9.825073145974852137e-03
7.493016070831724947e-03
3.168790107243892908e-03
-3.803556667341047044e-03
-6.841812225156892330e-03
-3.965779946502540412e-03
-3.006286683677812221e-03
-4.850720675012374326e-03
-3.648268153784662605e-03
-4.071748357554933612e-03
-5.958992508737767820e-03
3.047680388872533552e-04
5.198154299594199244e-03
3.211975417112021731e-03
2.911294829757429467e-03
-8.124331679112379656e-04
-6.753407105305410559e-03
-8.495167391381352323e-03
-1.564445685815415640e-02
-2.164966908587754105e-02
-9.493464250076157768e-03
2.937581554341663591e-03
-9.558404804578549347e-04
-7.479838583644414854e-03
-8.879193011929202919e-03
-1.232334323068920000e-03
6.418259192610880313e-03
2.133272523700861616e-03
6.977326521220130265e-03
1.586709356048180211e-02
1.353706627446829916e-02
1.978337970693502465e-02
1.986334504399783069e-02
4.119745031750588447e-03
8.470017859993610870e-04
1.010953509339460130e-03
-6.102117016874603929e-03
-3.861468743834823875e-03
3.196329445325636533e-03
3.358686179987171918e-03
3.460057588770430737e-03
4.736220039416928242e-03
1.408915398429920734e-03
1.403916833777563980e-03
2.118322237929776315e-03
-2.589378115679878689e-03
-2.584705341009874494e-03
-1.534378672880840760e-03
-1.516873626889327521e-03
-1.376768923106497493e-03
-6.307652073278933666e-03
-3.652807930752561064e-03
-6.221191332256834940e-05
-9.426405302676719306e-03
-1.378681143568235255e-02
-8.088223055182100496e-03
-9.039052003934511682e-04
7.812383373819593337e-03
1.209735495391493602e-02
-2.610570673483047534e-03
-2.612036840476022331e-02
-2.015752312422775319e-02
3.509896006976908722e-04
-2.376269721331513915e-03
-2.872449637064899974e-03
7.371703289680110911e-03
2.999097738147463339e-03
-4.891931661408029011e-04
3.291954847897066074e-03
-4.248039870818556482e-03
-8.044091586741040911e-03
4.067454132201636652e-03
1.473600757782343035e-02
1.843709485641734439e-02
1.437683288124233343e-02
2.911055128066278135e-03
-2.177103219430879394e-03
-1.823700554188760893e-04
3.149917975035499730e-03
1.272057840681172468e-02
2.526333018572384653e-02
2.287995959431993881e-02
5.931826308439181600e-04
-1.355017820021259950e-02
-8.666640421583774595e-03
-8.018565783465884250e-03
-1.093153909631658025e-02
-7.673613360572538108e-03
-7.374550208441524139e-03
-8.633087950842712952e-03
-5.287168812007246241e-03
-6.392819737681311324e-04
5.234888536012096728e-03
7.457772273987273506e-03
-7.398158989987462181e-04
-5.757284403900032009e-03
-4.407309066981649273e-03
-8.705098487214631142e-03
-7.097162784475484314e-03
6.978394369930804048e-04
9.722181231878920240e-04
-2.061780201310925973e-04
-1.943893496792288870e-03
-5.845128472950880498e-03
-9.561428732912055986e-03
-7.146471876913374974e-03
4.779314777221447576e-03
7.877279247936569764e-03
5.956236755064820733e-03
9.158211893873191914e-03
4.194799777490837260e-03
1.330324050816000629e-03
8.332277105173322221e-04
-4.033263186150514747e-03
8.293306535806011827e-04
8.709977617930036607e-04
-5.673116912432837368e-03
-3.229976792521607656e-03
-2.763127980381060826e-03
2.280746541807797574e-03
1.036128009568856173e-02
6.490863758325758452e-03
5.393080493640193575e-03
5.381679971717898310e-03
4.817854145683373238e-04
3.296554909664578190e-03
3.959968441313102723e-03
6.004542046387928168e-05
1.482714952069592428e-03
-1.991650271209203724e-03
-7.099902045696424024e-03
-1.823442487613211082e-03
5.641379344268200938e-03
6.302030614946258977e-03
1.231493943385919901e-03
-2.178357730901592845e-03
-2.647401475982853140e-03
-4.893546269241020458e-03
-6.334225538319412235e-03
-8.225638924972177371e-03
-8.805886706056984328e-03
-3.198019298779421638e-03
-5.644554487835800162e-04
-2.850934052185383032e-03
-3.463629198891888823e-03
-1.447139445189280687e-03
5.784267563893102839e-04
-3.353282207789953610e-03
-6.363547491990607756e-03
-1.472951368838645294e-03
4.328169705476175508e-03
8.295694188210156819e-03
8.541129073030654176e-03
9.478596118920185054e-03
1.107345146703972959e-02
2.227366942109695099e-03
-4.897366002538499144e-03
-3.355607009101767551e-03
-4.016661457847541493e-03
-1.945643547989135344e-03
2.336552028499580720e-03
4.649468843482145591e-03
6.173845849211178662e-03
3.071577737233110745e-03
-2.849322117470697502e-04
-3.336738909950623215e-03
-6.620224782499407358e-03
-5.926651101082099082e-03
-5.899580711029294225e-03
-3.002240470177117062e-03
-2.195913656061066334e-04
-4.707013738861953733e-03
-2.723824968292943346e-03
4.450920086840327167e-03
9.090093365867966610e-03
1.119378142427522246e-02
1.892576221759244845e-03
-5.493359573815589404e-03
-1.698003225708084180e-03
1.178048515011337945e-03
8.913137904630259387e-03
1.083974428252403553e-02
-4.680026377263063128e-03
-1.230399894469392727e-02
-7.104791487662354132e-03
-2.827062043635818027e-03
-7.284326027772813168e-04
-1.389385998403873390e-03
-5.173816213420291774e-04
1.325856482211724800e-03
1.055889434849769000e-03
3.734882113902493472e-03
5.631820971580134977e-03
1.496478360376288144e-03
-3.637454684576913854e-03
-5.762742827026272503e-03
-6.677062403790793438e-03
-5.428742620771419801e-03
-6.658336099551511724e-04
2.478655274322578723e-03
5.034590517687964790e-03
7.519777081187921028e-03
5.263966984900662026e-03
4.185240604853733733e-03
3.339132920838604017e-03
-1.307835683634313902e-04
1.499579878976724321e-03
-1.368048877705737914e-03
-1.213259619229467047e-02
-1.147605192468437001e-02
-2.420354469636759598e-03
9.577858312196658574e-04
2.868609810198452428e-03
2.334815551865507786e-03
-4.933468546242273517e-03
-4.541954828226222804e-03
6.839826922448507575e-03
1.024509184153323850e-02
4.567208400233447631e-03
3.299431158113982649e-03
8.188173363865083876e-03
8.709358389192279476e-03
-1.682114645728891543e-03
-1.004796506208879142e-02
-9.882871144266855076e-03
-7.313692973852539518e-03
-8.607911505084696931e-04
2.586187168956619303e-03
-8.662982505956023666e-04
-1.709744732663047440e-03
-4.297651892539631167e-04
-5.658479003708575877e-04
-8.842487361855433207e-04
-7.851997994084158623e-04
-2.990683214798475938e-03
-6.485325270991004060e-03
-4.341295354697810409e-03
-1.564429476594307849e-03
-5.301152371728385000e-04
3.350136184012762579e-03
4.573382866260968307e-03
4.636568023864756291e-03
5.998563053058847405e-03
4.081714806907025747e-03
3.605597538306265439e-05
-1.042289277656429161e-03
3.223754763501396337e-03
4.582698670607156244e-03
4.207734956018844251e-03
5.158750637344905292e-03
-9.278054132681857026e-04
-1.151917963033457148e-03
5.341136631093582575e-03
4.776780366553341067e-03
4.790335065904119567e-03
1.307691300304002083e-03
-3.708419458484434137e-03
-3.811748041370964599e-03
-7.185481958990585366e-03
-4.337141276268501218e-03
6.157820507196219099e-04
-1.628621807720295831e-03
-1.743710852316309205e-03
-2.562319257749307543e-03
-8.216123861313116838e-03
-2.352485411432306273e-02
-2.969865869662804969e-02
-2.408690821201609975e-03
1.638171730793247516e-02
5.800760083321952927e-03
2.179704403963771478e-03
7.717217240544608711e-03
1.146031176946643929e-02
1.379629349379157821e-02
1.040837406847762436e-02
4.009458806520497555e-03
-2.485813564374921274e-03
-6.309174254417251881e-03
-4.151337329352298641e-03
-6.587024216057628303e-04
-4.433610531993044715e-04
2.291436376956660866e-04
1.234351406477272265e-03
-4.713760270052820382e-03
-5.300554503249170490e-03
3.595432593362440313e-03
7.895495976513276911e-04
-2.223334834831477806e-03
4.560397703700477985e-03
7.956076145112070440e-04
-4.621735350313960211e-03
-2.030492168872895763e-03
1.003965335911230147e-03
7.381255081159750556e-03
9.869479864739768085e-03
4.491934802662697970e-03
-3.329107644353018411e-03
-9.917608199362826227e-03
-8.507786488508342973e-03
-1.799285650005528862e-03
8.106545179779297075e-03
1.172543761209404733e-02
2.635461889608883487e-03
-4.581042710474032484e-04
-2.850975046871654511e-03
-1.046915068055756515e-02
-1.081349319217702644e-02
-1.044621114801574761e-02
-2.438368912420649237e-03
6.684873570973442168e-03
-1.218807236000108048e-03
-5.243043185736171417e-03
9.832631049603627292e-04
1.026551996352231821e-02
1.606357947275718900e-02
1.284685977660550427e-02
1.155885869584951514e-02
-9.548230360954677171e-03
-3.485215672608675541e-02
-1.220687495434371120e-02
1.254489277693138748e-02
7.011628151669685276e-03
7.064513307517630847e-03
9.303399038434551072e-03
7.394057386003238808e-03
7.197324676607186680e-03
5.421611097409385037e-03
3.453383410201015490e-03
1.427359202672369778e-03
4.420860489925111311e-03
2.631110477224368836e-03
-1.002779113614073701e-02
-1.373628397749557077e-02
-1.402832035616968093e-02
-1.739727061714053946e-02
-1.293686567800144196e-02
-1.401896603405048715e-02
-2.017845331344269438e-02
-1.324041575197745790e-02
1.030994630056971577e-03
1.117598032456342851e-02
9.317578562457684566e-03
4.176898006546141302e-03
1.214794137415205026e-02
1.808259855243728870e-02
1.488361026439959968e-02
1.370523167773225574e-02
7.034539752386628937e-03
-6.045992317203984466e-04
1.421810541047479844e-04
6.835290594850878566e-04
1.420489799045167095e-03
1.126523958994969307e-03
-1.805454499029475034e-03
2.153063360740953801e-04
-1.558693025449296634e-03
-1.027197779249714241e-02
-1.211162806108823792e-02
-8.862043018386542292e-03
-4.552968536577656558e-03
3.575867458355461159e-04
2.337217378355160077e-03
8.742026550837842316e-03
1.342820608784502448e-02
1.050444478800030557e-02
1.407912275578123221e-02
1.418138849691141963e-02
7.583838296587142730e-03
6.287371054664472533e-03
-2.073110773800168442e-04
-4.555586951692973917e-03
-5.820811725926263933e-03
-1.456301361869356825e-02
-1.301405124644449199e-02
-1.088429345096984108e-02
-1.987161517006606065e-02
-1.984445879782410077e-02
-1.349836864700070492e-02
-1.371786973245480573e-02
-1.266669874430607391e-02
4.539386320029934266e-03
1.643402080251024980e-02
1.382588461141575145e-02
2.884064500512866294e-02
2.035984287318703956e-02
