1.140586314951185648e-02
1.420410628217876406e-02
6.571695959142912456e-03
6.428407827748887360e-03
2.201327721174507149e-03
-1.196333220326103227e-03
-3.507537526555133071e-03
-7.586496697100539484e-03
-8.294247304256511730e-03
-1.036841201275480809e-02
-1.248309061709428937e-02
-1.076351626063831377e-02
-7.301257319856095836e-03
-3.732655134834935405e-03
1.219844543129710137e-03
7.807422906671872623e-03
5.933166023594087755e-03
-3.326586413870956903e-03
-3.037170244712842498e-03
7.490582978428075508e-03
1.154392345897570921e-02
6.626986224532787836e-03
8.642651560597085572e-03
1.185941854666173675e-02
4.415951464719745749e-03
-4.844881046160858006e-04
-1.109466003133831227e-03
-2.094364736709787827e-03
-2.397671795322932602e-03
-5.037294009437965486e-03
-2.838480341713317794e-03
-2.084331588073275437e-03
-5.881843958902349331e-03
-8.882843635704539432e-04
9.237738010357404717e-04
-5.878970142905243701e-04
1.004924219394612425e-03
-4.451825959667889826e-03
-2.862607054512164399e-03
3.939349691301547232e-03
5.702508565319754780e-03
8.574454054306243980e-03
-4.369947216874843499e-03
-1.598257130835385384e-02
-2.423663527535616265e-03
3.050795215157232551e-03
-1.737884369038669935e-03
-1.575921042995320287e-04
-1.790204869440089469e-03
-1.196027742849413824e-03
9.135990211733434254e-04
-3.666769084196650364e-04
1.669835042324584531e-03
3.780289272639507370e-03
6.240562940778768102e-03
6.655056214460006517e-03
8.965393960879103168e-04
-1.035175741070790611e-03
-6.566531011153076310e-04
-2.627415172054588157e-03
-1.365526668795754173e-03
1.874402391201874715e-04
9.591052079404589325e-04
2.276389776193928332e-03
-4.247668359896838693e-04
-2.991918544602345954e-03
4.102166617709367461e-04
3.402264270603365566e-03
1.016022696450176932e-03
-9.305693174859435823e-04
-1.003403068848431230e-03
-2.243666088520129658e-03
-2.747199790085495049e-04
2.057451264087900057e-03
7.947624696035351672e-04
1.575588437638984459e-03
-1.017022773876447239e-04
-4.170241050329697753e-03
-3.698667781564819474e-03
-2.066480928598522174e-03
1.906576400528151114e-03
2.949435907241893407e-03
-1.614458759374781194e-04
2.951236352094571691e-03
2.097273729764938775e-03
-1.914335981248329851e-03
3.726877104924192024e-04
1.503817992565024920e-03
5.431547039175456393e-03
2.034688393695543388e-03
-1.475845725880791867e-02
-1.460464803295627792e-02
2.001294089924644370e-03
8.273301961226345314e-03
3.849992143933409893e-03
2.654882343101081844e-04
-8.885650796325234631e-04
-3.364363404854052615e-03
-3.808519916901955196e-03
-1.432745330693619432e-03
-5.085766128924866037e-04
2.341589524319083958e-04
4.260027729553876943e-03
8.628665834797476578e-03
5.057842288398968662e-03
-4.140163296580944572e-04
-2.233910131499440219e-03
-3.481177087748268950e-03
1.959730411799974568e-03
3.860800548693961963e-03
-1.635242118178975145e-03
-2.968719075133772014e-04
3.038905443696851317e-05
-2.061966797200360775e-04
1.955302818219663372e-03
-1.358804370604255966e-03
1.666691962101599762e-04
3.180518984076344952e-03
-8.381857857652225000e-04
-3.121154723456745581e-03
-3.702474673813322716e-03
-8.978079671951638349e-04
4.061589830300063944e-03
4.800055328077539540e-04
-4.221634786324482240e-03
-1.674188164644904546e-03
-2.387042692580287201e-03
-3.068379225242795320e-03
4.144864217234826322e-03
4.820966562855581901e-03
1.535649084671719981e-03
2.279715417340156224e-03
-1.975351668216272869e-03
-1.889312219245650043e-03
2.978303799379368108e-03
4.137001266020216665e-03
6.138651770872262034e-03
9.425989803160706197e-04
-5.330925729944473168e-03
-3.273696732790083806e-03
-1.289855860844821333e-03
5.116133476624794892e-04
-1.266268505737147988e-03
-1.960586886344570061e-03
-8.099716667614206399e-04
-7.322102867511206571e-03
-6.230959202225783318e-03
8.656047723624505415e-04
7.166573549719501557e-04
3.185585341617410034e-03
5.281781776701455038e-03
3.324553091602097492e-03
3.583538173510182612e-03
3.448073359084863256e-03
1.553132183366842363e-03
3.482677753963059515e-04
-1.185326369638337111e-04
-3.956393940803522649e-03
-6.708944457450178103e-03
-1.318990234401538897e-03
4.650740716073743265e-03
7.379438297474390923e-03
6.153010318541291858e-03
2.432345006750354977e-04
-1.629667937881606370e-03
-2.325618027221198602e-03
-8.428858441815866021e-03
-9.006865189488059975e-03
-1.863681396731406035e-03
6.645806211677219785e-04
-4.434571216288634137e-04
-2.638228738499010591e-04
-2.238328438236844749e-03
-1.705376999138981170e-03
2.470107092537224876e-03
1.920070208140315596e-03
-5.189671403072094883e-04
-5.452917830104512305e-04
-9.474299313474913824e-04
-4.666174773093676028e-04
2.751934442063448932e-03
4.043481875862176000e-03
2.315149523711790801e-03
4.403430601220464750e-03
6.687918869422123866e-03
3.555738484192417191e-03
1.445561954103229086e-03
9.608646211730014581e-04
1.776812386816041393e-04
1.506645632799192419e-03
3.226135612399963840e-03
3.332020668182485677e-03
7.974331365379495190e-04
-3.096491553718978482e-03
-2.401201814375341845e-03
5.165156702755419570e-03
8.888795616222602142e-03
1.949056637039931449e-03
-6.983292021547939099e-03
-1.845438807406947490e-02
-2.340669511909010056e-02
-5.863986337331172395e-03
7.470583588810233468e-03
3.210269267887299553e-03
2.433964652639961437e-03
-5.101071815336565831e-04
-5.479644344861175735e-03
-9.654626446138400014e-04
1.161980604675526187e-03
-1.939860716927970831e-03
-7.900446640564173307e-04
3.985181143064573175e-03
3.579562308942192683e-03
-9.091077270352370624e-04
2.826072754242981225e-03
6.483532527391004316e-03
3.506324237624419173e-03
1.604241546502094837e-03
-5.087462416257778307e-03
-7.620486023224922086e-03
4.936252881236293704e-05
1.187722314938696212e-03
2.242667417388610057e-03
5.284730560931536966e-03
7.479696934372521934e-04
-1.136618960029094462e-03
-6.997126476622141274e-04
-2.675552055401544450e-04
5.027539344509082860e-03
7.228447011622984517e-03
4.372887067421845665e-03
1.222167088640495249e-03
-5.572831881820117456e-04
-1.101801804621792931e-03
-2.822165625833444273e-03
-2.616306601770185432e-03
2.552596592862434784e-03
6.576293911963623957e-03
1.746208587813252895e-03
-4.026870237992688159e-03
-2.486187336540098686e-03
-9.853241409407871316e-04
1.872936811382831974e-03
1.968474678929777854e-03
-3.512985343548190482e-03
-1.630922422411447328e-03
-3.660436230624706383e-03
-5.657420847603220927e-03
4.351877438153952879e-03
1.778560976647038843e-03
-3.819591847481239918e-03
-3.210280318423457992e-03
-1.271717539823797975e-02
-9.958021475662737557e-03
2.276922770280722687e-03
4.396580351193259996e-03
8.009056670675430631e-03
5.132569352434683020e-03
-3.130803044896822949e-03
-4.071257687319967435e-03
-4.055785354424804728e-03
9.459652367536516230e-04
6.588912738330115516e-03
2.688933552591924597e-03
-4.109337461991249959e-04
1.537122151360637706e-03
1.409352111476958524e-03
-8.139875719661496386e-04
7.709056513464749173e-04
4.565064348881165898e-03
4.194299331307290053e-03
2.121464656877381524e-04
-5.102277740942601225e-03
-6.012149827636818072e-03
8.770639143220773344e-04
5.774426543242094576e-03
4.647626753280516276e-03
2.466215381951311625e-03
-5.314252839729330337e-04
-8.069303842772184180e-04
2.515087302909741179e-03
-5.163468745918795152e-05
-3.855305727125017158e-03
1.176705599768383508e-03
3.226958435814007535e-03
-4.812589738740171070e-04
1.218181600630320041e-03
1.206163981446762515e-03
-2.555840163818656752e-03
-1.171042739580245530e-03
5.879232709022504631e-04
-1.820045467653345038e-03
-5.395690032816705811e-03
-3.407582963288450454e-03
3.794060354764591542e-03
2.403630615704210622e-03
-3.012505084197038187e-03
-1.781642741993867121e-03
-2.660435681763137755e-03
-3.084512230104979099e-03
2.665247218231871305e-04
-8.225008567805400586e-04
-1.020545599643724521e-03
2.882815996055570866e-04
-1.862073426294463601e-03
-2.083639710625390974e-03
-1.540392276570098223e-03
-1.726685041572619634e-03
-1.879170700209309040e-04
2.424838795769783742e-03
5.832146799323073734e-03
4.569669695102747224e-03
-7.184645617326999986e-04
-6.198534635880533243e-04
4.567319444267137207e-03
8.509132881319499131e-03
7.910327774168088993e-03
4.233787708263964111e-03
-1.050688626875719879e-03
-6.717267753116777998e-03
-7.352998838752147076e-03
-3.883469188307862429e-03
5.159710571446996137e-04
4.896722955144877307e-03
2.426915734955736436e-03
-3.129206914639532777e-03
-2.066360451881459059e-03
-6.434737968394537789e-04
-1.788226434861182835e-03
4.469467576134568735e-04
9.597831762163363048e-04
-2.955908157605576739e-03
-3.989721119359965380e-03
-2.499212689361320853e-03
-5.463727350727450157e-04
1.890792819044717328e-03
1.434816206408902122e-03
-3.562541255102606805e-04
-3.225952091949319065e-03
-5.485239955634430356e-03
-5.483932119789629127e-04
3.044778412884701409e-03
1.527083310423856368e-03
6.014945060335175064e-03
8.891799445181293449e-03
1.978681962847584578e-03
-2.015209739838482589e-03
1.258686283054677533e-03
2.982064552644292724e-03
6.753878402735726764e-04
-8.473712282911169966e-04
5.133701737745722865e-04
8.099833284036473888e-04
-2.072074648424771480e-03
-2.835148128473286705e-03
-1.644087913967848583e-04
-1.376048192422806146e-04
-1.146438806076646678e-03
-7.639071802846732337e-04
-3.034678704009017604e-03
-4.582658499527536393e-03
-9.398789050330065478e-04
2.987363239084258291e-03
5.548309973515393265e-04
-4.552152394451227171e-03
-4.211920450678777357e-03
-1.888432749426278631e-03
1.975545396977551951e-03
8.572066405436859146e-03
7.715184597077670223e-03
2.520449821226619820e-03
-3.628906720774762893e-04
-4.644026651598671604e-03
-5.735498519757262735e-03
-3.928795015965288670e-03
-2.476242723515218250e-03
1.616107482444326116e-03
2.279989309572111496e-03
-2.122175839423086612e-03
-3.585082703976481128e-03
-1.962316841927470856e-03
6.471925926340728850e-04
5.707599683333073118e-03
7.250051966238314598e-03
1.610469657337584978e-03
-2.055519087722012877e-04
1.522168396134637204e-03
-8.352512078926922811e-04
-1.299241529779674635e-04
2.786077114823483272e-03
1.278836129273341589e-03
-2.122155484026386381e-03
-3.925761651171414367e-03
-1.277856977916654296e-03
1.861260427312307932e-03
5.618794200966197548e-03
1.057317701042940171e-02
3.871890710508118713e-03
-7.930376254115042642e-03
-6.307867482476091185e-03
1.684116326029882820e-03
2.289148306615974762e-03
5.450137867406927832e-04
3.201934027803136126e-03
-3.669137271437314732e-03
-1.745405526308327349e-02
-1.391483778959572495e-02
-2.124818923448010006e-03
4.326763116889131150e-03
8.707448972116837993e-03
6.199613626534044783e-03
3.554169693706437597e-03
1.804389493211804940e-03
-4.200524916862259477e-03
-1.299858273944741330e-03
3.860569709497818462e-03
2.073134558765094872e-03
2.918812651313264835e-03
-3.448949151349557651e-04
-5.337176234935918709e-03
-8.174614801896757949e-04
4.001285589795886650e-05
-3.228179604137850281e-03
1.596901766333812126e-03
3.618702977230257769e-03
-3.279458850506121546e-03
-6.519165524006803603e-03
-2.975401592295774840e-03
1.576536276477910137e-03
4.676889216267745078e-03
3.271871978900167937e-03
2.754728537303649343e-05
6.328389268807433146e-04
-5.110327369694423090e-04
-1.102355582443378425e-03
4.210072505459074368e-03
3.948686817734856254e-03
1.254220871459051307e-03
9.888150038211795771e-04
-5.264536338315367256e-03
-5.464372512094910206e-03
1.678565836211289583e-03
2.986608849294334917e-03
4.163412966116775138e-03
4.027257190184064910e-03
-1.657995405409814441e-04
-3.349695006425183492e-03
-3.265227281014360539e-03
2.265028081967009228e-03
5.073062214652486468e-03
3.369961667093543042e-03
1.422117773613415818e-03
-1.782651860129975388e-03
-1.169620260209556931e-03
-1.016635259719962008e-03
-1.446933654119752360e-03
-1.379216379163995289e-03
-8.243659613711266237e-03
-6.926765612413073904e-03
1.327594319217045892e-03
-4.919674718082637371e-05
-1.283385621075221151e-03
1.050813132546233371e-03
4.624425720482984621e-03
4.725076101922686365e-03
-2.561191879508235760e-03
-6.597019001301148398e-03
-5.542466870746682456e-03
2.355606776108212091e-03
6.996876105263363961e-03
-1.913426442207337994e-03
-4.012456992830208853e-03
-2.302064823084557042e-03
-3.967045849759364209e-03
2.263185975265210193e-03
5.862501824572068608e-03
4.185660506869743128e-03
1.513357041269170053e-03
-1.303790040829525291e-03
-8.915882638442399833e-04
-4.266544182846431291e-03
-2.340100234896563911e-03
5.964861703888439844e-03
5.930218721776604751e-03
4.635818668608558159e-03
2.524445512058435745e-03
-3.720642912032391691e-04
6.572099249872106759e-05
-1.094082318030711485e-03
2.169758705258172972e-03
3.697030281330116342e-03
-4.491159066800544798e-04
-7.333485023221175897e-04
-3.974945662009318585e-03
-4.104438511214873568e-03
2.098708000290978089e-03
2.988703307769661859e-03
4.739600035097741616e-03
3.162489154878336817e-03
-5.447369359935840330e-03
-9.933509830845640640e-03
-9.680241753381953196e-03
-2.492430474565339622e-03
3.911130372834581426e-03
1.761447373812334788e-03
1.141034256639123987e-03
-1.502087719669869962e-03
-6.020889953189510584e-03
-4.141383362286474475e-03
-1.757718831827384445e-03
1.754797017360919557e-04
1.965970412479024071e-03
2.453696412062475723e-03
3.866710107642985436e-03
4.500054715342728488e-03
4.545209057606739399e-03
2.364802007203439718e-03
-1.313992228677404099e-04
-2.735279453679089270e-03
-8.630874006934807080e-03
-5.115696653282909845e-03
3.617951010650329469e-03
3.899320447887878217e-03
5.292826177249167208e-03
5.802511403817290150e-03
2.629018174384833723e-03
9.212740718541684781e-04
-2.259236722641175601e-03
-9.808574544039052549e-04
1.126077222650818640e-03
-5.115658670199449464e-04
1.189541044504023419e-03
-6.657331080256304913e-04
-4.647027728145726629e-03
-1.976740218381025337e-03
4.041964718286165242e-03
8.361487368950763083e-03
5.872873694279862576e-03
1.908931400193635930e-04
-5.913518631979189887e-03
-9.664329985002053161e-03
-4.745483287835788183e-03
-9.956660188440308052e-04
5.928908415110121556e-05
2.779311516116960389e-03
3.140083924159265284e-04
-3.086807330257021389e-03
-3.790438552017598439e-03
-8.362095373338823343e-04
3.708266121641253053e-03
2.254141859176289880e-03
8.934021990434642827e-04
-1.000324352620977691e-03
-5.012857581328552907e-03
-3.387971967315415740e-03
2.483458133586533456e-04
5.305200888763500662e-03
5.628249478306497806e-03
-2.275886962170435308e-03
-3.486802211646431501e-03
-1.503740046317470413e-03
-1.758840826791425917e-03
2.477426046361280287e-03
6.539261192852868429e-03
4.423306496278258185e-03
-2.025753312162620334e-03
-1.642347822169648716e-03
2.365010026655007484e-03
-5.598519263871002674e-04
1.372547512878758780e-03
4.818468187916423971e-03
1.937342889897214612e-03
1.637620724935568610e-03
-9.780077228944948371e-04
-2.321160518392192083e-03
1.941895563129290500e-03
-1.337480420194830206e-04
-3.619587522173085218e-03
-2.906730170968022456e-03
-3.390709229445406682e-03
-6.210125982738678996e-03
-9.120916318993383537e-03
-5.192416421837839011e-03
1.964616290222093945e-03
1.577280453158919158e-03
-1.193156798384297163e-03
-5.198047929872724304e-04
-1.636413160375303722e-03
7.937141827570664220e-05
7.551755510338876466e-03
5.224288048943762780e-03
-5.300731630660925758e-04
4.112184009550858867e-03
2.395154081811194137e-03
-7.548845109226734636e-04
6.743678969879002109e-03
6.916191935908765770e-03
3.175211072160809712e-03
3.154875086577118432e-03
-8.907653691593184165e-04
-2.327706227179393052e-03
-1.294911166814534994e-03
2.090018875311209980e-04
4.258726347646708300e-03
2.196595870218963267e-03
3.143201546773930041e-04
3.442851997758724844e-03
5.510695262083077813e-04
-3.050256687084037122e-03
-8.030642073987530674e-03
-1.891940211087937695e-02
-1.563747538493018632e-02
-3.576952878040730831e-03
-3.302357373860993935e-03
-1.016026406417071606e-03
5.374111339115608850e-03
6.026632802775729221e-03
7.342204890682746919e-03
3.937151594068888545e-03
-2.831350533545916055e-03
-1.467035938202124060e-03
1.104984611125301667e-03
2.159662673733155763e-03
4.525428020109203107e-03
2.855085535441171697e-03
-3.591118037205375630e-04
9.431119700713312638e-04
1.739363221342677323e-03
6.484040715644143280e-04
3.622087626470153927e-03
2.605844331551416485e-03
-2.002745272482146007e-03
1.669209540591488515e-03
5.114965608547720859e-04
-7.766514797295785352e-03
-6.195898234111165380e-03
1.347318744551200768e-03
4.912332065832909593e-03
6.575437102975963100e-05
-4.975266242356416943e-03
-3.252072066457336978e-03
-5.118304553136883255e-03
-2.774406270034244625e-03
4.281826847603057047e-03
-8.003199452628365030e-04
-4.169071295913095131e-03
4.809893127591429373e-04
3.291292816235649623e-04
8.642907843813910909e-04
3.466543592145516529e-03
8.068592585807223124e-04
-2.215525879130466648e-03
1.412343106277214825e-03
5.953878819811194746e-03
7.356369507869639328e-03
9.145282827693572772e-03
6.299361403433408058e-03
-2.639944975448331671e-04
-3.306246078736971902e-03
-4.103239007700092145e-03
-2.684633449689861374e-03
-1.062378946458368166e-03
1.834036506557259506e-03
5.981607385494207632e-03
3.685441954621434656e-03
-2.131650753178591234e-04
-2.994748733583266816e-03
-5.655456270103889453e-03
-2.230680653971923565e-03
7.306542638103796436e-04
1.205723741680698752e-03
1.211991649369481734e-03
-4.634190856598684183e-03
-7.944918339154333556e-03
-4.655607977489698533e-03
-1.835480845502582455e-03
-1.244147781684012575e-03
-3.564603152972017821e-03
-4.889043867143898388e-03
-4.940223112774619167e-03
-6.671305408844881331e-03
-5.777518642625439557e-03
-2.758095219845478098e-03
7.506512427402329364e-04
6.417334019578331376e-03
8.825765164818694455e-03
2.439407518016918196e-03
-7.253729557091297131e-03
-9.341868335225472081e-03
-2.167543240291658173e-03
6.760434271414156836e-03
1.162967994399118077e-02
1.305587436211641007e-02
1.419788976902410654e-02
1.340005201229638870e-02
1.007164139352157740e-02
4.963972973953937988e-03
-3.610376738378549919e-03
-1.053462023230069232e-02
-1.021477947241696861e-02
-5.808979594154886454e-03
-2.300556980263924328e-03
2.317149508533560432e-03
8.704543413998774848e-03
6.419270122131252518e-03
-1.472836251064744018e-03
-3.432878460906486039e-03
-3.742904590635187916e-03
-1.369212704163745185e-03
2.031494296592321891e-03
-2.462936420555846863e-03
-5.925601391638227883e-03
-3.201948818154510754e-03
-2.256001504270216396e-03
-6.389981468333294327e-03
-8.953047243063451746e-03
-2.457511091312285321e-03
3.522988194964529231e-03
2.721713134086443941e-03
-6.318418326197324485e-04
-5.720278647414316249e-03
-4.969673019962392822e-03
6.056646759984836512e-04
4.483921410976482100e-03
7.583291531041874353e-03
4.432468671630872617e-03
-2.298430344108938408e-04
-1.820981127109996627e-04
-1.808023291506480595e-03
-2.016042756323056708e-03
5.798481288250548942e-04
2.330509222867350148e-03
4.096102896365726338e-03
2.924018401389215718e-03
-1.282369622238760951e-03
-3.295802910210741867e-03
-4.592224390005388989e-04
3.768685401360401862e-03
4.245894954925153765e-03
8.687673708853272227e-04
-1.322088989208314346e-03
1.716149586461810034e-03
1.587619082622135011e-03
-1.578987577878168290e-03
2.808588865873738044e-03
3.253285019101231738e-03
-2.440608425078925545e-03
-3.445871118825214515e-03
-6.870292166490757878e-03
-8.134500167182876287e-03
-2.379114814317561180e-03
8.266753841426282114e-04
1.804323364695541599e-03
1.565491445685115134e-03
3.520803480564075379e-03
6.887270278319307729e-03
5.132619646129883695e-03
5.041716495196088901e-03
4.515187130455814921e-03
-1.981149323031695768e-03
-6.313349795004656942e-03
-5.694484682580486581e-03
-1.864601937922777657e-03
2.397439566954171451e-03
3.996448686901780782e-03
1.100785373214592001e-03
-5.200545400385211091e-03
-7.214961521263717724e-03
-5.240059127081038437e-03
-1.024143461398050988e-03
3.950591762849801382e-03
1.723299578747943634e-03
-2.348740595647080473e-03
-5.550195574242524146e-03
-6.882925942582714812e-03
3.131255931831318593e-03
9.737389829564385008e-03
5.410206924243031804e-03
2.710825862931450728e-03
-2.679572532584696687e-03
-7.618580013980988039e-03
-5.457050262030487334e-03
-1.062994190040471689e-03
4.934651254592438245e-03
6.000217655868822324e-03
3.776598187561981505e-03
3.184610712396592283e-03
-1.977970069954168662e-03
-1.038905268423177255e-03
5.567614951000510355e-03
1.851182871590611144e-03
-2.323480773348939737e-03
-2.638230301319546660e-03
-4.437632483365644767e-03
-2.409399307312037799e-03
5.866614146643722152e-04
4.295326444543819643e-03
8.015680060733925555e-03
4.086997204157524419e-03
-1.566964767217533978e-03
-3.140411152626549057e-03
-3.961213523353544416e-03
-5.952774928709504351e-03
-5.943462569158703725e-03
-7.563039012132590205e-05
4.723319521389654670e-03
5.096484692586001654e-03
4.484411954208766468e-03
2.191564364672670545e-03
1.719745265533478840e-03
3.287501351276083707e-03
5.522732594014963768e-03
7.121835722214539879e-03
1.650430969024443625e-03
-7.596660208420350294e-03
-1.636402701470677373e-02
-1.743445076615695796e-02
-4.393586208875554545e-03
4.581652117690732454e-03
2.976950635073773860e-03
9.043121623732632702e-04
-1.824447770721534861e-03
-1.505165605993856806e-03
-1.499780414219422904e-03
-4.533009597178413660e-03
-2.817991787230714803e-03
-2.039089041579837669e-03
-3.748060111582453887e-03
-1.392220428584447882e-03
2.839990248653723182e-03
7.178294845189637889e-03
1.000018104364691976e-02
8.678040899431881117e-03
4.098443600118483778e-03
3.495145378291705535e-03
8.383825723259153220e-03
7.204577010392999165e-03
1.853534726785244831e-03
1.196449489022155706e-03
-1.037003180987207526e-03
-6.673202168451564803e-03
-8.011841701741852576e-03
-5.423374865602750838e-03
-6.027963173393345586e-03
-7.162923937513433065e-03
-3.264555329320259144e-03
-1.126519396088552886e-03
-2.381258668226370750e-03
-1.882537241889517847e-03
-1.312172824171135540e-03
7.622285480927575886e-04
4.496068693933002840e-03
5.291516266550030760e-03
7.319603619635265887e-03
1.112643213205357674e-02
1.009319093258674756e-02
1.064347043668524215e-02
1.380976930860755916e-02
7.403910217287564335e-03
5.682419259464908782e-05
1.539112290045768251e-03
1.727863875431074909e-07
-4.106725826418780069e-03
-2.702394818630049489e-03
-1.871060871937004063e-03
-5.199233981168949192e-03
-8.503370536851830030e-03
-1.372679073158682324e-02
-2.216132649845997671e-02
-2.141831076511759718e-02
-1.192096916012593162e-02
-1.076312149441474228e-02
-1.449304187007922039e-02
-1.599018905062372931e-02
-1.853919287857910825e-02
-1.439487520496872223e-02
-4.929184870575588698e-03
-7.806335303840100182e-04
1.230864114526923018e-03
3.720169115777729150e-03
1.090462525564157674e-02
2.866807643315531437e-02
4.598079106417825995e-02
5.010156046455949835e-02
3.883628387094439915e-02
2.215641880292341243e-02
1.478691892836215410e-02
1.131645112680767368e-02
5.689346819267114726e-03
4.330209107941957250e-03
1.860596676276252181e-03
-4.373727867776525981e-03
-9.766020850707081424e-03
-1.787466091527772222e-02
-2.671788410202891040e-02
-3.212112457996244702e-02
-3.437393889017991561e-02
-2.811331972366860887e-02
-1.565939342841468976e-02
-1.137664625629139330e-02
-1.378281860507505133e-02
-6.997745920903191905e-03
1.254208088134814263e-02
3.651717259090032919e-02
4.996060622682768626e-02
4.488016202471015181e-02
3.282803520398625691e-02
2.130237154234822933e-02
1.083765002656171192e-02
1.785595399088651513e-03
-4.117196863571019431e-03
3.898038800801925143e-05
-1.499171321655093717e-03
-2.046667944686078947e-02
-3.699464695754296067e-02
-4.256141593207742047e-02
-4.038427619451172984e-02
-3.706727294710363690e-02
-3.542408897322320976e-02
-3.455126311693654945e-02
-4.356253616027661035e-02
-4.015230209408979234e-02
-1.258237871458308538e-02
7.341112796231952231e-03
2.670907941761020005e-02
5.353615842533961111e-02
6.048400458665901397e-02
4.955433753814503933e-02
4.355041150875110789e-02
4.874561655109770769e-02
4.512186716756375060e-02
2.149783981908254954e-02
-1.556187000601552553e-03
-1.407865981306236428e-02
-2.216584258065226742e-02
-2.984881619492520816e-02
-3.602432180664356942e-02
-3.771271110727396347e-02
-3.732663516072849685e-02
-3.636252012701260417e-02
-3.539551157376141788e-02
-2.271887295716125757e-02
3.203944877658087501e-03
1.283009360123318725e-02
9.271485423928624292e-03
1.681968267429037600e-02
2.697729544665062804e-02
3.375099032403647281e-02
3.373559024577925392e-02
2.480496194706019800e-02
2.912619990300941222e-02
3.403007255110874346e-02
1.337791446517007897e-02
4.210916474235936423e-03
2.556304447014517284e-02
4.872126731527972460e-02
5.518593928187399272e-02
3.620424204499119586e-02
1.678630730775984917e-02
-3.906656437829471133e-03
-5.611001164619427994e-02
-8.051130508582238221e-02
-4.060414669075013139e-02
-6.171726985693765100e-03
-3.061473983065542831e-02
-9.161325078732189542e-02
-1.179463462364519349e-01
-1.058888602129269829e-01
-1.088972355278530618e-01
-1.137059793397629387e-01
-8.052793570171552784e-02
5.573206773224697631e-03
1.031999825365542828e-01
1.419087990583728642e-01
1.365327794475960643e-01
1.426784447824085422e-01
1.527329358141395754e-01
1.334868988000429413e-01
1.100417965472724330e-01
8.043223097588139692e-02
-8.990140574679582330e-03
-9.564425856220938604e-02
-1.145703022897087281e-01
-8.687106240042302696e-02
-3.912164792704858618e-02
-6.515166000653115075e-02
-1.389617225391455158e-01
-1.313674520655785660e-01
-8.260479895030224673e-02
-1.988584654635495996e-02
6.244262252421134418e-02
8.279761368895144358e-02
3.660399814791766293e-02
-5.059121587483765385e-03
-1.263652767186699589e-02
-2.413399297831787457e-02
-3.497425667276334721e-02
-3.599241639516624104e-03
1.685362815077877385e-02
1.124071009698178122e-02
1.897075215697888520e-02
7.422824544726341900e-02
1.970230962331183111e-01
2.485659453006779374e-01
1.558730110201599905e-01
4.584961229655034470e-02
-1.616777646549327416e-02
-4.466413928413845436e-02
-8.222622684096224377e-02
-1.001441926317541559e-01
-4.001562975496970875e-02
-1.468094908451969723e-02
-7.307361378935928187e-02
-1.042350014304029432e-01
-6.777938122482833616e-02
-2.508562629843142169e-02
-4.656600782649859133e-02
-6.633558474845202557e-02
-1.092212467419288388e-02
3.876519618031928904e-02
3.347210683938353637e-02
-9.774060983118216389e-03
-4.727134657028360387e-02
-4.277643773819419376e-02
-4.428600336406633003e-02
-4.727766643426194182e-02
-1.882854251862049397e-02
1.229405252201664755e-03
1.411422093397063197e-02
4.135076309269469091e-02
6.242634449404845659e-02
5.313798375548679787e-02
3.043809294277240174e-02
4.248961132893170484e-02
5.991131112699500660e-02
3.308963849055047285e-02
6.829910686991172300e-04
-1.351756908655005890e-02
-2.453235008073396603e-02
-2.563523826113747045e-02
-1.923796834419052443e-02
-5.240083717269519367e-03
2.795245209445498466e-02
5.505536418300055468e-02
5.430205878776681733e-02
4.630818925623268745e-02
3.774470069116696302e-02
2.496790340395676003e-02
1.670952989080814674e-02
7.892984835716713304e-03
-2.939621198067805547e-03
-1.033941943287538384e-02
-2.016095793355336674e-02
-3.165591996169705991e-02
-3.856665926812089668e-02
-4.237384989782041339e-02
-4.519956167866771846e-02
-4.200368993487657576e-02
-3.422115300359437201e-02
-3.141406663965535390e-02
-2.883730940320690037e-02
-1.952018196672379580e-02
-9.080203071264515355e-03
-2.058008103164255843e-03
5.338881202035189975e-03
1.673326798614162628e-02
2.230988642366018432e-02
2.035544219462015469e-02
2.022885592124513965e-02
1.741665922327644694e-02
1.255618791448395721e-02
8.682663822200892625e-03
3.921076759692075642e-03
1.738768731764963639e-03
-4.385161471106470941e-03
-9.751458887999643610e-03
-4.170552620787373009e-03
-2.285540356783864952e-04
3.654049332138721725e-04
1.112785441075581257e-03
-2.652070193986977385e-03
-2.142601002701885211e-03
4.830269413535070652e-03
8.260371330856710811e-03
9.796256044239970776e-03
1.186415485215428119e-02
8.909718474707237559e-03
4.660522378930434181e-03
1.804275377309337135e-03
-1.389546644310900607e-03
2.664375666430675044e-03
6.193315503417932792e-03
-1.781298107857873735e-04
-3.963593016013860007e-03
-3.939976486561419175e-03
-4.204504440390522194e-03
-2.484690421301412495e-03
-1.778772604841220590e-03
-2.895221527980560653e-03
-6.311646484650611059e-03
-9.788935582225360282e-03
-1.005745646249804094e-02
-5.494207811252994553e-03
2.455169011457778404e-03
3.113333568122851527e-03
3.354180267433015845e-03
7.198987611252936729e-03
1.449747346525236385e-03
-2.459575243870998785e-03
-3.653593181199174273e-03
-7.299343694988449406e-03
-7.814160291009557497e-04
-3.368223047684012794e-05
-4.176892845683761492e-03
1.080420974164821848e-03
-1.404778847537206405e-03
-2.054334061765714613e-03
3.963093418223828830e-03
2.830109145350286960e-04
-1.087942553155521984e-03
5.918817356360267512e-05
-6.033920459423982273e-04
9.963692590466244163e-04
-2.933649115644248063e-03
-1.869249521000740724e-03
5.378331285209329328e-03
3.130942701594496315e-03
-7.918732847673797199e-04
-2.293483961348302853e-03
-4.864520795324487473e-03
-3.388779023084164104e-03
1.440357672916677857e-03
5.155784035537525241e-03
3.876129443382453008e-03
-4.217920874397007060e-04
-1.246769841453467236e-03
1.918349693408328335e-03
5.086044996034507111e-03
3.091650412542528824e-03
-9.150943608174523904e-04
-1.857602049046697340e-03
-4.241929679933364138e-03
-6.023643964564810369e-03
-1.233909016897602505e-03
6.007109058921561266e-03
8.131757540209200164e-03
4.289078588989662585e-03
7.329698919614269009e-04
-3.007374650131876010e-03
-6.184714638349618834e-03
-1.931005593566332114e-03
1.773325778997409622e-03
4.976627159860949091e-04
4.636324105575749793e-04
-1.086781949942524804e-03
-5.240095463268992781e-04
5.034008607639005491e-03
6.923069964728042688e-03
5.064365301062370706e-03
1.488647859892835816e-03
-3.329076849481308036e-03
-5.131559691745345847e-03
-5.530936821917744120e-03
-4.643204316451527043e-03
8.917393682323289687e-04
5.648832358229284242e-03
3.630658396369320327e-03
-1.909373153419570467e-03
-5.472574828326481206e-03
-5.096525295359197356e-03
-1.996478288884951432e-03
1.211700737862192586e-03
2.262441002498376957e-03
4.828489394137728142e-04
1.420721608471176662e-04
2.040709378988217471e-03
1.148074567923887618e-03
3.868281892273041042e-04
4.906833641396090955e-04
-3.886386783227120884e-04
-4.327549901440616684e-04
-5.273753316657876951e-03
-8.338428832040278849e-03
-7.874160802293060386e-04
5.373816325247223261e-03
6.590297144682091997e-03
3.742209523174124496e-03
-2.139143768151231893e-03
-1.676811882493361430e-03
1.461783643207003420e-03
3.356039428742630705e-03
3.654614018650483107e-03
-8.433531182265832822e-04
-4.439539715741168749e-03
-7.270157349729647334e-03
-8.561123549901775501e-03
-2.144147215062145069e-03
4.497999312770728508e-03
3.643170373199983332e-03
-6.404500685264274615e-04
-2.563856681750128347e-03
-4.898802953281207288e-03
-5.690427085869046754e-03
6.700788360541714813e-04
4.364572033260754984e-03
4.334013867005712291e-03
4.829620107176510468e-03
1.503186502724303047e-03
6.024815375684956656e-04
2.531951291722896007e-03
3.963422123988625222e-03
5.960130036923803540e-03
2.421647565394522729e-03
-1.224371394556908769e-03
2.054180540027823743e-03
4.213432926120502797e-03
8.369369382137956462e-04
2.980941736037993981e-03
1.203464861947475643e-02
5.528086410875682200e-03
-8.040176883059444585e-03
-5.351774807520909630e-03
1.589035961980215410e-04
1.794334542781028967e-03
1.578049549463852227e-03
4.217901986788431243e-05
-2.628794824989625495e-03
-1.760978253262997575e-02
-2.324448053970790823e-02
-7.354267174009958621e-03
4.849662579775808986e-04
1.976206887895585497e-03
3.082799448479522832e-03
-3.741518025951841471e-03
-7.725363818629798346e-03
-6.138313976294533340e-03
-8.981113039136064602e-04
4.750976789972322437e-03
4.603657759559114972e-03
4.531434144408705463e-03
4.870624714688783462e-03
3.970347256535225293e-03
4.235672158766074294e-03
2.768406383199419844e-03
1.728249518645999690e-03
2.160743970762798397e-03
2.158714709143149096e-03
1.271854159237842527e-03
-4.758570807398714887e-03
-8.689983310315032433e-03
-3.113952383722608068e-03
5.439034562972112647e-04
1.447038628742202499e-03
4.790002629616247828e-03
3.413520424983954027e-03
3.883120983294110519e-03
1.391656087815415152e-02
2.175983092194899715e-02
1.684925270867736538e-02
-3.140231788663972508e-03
-2.159050238877968306e-02
-1.668559626635778698e-02
-4.187077614880968177e-03
-6.209333278549386721e-03
-9.028219135702288470e-03
-8.583037894885187612e-04
3.864573247626681366e-03
-2.671690546502331672e-04
1.135540358589144042e-03
1.204540525472967520e-02
2.159426173334232438e-02
1.790039613580286446e-02
-7.679918374498261383e-03
-3.870938525711993539e-02
-3.290035686251829850e-02
7.988802471846991743e-03
2.897282869928866078e-02
2.083278150479254617e-02
6.525102570716541373e-03
-2.448888266657932647e-02
-4.801078905746471864e-02
-2.638467963577670675e-02
4.088094272097391943e-03
1.308315268634794096e-02
1.783253770224680484e-02
2.025265762773538827e-02
2.048917603188597780e-02
2.378585615627795344e-02
5.267067749480111929e-03
-3.220551279052524807e-02
-3.338117528284074986e-02
-3.828954204764710260e-03
8.051089522715765626e-03
1.177301129685673180e-02
1.497958056448954987e-02
6.499245335747684711e-03
1.103305332482188653e-03
4.227263186814549274e-03
8.200463045666153000e-03
6.761794717800763063e-03
2.003068851886002054e-03
-1.640285299955828629e-03
-1.772790192147175731e-02
-3.514704438392988323e-02
-2.861512632262738776e-02
-8.996515038998047914e-03
9.977829096395416514e-03
2.491558807215023263e-02
2.670008923954185487e-02
1.133810602102834804e-02
-5.146397065996159530e-03
-8.556230026876969139e-03
-1.089981265316641336e-02
-8.979387263062979518e-03
1.303414830328394501e-03
-4.179620117926048477e-03
-1.346518101253889148e-02
5.034576405033539285e-04
1.885654299365224426e-02
2.104023388413180790e-02
1.639740109088856646e-02
7.838887822949525477e-03
-1.100024273445973123e-02
-1.951399039249371303e-02
-8.219414337920054325e-03
2.171350732363963587e-03
9.116742542699314902e-03
1.460573493260682032e-02
2.151460596323459540e-02
2.275895780046273062e-02
-4.037898793175513819e-03
-2.736026730213046362e-02
-1.694301484534672247e-02
-3.498535074631190650e-03
-5.644737429113589645e-03
-1.439325604807331280e-02
-1.312602804903380271e-02
-1.824201927610194507e-03
4.820281239611086226e-03
8.727871245819711701e-03
4.537460434623968863e-03
-3.826698868767061668e-03
-2.320527207749382981e-03
-1.488351976621051995e-03
-2.030887117520359213e-03
-1.898176392784256083e-05
5.320445690069279098e-04
6.124294695985661426e-04
-3.958652939368743386e-03
-5.784591950796021294e-03
-1.477903964717903681e-03
-8.608372550311211516e-04
8.247847680109611523e-05
1.825944220706551260e-03
1.174410320253888810e-03
1.675688702301352971e-03
5.630535122819893025e-03
1.143722202409082692e-02
1.169797025968259165e-02
9.118175092269257404e-03
6.558761424275937058e-03
-3.110642951455936224e-04
-4.151533178672688409e-03
-2.740385988053231810e-03
-2.062888619526669250e-03
-6.600432690420057107e-04
2.238847776665739940e-03
-8.949508365929444034e-05
-8.083785265710468834e-03
-9.537817304127196166e-03
-6.985648026494387965e-03
-5.775560440809536338e-03
2.974997128075381088e-03
1.093880650178597445e-02
1.069682987272947347e-02
7.922989558709883987e-03
1.724793730035059603e-03
-1.177808786342492879e-03
2.084786193898910530e-04
-3.198026516903605069e-03
-7.367883994247387096e-03
-8.389746122495345473e-03
-8.372234583288395982e-03
-7.423768024596753314e-03
-3.642579469584893495e-03
3.143203620572230118e-03
4.011190147707960861e-03
-3.467467304653258902e-03
-6.571284747924035358e-03
-2.275697959976373703e-03
2.229991662484670165e-03
6.125287740748694247e-03
5.776420475954465936e-03
1.033102964645521383e-03
8.048038565941560522e-04
1.495580937492865066e-03
5.084152823448012020e-04
2.653792310012186365e-03
2.875882817898641787e-03
1.884020020375198846e-03
-3.632230218761884981e-05
-6.029527716760248179e-03
-6.908930823148968017e-03
-4.329573334315869014e-03
-2.898634847448171292e-03
2.701350619847448908e-03
5.723660526187914627e-03
4.516639309325055397e-03
7.564635706598706738e-03
1.198727785584120797e-02
1.504045653674864445e-02
1.946982550032656453e-02
1.486512485029293888e-02
-6.525271581218902890e-03
-2.139335474543742344e-02
-2.106750019084272646e-02
-2.161109243492419577e-02
-9.814697768877420764e-03
9.504391289599059198e-03
7.327215067024888881e-03
-1.042298821822694628e-03
-4.663119712578766250e-03
-1.014032874502371513e-02
-6.721715251608242556e-03
1.806599807096256839e-04
4.997497203801506103e-03
1.001085160461137429e-02
8.864529001486692178e-03
6.661609773472633791e-03
3.275667497678206273e-03
-2.111554461585061267e-03
-8.138207443384245718e-03
-2.163957411292552827e-02
-2.127082263475251270e-02
-2.634031965119454626e-03
4.299934806353938530e-03
6.991207232236073404e-03
1.357529538520290541e-02
1.407788714998675118e-02
1.510106401319789501e-02
1.171145070642162084e-02
2.205513300950540621e-03
-2.235074072150835308e-03
-4.335251426987234667e-03
-4.655074894703189504e-03
-3.131587605712449728e-03
-2.543479533351078979e-03
-4.681800494899217161e-04
3.072530619693568724e-05
-2.021771097859005953e-03
-2.783757806783802077e-03
-1.007763253875082260e-03
1.331574192045425868e-03
-2.925117108479841728e-04
-2.992975347413519976e-03
-1.515251677758853392e-03
2.422426686576145856e-03
2.153073392753074994e-03
-3.264841864730611432e-03
-2.732481821563008308e-03
-3.691768549054078355e-04
-3.562533196474797475e-03
-2.223703115272698014e-04
2.741317141869109835e-03
-1.880947201914039742e-03
1.188908593590184406e-03
6.375054698938707916e-03
3.118825536987593263e-03
-2.025406177080448823e-03
-5.867318188368481242e-03
-4.760538320472717730e-03
3.167609673804453255e-03
8.813180352043471083e-03
6.159598650471708250e-03
2.067277638989182490e-03
-7.516904233582340569e-04
-3.452048915771023345e-03
-2.189080046419900787e-04
1.473684506244837128e-03
-1.260412064124376199e-03
6.628412273252394212e-04
-2.701003858341492932e-03
-8.318476692049764712e-03
-4.448841090916558390e-03
-3.021185824118575915e-03
-4.770571160183000037e-03
-1.027304642153564415e-03
4.279833658063416507e-03
3.023781199691181251e-03
-1.378957172163933599e-03
1.791935418078446788e-03
1.533963878099677339e-03
-2.825788118882313800e-03
2.765830114328941651e-03
4.238726243756662376e-03
7.998588572573798539e-04
3.413758473409655037e-03
3.105411080823620561e-03
1.529929522888943700e-03
1.746668455515008791e-03
-2.925366866009602562e-04
-3.703607385304914529e-03
-3.972337707537954704e-03
-8.510939006120627685e-05
-1.716220669856602984e-03
-1.576179396118211834e-03
3.488852205165557038e-03
-1.312302080108275048e-03
-3.216434567218704084e-03
-1.034704776800598027e-03
-4.500642951115558718e-03
7.388595164810854606e-04
4.295181578281153344e-03
-1.145021204237525302e-03
-2.466585976473303020e-04
1.403208805737657773e-03
4.766740120101580153e-04
2.227837568475523038e-03
5.139394338989242313e-03
5.116447350397443361e-03
1.117356318098384994e-03
-8.610385120625482390e-04
-3.207197106820687451e-03
-4.122759948075750865e-03
-3.900771153622066708e-04
-9.626026538382831952e-08
3.059437016462896505e-03
5.570526023445237195e-03
3.818762653363749022e-04
-1.120524588892202926e-03
-2.834200109310729132e-03
-4.896844943084845483e-03
-2.553555536509854659e-03
-2.077919943968094783e-03
2.914002193392306247e-04
-1.174581451997279945e-03
-4.522129144387068873e-03
1.416711869017235094e-03
4.654198079283232772e-03
4.197325581880459629e-03
1.439085904917054154e-03
-5.275750448421908170e-03
-4.774576685067868746e-03
-4.377355895155090118e-03
-3.566767777650119414e-03
4.439184503780294055e-03
5.472077278411893037e-03
2.783723373364961444e-03
1.771606453245148883e-03
-1.517913642031760079e-03
-3.569323100961233303e-04
2.679491653564327648e-03
2.168857181999608690e-03
-2.929079329936529771e-05
2.964947563193813204e-04
3.221441450619315968e-03
1.648383734564652170e-03
9.907353479361696424e-04
3.451367221391376475e-03
2.240552931887729131e-03
-2.091720811133518029e-04
-5.886342642937339789e-03
-9.832002903710654329e-03
-6.728138603658952513e-03
-5.117780445292809295e-03
-4.540898449082425136e-04
5.460495652134434233e-03
2.444206781880107950e-03
5.116045594009625396e-04
3.373555670591527490e-03
4.157537625154391139e-03
3.168994490810100092e-03
2.071120656924159247e-03
2.461034519579180426e-04
-4.163057156139385664e-03
-7.181020571556028832e-03
-6.414156033438681362e-03
-3.239949469659184587e-03
3.199194900565938485e-03
6.257171734651455729e-03
4.697951413140100813e-03
2.307773793534009278e-03
-2.131248547306111973e-03
-1.288204957752207011e-03
3.824650810646374865e-03
4.634191727722954991e-03
3.441207323598800046e-03
-7.951734895980880759e-06
-3.106146790750037665e-03
-3.631295797164306883e-03
-4.194315328211006659e-03
-2.069671738092421849e-04
4.133445055475327805e-03
3.321413885925337921e-03
6.350777483528346210e-04
-4.201422213397097531e-03
-4.799022983640022742e-03
1.152666463922344875e-03
5.230725323128600571e-03
5.649524944815091133e-03
2.043983204799524646e-03
-2.529306817978059681e-03
-3.426391470311921338e-03
-5.022625466185349184e-03
-7.308339952687020920e-03
-4.388220241382637804e-03
3.961700335989975499e-04
-1.660377978710145469e-04
-3.280722213283618870e-03
-4.281872135151684917e-03
-4.630539052450097573e-03
-2.614627222110095083e-03
1.298662886862006916e-03
3.249207501418519602e-03
5.501082468231600214e-03
6.365280704532887829e-03
1.909481125407372836e-03
-1.082277853855319761e-03
3.977325313168308431e-03
9.941348766133291381e-03
7.819265643988491596e-03
1.963937227343088600e-03
-1.821008722649617275e-03
-4.210311598169223790e-03
-2.857780455016990535e-03
1.484083506594969723e-03
3.812064315786889250e-03
3.925361478106736100e-03
8.321090360929017096e-04
-2.829567194499955050e-03
-1.264325022456200048e-03
4.460511899030088342e-04
1.159853887611728878e-03
4.481021485204367098e-03
4.355410486986070057e-03
-7.127742387773338458e-05
-1.083416883426952491e-02
-2.391391998931963886e-02
-1.579136660542591539e-02
4.518635213119266171e-03
7.171598091266283108e-03
6.605884737420712185e-05
-2.718109547512172989e-03
-1.908386033994746234e-03
1.267207864386337476e-03
1.882713409446949704e-03
1.103744878805104244e-03
2.086202819213880000e-03
2.891026134754597337e-03
1.589504266449489472e-03
-2.973510186579418971e-03
-2.039414507734525674e-03
5.233384993862106108e-03
5.359573266733160153e-03
2.949890098194437975e-03
1.602418782134322570e-03
-4.343610175045806328e-03
-9.696840017195132661e-04
8.839414251473996439e-03
5.924468415850391023e-03
2.359114282145779225e-03
3.185864212369901669e-03
-2.415977383782799085e-03
-3.967683649059050056e-03
-9.019750779229659954e-04
-1.785612119184528356e-03
-6.894169743190978281e-04
-5.275684391503361733e-04
-1.552622351537211697e-03
1.403494278505016931e-03
3.408866942164063543e-04
-2.758457907419620964e-03
-2.196241224721506846e-03
-2.200179725621672581e-03
-8.726532820572022826e-04
-1.231406470669204126e-03
-3.172974826752886918e-03
2.015352404827498983e-03
5.499907554497531284e-03
3.308967707086379797e-03
1.129557412995522330e-03
-5.908129360652563181e-03
-9.340499927081448439e-03
-4.179966378271612187e-03
-3.221056874315660155e-03
-2.871300248142649898e-03
3.384340088999938934e-03
7.485848283783167779e-03
2.414739092722471142e-03
-5.337712007963964223e-03
-4.228852891014676062e-03
-9.881280315002598756e-04
5.190811468929901890e-04
5.163939767652630033e-03
4.260494427153355308e-03
9.086927916495065888e-04
2.024660949066653566e-03
1.272692276163087371e-03
1.459129733086267887e-03
5.501381802237670024e-03
7.216146498247737011e-03
1.994214625734806647e-03
-2.907693163422958582e-03
-2.716633181640858152e-03
-5.023842889207993413e-03
-1.203963924168497974e-03
7.583056794694528410e-03
3.308222096038948047e-03
-2.925390177115439437e-03
-3.314969382580104824e-03
-5.288584696238601314e-03
-4.989982773393893643e-03
-1.509234999942472280e-03
2.398202757764153828e-03
1.834240679433562365e-03
-1.385186633032048495e-03
-9.497050957631970837e-04
-2.289790047704289618e-03
-1.953226578947107016e-03
2.476530842467943288e-03
1.632679030353002825e-03
-2.226610407279865610e-03
-3.767439201673267093e-03
-1.893263019047808750e-03
-1.269380189391830906e-04
-4.937966092139371233e-04
3.230285991540157980e-03
5.170446036959725628e-03
6.071827833757936516e-04
-8.027423866455256612e-04
-1.087486714793217538e-04
-9.883494229962551218e-04
1.636597440678342827e-03
4.696990694526090131e-03
2.201124430886618535e-03
-1.235060124402577279e-03
-2.064186556031013305e-03
-2.836104619268466250e-03
-4.769561663308821350e-03
-5.162905683375362993e-03
3.167811116766800633e-03
1.066332320188869212e-02
2.430991445829728138e-03
-5.639378018339751171e-03
-4.895592329785769699e-03
-5.677165366215874975e-03
-1.163861251558149503e-03
6.783114974510142531e-03
5.376783441402374283e-03
7.586435087547360734e-04
-8.248895550723000635e-04
-2.225486843750500501e-04
2.748941234378838357e-03
3.017251841678410436e-03
7.528176223277091399e-04
9.192965551068596778e-04
-7.142979443577611746e-04
-1.997834065824322103e-03
1.879758840728354592e-03
9.380845741423702016e-04
-3.350914883438828144e-03
-1.536298634807065381e-03
-1.974028955792494263e-03
-5.376134561906092263e-03
-2.640507373359455602e-03
5.678341920360033355e-04
-9.359043997030531969e-04
-1.383713759282316448e-03
2.056988007538786915e-03
3.011327746334810200e-03
-2.233301415077256456e-03
-3.522708362452848380e-03
1.877363771549196659e-03
2.504387582051881798e-03
-2.540485262999201397e-04
-8.642349477424764777e-04
-6.989527044160183259e-04
2.747690109694843601e-03
4.083445137246479589e-03
3.630288321286336255e-03
8.432436415279520592e-03
3.712580038127603118e-03
-7.688071945221720653e-03
-7.820118747157347311e-03
-5.822665918274885256e-03
-1.391109916508774221e-03
4.751537626417218566e-03
9.130729155855192005e-04
-9.106213316237138627e-04
-3.654864246675503149e-05
-2.613536582713192873e-03
-8.470649039460466162e-04
1.386963649695861301e-03
2.635835539189518122e-03
1.628734658007003006e-03
-1.596495334274360654e-03
-4.312058020887618798e-04
-2.765338570170854104e-03
-3.821541071902519442e-03
3.350266130788848683e-03
4.939910103756045903e-03
2.964637825755007776e-03
1.465968830891185067e-03
-3.814778777798363048e-03
-5.865895034564128779e-03
-1.006193487381965143e-03
5.442301070707916168e-03
5.817133803460171164e-03
5.914213724956021408e-04
-2.765809497276909903e-03
-3.932770895669609156e-03
-4.213053251954400509e-03
-3.066341353989307256e-03
-7.694873454509908520e-04
7.185724308970844023e-04
1.187308467780662496e-03
1.590747911930089596e-03
-7.215762827850819223e-05
1.660997093278763614e-03
4.793892668934613549e-03
7.556077442537668422e-04
-1.268187343040748198e-03
-4.297091239603616848e-04
-2.633282813610967471e-03
-3.443208433163178622e-03
-3.435797350487816704e-03
-8.169940943929203918e-06
5.038476917134115246e-03
4.995711561708754932e-03
3.038036734673229405e-03
1.431638846132748824e-04
-1.026076320923013322e-03
1.118141989746246345e-03
4.556288022593057985e-03
5.000158638830044626e-03
-4.178883227133826928e-03
-7.895403399913271392e-03
-5.011411119093978506e-04
9.544151574782887802e-04
2.232993448986885117e-05
1.100010851974560352e-03
9.272720754979415928e-04
-5.174306475325344667e-04
-5.161742185155964759e-03
-6.559714077790903403e-03
-3.951952575148726284e-03
1.237828302069322742e-03
6.449389303245494504e-03
2.335826065797427450e-03
-2.799543627380824198e-03
-3.853331107749098042e-03
-2.117880504598984928e-03
3.300721669996812754e-03
1.522409201545026937e-03
-3.127316740528835620e-04
5.121558970899767714e-04
-6.372827690383124979e-03
-6.279228904716029069e-03
1.354963991662070429e-03
6.017613551829870643e-03
7.562935351635848708e-03
1.995717287903426077e-03
-3.525161245381761965e-05
1.067684537323679208e-03
-2.474374285355532277e-03
2.289876958130083616e-05
1.547655751236373667e-03
-8.168935356157030082e-04
1.380818405927855801e-03
5.602352885843045298e-04
7.929090129746307631e-04
3.841075892931534053e-03
-5.092206318969441734e-04
-5.563042738004688424e-03
-2.509007479042930921e-03
3.825329022252568854e-03
2.544895169424684495e-03
-2.455354183692250950e-03
7.447852580824069861e-04
3.237102648420779258e-03
1.788418017753080859e-03
2.756449247431473973e-03
-9.404039024550641572e-04
-4.812208955707404819e-03
-2.919695455389923183e-03
-3.301433093665562604e-03
-2.555497722222481363e-03
2.421307746125135781e-03
3.549886080731042438e-03
-6.731188220119122890e-05
-1.185536994109253305e-03
9.128354080170972924e-04
8.431932949394855973e-04
8.460302596078277506e-04
7.276002648803966012e-04
-1.249438055292492874e-03
-1.058340630765773008e-03
-3.174339434592701216e-03
-5.452496568047859871e-03
-3.544729105317304292e-03
-1.561014150163471175e-03
3.340611528581781918e-03
2.167733920599442411e-03
-4.919122819362901911e-03
-3.120681260166860427e-03
-2.546853202199273890e-04
1.744053806365081227e-03
1.452703699175849012e-03
-1.545970921016032347e-03
5.616719445976487562e-03
5.051829863981234514e-03
-3.002736446966951939e-03
9.390409362309533672e-04
3.296297247110875389e-04
-2.532994792722315092e-04
3.043901394637096337e-03
-1.626936432855728091e-03
-3.413401505255204147e-04
3.072456096160200889e-04
-1.429183662701632171e-03
6.811728432532796439e-03
8.075237865126415684e-03
1.988533958207139296e-03
-2.884926699761153433e-03
-6.144110761572730596e-03
-1.298537554595760157e-03
1.843833788645290583e-03
1.015809952901455772e-03
2.728442833077234777e-04
-4.298233993203426882e-03
-4.284430460730437838e-03
-5.063908463532840144e-04
8.629047688110368097e-04
8.757217662130386410e-04
-1.758534920156653095e-04
1.384367157878088487e-03
-8.596862045353057067e-04
-4.177151735041073621e-03
2.812809126836015097e-03
7.740868070788721814e-03
7.375888098229707937e-03
6.464017236051502850e-03
9.573726717842537216e-04
-1.330340433285934643e-03
-7.315906139487391747e-03
-2.131106724027125726e-02
-1.479730327213807026e-02
7.969207473428878419e-03
1.127630219718082742e-02
2.063536391815696570e-03
2.930414766547601111e-03
4.262198381559184450e-03
4.551156619118790626e-04
-2.988417607061149010e-04
-1.899495330661461713e-03
-3.930715763464430121e-03
-3.755982932738276530e-03
-5.522027419079607487e-03
-4.824412600496052334e-03
-1.191080284950208137e-03
7.713465210463223099e-04
1.578592360650107624e-03
2.117146332569134429e-03
3.476609599382279783e-03
1.963870557795435214e-03
5.432624140613327235e-04
5.393529137057818425e-03
7.739727275919961423e-03
4.803618344568558532e-03
1.692260192579607761e-03
-1.310284732402020426e-03
-3.763175959413448107e-03
-5.275736196915752421e-03
-4.184221701455980227e-03
-4.331103600927362768e-03
-5.639077105034397130e-03
-2.885949627767238866e-03
-4.025602644356086370e-03
-6.421744080237472979e-03
-1.626438050428477815e-03
2.352861722341358097e-03
3.727539609105244307e-03
5.929450957934974571e-03
8.431727707037452862e-03
8.100160250908056830e-03
5.262511516083490277e-03
7.695886184971550970e-03
1.146875922139645350e-02
1.066672273058737533e-02
5.718273524605814798e-03
5.990671496538937718e-04
3.011112000859349734e-03
-2.719137230680129455e-03
-1.981358841196013271e-02
-1.986010800996653239e-02
-7.316058107225052037e-03
-2.493309952852885546e-03
-2.480527239484952868e-03
1.059738548627586026e-03
6.393535184886782637e-03
