1.854442263044004530e-02
2.332350104521972375e-02
1.518593485849482373e-02
1.503589543352745576e-02
-1.692250453066126460e-03
-1.426866597707813003e-02
-1.739179784814285853e-02
-2.294796693017641179e-02
-2.382366073231727971e-02
-1.941196702161106236e-02
-1.234475424051378716e-02
-1.116529947767398029e-02
-1.168618477484274776e-02
-8.251453321412690473e-03
-5.834928363595765118e-03
3.988747913795312808e-03
1.424231969868699696e-02
1.709093965068690310e-02
2.107316495653628607e-02
1.964197845318827601e-02
1.340772112028607542e-02
1.142212441235639260e-02
1.282685456672820121e-02
1.311294628554562046e-02
4.007420148439282820e-03
-9.049668559481638397e-03
-1.210152334892545221e-02
-8.016994058884655341e-03
-6.679483292971523725e-03
-6.487498844139702112e-03
-2.484151032573243562e-03
-1.221116714333251793e-03
-5.178071607220193634e-03
-6.039731483429652652e-03
-2.859938099556074993e-03
-3.258617706748625120e-04
3.110083052886417065e-03
9.491889134807394296e-03
9.573285664205368611e-03
3.398936622657104233e-03
3.226104727462297470e-03
3.864253707852909753e-03
3.143961445403872443e-03
5.036033795006363348e-03
4.345244920183377363e-05
-9.087811347050406968e-03
-1.397987557274203013e-02
-1.452624963340700542e-02
-6.473166953302681402e-03
5.314864616116484961e-03
8.083571703006222145e-03
1.942818302956611206e-03
-2.643280877069591021e-03
-2.567279691680269919e-03
-1.756590962260191164e-03
-1.228695304748674130e-03
-2.212167662638846698e-03
3.528614601790819013e-04
4.609214239514524032e-03
-1.869678185072365471e-03
-7.837787947938256242e-03
-4.123301108112311861e-03
1.569745523107074958e-04
5.493501446067631210e-03
7.944460765476338976e-03
5.330283989345258391e-03
1.532113288512112082e-03
-6.255568441077863015e-03
-7.275059519252916225e-03
1.175095030236024971e-03
6.304334258929835885e-03
8.350426736313868586e-03
4.283497196469596494e-03
-3.217661656804989001e-03
-1.237300315362455539e-03
3.426007969547507394e-03
3.170957572411105350e-03
3.835213826996682583e-03
3.681351347337621146e-03
-2.028493444504320207e-03
-7.012112124677166193e-03
-4.996575782075492536e-03
2.613352574621935313e-03
8.871731886861336860e-03
2.695211771531946278e-03
-8.156694274760021082e-03
-8.603409615229871618e-03
-6.738176468568416073e-03
-2.416325301589361541e-03
7.743412075335176330e-03
9.777790206503177151e-03
7.040477038010155633e-03
4.757248057500762344e-03
-2.733196602621179756e-03
-7.729564162166439531e-03
-6.982939266270847892e-03
-4.332791035426366601e-03
-1.197146266927982382e-03
-1.036944085336692720e-03
-4.342770462025359081e-03
-1.197075424487298138e-02
-1.495167903060427329e-02
-3.654786991861384837e-03
5.156361831807693835e-03
3.054329903867437652e-03
3.575706736252320071e-03
4.407167538310398890e-03
1.254224838899870541e-03
2.055530976199582832e-03
6.331326406769884237e-03
1.157394501765656412e-02
1.543619887260541147e-02
1.087641042090156489e-02
2.177313042429524035e-03
-2.462090986375391199e-03
-3.417944099883829957e-03
3.692326880002756110e-04
5.242765928625061321e-03
3.822893318084898649e-03
3.554504817178062628e-04
-3.409462655847919198e-03
-7.187267106513628434e-03
-1.045484848517307368e-03
7.807523678255763426e-03
5.572125169280746360e-03
-8.427450854570448652e-04
-5.775769367445682430e-03
-1.025561353727224255e-02
-1.391959467498261362e-02
-1.502293320392698514e-02
-1.297506023717845750e-02
-1.534574681631666049e-02
-1.519906122716700031e-02
-2.490544579733546676e-03
5.844568797685663689e-03
1.661889049380938952e-03
-1.925418648914319986e-03
4.856989633617542039e-03
1.656412278863358956e-02
1.811441084091137618e-02
1.019201379307536730e-02
1.992106604818404125e-03
1.908479367022274586e-03
1.094843916783563333e-02
1.056644374973599206e-02
5.462734476855743817e-04
-3.901267187238162838e-03
-3.399823646839293233e-03
9.547278934139494244e-04
6.341422610958320598e-03
1.014755856444815064e-02
8.780212535379331926e-03
2.334724465158175965e-04
-2.012793100676267804e-03
1.154561471816472088e-03
2.005898935006752027e-03
-2.875521705128187416e-03
-1.986301588618848840e-02
-2.430427338942905621e-02
-8.597281583486019937e-03
-4.934689139446240061e-03
-8.854176567645253779e-03
-2.344983499610501544e-03
6.729054677987617375e-03
8.665346286055622751e-03
-7.632412950502656928e-04
-1.124586283754197384e-02
-1.023504181173134041e-02
-1.456689346996134678e-03
7.248385264854147712e-03
1.199497342902589372e-02
1.371946945168626281e-02
1.125710722119921924e-02
3.905733641653590712e-03
-4.870782040637516288e-04
-2.644883778180732743e-04
-5.561270720074087265e-04
1.134499080868131169e-03
3.824746831427824120e-03
-2.030073570024899104e-03
-1.148790911085251221e-02
-1.066456495872722399e-02
-3.041748313682716455e-03
3.500723434160389787e-03
8.296850853554348440e-03
7.207173951424667227e-03
2.115845657866565355e-03
-2.855103323169626262e-05
-2.960417086824542691e-03
-6.130570299036145789e-03
-1.425282102458470682e-03
5.898847335317368087e-03
5.893316011442041764e-03
-2.769247655962738300e-04
-4.338644755175735321e-03
-2.822758984696613609e-03
-1.425327855427136348e-03
7.484285251383072804e-05
3.446549732518728107e-03
2.184701773706816761e-03
-1.964942421773300217e-03
-2.352222802530152743e-03
1.876075518299683822e-03
6.397648227038923822e-03
4.239293550980395738e-03
-2.916748261803794179e-03
-9.226836112447922914e-03
-1.031961694158168609e-02
-6.889082677109579708e-03
-6.843667005693965591e-03
-4.879350532680743445e-03
3.302743749712786555e-03
4.813798099209767346e-03
1.157986409195641030e-04
-1.234979465712744175e-03
-9.221692232515316546e-04
-9.144552156376479276e-04
1.355365057496989460e-03
7.074321678078347546e-03
9.177141560528380426e-03
3.302898665473696406e-03
7.164730602856174500e-04
5.634657700676871939e-03
5.815728783636921889e-03
-9.850003017583773817e-04
-4.066870340180506367e-03
-2.573730039468171121e-03
-4.748051143688392442e-03
-7.954691900049879957e-03
6.896912835386932641e-04
1.761970692491695092e-02
2.273324285740103978e-02
1.301132041478612368e-02
1.426458392064766526e-03
-5.389477974137380292e-03
-8.600596794060643910e-03
-1.364398386437170284e-02
-1.957105976419273863e-02
-1.896344186638538806e-02
-1.106447907101271340e-02
-5.072958582160299809e-04
5.381129421628653119e-03
4.984479466378188665e-03
5.932937294541873637e-03
7.154516324798387492e-03
2.283781057477080306e-03
-2.625331026956671115e-03
-2.556297890965951967e-03
-2.244455803461168058e-03
9.933348801275405232e-04
9.109861652967477311e-03
1.393531099861829332e-02
1.161168126869938956e-02
2.449614956149019033e-03
-5.269277957429732880e-03
-5.734343982213193844e-03
-8.051380232482240398e-03
-8.699624595520928996e-03
-4.695094009965692684e-03
-5.202172081940356976e-03
-4.512247886436893118e-03
-2.847909669174111119e-03
-4.038648690629486476e-03
-1.510481308103062961e-03
-8.299390461080606443e-04
-2.582111701232505437e-03
-4.242919398736465231e-03
-9.056091901844188358e-03
-4.510169867019643217e-03
6.009039397400911531e-03
7.311158317286180729e-03
1.045899677280033406e-02
1.402102209018745230e-02
6.593467269540822379e-03
3.394948031550545876e-04
-2.155289433327844430e-03
-4.394182373758491120e-03
1.437961359774160737e-03
9.154656250483091465e-03
1.022337227008947823e-02
6.934569362586504027e-03
5.491486063648814801e-03
1.588412626294594468e-02
2.558121933374927701e-02
1.739377431879677444e-02
9.044645465387884942e-03
1.978858863739440220e-03
-2.396426180924006791e-02
-4.216766514325364507e-02
-2.765710928212032280e-02
-1.159299073973505886e-02
-7.499432671245137051e-03
-4.638468415831353917e-04
4.976910951290221480e-04
-6.223730212108491595e-03
-6.582567798411791647e-03
-2.750505386830670237e-03
2.896909717467246667e-03
9.317875841707323400e-03
7.114290652749131333e-03
-3.158736956835525404e-03
-8.074306580961617200e-03
-1.831238135916365625e-03
8.015695939150723967e-03
1.342319747823762614e-02
8.875988123059558657e-03
-1.687495791567828005e-04
-2.235149130741200061e-03
-3.910040441877176386e-03
-7.639304578835640416e-03
-3.462912579218381873e-03
2.862187577835256184e-03
2.152948254777140805e-03
-6.830750807880523780e-03
-1.570829846910212421e-02
-1.249613344997057771e-02
-3.722663860465074814e-03
1.882189744254431779e-03
4.869394407056944554e-03
6.211103648784587622e-03
6.560402930823923916e-03
1.572344523641146545e-03
-9.579654427112952158e-04
6.940541945282071960e-03
9.195065514728069725e-03
1.574369109683204952e-03
-2.759237939234793126e-03
-1.069282362563313965e-03
2.387415734946117789e-03
6.492633035296489948e-03
1.556930909702688298e-02
2.774449906189008566e-02
3.338243384606513070e-02
2.657593418087254855e-02
9.991575851441411235e-03
-3.171863079673893811e-03
-4.875850201673432444e-03
-3.722162416588521271e-03
-1.428053245556486391e-02
-3.203629653370185931e-02
-3.736058581406200702e-02
-3.630197102831245193e-02
-3.088019811310489457e-02
-1.175107538411769396e-02
-2.566939648224423644e-03
-6.505494575858452948e-05
1.426239550211701873e-02
1.521511865087544525e-02
3.998363003855640203e-03
-1.188569680656170746e-03
-2.287600883604593016e-03
6.020486826274542083e-03
1.294156989646566384e-02
9.062558344600226898e-03
2.644032714072047738e-03
-2.267940197274095036e-03
3.421250236307472425e-04
6.887831594732706300e-03
1.286925823880206640e-02
1.356578207665686334e-02
5.039199427613823105e-03
-3.233575696337214703e-03
-1.890633563694103098e-02
-2.801966031289774769e-02
-8.929021600945157011e-03
1.968685741076374278e-03
-3.448830494312334505e-03
-2.598227187481227420e-03
-1.608312551777059353e-03
2.500409866342527543e-03
6.634332832866686805e-03
7.011042195754876166e-03
9.209580748372138762e-03
2.514203308157510371e-03
-5.451381515336802680e-03
-3.478892073068744987e-03
1.265459866774048614e-04
5.324659764482863114e-03
1.141837379454181678e-02
1.232362701060847263e-02
5.453922808138847445e-03
-2.153744545130734794e-03
7.107593841192522913e-04
1.126844405073587629e-02
1.868966866832620990e-02
1.334213241535542847e-02
-2.296522600765639119e-04
-7.371821677444875126e-03
-1.022746874872968066e-02
-1.662880088470478426e-02
-2.103554349229804291e-02
-1.397918823428014913e-02
-3.717662417832597131e-03
-5.884108997994104764e-03
-1.005203853748774627e-02
-4.980484537816062818e-03
-1.723456058762537534e-04
2.642117477328068380e-03
7.527611135388356800e-03
8.388469391369659731e-03
-4.157010346996704744e-04
-9.362301545577529291e-03
-3.290754057675028717e-03
1.144872412279804991e-02
1.215104018980089386e-02
-1.926642657560175475e-03
-9.053162309421164053e-03
-5.820215894109371721e-03
-1.541218026017697126e-03
5.987579580812282636e-03
1.364938227188789051e-02
1.686182999064389162e-02
1.705977255735379242e-02
8.384460593976962930e-03
-8.106909124185358861e-03
-2.014751789120767730e-02
-2.070951085037705044e-02
-1.354084954813455054e-02
-5.384508865657118559e-03
3.529083758836895797e-03
6.234290844881449495e-03
-3.724341930849618242e-03
-1.017591586277254330e-02
9.893960675390765704e-04
1.632358453504273790e-02
1.608525701909458219e-02
6.903722379115960137e-03
2.536460128073321843e-03
-1.144961023335969771e-03
-2.489260645787181193e-03
-2.260819946356148677e-03
-6.057056681946124468e-03
-1.326866001845928905e-03
6.114868647327349575e-03
2.417162681893394657e-03
6.998723359383565972e-04
2.702511034431528698e-03
2.169710385021905892e-03
1.303577345315811743e-03
-1.176575320786766308e-03
-2.448861607947903484e-03
-6.052082012527876601e-03
-1.055939160322798102e-02
-4.942354798040856853e-03
-1.306207943311896028e-04
-3.752112850215479772e-03
-4.820204725063803076e-03
-2.641450293722729346e-03
-2.499832455880821817e-03
-1.381531573001340898e-03
5.556542193105033951e-03
1.040614481781728523e-02
6.940368718566499416e-03
3.055971799256972446e-03
1.232199193320393017e-05
-1.284183692025384852e-03
-1.646109492844443842e-04
-2.769322124119839683e-03
-1.503056263652207498e-04
8.670143818119173049e-03
7.376583061142721019e-03
-2.789603172621639947e-04
-3.500077615434789811e-03
-2.010592815324180414e-03
2.340657446718498024e-03
4.292793633121933829e-03
1.878385708961217634e-03
-3.640182390011545248e-03
-7.966129029717456539e-03
-2.050592072084768229e-03
5.858193529877043539e-03
-1.345571848576226101e-04
-1.161022141555677172e-02
-1.414022684763033971e-02
-6.537161981822350518e-03
3.961404650465787970e-03
6.061393527237277264e-03
5.019004236061982115e-03
9.399128803732425749e-03
6.342684299556785969e-03
-4.015695739362223037e-03
-7.303142660294507753e-03
-6.519704015102279100e-03
-4.778885023060319356e-03
-1.013799728796456901e-03
-8.678574009826050661e-04
-3.574137038033207026e-03
-3.783430034021416713e-03
-1.601442841971656688e-03
7.918799204010926879e-04
2.964463296524728463e-03
6.721198074116710441e-03
1.015422116391695960e-02
6.259302665949954478e-03
-1.323632244858315632e-03
-2.494152408041892723e-03
1.328339181725929656e-03
6.476654225913458171e-03
8.951752375854731339e-03
5.176281533738782796e-03
4.570494867558019597e-04
-4.762035470798424951e-03
-6.973229899382808739e-03
3.350695702390066354e-04
4.986805617285787126e-03
2.065762552239836392e-03
1.326012318349912948e-04
-7.101838141771986152e-04
9.871084464206216023e-04
4.534421356237640366e-03
5.313940674324908915e-03
4.668894950115486109e-03
1.395989347342451066e-03
-6.923650708902248478e-03
-1.466287812949881690e-02
-1.357948754377144920e-02
-8.311769881302149415e-03
-7.122344462598579305e-03
-3.584701548665555730e-03
1.890731444939014547e-03
-1.890502478183897657e-04
-3.764759433966449916e-03
-1.244379414784665483e-03
4.159068689614017940e-03
7.627713202591969617e-03
2.265348531947706731e-03
-1.181736162515112203e-02
-1.980246609667697666e-02
-1.369495761554096261e-02
1.783116134306234274e-03
2.114107099860807262e-02
2.907351284632167174e-02
1.744058194967445380e-02
1.330346360616581998e-03
-9.350678244591214758e-03
-1.112181973642826366e-02
-5.696280138268856180e-03
-2.810764766133217081e-03
8.754487768360826819e-04
5.103920149086864019e-03
4.754081812796934203e-03
5.234627716346963895e-03
4.231951683565019114e-03
5.533276541499692475e-03
1.157968283084301678e-02
6.405281825762175300e-03
-5.635877677018380667e-03
-8.651616050218016371e-03
-4.560370202369871950e-03
5.682634146196466167e-04
6.280994144449772269e-03
1.283724531083582643e-02
1.277184836691845800e-02
5.421451858055299430e-03
-2.947257668633965905e-03
-1.612192925163600035e-02
-2.319824532972917727e-02
-9.484077757011454002e-03
5.723562107925093956e-03
3.025180826335306314e-03
-6.170142113244907363e-03
-9.723717962038880627e-03
-8.275696407896991277e-03
8.155514806356463798e-04
7.984542863666940771e-03
2.987738841830331338e-03
-1.755153845198141583e-05
-8.167295801235371216e-03
-2.566977894248130207e-02
-1.793561047443638021e-02
6.672089565630968250e-03
1.256050555465787130e-02
7.812656893254705734e-03
5.783391284464216645e-03
4.957315024948132434e-03
4.666976515458739691e-03
3.420842155932037141e-03
2.015178455801825818e-03
3.806551571949882886e-03
6.356302289531661105e-03
2.081574113193355394e-03
-2.729183375737578680e-03
5.683138066981603979e-04
4.556248973270658233e-03
6.503393014556491103e-03
6.357883761702066809e-03
1.256519062871907762e-03
-3.965621267329781478e-03
-6.736412779282807337e-03
-5.896911380140725661e-03
-8.437790364417311565e-05
6.818354835899422157e-03
8.694341628050545126e-03
-3.043611344756642825e-04
-1.027782153869247032e-02
-6.630526868876043464e-03
-5.187732241981742824e-04
-3.192276230872084005e-03
-4.355727467868708395e-03
-4.708092929070956979e-04
2.984798468816680776e-04
-3.305722251273662555e-03
-6.146812695117328043e-03
-2.645823601180155409e-03
6.848201268181639163e-03
1.168264295876799211e-02
6.190334314952979956e-03
-1.674812932533801396e-03
-4.691623157306400345e-03
-1.243320914102247470e-03
6.031293826433599577e-03
8.843566852429660466e-03
5.811232551062965601e-03
4.989947134203935077e-04
-6.067700106666656934e-03
-6.340701440049822772e-03
-3.286054741294185816e-03
-2.475529868781031241e-03
5.754479214703334816e-03
8.313731998023385708e-03
-1.364981783520411015e-03
-2.979835763822873129e-03
-7.901503447960232102e-03
-1.483601665586613272e-02
-5.234508181230329918e-03
-3.410106658250870032e-03
-1.059082286674776011e-02
-8.513780220252587308e-03
-9.188737402369268753e-03
-5.512832218717424008e-03
8.133668566992524260e-03
1.116743219964309863e-02
7.403575718131149945e-03
1.180444448922850047e-02
1.143004816270571516e-02
-7.281444037931565855e-04
-2.624323369538124080e-03
4.512115512957445319e-03
3.591201099972675566e-03
4.784710018506855948e-03
3.679166463889763615e-03
-6.605104874986810100e-03
-7.716029211593869279e-03
-1.952116145208571563e-03
5.920702892742111048e-03
1.404366781303550450e-02
5.388341499788702228e-03
-6.695276636328760522e-03
-5.773742903880549511e-03
-2.796067984526497390e-03
2.808560607958280816e-03
8.063863128362562874e-03
6.568195432811370707e-03
4.683801447900049972e-03
-1.851318811897023696e-04
-6.999745824282137263e-03
-1.039330138675707317e-02
-1.022010468198480439e-02
-2.777806139895599297e-03
2.904640909612437021e-03
-2.168298221086277684e-03
-9.113557015148637114e-03
-1.017095367111647310e-02
-4.467090374467897612e-03
1.580534630364680134e-03
4.327135849204193259e-03
4.387367938453710231e-03
-1.821728053012415527e-03
-4.943792002652036381e-03
4.666856521517236773e-04
3.191906107687502141e-03
4.266161639214584127e-03
8.207688343668398737e-03
7.480008253962442885e-03
-1.253265155564841325e-03
-6.158074947687207715e-03
-6.853723106368793481e-04
2.123457177391968338e-03
7.976924144001661110e-04
2.728541249856700993e-03
1.256090020724859833e-03
-2.143722807838852051e-03
-2.319250883983910074e-03
3.415651540998883404e-04
7.848167739622706474e-03
9.204847097701526065e-03
-3.230657236127156841e-04
-5.887209971991373691e-03
-6.362694224830153962e-03
-7.464969831985935125e-03
-3.246546351746257015e-03
4.413302824523129483e-03
7.674126853895194868e-03
6.488560684942606960e-03
-2.997413095777031692e-03
-1.501310397811414163e-02
-9.722637924294688649e-03
1.755974278014465822e-03
-9.463991584838951730e-05
1.874886471579898482e-03
9.576875389317439716e-03
3.957492572549042853e-03
-2.424708975930079183e-03
1.493759793387620244e-03
4.514926399400320811e-03
5.955215912789029072e-03
4.848642085076344636e-03
-2.337280841598982084e-03
-6.385621777442090051e-03
-4.865137391527040236e-03
-2.276699363205964520e-03
4.717394591276051312e-03
1.169455354590592973e-02
6.123861370948146740e-03
-9.685173779416540035e-03
-1.991189240318185644e-02
-1.647763458275127227e-02
-9.315181151180983166e-03
-7.366822960402548588e-03
-1.935914557801425334e-04
1.329612843679893464e-02
1.585355044267268074e-02
8.904457612717381343e-03
3.425576712202967229e-03
9.318907687288460924e-04
3.924294899360178390e-03
4.554830614537077639e-03
-3.227264942664506437e-03
-7.111297710689695392e-03
-4.243992519632442360e-03
5.728099588656872330e-04
6.596475968843376267e-03
1.025562712868053131e-02
1.087921427847105341e-02
5.908718639989628436e-03
-1.174105203693963330e-03
-1.799259430556440428e-03
-2.484233254310827792e-03
-3.586905157590978936e-03
-1.570589709654488441e-03
-5.359958858834167582e-03
-1.123883458704476486e-02
-1.110446605863184971e-02
-7.623629494837647243e-03
-3.079342569445626607e-03
2.873940112288653919e-04
-1.186896848335517070e-03
-8.636498621213390889e-03
-1.294206272699849336e-02
-9.806013370123555645e-03
-4.754084980979245319e-03
4.732587234650079654e-03
1.438994619750199981e-02
1.983669172742177564e-02
1.973138916054325773e-02
6.949981349555988362e-03
-1.071739241983715556e-03
3.624050997152858302e-03
4.001471988998478099e-03
2.291965067913289984e-03
-1.835541985645039757e-03
-6.845034590630762021e-03
-5.052141577959780305e-03
-2.776684054351194735e-03
3.484358807761692503e-03
8.574247668048222762e-03
4.096107746693014584e-03
3.122698327899926752e-05
-2.228083110203647917e-03
7.931104385728547645e-04
6.592432877427150534e-03
5.865055231849414762e-03
1.132776914009755954e-04
-1.435414034966874149e-02
-2.126473172358273045e-02
-9.988329240307640758e-03
-4.379074928227875800e-03
-2.257360287438510416e-03
4.404683695951611827e-03
4.278358752290952090e-03
5.937886678159267316e-04
-3.593507288624185440e-03
-8.507010865710403283e-03
-8.051581327129457566e-03
-2.033234268252652813e-03
3.147631122176718088e-03
3.851277328128533198e-03
3.718965193173604140e-03
4.544854741450017784e-03
4.404270737228159656e-03
3.375429965658560162e-03
6.418648794983374158e-03
1.306824470366290368e-02
9.560814809409472551e-03
-6.761857458735924271e-04
-4.042331859159063040e-03
-4.962985940214491819e-03
-3.171349325048409586e-03
1.051985697084081503e-03
1.180042195143211122e-03
1.052046229599497458e-03
3.994973905921296716e-04
-2.119831907374281586e-03
-3.841695356191654736e-03
-1.632445729211112013e-03
6.768610881344444032e-03
7.616311567291443596e-03
-2.362332354327216413e-03
-8.623937975380817703e-03
-1.208294553902793285e-02
-1.027833310024730586e-02
-2.697906753687466953e-03
-1.910057728685460440e-03
8.958436005754374801e-04
7.478515060377178766e-03
4.362869639943622521e-03
1.653022038281298572e-03
3.216930550402489434e-03
1.882402088505921375e-03
1.710228953454681362e-03
1.136678704984387615e-03
-4.828473014861760920e-04
-2.435740837441960870e-03
-4.880182776052637353e-03
-8.302282742184353059e-04
4.089346359974888219e-03
2.646438998244025290e-03
-1.563113583114108737e-03
-6.876020946176511321e-03
-6.120247679101575855e-03
1.324687228964177435e-03
7.325287806324541628e-03
9.631428457342576174e-03
5.422518033867252188e-03
-1.087548218807779001e-03
-4.507254693016216930e-03
-6.596441146684259987e-03
-3.760602792832694503e-03
2.071650832166915205e-03
3.868151467813920209e-03
3.401651274092129962e-03
1.692776192739363535e-03
-3.448712070424209044e-03
-5.179237480508206738e-03
1.335773870786241893e-03
3.586577476041339675e-03
-6.231536169343989545e-04
-1.740580082967065111e-03
-6.469440810385741931e-03
-1.126766930005773139e-02
-2.538091500278940368e-03
9.112879351657391519e-03
1.213726791867729068e-02
1.052065552601005698e-02
5.064477517659934404e-03
-3.708833707256057460e-03
-9.283876419881868791e-03
-1.119743536300537440e-02
-1.041718505315549284e-02
-3.638906502824081762e-03
-1.576626198548808388e-05
-5.039708573590456764e-03
-9.398222317854124444e-03
-1.048458558011027691e-02
-2.153080759667663335e-03
1.229851746846451210e-02
1.245504121090113513e-02
3.592050230138699608e-03
4.652577186888991450e-04
3.105145966626638235e-03
1.022600934515940051e-02
1.576466775409639601e-02
1.976959199079513993e-02
2.227566903986123031e-02
1.588221345411354804e-02
7.859155122769335977e-03
4.907743495523197996e-03
4.496206135939751630e-03
7.422301201385786591e-03
7.286968283622596333e-03
-8.388639843704710081e-04
-8.541986323615446616e-03
-1.098129910914127580e-02
-1.226511718147222686e-02
-1.030524038665140904e-02
-5.648137544405215475e-03
-1.128636982123661786e-02
-2.412606412314469498e-02
-3.030382579761412357e-02
-3.073167393606310999e-02
-2.890097058462523169e-02
-2.620658212302497819e-02
-1.893844698276688637e-02
-6.870375950430874373e-03
-3.741390490793268259e-03
-4.653926870767618670e-03
5.907640367298037931e-03
2.031074212140589544e-02
2.558078739133304996e-02
2.235992120679805226e-02
2.264156175121058781e-02
2.630812173526870731e-02
1.559099611314724264e-02
-3.897251852427935110e-03
-8.579212010215745907e-03
-1.569596259695307718e-03
-1.328489776759052884e-03
-8.951537526176783430e-03
-1.273792136549452801e-02
-8.549933582362913981e-03
-4.957955865674525337e-04
9.714574048785163535e-03
2.022521277596639119e-02
2.846125793066202336e-02
3.150433574919186963e-02
2.465104171681184453e-02
1.515532432230160334e-02
1.246568487562566691e-02
1.172084830111492712e-02
1.048541639679949171e-02
6.469803911854992221e-03
-4.970548403129880152e-03
-1.548492799908731885e-02
-1.758095779895084421e-02
-1.425261288875519748e-02
-9.138305051436266049e-03
-1.981080667330589740e-03
5.165363819171803379e-03
9.866056825195080454e-03
1.736421794190198473e-02
2.495413695581835331e-02
2.232148403896896602e-02
3.560977170140200865e-03
-2.500976746580794649e-02
-4.148812662306021470e-02
-4.674243954366172349e-02
-5.465103060018761810e-02
-5.901382016007711284e-02
-5.889291002815937731e-02
-4.954690465095469565e-02
-2.711617239962329021e-02
-4.317849428803877294e-03
1.425961496794542552e-02
2.771015326689772740e-02
5.097617975298366494e-02
8.428427464095521182e-02
7.483963420044539849e-02
2.027956935131805874e-02
-1.308135291542014862e-02
-1.435122023007345989e-02
-1.731945731819511947e-02
-1.872732685496620447e-02
-9.514219321822938932e-03
1.506689644631374614e-03
9.374113738838145068e-03
-1.245332776455601023e-03
-2.246842931312460420e-02
-1.898149363262628675e-02
4.140643730318865554e-03
2.132281773923077467e-02
1.666773994459588154e-02
-4.197964645991501820e-03
-7.721251724069619522e-03
6.099693913549844061e-03
1.402075422963636880e-02
1.339688508388233758e-02
7.012169025194001787e-03
3.032697885360962058e-03
2.804519699990607254e-03
-2.041951014239996951e-03
-1.401654622785286283e-02
-1.594477309056605702e-02
9.573165102816659500e-03
3.483543249978413719e-02
3.906476192249239143e-02
3.638173288783016351e-02
4.077531378444839566e-02
5.560378310868051288e-02
4.766201836127761937e-02
1.773207495123831426e-02
4.577061980649931375e-03
-1.460616085768888343e-02
-3.995731651559792513e-02
-4.386804936446780934e-02
-6.034401241632512958e-02
-9.434671300498739810e-02
-1.041636703127239993e-01
-7.999121441955082956e-02
-4.035041636804427567e-02
-2.327723948185235828e-02
-4.432605122950011856e-02
-5.974977281934441137e-02
-5.084088452942742142e-02
-3.679966584868456930e-02
-7.707728783481272543e-03
2.305560789408427416e-02
3.406294764621549398e-02
4.415839151463703260e-02
6.227768478765469823e-02
9.849713267265639005e-02
1.057517660407817084e-01
3.217584712056097140e-02
-8.180775521756682503e-03
5.506299585866059054e-02
1.088303499409444680e-01
7.333949234162472075e-02
5.512587789652595265e-03
1.821481976564971262e-03
3.566433799237796187e-02
3.421228652476450416e-02
2.359761479482128457e-02
3.881576149895021172e-02
7.080618703528294977e-02
6.038613063801902964e-02
1.593511548623898627e-02
1.931411815787151612e-02
-5.792654979380451249e-03
-1.106859542099020433e-01
-2.089486183837859223e-01
-2.697781985469530630e-01
-2.489824533027104325e-01
-1.580919929288379377e-01
-7.245076464373055580e-02
1.075202540074325294e-02
4.441937254307899013e-02
1.738028626099095281e-02
3.463059896430466938e-02
1.120960859123849296e-01
1.573932543622277302e-01
1.018013036305815550e-01
2.137391695237160147e-02
1.371724959330183034e-02
2.075661837896738623e-02
-7.006341718267248761e-03
-3.409426528991959388e-02
-3.830579315384698841e-02
-2.039985111571865697e-02
1.329458638573048114e-02
5.743189436431332673e-02
8.672894046384178879e-02
9.882075420539014610e-02
1.104569022545503765e-01
9.841665607604674348e-02
5.726394116548535335e-02
-8.154677582879042708e-03
-7.729105342226556818e-02
-9.889066188037916316e-02
-8.926495294149201787e-02
-7.068293938809350196e-02
-3.641300010666646825e-02
-1.922069520816255261e-02
-1.938488934019597446e-02
-1.415101746479971445e-02
-1.127338178536033131e-02
-9.416356400487857145e-03
-2.430955436097581492e-03
6.698167937373076392e-03
6.072382219047628427e-03
-1.012801715494953715e-02
-2.319472696396489980e-02
-1.562842776082418866e-02
8.235811943025792004e-03
2.766990564298617630e-02
3.649050346252367266e-02
5.243202465636229853e-02
7.057550415849744851e-02
6.577071107143514506e-02
3.614307255043675698e-02
-1.078231605045132206e-02
-6.449211328105242114e-02
-8.799554416084910680e-02
-6.342045091407617907e-02
-2.596773462685775594e-02
-7.280540007331754403e-03
-5.353232783728475649e-03
-7.284098896101261905e-03
-7.117813649351558379e-03
-4.530759859190947210e-03
-2.912876974815222474e-03
-5.449724642186272450e-03
-3.254074943528496681e-03
-1.692307569118463827e-03
-1.191509893211158654e-02
-1.996592388499011939e-02
-2.079114659968788609e-02
-1.422528077540773962e-02
-2.759202928730184433e-03
-6.556999866663476215e-04
8.705343689294793704e-04
1.254518002254221762e-02
3.242636416754714201e-02
4.733005485219857894e-02
4.322766616703579978e-02
5.020803424443744112e-02
7.933208684388737275e-02
9.998748659383312198e-02
1.025584186622819916e-01
7.034545900799409057e-02
1.114929538601184579e-02
-2.631300738180338342e-02
-3.866913132372560430e-02
-5.288087744546771801e-02
-7.199340567019223147e-02
-7.254694510649753458e-02
-4.373231733109308322e-02
-1.490366901955332037e-02
-5.495512873652437860e-03
-1.234448829063856425e-02
-2.717740999819054371e-02
-3.583321871087812721e-02
-3.673354032072493475e-02
-2.557893847753311620e-02
-1.072562149691898411e-03
1.043199164266590123e-02
-3.894242799885100446e-03
-2.500189296624726401e-02
-3.071881545757499526e-02
-1.492847965719802487e-02
5.794242886866543540e-03
1.524829759408279257e-02
1.831254158242319116e-02
1.868780803389796796e-02
1.367517894676748350e-02
1.183350732507779460e-02
1.413775682632982533e-02
1.643274038816175397e-02
2.203703656274621364e-02
1.721751464553871597e-02
1.575624054509107376e-03
-2.647398749762123506e-03
-2.622514996356791177e-03
-3.308918998374857281e-03
3.506646655924969703e-03
4.867107106411198286e-03
1.769945568859300792e-03
9.002968502733922499e-04
-3.775624659364529116e-03
-4.819646838771856137e-03
-1.623498322310364941e-03
2.911224971041679807e-03
1.110124017360688935e-02
1.019694378762754476e-02
2.681253700874739083e-03
2.289653476767756785e-03
4.142594197312281408e-03
7.682733956359946714e-03
1.106591703788688090e-02
5.348950299500341080e-03
-2.507589786223959807e-03
-8.614486313940062506e-03
-1.614703108049974842e-02
-1.468624703686590392e-02
-6.793758445487548328e-03
-7.300564072174576050e-03
-9.307711093271581193e-03
-1.072984513129379182e-02
-1.839817355484898304e-02
-1.837391285097713170e-02
-6.771594495944067635e-03
3.768627682143692748e-03
1.172216085967842103e-02
1.481057311452051856e-02
1.026103810740174906e-02
2.712857177238982981e-03
-2.205531051279590975e-03
1.100251758613397584e-03
8.436997551036350129e-03
8.676746716582800847e-03
2.602702959651358519e-03
-3.520605838540349138e-03
-9.169238799610490362e-03
-7.102482269129635484e-03
4.568394961125849842e-03
9.873854437136186241e-03
8.762536892894823640e-03
6.649150672643911429e-03
-2.096651077987527617e-03
-6.894114891970411392e-03
-5.914612541058240393e-03
-7.161912534776815158e-03
-4.738679192417893232e-03
-4.544897480077227103e-03
-1.027032135418942498e-02
-1.863682828576253628e-02
-2.777681983265313861e-02
-1.684386880829392974e-02
1.093439330883348194e-02
2.134674238930183571e-02
1.314762863880191042e-02
6.669221099528561091e-03
4.325123206335362153e-03
5.183041026132257159e-03
1.314834375387311308e-02
1.924179395038246726e-02
1.966817122816839555e-02
2.109435429602228573e-02
1.774726628621119476e-02
1.319365201324999848e-02
1.403442094889305151e-02
1.379790492387008780e-02
1.205315711166771685e-02
3.326142427909529889e-04
-2.140111737133016528e-02
-3.201798865041274866e-02
-2.728475946792567261e-02
-1.663045473455963125e-02
-1.103830452226663844e-02
-1.442496970898243455e-02
-1.885600410499487997e-02
-2.073777554671221365e-02
-1.589382127790449697e-02
-4.794615865978316517e-04
2.074372507647949740e-02
2.977775813702957311e-02
1.199831955563534711e-02
-1.312626257465538890e-02
-2.533215893393923543e-02
-2.714532977221696675e-02
-2.331912227368955828e-02
-1.890483998458915987e-02
-9.267416023661319974e-03
1.156909638612732723e-02
3.353705021270086267e-02
3.856714145363200619e-02
2.366854994095897793e-02
1.513720928008681355e-02
1.877323910705764459e-02
1.469880967926277988e-02
7.771016582009604087e-03
2.122894933570900443e-03
-5.060260329592797951e-03
-6.122152548073141187e-03
-4.184458005568476510e-03
-1.410805281652549158e-03
5.176239953452614617e-03
7.075503982561541158e-03
-1.521414459427637440e-03
-1.059590350869731717e-02
-9.492773099558236144e-03
-2.931642513849775592e-03
2.240934270254442938e-03
3.114449001949308807e-03
-3.667846647447519422e-03
-1.124127612383893533e-02
-1.008319122813275057e-02
-1.403855509910354252e-03
5.137967710512823284e-03
1.853054297930320417e-03
-6.493917346897830865e-03
-1.022575087148116894e-02
-7.895791629612463822e-03
-5.677881380911711968e-03
-1.948946396516133090e-03
6.050333592819769589e-03
6.500337337629832207e-03
5.880554181050899176e-04
-1.287206168424095140e-03
-3.458871768487276500e-03
-4.103210768786192189e-03
-1.895145439300138573e-03
4.537553015745752301e-04
5.297161229654206993e-03
3.722690615652398706e-03
-1.258598994017623950e-03
1.912980730914238528e-03
4.017826216234077034e-03
3.533414999765251401e-03
2.799343095463574255e-03
-3.407961572802791026e-03
-6.567097722271015604e-03
-5.070113729589183563e-03
-4.906663788859754773e-03
1.112729852233872250e-03
1.083837597733396281e-02
1.356612201454239150e-02
9.591205701904999617e-03
2.038954841965072689e-03
-3.921218343017130077e-03
-2.415780636006040552e-03
4.015836498084785714e-04
1.832726720408325459e-04
2.279030955485035308e-03
2.009989290521794342e-03
-2.754655126806040879e-03
-2.796369167844263599e-03
1.008497665355517173e-04
4.253898208799790706e-03
8.407630772850329878e-03
2.614137660021460113e-03
-5.282630886810378568e-03
-6.854565582621242013e-03
-9.094413928733526692e-03
-6.318402052298339143e-03
3.612121873731349679e-03
8.189971282501266187e-03
4.028795811240939821e-03
-4.320382820977151928e-03
-1.049647659581786491e-02
-8.894051334065868758e-03
-1.970192517695323626e-03
2.120096595674590516e-03
1.496774704597424004e-03
8.406192246659489539e-04
-1.854955185803511828e-03
-6.814053385184137661e-03
-5.182125055846193221e-03
3.042659209742910615e-03
6.843433240948359683e-03
2.012320192781184847e-03
-2.422324216049599223e-03
-3.463127416672894844e-03
-5.943579549098633799e-03
-1.945643817988318728e-03
9.915306201876800465e-03
1.512490269910386417e-02
9.795184542939518180e-03
3.792276498451692597e-04
-5.221536197742245033e-03
-4.465989779142394769e-03
-2.930954868780367463e-03
-8.591275272528791631e-04
3.017761486926947862e-03
2.958570477132343828e-03
-2.445457196601985399e-03
-5.279637246596540281e-03
-1.268162022033706652e-03
5.664719469579988960e-03
9.986034657746112320e-03
5.646036073771942658e-03
-2.127613015065816203e-03
-4.383488994936781021e-03
-7.244102475164964326e-03
-6.200791633037031417e-03
4.158830257625217679e-03
7.357051050762768857e-03
2.228796703030124469e-03
-2.303161860110160795e-03
-5.075932203523852299e-03
-1.751142227106537805e-03
-2.519273282646708597e-04
-1.373222159940306122e-03
4.844577117039084238e-03
4.314876987110507524e-03
-5.126418939985877103e-03
-5.938900760545802113e-03
-2.471229944490977749e-03
5.650026201377001252e-05
3.864342035164713800e-03
1.861896352463339585e-03
-5.355673169129770983e-03
-8.392683131111701098e-03
-5.381111008731850366e-03
8.711601352745044352e-04
8.545031545549695504e-03
1.083445508639014829e-02
4.011823408263594237e-03
-3.152027318277767377e-03
-7.132796162112375014e-03
-7.455139888363868095e-03
-1.450630508206859036e-03
1.352759326504791989e-03
2.447462816808573002e-04
1.490258739845080112e-03
-2.202190611870546121e-03
-6.101682133363237753e-03
-2.458967332269756251e-03
3.647067111236795747e-03
1.058158917165526874e-02
1.007839797776174419e-02
1.708007226051716726e-03
-8.875192382342401943e-04
-4.773553697793023924e-04
3.978867256760019468e-04
4.407311821459221519e-03
6.509146373826791079e-03
6.863910205987490930e-03
2.073024552148590004e-03
-5.252323589446993533e-03
-4.502684820806166811e-03
-2.828854205889692885e-03
-1.676493117483919331e-03
2.818025684049166747e-03
7.721751505783633080e-04
-4.130569563667216802e-03
-3.616260707722840449e-03
-7.664642925305936196e-04
5.579284083338359977e-03
8.473497776735930756e-03
-6.825869107959921418e-03
-2.766385652981697904e-02
-2.359455050599090081e-02
-2.298031567466569253e-03
6.039027916573300528e-03
6.038951359696929228e-03
9.240471433965122619e-03
9.122907826187121733e-03
5.589682092679938707e-03
4.862710356746397086e-04
-2.802800943801577512e-03
-1.634182305243943052e-03
-3.661674935128538802e-04
2.666585983195474650e-03
3.887241776825617334e-03
-5.987063733849741541e-04
-2.765026986293334620e-03
-1.887158083255771742e-03
1.027520832949416988e-03
5.464010264482511460e-03
5.252992809834726787e-03
1.345534342816587844e-03
-3.350615659676450114e-03
-4.800309061076874460e-03
1.069356907685915618e-03
6.968973614403344008e-03
9.151667938308457456e-03
9.909214781856136647e-03
3.528623866198593584e-03
-6.838325487734784984e-03
-8.288046169603418417e-03
-5.265637028686127354e-03
-4.409572444350195151e-03
-9.714258654841643071e-05
2.234985254731287809e-03
-2.171341687822226502e-03
-7.394254400203997823e-03
-1.107296123369352382e-02
-5.012382676122580788e-03
5.659696831183631122e-03
3.231714187442099283e-03
-1.641051247751405687e-03
-1.272933355211711788e-03
-4.225694379929755516e-03
-4.512295149662425399e-04
8.892589303419472929e-03
9.722500630492666995e-03
8.957963119156411511e-03
6.765347616372842203e-03
-1.471511057421529770e-03
-3.567439987021980147e-03
-1.066327948181785851e-03
-1.011995872571578269e-03
1.622935672745334855e-04
-4.228242931007606190e-03
-9.422493112260375142e-03
-4.845619781677213203e-03
-1.947422305471073652e-03
1.392131226714611938e-03
9.048509878280357882e-03
5.794062206020331868e-03
-1.309591862573042213e-03
-1.233853924431844258e-03
-2.701880742216627822e-03
-4.918003977187964879e-03
-1.552679456324430451e-03
4.186174752986146497e-03
4.196148571503004882e-03
-2.881031277243701564e-03
-8.014350447096601007e-03
-6.904927545887985796e-03
-1.651555819846361019e-03
2.857423500943828947e-03
3.877798498181169503e-03
5.681670563527490940e-03
4.147347585007795691e-03
-1.985460230969000525e-03
-1.922856288803500343e-03
2.681615908867745427e-03
5.517102463384795236e-03
4.322692589323523515e-03
-1.734599708386928190e-03
-3.227059370017932097e-03
-1.108900693371031067e-03
-2.589934646447647048e-03
1.345672246185543753e-03
8.467383744243273114e-03
7.049761722631418120e-03
3.272869495601198617e-04
-5.976192801143398112e-03
-7.494760174973083382e-03
-3.340305888235279609e-03
1.157623878246569855e-03
3.861519788242311155e-03
3.492152115384185816e-03
1.116290404108609890e-03
-2.229696920276187481e-03
-5.646749495225802593e-03
-5.544435709858106659e-04
6.830947728294988960e-03
1.878011765504109280e-03
-6.244464306188117313e-03
-7.629139910074009268e-03
-5.901996675914501084e-03
-2.310669294761601850e-03
1.458750253382811455e-03
4.884226231597121014e-03
5.465379815410901371e-03
-1.354508890652283840e-03
-6.390317322216247133e-03
-3.646512017835621625e-03
-7.036928709777685430e-04
1.581208956353542978e-03
4.581388297001688474e-03
5.942434130634724303e-03
3.174117227654502191e-03
-4.115063491487138715e-03
-5.307122669988157890e-03
2.809932377481417012e-03
7.174286527801114650e-03
4.121919816361242425e-03
-1.970181928677837424e-03
-7.412133500600877160e-03
-8.294371121252822054e-03
-4.923183217861916254e-03
2.141319872899122376e-03
8.618876093278006120e-03
9.244422682674479849e-03
5.027004930168564416e-03
-1.828564970666485745e-03
-5.428275612748268558e-03
-4.687582010914076100e-03
-2.212855268888266370e-03
4.255542625627157897e-03
5.712757403199354711e-03
-5.612768376172097345e-04
-2.582293984499319135e-03
-1.377752123788252535e-03
2.133217470855994138e-03
7.697490556650685156e-03
4.685856513591130958e-03
-4.331653657581323140e-03
-7.953179188274621045e-03
-5.500936206987772949e-03
-2.231270535515880813e-03
2.627978456064682545e-03
1.075504998489622797e-02
1.212004228142015555e-02
5.210792897602098232e-03
1.041308331074336469e-04
-5.524671564179503558e-03
-9.050809192014411253e-03
-3.390560408132610535e-03
-2.554197590456656788e-04
-3.194881802344578040e-03
-4.921169296250469880e-03
-9.280687861850052400e-03
-1.206666735318434776e-02
-3.647970838053639017e-03
9.267421658581916077e-03
1.226881584264748887e-02
4.160443356372895383e-03
-1.359135742347335326e-03
-3.793766260714676909e-03
-6.996166710600850575e-03
-5.348238295632627270e-04
9.896952567731466532e-03
1.231148285456345505e-02
7.658890250566394685e-03
-3.275157643846902337e-03
-1.136379175603178561e-02
-1.033891286628336494e-02
-4.633279527829035384e-03
1.757668727924892229e-03
3.130175293793425583e-03
1.541664696302631971e-03
-1.809080986664536551e-03
-6.982432282910749737e-03
-3.496226974284540046e-03
4.747631444977026133e-03
5.607370634338756411e-03
1.420055245309718864e-03
-2.149652848212625731e-03
-3.158625334285544099e-03
-8.168440292716237002e-04
4.812159862681453931e-03
9.329943618460722135e-03
1.152614599176657491e-02
1.084790992188057641e-02
2.668897858121001710e-03
-3.946493265398576082e-03
-2.453140210035131569e-03
1.366121071659053129e-04
1.877913993545729347e-03
1.073192095069343179e-03
-1.571190327172843158e-03
-3.443668779231822720e-03
-4.644522671096347650e-03
-2.297811006288214171e-03
1.020354665935414460e-03
1.308604791129261598e-03
4.508185703524701876e-04
-9.996711150891464826e-04
-5.349169543280377255e-03
-5.534486041384749713e-03
-7.297844730842772965e-04
-1.190124567133141707e-02
-1.814353761877038687e-02
4.743913480314631594e-03
9.292025894069570746e-03
-4.357883800586718342e-03
2.090621261944441370e-03
4.079758759581784792e-03
-2.853252746736296085e-04
6.086882066566654155e-03
6.601504227608295285e-03
-1.593724075002974890e-03
-7.899967014241716240e-03
-2.501695966402279342e-03
7.592373815278054619e-03
6.209169367510813074e-03
1.288616412086077958e-03
-1.300727781836144440e-03
-5.735840329829991306e-03
-1.021766301594728525e-02
-7.117958046349829974e-03
7.944821576514804126e-03
1.902273942801612286e-02
1.185740922460319820e-02
-3.756983539269991273e-03
-7.251383009697738406e-03
3.113761968028445643e-04
1.848001537707403825e-04
2.185889121654108875e-04
3.963641365997160049e-03
-1.491420118807462161e-03
-8.049343764565205020e-03
-8.782653111934502974e-03
2.048462272692163147e-03
1.670355805173735428e-02
1.158062157046668532e-02
-2.274138618625244222e-04
-4.779378713916237684e-03
-9.375738009686997512e-03
-8.328955421573282225e-03
8.940960562993489034e-04
9.018351615160296805e-03
7.911298787013772496e-03
2.495534394098810217e-03
-4.872335862330377451e-03
-1.250895357734714032e-02
-6.825505506274719136e-03
-2.287407719001917014e-03
-4.338362839351291717e-03
1.251709566503513959e-03
-1.149143489949671802e-03
-2.917366397711001515e-03
2.000870720724027847e-03
-4.768196990099943266e-04
7.217017884712807405e-03
7.266571975306147790e-03
-9.046027351381252107e-03
-7.156035219616154949e-03
-3.307397902054943876e-03
-2.773755828111173095e-03
9.431724397911758068e-03
1.344171156460345629e-02
1.113375100980699278e-02
8.020489557374775244e-03
-1.450367412241016863e-03
-6.413893982869176176e-03
-5.968811122031122268e-03
-3.672032133875874783e-03
-1.535260435840712142e-03
-1.429308534614779757e-03
6.322797986597049075e-04
-8.541056095527266214e-04
-5.771868686586177112e-03
-2.110925517999154028e-03
6.630236542250604950e-03
6.905331425194441083e-03
9.874578633524242356e-04
-1.525978747530016720e-03
-3.876738111745137248e-03
-6.147347298404678625e-03
-1.878032179301124694e-03
4.370232067810620770e-03
8.072895293740556255e-03
7.535997013085566493e-03
2.421996564972117799e-04
-3.572561136539141244e-03
5.517122826779305347e-04
-1.620901573096065725e-03
-5.413849632362926004e-03
7.483102050995560145e-04
1.377303330203177162e-03
-6.069242183664390854e-03
-8.238272236056455242e-03
-5.360813210472439687e-03
2.611008715204315642e-03
6.346161767628278987e-03
1.090564560528924087e-03
3.900858034033053930e-04
-8.524818472819852260e-04
-5.476411059587871569e-03
-2.620220121330137271e-03
1.282372791214643872e-03
2.406042289316872706e-03
3.212698473604896562e-03
-8.527945977347545226e-04
-3.591355116374808729e-03
2.823872625079037416e-03
8.000152652501396622e-03
6.306623193397067374e-03
6.765884742256170377e-03
6.393718440861964614e-03
-6.012427738618264950e-04
-6.563381417711129651e-03
-4.883708437640769603e-03
3.304721778970053439e-03
7.013608600730083034e-03
2.687736910610920467e-03
-5.392912832049624218e-04
-3.276403888192927841e-03
-5.205229833793272726e-03
-3.032114213976594072e-03
-5.175178150075502703e-04
1.490961049605391692e-03
1.458955749170359490e-03
-2.395340619236002028e-03
-6.717758417256280631e-03
-5.948747898238434043e-03
-1.124786833618249965e-03
6.208225924330291069e-04
1.515060573794365251e-03
-5.758129384707752485e-04
-6.156691422271353027e-03
-4.662301904385402276e-03
-3.549864785769756784e-03
-3.057950160934090958e-03
2.664511423005709069e-03
-4.463348624971561060e-04
-3.840188868211619807e-03
1.181319484884755513e-03
3.147922256521774789e-03
7.479589399357279914e-03
1.174916676866034210e-02
1.118248688819433942e-02
1.100584065571121387e-02
2.885279754738308885e-03
-6.812933375364915549e-03
-5.570981044863945915e-03
-1.223611742713904367e-03
2.400873669782409639e-03
4.443084483357990708e-03
2.652821881580397743e-03
-2.608503040178125447e-03
-9.766473983446545895e-03
-7.548109858593598023e-03
3.618011777514252170e-03
6.108525867728935646e-03
-9.894963494197093947e-05
-4.914009959614279097e-03
-6.637292749779884378e-03
-3.226795546191212234e-03
1.868624466217719965e-03
4.069568738769686889e-03
6.113191699649174991e-03
2.906956638225659858e-03
-6.677120532759474487e-03
-9.752667665073202694e-03
-3.667149978476118462e-03
2.971262270389100988e-03
4.237776709078684180e-03
2.217782588325003905e-03
1.091813343784435019e-03
-1.710950437875590532e-03
-5.026893540303534712e-03
-4.367312826033133318e-03
1.429762036860544785e-03
7.039785446038404788e-03
3.370371669260578858e-03
-1.590382775311552366e-03
-2.445713371445930404e-03
-6.318471469179949215e-03
-4.265602582059393154e-03
3.821735945010664055e-03
7.474789358575111356e-03
8.949561455687267408e-03
4.282622589448963416e-03
-3.242068631996382171e-03
-3.707711263420117569e-03
-2.444389305346729175e-03
-7.940175952468315861e-05
3.892405883850352973e-03
2.579572878621549676e-03
-1.365858538525580208e-03
-7.736290093210736055e-04
1.898060920556286389e-03
2.862162478932523541e-03
5.023506792182768667e-03
2.677395950477054649e-03
-4.563123432282356270e-03
-3.920040436396040467e-03
-3.093666466776270538e-03
-5.889047011979014687e-03
8.782897183583624661e-04
9.151850051406385661e-03
8.054677370847793116e-03
1.824072521924682063e-04
-7.363407854296957593e-03
-6.956193679725775937e-03
-4.292765336317914959e-03
-1.840400074773047411e-03
2.844394959826758093e-03
1.226647149401468174e-03
-4.932899518074038668e-03
-7.011475656439947191e-03
-4.339183644488927433e-03
4.592786888496892123e-03
1.262136404612379872e-02
7.186908665094694261e-03
-4.677573809947937686e-03
-8.819044561951160793e-03
-7.048031376733189524e-03
-2.590692311816385988e-03
5.729733292068268750e-03
1.161036352173690223e-02
8.808924595488265563e-03
-6.799908140366725962e-04
-6.225767318095456332e-03
-3.735421324635820450e-03
-2.466716170827253259e-03
-9.993154358699123975e-04
1.882388842616922880e-03
-8.501957716322608959e-04
-2.871597151395432253e-03
-4.472010687978499044e-03
-8.277016666227175745e-03
-1.861366363706239970e-03
6.958966697859695835e-03
4.236429852669918936e-03
1.475579946490086910e-03
2.457177925084274867e-03
8.451213634978642971e-04
4.369793207130837943e-03
1.250626547178116527e-02
1.305357745767321380e-02
5.721089088642475687e-03
-4.658990415097381821e-03
-1.028876739205297243e-02
-5.619510734086263434e-03
-2.148936781317445366e-03
-2.636536463318390252e-03
6.521060607493010287e-03
1.615225426970145692e-02
6.570171299856298296e-03
-6.900327741618215126e-03
-4.839138085369969547e-03
-1.176865437787853307e-03
-3.570148471354645837e-03
-6.466848853701709886e-03
-1.076748167632059737e-02
-1.042503999366441690e-02
-8.059520648132518714e-03
-5.075672187793615550e-03
8.814815297741527764e-03
2.044188323983277614e-02
1.894009161774807409e-02
9.263204288624522428e-03
-8.974690519792006757e-03
-2.222537489171972497e-02
-1.886349392009304543e-02
-7.435710673121918336e-03
3.034652429953119211e-03
6.288293286622231512e-03
1.309504158584762256e-03
-4.564740449573675453e-03
-5.626765715291580892e-03
-2.718849842671464036e-03
2.180781647602987854e-03
1.476953507864954118e-03
-8.217018848754743116e-03
-1.083693244575762750e-02
-6.142695207592625481e-03
-5.521187005576764194e-03
1.358209635094851796e-04
1.106645064113817231e-02
1.818954503387229180e-02
1.807324786219264429e-02
1.160512317717343755e-02
8.536646440110661621e-03
9.275215289953689379e-03
1.084976886128222011e-02
9.111126821342333329e-03
-7.061027395935145883e-04
-2.931055433037830105e-03
7.516830369874880242e-03
1.874730786067707253e-02
2.474649600261392621e-02
2.074354588674065872e-02
5.851692072718228492e-03
-2.123496912004970219e-02
-4.510559452875382430e-02
-4.316810430184668534e-02
-1.962826765687401484e-02
9.667531282729950604e-03
2.358783983350608640e-02
2.046756294842188087e-02
9.876901553539924397e-03
-1.690749150878580881e-02
-3.752242155311121680e-02
-2.879387837005473183e-02
-9.109205946662949846e-03
4.321210924757025104e-03
4.933264658853098519e-03
3.444603860290620608e-05
-9.927579695474695806e-03
-1.968649426622693516e-02
-6.360391356078655238e-03
9.770779835200341448e-03
1.427507811895046240e-02
2.094139996579455487e-02
1.335637850815227755e-02
-1.419511669983388250e-03
3.486987594934652310e-03
1.698107856396174897e-02
2.142950567870157905e-02
1.432704179788699475e-02
-2.417613129299920911e-03
-1.506496600140547031e-02
-1.190662332445986162e-02
-1.502628938582062194e-02
-2.484202106844543220e-02
-1.248166777413052195e-02
3.484668811145712891e-03
7.022316821236893394e-03
6.857399847028435372e-03
9.521764870392282823e-03
2.733093677599712779e-02
2.718932864961760495e-02
-6.493446034777033624e-03
-2.970139098147752191e-02
-3.282021706143093548e-02
-2.210637889952861077e-02
3.158179892863343047e-04
2.388878293850369219e-02
3.701474350956333176e-02
3.171774882074526042e-02
3.249484626274606186e-02
2.972994987484833124e-02
-5.051374979661267008e-03
-2.758451726838313106e-02
-1.563125922959265196e-02
-3.634436351375323806e-03
-6.180187738781805877e-03
-1.026897399893656609e-02
-2.349990632302194262e-03
6.693654052808741158e-03
1.006084349968229888e-02
1.296657425704919250e-02
9.839484359033954380e-03
3.096851156407807244e-04
-1.285379116053946003e-02
-2.700781785369865337e-02
-3.374810370552922684e-02
-2.345252434564033817e-02
-1.297295203823540730e-02
-2.408651344579365583e-02
-2.206357677174734452e-02
6.791985873183165913e-04
4.823682133768970870e-03
3.494454453008611662e-03
8.930453536625278591e-03
1.095413682820271101e-02
1.306787765477604273e-02
1.034119779633537253e-02
6.873384998585833558e-03
3.002834230664550626e-03
1.948733365078284679e-04
1.041048664706674745e-02
1.424687250819686030e-02
3.398537397598330647e-03
-5.877518316744780556e-03
-1.276006931946255252e-02
-1.138724298127213527e-02
-5.307697914031205000e-04
5.911679719178273770e-03
5.089265397078232209e-03
7.794109715296715108e-04
-4.838371768623780239e-03
-4.281231973323448674e-03
2.885287718047059580e-03
5.407299259546278526e-03
7.840091587698320985e-03
1.589539480155580803e-02
1.780275763942206282e-02
1.615008506845282132e-02
1.910384765338956833e-02
2.393643236017726356e-02
2.659715293313555731e-02
2.383021965610456275e-02
2.486427145071716874e-02
2.142892231548156751e-02
-1.501118206206193163e-02
-5.510099624915647254e-02
-4.732693100338656450e-02
-1.852936789736614812e-02
-1.538040697242282207e-02
-2.795189727982617944e-02
-3.021188311263328305e-02
-1.160691461038642833e-02
