-1.693431742943309060e-02
-1.286565974296590732e-02
2.750842187251637677e-03
2.968416090424731701e-03
8.865759098795991319e-03
1.472427571511670391e-02
1.428501974204684534e-02
1.513886262442888306e-02
1.575319925847879984e-02
1.702693909156447610e-02
1.564207939358734298e-02
7.801002736179849309e-03
-4.577284703094317182e-03
-1.503312197381809732e-02
-1.895772071840005207e-02
-1.858324082723720322e-02
-1.596565888366390656e-02
-1.481929616307503181e-02
-1.286858826384482471e-02
-1.044354527383897259e-02
-1.275746866999780300e-02
-1.020988870544410100e-02
-2.622442827251066696e-03
2.748670671612083154e-03
9.989553662452185095e-03
1.440220962301241685e-02
1.263578940584996618e-02
1.003075278978853360e-02
7.865140410798110437e-03
7.177528126057529725e-03
9.952995756892976317e-03
1.134126604415411355e-02
2.853583596052755578e-03
-7.086212756917107704e-03
-9.348692054281305605e-03
-8.854067001327457428e-03
-2.762378523611513318e-03
3.901222357972984785e-03
1.227099930024936562e-03
-3.970903370438226554e-03
-4.596820416906491694e-03
1.154118333958749853e-04
2.676333859042963424e-03
7.351851034214646049e-04
-5.668951555077578718e-03
-2.199244747358745575e-02
-2.320839914055367048e-02
-4.004133551012671469e-04
1.139494665051755604e-02
1.129336544313532670e-02
1.237513167473913711e-02
7.144564496930468078e-03
-1.810396832480313395e-04
-4.780937184038543813e-03
-5.791911748997891768e-03
-1.709185430956586824e-03
2.788739699202263944e-03
5.329836161791979242e-03
5.463615364673571513e-03
3.009765845204451316e-03
-5.655801813791523549e-04
-1.616585729690115866e-03
-3.256419385473050812e-04
1.499673395595160666e-04
3.929686164611556967e-03
6.171804292286153099e-03
6.573021599963490853e-04
-1.507359831718596988e-03
2.684499426498594601e-04
-9.638266878124084665e-04
-9.133801521030328460e-04
2.066112241301383979e-03
1.406368576896215765e-03
-5.982424256806668020e-03
-8.551412244835939272e-03
-3.211056317604507691e-03
-7.906081436870715084e-04
2.493878544629673979e-03
7.651287764303720679e-03
5.602843863638963008e-03
-2.067826315180913525e-03
-6.755447400377432091e-03
-4.121123532530126740e-03
-2.680693476148074579e-03
-2.928583641111320076e-03
1.152654902466837723e-03
-4.403433676290061712e-04
-4.371420412467439537e-03
-3.197890075327343429e-03
-2.318661531916649254e-03
3.602506449452333968e-03
8.339724330098672103e-03
2.796807227762115704e-03
-5.175000333000801976e-04
-8.583679376568697540e-04
-3.241861542809266680e-03
-1.289778311402698979e-05
5.782178381709639388e-03
4.551131306512229587e-03
7.526716912563741939e-04
4.715987511109724845e-05
-7.805688587385509018e-04
-2.157706474455961618e-03
-2.313268409581902083e-03
-6.949637552413838026e-04
9.590890786865845837e-04
1.569744833666027032e-04
-2.405209328654889657e-04
-1.310134122713866537e-03
-8.816957098257017372e-04
4.673326156737564983e-03
3.749743066197972277e-03
-3.747434082388662741e-03
-8.353412385136111534e-03
-9.051922341948390183e-03
-1.817839091980861643e-03
5.867511783515532570e-03
5.298106630579551592e-03
1.938813923512519013e-03
-9.342737929891464657e-04
-6.378353993893196927e-04
1.281549070051135998e-04
-1.497257548842961632e-03
-1.196945393863596725e-03
9.238897163393725888e-04
2.788609596143777625e-03
2.518976853114066939e-05
-3.528663483187096696e-03
-1.490871783110357760e-03
8.909747379826980611e-04
4.693971595558559841e-03
4.649845239218257723e-03
-3.180324506003620079e-03
-5.504984020753738230e-03
-4.652960782643187493e-03
-3.839680778018205246e-03
5.435633523359056224e-04
3.540428341937152616e-03
7.698087822261657359e-03
9.027295483061307385e-03
3.644449183299439989e-03
1.047176425216182283e-03
5.260282104152767813e-04
2.746421643069171564e-04
-1.136665330405303947e-04
-2.919577174039809063e-03
-3.045816639801961646e-03
-3.073677280002314657e-03
-4.200867538182449616e-03
3.511183717594637977e-04
5.086840764300909479e-03
3.423106477240312785e-03
-2.107512880138015608e-03
-7.416953670756246987e-03
-7.520234099338163336e-03
-3.332764575877637456e-03
2.144288619218891548e-04
2.759528946647206177e-03
4.056844387562697635e-03
2.105671461451341913e-03
-2.169112150338998145e-03
-4.915607890126039506e-03
-6.053016445939343217e-03
-6.044439773981172964e-03
-6.154718191475448555e-04
4.910193468087412777e-03
3.407779320689454695e-03
5.354701802377248316e-04
-1.268304511803080214e-03
8.469900586993745102e-04
6.733290788910724356e-03
5.628697119501946747e-03
1.436279759421866262e-03
-4.569749923241170483e-04
-2.941359227897856997e-03
-3.281584149476745801e-04
3.509136867781306821e-03
3.799678383718251961e-03
5.537610687971894832e-03
3.585625243913100925e-03
-1.741260632588971773e-03
-3.314745818343361843e-03
-4.112697732901503603e-03
-2.547286885843444773e-03
3.388933079517715552e-03
4.080690272796390176e-03
-5.653575097886858218e-05
-9.210450537681678712e-04
-4.115868926624416044e-03
-7.127623765017533294e-03
-6.094138549438427727e-04
4.036147056639109547e-03
-9.826578675902531736e-04
-5.761376727182100470e-03
-3.344080670129794680e-03
6.844355333067793281e-04
-2.864895466971608090e-04
6.712799947756023814e-04
5.387516980513705131e-03
5.662174346436173872e-03
5.979892100246899647e-04
-5.690492125182164233e-03
-5.114868211092467136e-03
-1.053039582158506486e-03
-8.970683012022786108e-04
1.753444515995530428e-03
1.372200821418481263e-03
-2.999304003256945874e-03
-2.116092992470814272e-03
-1.838470709780382940e-03
1.784940393060938015e-03
7.301338728496670205e-03
2.452837740020604937e-03
-2.802393509166737229e-03
-5.050445672587007551e-03
-7.251215709492532524e-03
-3.319207226337773844e-03
1.484040194077177778e-03
4.219348250677556339e-03
4.836542808188478912e-03
1.475702581451185337e-03
3.075858105354584973e-04
-7.597802721742065056e-04
-1.827565185981886971e-03
2.656729937218925766e-03
3.193794009889292743e-03
-1.683275305097208267e-03
-2.145963093608328418e-03
-9.153994107244551063e-04
-5.177730690699550685e-04
2.401131014563942859e-03
5.658461142556163968e-03
4.800670196498809349e-03
4.613674320248027758e-04
-2.622407703272755346e-03
-2.004158651452864984e-03
1.104824618094574131e-03
5.120287973087806789e-03
8.551686977307786097e-03
6.296588692605631365e-03
-1.545323109911102494e-03
-4.416513685366567701e-03
-3.643580973913602972e-03
-5.249058261881973594e-03
-3.297372742101838984e-03
1.906050223320806571e-03
4.146759528156144549e-03
-3.713203116955293747e-05
-4.501518842196945355e-03
-3.236813059746929035e-03
-1.164673744714087716e-02
-2.365746721431865457e-02
-1.470457475281678264e-02
-5.492164781911909035e-04
2.497920264636574635e-03
4.464628996643609654e-03
6.884165038786388413e-03
8.259779855167256532e-03
9.591053036904086115e-03
8.022379632499725827e-03
2.541837224956717232e-03
-2.804087616241626984e-03
-2.215728109222392123e-03
2.604235089961656497e-03
4.116605475252967800e-03
3.480472342731326472e-03
5.505767754665448141e-03
2.990906645763081670e-03
-3.540519730359573819e-03
-2.644941210043306144e-03
1.613909767713205250e-03
3.991384365187675837e-03
1.659455020888647150e-03
-7.468745881739867476e-03
-1.168561802803992807e-02
-8.668958363247892748e-03
-2.609959717989350936e-03
3.607774048591169940e-03
4.417414811797879502e-03
4.802073097428021832e-03
1.177305262960749548e-03
-4.442820818613966646e-03
-1.651183915891811906e-03
-1.978246291896775758e-03
-2.046555976301522948e-03
3.016873200911339859e-03
9.681852028531697961e-04
-3.085077968330604374e-04
3.393211720507036664e-04
1.315072107123617569e-04
7.096397321464761009e-03
1.118135854780478132e-02
6.871459149563818695e-03
1.396662652255482385e-03
-2.884258843777847293e-03
-3.896881105979655650e-03
-1.602301185533890754e-03
3.622883354073759381e-03
1.054336017550009698e-02
1.021857192839021634e-02
-4.774115781819109235e-03
-1.776293879579219845e-02
-1.212300316902600004e-02
-6.075245493593235679e-03
-6.005028812395382665e-03
1.908378060826730659e-03
7.333058274632613463e-03
2.462413052312525073e-03
-4.647657163378567102e-03
-1.074421188048945743e-02
-9.340258041173504430e-03
3.770545488231217537e-04
3.216012412095453545e-03
-2.999632673234909567e-03
-4.800482105695480159e-03
-4.337000857139656704e-03
-2.387523479461807832e-03
5.407366805369409439e-03
7.724332098356091920e-03
5.595416419576318759e-03
5.533352621594753162e-03
3.368877914392275595e-03
2.808258882925234769e-03
1.908407428930398563e-03
-2.884255006929145148e-04
2.967734581365726911e-04
-2.952453373081870476e-04
-3.343379584126612261e-04
-3.180633830461159460e-03
-6.299876989332348076e-03
4.129274140821643027e-03
1.324070933340306365e-02
6.488710664045028997e-03
-1.010685077912124551e-03
1.297048202504575039e-03
8.109633088259824568e-03
9.869256618488720170e-03
2.020050006366891186e-03
-9.337264944226267988e-03
-1.121555435657716274e-02
-4.463041097755667333e-03
-1.611580402824256851e-03
-4.228519541329556078e-04
9.648281298908917020e-04
8.772042228988288694e-04
2.847393850807994949e-03
-1.782790508973813425e-03
-9.216645694959935825e-03
-6.094079352183377589e-03
-3.422714070499157605e-03
-4.640675623842288947e-03
-9.276125950134834390e-04
1.128821751180049491e-03
-2.240719867758316115e-03
-3.822199882744176883e-03
-2.517965926296524774e-03
-1.705990708582428520e-03
3.114198745351638036e-04
3.956345834607694588e-03
6.326285840617625923e-03
4.622733034996029909e-03
-1.075488049939864405e-03
-3.306249900864546842e-03
-2.699169415059079515e-03
-2.475400951086002051e-03
4.815984294255840764e-03
1.027452837377255436e-02
3.771029549521129516e-03
-2.266738217909960822e-03
-1.186746619422358266e-03
4.974636588504585503e-03
1.055528614798407691e-02
6.484594806845486899e-03
-4.167674758248892178e-03
-1.121307073465958003e-02
-8.559504418584039723e-03
-1.262052383822443932e-04
4.766834882905331486e-03
5.209722481720141171e-03
3.490104102954126944e-03
-1.161228703331252223e-03
-6.495749531518938552e-03
-8.059171851051644478e-03
-5.776841927777431711e-03
-3.095005804012039194e-04
5.123867054809556898e-03
3.051791958496126531e-03
-6.235541309541357867e-04
1.180233172345674124e-03
3.457868809115415085e-03
4.200415777390068862e-03
9.873705619312289801e-04
-2.275609052028426324e-03
-2.789650188163230512e-03
-6.445671878081980430e-03
-4.938015379574773982e-03
-9.276051633763317435e-04
-1.633495442473536542e-03
5.334342777829489783e-03
1.020695171677739842e-02
2.812470885209158219e-03
-7.046252595176166625e-04
2.200271188649802548e-03
1.372804628441642947e-03
-2.775459744407432917e-03
-2.823833862766092604e-04
1.871715748042982082e-03
-7.435799621434071617e-03
-9.625767607732685707e-03
-3.418452708645755133e-03
-1.947929530036612410e-03
3.841969641983400668e-03
5.251116229277981266e-03
-2.165349670914351859e-03
-2.185995213547404191e-03
-6.902917857171870543e-04
-3.226696525555627915e-04
3.649290282252817819e-03
4.577261069349164435e-03
4.621458572156546263e-03
3.422921363406152603e-03
-8.076275352656688087e-04
-8.491265076667399057e-05
9.193060234332758787e-04
-2.727074499219521529e-03
-2.331620704025998483e-03
-1.295854670030503015e-03
-5.447065747970594382e-03
-6.506483643762969553e-03
-5.262709090775286556e-03
-3.562650663888722313e-03
1.730513739359729186e-03
2.756061527009459806e-05
-3.938800075774451064e-03
7.945301768597488488e-04
8.735647465042355566e-04
-4.103180164044759872e-04
6.134344113931854310e-03
1.015060992593581207e-02
1.109087468295198546e-02
8.047971704663932357e-03
1.574921002973497710e-03
1.077288473293206740e-03
9.120988808000927680e-04
-3.197008031735401080e-03
-3.386432294097085644e-03
-1.263416823840984209e-04
-9.452885165757287734e-04
-2.993129117439586023e-03
-1.112348311405338781e-03
1.417373723880557910e-03
7.804748175876750037e-03
8.368454196369903841e-03
-2.653525293953987348e-03
-5.400671248120701186e-03
-1.079005363338893415e-02
-1.170310315058300556e-02
9.688609286014612104e-03
2.246980772613862195e-03
-2.012535035839462666e-02
-6.235491363395409374e-03
1.602976860305169648e-03
-2.241082988005769355e-03
5.151933227392739220e-03
1.160123583894832108e-03
-3.297895364579148895e-03
1.404231400373318409e-03
1.317828362794447100e-03
5.366557540717588424e-04
-9.922864014223595382e-04
8.351854730250315864e-04
7.228050785375755502e-03
5.548361780108389263e-03
5.794133231336373374e-04
-2.623467516019969796e-03
-6.203063727912614712e-03
-1.493357253175564558e-03
6.571559361148388359e-03
7.236218411734051358e-03
5.873785314631792265e-03
3.905738938281178192e-04
-7.564415841255079168e-03
-6.517449415550404662e-03
-3.327147907500943667e-03
-3.030004650473787451e-03
-1.680035319236901966e-03
-1.075347302993004970e-03
1.487504142722753707e-03
3.972815101754205956e-03
4.613539127179976020e-04
-1.629520768393144222e-03
4.208528450921732687e-03
7.446980140772643288e-03
2.260855552978867540e-03
-5.892932598519657478e-04
-2.080219283993336402e-04
6.470967447531996482e-04
4.293772039288861614e-03
7.639801837113974377e-03
1.014965425345091404e-02
5.059519009423326004e-03
-5.285738235322866123e-03
-7.962660732891990029e-03
-5.665063786531457715e-03
4.210524553528529647e-04
2.638237689312105533e-03
1.223311125648007065e-04
1.010403748991250581e-04
-5.636771618441579687e-03
-2.435194160619338910e-03
3.727076836972937311e-03
8.577283162715456126e-04
8.810642189372533753e-03
-1.012313528105674050e-02
-4.493049692233029579e-02
-2.811963762943722051e-02
-5.203140438226515818e-04
8.597738131832897632e-03
1.678685243550217740e-02
1.179960878870065823e-02
6.125151506464279923e-03
3.979847999285759073e-03
7.874781455280149703e-04
2.335846452142714691e-03
1.405861899655261749e-03
4.100978496181784810e-03
5.573753276160754722e-03
7.789969565804650197e-04
-4.712587048495183849e-04
-4.914113994440030657e-03
-5.197625910459494243e-03
2.571453041274213234e-03
4.603491976491102741e-03
2.683164968554962830e-03
-1.407433491043187808e-04
-1.438934286969024718e-03
-9.392522609851276186e-04
7.091016265499529379e-04
5.425900701507933334e-03
5.972456263569340951e-03
3.943112538692955180e-03
2.124962091772993056e-03
-1.019091385327728022e-03
-2.088019994357860794e-03
-4.822273832380341921e-03
-3.371971981534936744e-03
2.924347970400970401e-03
7.258914901884778005e-04
-2.021522366037999813e-03
-7.418849057763948068e-04
-1.033011680880605932e-03
2.269236742811971651e-03
5.068613406180680694e-03
2.000788563036445030e-03
-1.556895870343523794e-03
-4.580545616327174295e-03
-7.477498316696130215e-03
-5.235129100074250794e-03
1.665721193219815797e-03
4.082504521651974909e-03
5.034557512871949822e-04
-2.401492912425634042e-03
-3.482539879517161565e-03
-5.167430511069889300e-03
-4.982540762758962474e-03
-1.061899462787521675e-03
-1.426145620486343269e-03
-4.822447351594899567e-03
-1.998491243440939091e-03
-1.365342798061314807e-03
-1.804566127616898672e-03
5.772273832494749859e-03
7.629957133673847744e-03
2.618543423521407267e-03
2.302173320327225326e-04
-3.289636077347339767e-03
-1.034249532086883340e-03
6.889066393453286558e-03
8.514661855926324366e-03
8.017201889467345105e-03
6.758138825862916588e-03
1.136445005732894444e-03
-4.181828846787612533e-03
-5.230952611812716459e-03
-3.179526482803192184e-03
-2.643912770277925210e-03
1.743019149688709293e-04
4.390612585312759532e-03
-5.070747389482981038e-04
-5.165121999397598480e-03
-4.324617725487158414e-04
4.936013762036793422e-03
3.011225640747614007e-03
-7.174403171897826038e-03
-9.467102330110197667e-03
-7.609538585069057330e-04
4.959469481052616565e-04
1.609497475921582189e-03
6.271044015314940212e-03
3.783475535354983554e-03
2.987791778210571129e-03
1.084025890902047843e-03
-5.162078508530846405e-03
-3.923834813557440342e-03
-9.950130895577989978e-04
-6.062302194706995634e-04
-7.197980776843537504e-05
-7.620805599879963439e-04
-6.663103083379819189e-04
-2.053622820271618164e-03
-3.824692482000967330e-04
6.040201786781233297e-03
5.567022539410090842e-03
9.948867589747666627e-04
-1.685492338804223415e-03
-4.452965243983249971e-03
-4.729305096466194028e-03
-3.151735436841339704e-03
-7.472655414404780596e-04
5.358861397610105784e-03
9.026941524730576830e-03
1.754169414133887857e-03
-4.848501878806822304e-03
-8.285368262781066424e-04
9.297555354567927201e-04
3.993710727133128915e-04
2.685585405265370190e-03
-1.429141108088146598e-03
-5.904203824090197353e-03
-6.754212451097423194e-03
-9.312875791194009586e-03
-6.078543445176948744e-03
-1.193363619554855734e-04
-1.340380378269004184e-03
-4.959412949105348849e-03
-3.713437752407375107e-03
2.013988129431257788e-03
6.578985403467804173e-03
9.078006650980508657e-03
1.098757967467496252e-02
8.913125358253762634e-03
2.769348155642923064e-03
-1.661661549617378560e-03
5.028053756093176234e-05
3.682407947930745138e-03
4.768496952386599812e-03
6.420705225631860059e-03
4.528188461921765426e-03
-2.903835593916193579e-03
-2.721083848471306677e-03
6.075852800429658827e-03
9.762610075896792014e-03
4.250409666285215500e-03
-5.195143043492700050e-03
-9.802767352126555769e-03
-8.390060595138672250e-03
-7.022200547660424966e-03
-2.843839000671209965e-03
2.188765809079855698e-03
4.365284637722329462e-03
3.931203951230088055e-04
-2.050049537895504148e-02
-3.000739321953154251e-02
-7.582076018260711613e-03
3.660276598652442790e-03
3.244610159469564926e-04
7.622396354983141872e-03
9.161877332485135472e-03
5.377565330583413891e-03
4.037099095428289125e-03
6.867807320743976379e-04
1.992171688942669886e-03
2.904287286220622044e-03
1.761248751092778665e-03
1.405777694056244316e-03
-3.814606095689850908e-03
-5.210921832083698253e-03
-8.246653458511991669e-04
3.167509415542469568e-03
1.018533964597816838e-02
1.289318288201633453e-02
5.718093272088545752e-03
-1.682913328615787867e-03
-3.757550318189047285e-03
-2.526097637508913866e-03
-1.074257500472288514e-03
6.994941413374122004e-04
3.540708109352009268e-03
2.746894951597481527e-03
-3.377959119051308998e-03
-6.567851191861152384e-03
-1.313713376137743988e-03
5.652771890365886932e-03
4.066620778859351103e-03
-3.880007645055135596e-03
-6.253540471544277723e-03
-4.410754072467154910e-03
-2.471639418561975311e-03
3.945397906362715576e-03
8.156814512580769574e-03
6.568305906163655374e-03
1.766554974888871711e-03
-6.341403777293758669e-03
-6.564535804925365758e-03
-2.560409203947946240e-03
-5.301389665729626909e-03
-4.383977281736897540e-03
-1.826962247006971851e-03
-5.212953958015789299e-03
-8.862987642827183099e-03
-7.944618431862166333e-03
1.486542232008112793e-03
9.537114363529360442e-03
9.022062773847606618e-03
5.922751226876587366e-03
-2.024000861779090554e-03
-3.559705486033521403e-03
5.904448394656613454e-03
7.710256068123687648e-03
8.652349544023276232e-03
1.091452988903086896e-02
-1.424157993986615352e-03
-1.093780101066117207e-02
-4.984864415375029820e-03
-1.371406399758722146e-04
-4.152403518566111099e-05
-3.796423681157255325e-04
-2.257900413849928470e-03
-4.046102566101805395e-03
-2.532095922478563420e-03
1.010851016355321288e-03
2.374233826864029402e-03
2.147620561121842825e-03
-5.360081550255891896e-04
-7.044353836927658846e-03
-9.356481450253901697e-03
-4.439285197437504993e-03
1.527252116038210067e-03
6.747052804846227769e-03
1.062171212400630539e-02
8.753811508094878902e-03
2.536714921085469424e-03
-6.642764355631371469e-05
2.476414483774309373e-04
-8.523637069110215521e-04
-3.521605288099848583e-04
1.350651347273782289e-04
-2.272541660977073306e-03
-2.929117360008909147e-03
-2.312417011802595564e-03
-4.670386426914579538e-03
-5.071763189130856775e-03
8.948159022597683941e-04
2.283710703280780394e-03
-5.926454476409474641e-03
-8.939587253452844356e-03
-2.787811561361181779e-03
3.011639252466829977e-03
6.236789700858725617e-03
7.952902548785044726e-03
7.836208503891762406e-03
3.593466197036103600e-03
-2.134175591581429117e-03
-2.663413519685315506e-03
-8.726996272768898554e-05
2.687175477896279387e-03
4.566054190715255166e-03
2.409897471270253978e-03
-2.978111449251482560e-04
7.369851276427230027e-04
2.373551842746780566e-03
3.127706547947410164e-03
4.901903605673730777e-03
2.164398869489669169e-03
-5.724042018384073276e-03
-8.843013469371290361e-03
-9.549165596130997080e-03
-8.304994253279011918e-03
-1.358416161292307512e-03
2.278686079738908871e-03
3.025877827702715562e-03
-3.417035464148591647e-04
-8.738706857917361015e-03
-6.655764392869754735e-03
-1.177832738286077992e-04
2.603187948251864912e-03
6.433218027176026282e-03
3.509883738446708829e-03
2.408328747950468811e-04
2.562057587646519082e-03
1.746233196609110316e-03
4.782866727978166664e-03
9.054089275197975059e-03
3.654420784023569395e-03
-3.839216304664656246e-03
-8.798922685302671201e-03
-1.210873286304284084e-02
-1.041160557728501926e-02
-5.594399738635072276e-03
-8.712889354712328224e-04
3.882969358369576639e-03
3.732495784252809565e-03
6.351141171741559485e-05
8.921146433912783549e-04
2.118035887349106403e-03
4.513779218113233953e-03
1.039690107859755908e-02
1.051036291460316630e-02
8.056050431968544631e-03
6.726109598429007817e-03
4.222808999718921999e-03
7.059431775155002378e-03
1.297726556537287523e-02
1.257165985612726002e-02
5.420585703424188155e-03
-2.585406358601652875e-03
-7.823284599973849909e-03
-8.665467490710978410e-03
-4.342523079640704664e-03
-1.311200288636624363e-03
-6.399361375190858745e-04
-4.316728984240035538e-03
-1.551635964378281565e-02
-1.727613371556739955e-02
-1.263101678583398654e-02
-1.502491322316657635e-02
-1.062231829670002084e-02
-6.246748111222844187e-03
-1.095030289482377614e-02
-9.993545821544371974e-03
-5.502690231397527193e-03
-1.232856524361227021e-03
2.707821238615212237e-03
2.173641813120358833e-03
2.785536857918550786e-03
7.303851719782394371e-03
1.375501048775804383e-02
1.576036450442059103e-02
1.260034759495707278e-02
1.114535288743776116e-02
4.388622079757920763e-03
-4.410861886786822221e-03
-8.641491735956687362e-03
-1.408467163576522171e-02
-1.048514168389743338e-02
-9.726485233872458717e-04
1.710447586061985322e-03
2.335035284843343419e-03
1.491883602399799043e-04
4.512397170654994932e-03
1.499656318941791980e-02
1.621534725272696584e-02
1.805201371544595118e-02
1.868390784610400937e-02
1.343612177447724675e-02
1.168973467921158131e-02
1.181229417316616466e-02
2.070143985660212113e-02
2.423034335024925115e-02
9.189270224665301370e-03
1.802123592144290291e-03
1.182798702543351281e-03
1.012632585194577113e-03
5.619754308708917179e-03
4.005444162995201902e-03
1.416597714551551083e-03
-1.046252058102914440e-02
-2.940080562359477859e-02
-2.679836684276691583e-02
-2.331577894704820950e-02
-3.529350943234499383e-02
-4.587582179158271323e-02
-5.383853549364743529e-02
-6.043067521084262428e-02
-6.936987319842125022e-02
-7.128486455746865791e-02
-5.720722992227886966e-02
-3.956737869375161198e-02
-9.496058526121368623e-03
3.911021306700306760e-02
8.409367683679302985e-02
9.718607632833586862e-02
7.139898444872541661e-02
4.481980812338762915e-02
3.706455564494778865e-02
3.313907664233051165e-02
3.223849215728526868e-02
2.820563810170062524e-02
2.260969567461433224e-02
2.475639483927844983e-02
2.418062692473328321e-02
2.335516447517237137e-02
2.545407291097909544e-02
1.796100449870094776e-02
5.799712985061203016e-03
-2.955745497251014743e-03
-1.592052642154681563e-02
-2.899305899328038019e-02
-2.931159712169409751e-02
-2.765799228313473371e-02
-3.119228563896344827e-02
-2.840287588351243786e-02
-2.845387211698000018e-02
-3.575225083804372400e-02
-3.344845558147045012e-02
-2.443527171933539133e-02
-1.799801935772124897e-02
-1.323968803688757578e-02
-9.712319222931297194e-03
-5.641443622590739705e-03
-2.070882122371455001e-03
5.437705291188733858e-03
2.160625217921311944e-02
3.435030360496647839e-02
3.619820291812222979e-02
2.968713602944018579e-02
2.190970525200212904e-02
2.689675385040410024e-02
3.261644881743951119e-02
2.444233442879818405e-02
1.742984447857923516e-02
-3.797892286041382182e-03
-5.058345676527284396e-02
-7.466388854655878204e-02
-6.039727808102673262e-02
-3.901453089351170078e-02
-2.314096960176133602e-02
-1.472456145869590824e-02
-1.071886679413831638e-02
1.965143366305122444e-03
2.800124571681183658e-02
4.841172212747024695e-02
4.911582120019702263e-02
3.841095616579637967e-02
1.748308206639989995e-02
-7.759640041094566926e-03
-2.652316942589051998e-02
-3.594172746337862684e-02
-2.905714516425270122e-02
-1.474453501089220513e-02
-8.817180487614437526e-04
1.248518754677024889e-02
2.228530233407667940e-02
4.162433005864275143e-02
5.898766420691947676e-02
5.935406752138045611e-02
5.419701708749607993e-02
3.384912105865305054e-02
5.769083676160868118e-03
-1.492177733332875067e-02
-3.923957104448441702e-02
-5.960049834475284608e-02
-7.215174689706031763e-02
-7.949031873653783498e-02
-7.606675488490796666e-02
-6.833265065324775622e-02
-5.642652737606518309e-02
-2.322090961655598473e-02
3.629405620354605316e-02
7.777306088724685040e-02
8.143195101107887635e-02
8.385076514313190288e-02
8.621415932545949123e-02
9.406154379199092863e-02
9.978186168345676288e-02
6.460455667722166118e-02
2.893913112429025852e-02
6.512071760653281166e-03
-4.141388341220120922e-02
-9.681702726594115793e-02
-1.480289112489864001e-01
-1.739270167020010305e-01
-1.561549232726029968e-01
-1.261908266954832603e-01
-8.961220461157332062e-02
-3.276645512553310463e-02
5.235467763915698652e-02
1.139706928490477889e-01
9.432950534021239397e-02
8.295514840269628543e-02
1.156907780682839976e-01
9.900625993043282724e-02
3.352430795493759053e-02
-4.062679005007713978e-02
-9.702917671107688657e-02
-1.096793861582684160e-01
-1.015465278245624992e-01
-6.475470995685404796e-02
5.947933747393619082e-03
1.012485707832757459e-01
2.302949784314091419e-01
2.914829587692598922e-01
2.265717997034041864e-01
1.348107022633017738e-01
5.865876409145893283e-02
4.546983160068835891e-03
-1.901126598471829937e-02
-4.383436463965925678e-02
-8.674998321669415147e-02
-1.665330239170391691e-01
-2.462397112807250543e-01
-2.815096919625110217e-01
-3.075994013690141471e-01
-2.978579104336023242e-01
-2.257573023699247228e-01
-1.423533241114959547e-01
-7.982054532173750439e-02
-2.006821191551966255e-02
1.368345934438681966e-01
3.465133353346676603e-01
3.861153239903835077e-01
2.826270112412360147e-01
1.982549911075772442e-01
1.208474088374313915e-01
4.802745213450711897e-02
1.767710740379742351e-02
-6.574301360769941108e-03
-3.297998431156423660e-02
-2.073021451769406498e-02
1.250353509102583582e-02
2.474385505017261469e-02
4.095859793067038040e-02
8.235667632382452641e-02
9.817346973558696566e-02
6.473613394300969937e-02
3.046673059559350250e-02
9.893752872785217811e-03
-4.614171887057394450e-02
-1.430159573585751964e-01
-2.231945488075193218e-01
-2.712073948808680357e-01
-3.042276115656517010e-01
-2.895950096669486218e-01
-2.210139469383285149e-01
-1.610252117556824070e-01
-9.321441903303262499e-02
7.147401667160846461e-02
2.743450904989637174e-01
3.294818483323717628e-01
2.221375420386118293e-01
1.155448806992479677e-01
7.188956639133314841e-02
5.449982149766080530e-02
4.580543071066028871e-02
2.716221382229813339e-02
1.324894884874267161e-02
3.002603025691759353e-02
6.261273430790607886e-02
7.996659133025287025e-02
5.764008303703568176e-02
2.315480274807073940e-02
-3.967380835780348960e-06
-2.800287778140487724e-02
-4.824307811789618067e-02
-6.950156112118402452e-02
-1.086225390976733318e-01
-1.316832141488998853e-01
-1.187145810722742972e-01
-8.262059871060802030e-02
-4.870306523700655005e-02
-2.402453802136297195e-02
1.170155759502122805e-02
5.615052770421163214e-02
7.796439437398659800e-02
5.544206082075313347e-02
1.793104401573192633e-02
6.169975649221295932e-03
9.811014526389248008e-03
1.630517969402800471e-02
3.443534229181546141e-02
4.322387841731562680e-02
2.116518941179585528e-02
8.635998270819430014e-03
1.364245151709751747e-02
-6.672934364765905138e-03
-1.805876892319379506e-02
-1.365232359124865340e-02
-2.481258492297082688e-02
-9.797942598935949904e-03
5.874146909370205234e-03
-6.733529878325614747e-03
-5.607636499085970512e-03
-1.686722087241862914e-02
-3.678482758600251645e-02
-3.387351359268849643e-02
-3.074799144381271457e-02
-1.671422210723687296e-02
1.678423169301020319e-03
3.040259474054262875e-03
9.882206452179721767e-03
2.005815875773897181e-02
2.450362949304898258e-02
3.520677670933183151e-02
4.183031368968637836e-02
3.022794192878969222e-02
1.423830320475655969e-02
4.165886799469826866e-03
-1.608031610374729059e-03
3.282136288584992334e-04
-5.550710012498064365e-04
-4.911710528539063765e-03
-3.064091056251300616e-03
-8.285725047374754154e-03
-2.156957504160589636e-02
-3.637008021479628400e-02
-5.111545742345709881e-02
-5.205765383108021394e-02
-3.683244613165034820e-02
-1.654373546942176920e-02
-4.742992954203618591e-04
1.224182352725882057e-02
2.281359135496236271e-02
2.962907002372147658e-02
4.296523897463463970e-02
5.420891967903224140e-02
4.566716664380187501e-02
2.655727612827206430e-02
1.207050445279646625e-02
9.484170542597045520e-03
1.139955167428995976e-02
8.463833815434029795e-03
4.004564435767232582e-03
8.185978589617602360e-04
-2.929576491461600291e-03
-7.626269925510693881e-03
-5.740030733219565924e-03
-2.689113723895953083e-03
-2.794027329538350309e-03
-3.515823655921250859e-03
-2.584709583423292628e-02
-4.293546484216666931e-02
-2.135015454968148055e-02
-1.158869064952901609e-02
-2.827572137085397619e-02
-4.472797145868780133e-02
-6.145011933987268998e-02
-6.705692943947266782e-02
-6.112179868573001246e-02
-4.282412831950607041e-02
-3.316375038457984939e-03
3.395348612771145053e-02
6.041014731349336753e-02
8.739054267327865666e-02
9.801607103510028007e-02
7.975249572486803329e-02
4.856341490952471168e-02
1.456826523677360284e-02
-1.561308417613891351e-02
-2.522047610045757837e-02
-1.928959421114022355e-02
-1.316852077505590267e-02
-4.142645406847621052e-03
6.774659512410299671e-03
1.330323720541669481e-02
1.417855105497398821e-02
9.999751646901299321e-03
4.561622614643375678e-03
5.244673152692667581e-03
1.307329171696713574e-02
9.855923525002171018e-03
-9.397839926717603543e-03
-2.759768030262139613e-02
-3.998245467722611607e-02
-3.715271885125809304e-02
-1.855058751266196182e-02
-9.331087490186878997e-03
-8.560843218198666005e-03
-2.134217770028199075e-03
1.718410466912284303e-03
-1.815646080135918650e-04
7.449814510866770460e-04
4.908850514693178894e-03
6.545529802510032837e-03
6.332827188743969313e-03
5.574292661050811969e-03
7.875437465384271373e-04
-4.109016711698760746e-03
-2.703159867315605737e-03
6.741567890768180747e-04
1.803921114756494668e-03
4.125720771785238404e-03
2.902092491965351916e-03
-6.443825681888090511e-03
-1.007969859440380200e-02
-2.511154187152306490e-03
3.093726323289026827e-03
2.176541244896806546e-03
1.623909691368752815e-03
3.394671189370244025e-03
3.874947127676519210e-03
5.880899186832514933e-03
9.580361534042255642e-03
9.617492979160122829e-03
8.811343612388335481e-03
6.438736018581151833e-03
1.011298918956591913e-03
-2.525315297871586970e-03
-3.179143758253609366e-03
-1.531786664324891363e-03
-2.066909253462406032e-03
-2.619955116089640705e-03
3.114913095323632204e-03
2.490428597728530126e-03
-5.891185798075552864e-03
-6.381950849064486203e-03
-3.621858993737941262e-03
-3.054894714963712204e-03
5.245099425135015328e-04
-6.119445649978888144e-05
-4.481587006252864096e-03
-1.966615738190687947e-03
1.803251880184328327e-04
2.157010481843167366e-03
1.052756808871131884e-02
8.266004239894817959e-03
-2.448394554551683224e-03
-3.660517612350906811e-03
-2.807229277993277764e-03
-1.894789088127829492e-03
2.845618828523813204e-03
4.953307570814463080e-03
3.892337816350634281e-03
2.788536659250784484e-04
-3.924808874338447245e-03
-6.349151341470715346e-03
-5.930467841158060770e-03
-1.393228574302365907e-03
6.236598319518985804e-05
-1.537973154927077665e-03
-1.157621594124952748e-03
-3.841335005685901486e-05
1.105331752028592155e-03
-1.740657779456611723e-03
-2.040967490389183989e-03
1.173996518813111463e-03
-3.224755131671357567e-03
-5.356084535263554505e-03
-4.402881357860030653e-03
-5.811386766916303015e-03
-5.653591857645587707e-04
3.807956701420203531e-03
4.953807202269453966e-03
5.801904334856296426e-03
3.461639053658242208e-04
-3.496462237791860082e-03
-1.818049225859349853e-03
8.150391378366482779e-04
1.323214940851418116e-03
1.720821118238701364e-03
5.150361516161744424e-03
2.583738401040719650e-03
1.413449715790929999e-03
8.645084031184132461e-03
9.441392772106656228e-03
5.044181601988595269e-03
-7.828754339803162439e-04
-5.759026968009736160e-03
-2.358611507814640205e-03
3.787151884949789982e-03
7.744239629257683270e-03
7.828688009053058963e-03
6.145675672550744879e-03
4.247189832565173226e-03
4.518264983657034215e-04
-4.203861057220452369e-04
-1.930006621971109117e-03
-2.258825089108728972e-03
-5.462171675023637504e-04
-6.305367710656694172e-03
-1.432255649392605301e-02
-2.199131835220253031e-02
-2.228343301314253747e-02
-1.471725454850647020e-02
-5.738302156341479505e-03
1.305366891386599941e-02
1.322510523657339197e-02
-7.175298843902938074e-04
1.014017850921148083e-03
-1.639964306743382089e-02
-2.104809365703553398e-02
1.528500453538312633e-02
2.388660950046134906e-02
9.702502982107971338e-03
4.153095703344573432e-03
-1.657266599060880450e-04
3.239019819708535957e-03
3.696256623024268655e-03
1.476434028252509049e-03
4.762141838988162915e-03
6.819722707914042774e-03
6.547293963033495000e-03
1.007671665350461055e-03
2.370770407497876497e-03
9.634286069983701711e-03
5.664385723595409365e-03
1.968220898888187805e-04
-5.283425548547789237e-03
-1.298282756875209637e-02
-1.117233160459913353e-02
-3.685579723912667249e-03
1.639958387143050427e-03
4.354315820357043676e-03
1.659848760631156377e-03
-4.660667654974389243e-03
-5.517468734627120619e-03
-2.523720430890959762e-03
-8.235069474465185916e-04
2.809773147444882477e-03
3.256895651049344746e-03
-2.799975910104479746e-04
-2.014321557987506367e-03
-3.076133819294016303e-03
-3.443039544311008978e-04
4.413886148526328067e-03
4.898650950163768898e-03
-3.358974541992898726e-04
-7.442219286624896478e-03
-7.779166157220367486e-03
-2.834996419679605088e-03
1.641403987942341913e-03
3.532931684576521777e-03
4.857739324171545317e-03
4.987626449321978274e-03
6.037014481950886803e-04
1.413999149884351226e-03
1.022348142425317597e-03
-8.876050224523770581e-04
7.744088186248677605e-03
-5.174250337711317274e-03
-2.715551466147196613e-02
-1.245053814261393166e-02
3.959864096202238455e-03
4.668424140326431909e-03
1.149343798830941392e-02
1.216131900765488917e-02
5.893509861720395461e-03
1.857530747324407034e-03
-3.597931170981060432e-03
-5.944651727492019332e-03
-5.216991641231408933e-04
5.303868800142270794e-03
5.054913427799703936e-03
2.905326061458417958e-03
-8.319546823365348053e-04
-4.313124645289505635e-03
-2.703344884051103909e-03
-1.137586334216433284e-03
1.347540508574658668e-03
3.733442682951045120e-03
-8.554508481682313991e-04
-4.209414337204798670e-03
-2.527046553384571046e-03
-4.492186574528749454e-04
4.124749408683242233e-03
4.621583437840648574e-03
-2.712045774521893403e-03
-3.884630750209520401e-03
-2.193970194682220379e-03
-7.389180827784462037e-03
-4.085347177747149922e-03
5.149006736325828677e-03
4.196384516799461784e-03
1.668551240294850095e-03
9.092733668412152212e-04
-2.889048948370334484e-04
4.854991383221532323e-04
-1.316424467855226849e-03
-1.085357528994428892e-03
3.524606248196702780e-03
3.455019219686546877e-03
-6.020558124517541966e-04
-2.439889072221918757e-03
6.602199807521852773e-04
5.519899168612752219e-03
4.779111100878926689e-03
-9.460097325755096286e-04
-4.983651640673709797e-03
-7.886317284324151355e-03
-9.041812114007943477e-03
-1.378438969785056789e-03
7.322734383654969786e-03
9.065801661110194434e-03
8.891637002605316115e-03
2.909130240567649357e-03
-3.412438123596362588e-03
-1.063462995714536908e-03
-1.578616601754337032e-03
-4.869899766616746228e-03
-3.523377914646434392e-03
-3.332426224132818519e-03
-4.913034550885976744e-03
-4.151694966085581369e-03
-9.905574744373186243e-04
1.754855295873468130e-03
2.453915387953452439e-03
-3.845923658564763059e-05
-4.629724723710341647e-03
-4.771838402508327484e-03
-2.390039294652700512e-04
5.149700788888195331e-03
9.307002720133655815e-03
8.948769069056339287e-03
5.054920571799246913e-03
-5.306048529614647551e-04
-3.985904306362635964e-03
-2.228831225502761557e-03
6.854527798639365810e-04
2.167066926465378417e-03
-9.072864166348986598e-04
-4.186461939281826625e-03
-9.237161635394729696e-04
-4.433165407497664931e-04
4.894087795888481078e-04
8.753001324030529676e-03
8.242152646068472144e-03
-1.768173595578869045e-03
-7.372768249225051217e-03
-8.116658288289432810e-03
-5.574796546298686761e-03
-4.436807128467377005e-04
4.152487799974443304e-03
7.070495559404392158e-03
7.866674559665241817e-03
4.411964776360274669e-03
-1.756878064059963626e-03
-4.707867313886201013e-03
-4.325640212483310848e-03
-2.161461963005613125e-03
4.843324554990686634e-04
-1.033527282494826373e-03
-2.393658390520388493e-03
-1.465776173100466050e-03
-1.300644739922471489e-03
2.728290923859755593e-03
4.613275842596362489e-03
-8.500642633386084994e-04
-4.637303471498121533e-03
-6.861379621712216346e-03
-6.778365319975792128e-03
3.749795891039062841e-04
6.981962384982636459e-03
8.342989359558725115e-03
6.719087339331208421e-03
1.301876665014299042e-03
-3.475672805459557087e-03
-2.212755092096254945e-03
-1.106186092214171083e-03
-1.543765026623294609e-03
1.396499082634008841e-03
1.338447326896552566e-03
-1.208331584038982529e-03
-5.896800909066266059e-04
-9.506259352863238388e-04
1.286574680734606018e-03
4.231857699710860760e-03
-1.149325817274080529e-03
-6.457416933731470292e-03
-5.640453827818671384e-03
-3.600834928282356170e-03
3.800275502879496060e-04
5.137218235481520387e-03
5.868616327891337456e-03
5.318523040275442183e-03
3.340451639231172692e-03
-2.787584743044884805e-03
-4.283518180216328020e-03
-1.903489828116595875e-03
-7.116008237493359452e-04
4.159826744347814437e-03
4.273686380207438948e-03
1.462930017289205313e-03
3.337711985627444828e-03
9.433097692504459255e-04
2.877704000649634452e-03
7.181221042631602894e-03
1.032219112395734014e-03
-4.148999933657323766e-03
-5.663630020308096577e-03
-1.749767828201257954e-03
4.038449730416993760e-03
6.285570213617827293e-03
1.091783830317576143e-02
-8.106606017792542321e-03
-3.300920595472828928e-02
-1.491411925823298186e-02
3.491848677808063236e-03
-8.714279161645720802e-04
4.402365939029213859e-03
5.456284398844304419e-03
-4.064026496477500701e-03
-3.692758857728082982e-03
2.526836227687523102e-03
4.013772909284842386e-03
6.191915972631363563e-03
8.996447199784138316e-03
3.113333473135042676e-03
-3.530443564587154234e-03
-5.962145873584854053e-03
-5.946438440842157121e-03
1.514226314128261407e-03
6.137949520001871606e-03
5.522541221659911514e-03
6.185117082600728733e-03
1.919890433866959555e-03
-3.939796385678603387e-03
-6.139964444195311968e-03
-4.740509014740473120e-03
-3.058691375670611039e-04
1.983450645033552930e-03
-4.784570577558758231e-04
-3.847563503936159320e-03
-1.088745555314894449e-03
2.275744989427423356e-03
2.328946836881251939e-03
5.445868059705762446e-03
4.270383037326705086e-03
-1.571765023580610045e-03
-3.382359993824362795e-03
-2.568114259202480473e-03
6.763192902943019301e-04
6.390571169594106392e-03
1.068067617454528974e-02
6.822871841871117407e-03
-1.066532726343954844e-04
-2.269553995849934742e-03
-3.034431042446404225e-03
-8.987275553504353327e-04
2.481623111849523317e-04
3.991399155885044098e-03
7.075160372884419131e-03
-1.158330862822826808e-03
5.312162783656546820e-04
-6.183351244425777486e-03
-2.649853998178507142e-02
-1.223303621014097675e-02
6.090216321065746764e-03
4.865025933033605490e-03
-2.991085888843254739e-03
-2.613456993220001148e-02
-1.791471114497158665e-02
1.544699964915926572e-02
1.864279981679781845e-02
1.309739529448048813e-02
6.964651157352403331e-03
-1.290974878431331001e-03
5.419115123065931534e-04
1.097574995937638598e-03
1.425207807336253355e-03
1.118953548009366840e-03
-1.515724800392680713e-03
-1.247214690419085146e-03
-7.339797682237557148e-04
2.372441807009062313e-04
-2.775643548474560529e-04
2.098267248926206485e-03
4.111867737970428642e-03
-2.427162351321945563e-03
-4.505335011299645316e-03
-1.033465353419212420e-03
2.666463427657305612e-04
9.908359911134812393e-04
2.743302670811585079e-03
4.419129641073745243e-03
1.201886077693291571e-03
2.518812495900600145e-04
5.615329139054945793e-04
-3.709365909976233746e-03
-1.916815342141794812e-03
-7.387158664951190687e-04
-3.517378666038945608e-03
-1.926415060794793902e-04
2.376346477537915128e-03
5.930784297004791129e-04
1.511150578261052707e-03
6.359457353658063555e-03
2.475650982306367136e-03
-6.398163116213189359e-03
-2.967529644482763164e-03
1.390154330788943978e-04
1.212335009176072160e-03
5.500684671068857209e-03
3.252366071952677348e-03
4.411342314556556538e-03
6.342624831845539656e-05
-1.107087864941582941e-02
-3.833868479532981724e-03
1.768651740033293316e-03
-1.917213056184297526e-03
2.504186868271279353e-03
-8.477486867474318729e-04
-7.084184845260042829e-03
-1.055559244527943218e-03
2.513866071316147015e-03
2.297215903470871054e-03
4.195916620937842866e-03
7.996993429996193366e-04
-4.537753273451889009e-03
-4.644127393265519606e-03
-3.745605555718566158e-03
-2.740045842950085582e-03
1.518010195376349623e-03
5.683921246640202818e-03
5.742126865284536905e-03
3.753762032558725144e-03
2.772731655096205214e-03
8.945117991234131276e-04
-1.599088893138414383e-03
-2.231581636731453863e-03
-2.444698607514746332e-03
-2.934666206831469323e-03
-5.695107988215826478e-03
-9.003019951660730380e-03
-6.139497118847775207e-03
6.632126606316896987e-04
6.982852422352072916e-03
9.175891081203084443e-03
3.892478186230807682e-03
-2.882137626176846379e-03
-4.061968709505163824e-03
2.279044730840422937e-03
8.609208674756714183e-03
7.751073446065136034e-03
6.269639399675066942e-03
3.979723463212321913e-03
-5.086649409520896089e-04
-1.000777763049489483e-03
-7.674785880763326795e-04
-1.978908896332919108e-04
2.548627009308896893e-03
1.258291483905314397e-03
-3.425951553087794310e-03
-5.236840899991649333e-03
-3.298205149753795536e-03
1.788639834244009665e-03
7.953707648860254553e-03
5.012429915092775530e-03
-4.977666396432322247e-03
-8.251572061383495929e-03
-9.312059481886856074e-03
-8.143948068206853172e-03
-7.774395286009363462e-04
2.202284948245716422e-03
3.624738380162991543e-03
1.928500009879391018e-03
-6.031866419072282395e-03
-5.206284601149848909e-03
-1.739931770057645153e-03
-1.410331893222749149e-03
5.022756364123721375e-03
7.541730887574467877e-03
2.455368947748813764e-03
-8.452198634758716685e-04
-1.524920155990027240e-03
3.833158563824288502e-04
3.111945522546000903e-03
1.986673672628066470e-04
-5.446858184047730783e-03
-4.905977965461264488e-03
-4.106359309999249758e-03
-3.007200360150930150e-03
4.956592913435696121e-03
6.151478720544080285e-03
1.944038151043517900e-03
8.089444688710578906e-04
-2.833166721483295659e-03
-1.885942506549160029e-04
4.700609541805158588e-03
2.867172288304980013e-03
3.167506128263285897e-03
1.967591709580087268e-03
1.715436095436542220e-03
3.808953562183956410e-03
6.932029020224173390e-05
1.803857157703474485e-03
7.098950639156445357e-03
4.085493680033330799e-03
-4.421766743544178094e-04
-2.124942758736537030e-03
-1.045265738281077848e-03
2.199126615995671170e-03
5.613050354986554545e-03
3.188555399017831398e-03
-3.018981249315343118e-03
1.285628788339907925e-03
3.140795466145440435e-03
-3.785566537182868257e-03
-1.497274128211237461e-03
-9.592654588464205254e-03
-2.952020921624204722e-02
-2.422554538112587849e-02
-5.812449213030587009e-03
1.122225477434456251e-03
2.628829190488029925e-03
2.430992111529375454e-03
6.529708993798679154e-03
1.072237843468512759e-02
4.783558985433756551e-03
-7.462849002494254067e-04
-2.618876699464385734e-03
-1.928385411792800288e-03
3.715422489956393074e-03
6.682065581145474678e-03
9.705144800997140761e-03
8.221510313977551873e-03
-1.765166188624379821e-04
3.511567682130420018e-03
7.131286774373882427e-03
1.847274075567513930e-03
4.892002023534122897e-03
4.927396960116479062e-03
-1.591098927482684612e-03
-3.406517561177134241e-03
-5.408911780032069072e-03
-5.773085732692000670e-03
-3.482249152583563601e-03
-4.144879078582760709e-03
-9.815476652483844794e-03
-1.300919897932016796e-02
-6.847592201381208152e-03
-3.993480787792569667e-03
-2.467751564355008271e-03
6.529713163112761502e-03
9.045713330094769591e-03
5.185210064244169872e-03
3.676110804028701051e-03
2.910141324661775098e-03
2.927731707420538204e-03
4.189608302414895256e-03
7.353691363828765599e-03
7.037816281790110901e-03
1.603223882823493103e-03
-1.247236637034424868e-03
-3.072688724568739711e-04
2.207424385073991722e-03
4.065822598566424910e-03
3.149093592618320680e-03
-2.174276677058849683e-03
-7.627440750645286469e-03
-7.378060291163066400e-03
-4.791075257742725274e-03
7.225476789878374504e-04
4.268206487440901961e-03
6.883826301013340997e-03
1.186031595760546689e-02
-8.857737597828320777e-03
-3.508175688837000816e-02
-2.277620495207750839e-02
-4.320227782783934295e-03
2.618725688816455829e-03
7.866997065120704541e-03
3.136485543628300850e-03
1.106682768722478576e-03
-1.016839444938204295e-04
-1.058447464924761354e-03
9.631266224568758860e-03
1.047119584945862235e-02
3.550907577128092560e-03
2.115017099657128755e-03
-3.337053285787087552e-03
-1.231080487208840611e-03
7.359656150685717386e-03
7.160637863429474698e-03
7.302541446264915713e-03
7.352612659193884063e-03
3.469373552563593936e-04
-4.063796940627460198e-03
-2.629296384206893881e-03
-2.021750417990433608e-03
-3.044924707054284547e-03
-2.269644323725444369e-03
2.871400818355396116e-04
1.198526622454525094e-03
-1.799848607591482278e-03
-4.902382980181108421e-03
-9.845128424633687019e-04
3.691732713135866852e-03
-1.455808203682301336e-03
-6.967136814406581745e-03
-6.435414734624453695e-03
-4.999650165441293058e-03
-8.327434466674773572e-04
2.573818647026606624e-03
6.419687745509780955e-03
1.048733124316197397e-02
2.336464825191182648e-03
-3.229814632261353204e-03
1.550179886417256490e-03
-4.063642576467236048e-04
-1.386230672730648979e-03
-1.424085328990632761e-03
-4.893298551994058887e-03
-3.399322046755037427e-04
9.091168046244509039e-04
-1.446534293723648022e-03
3.838431153103461987e-03
5.042033617108821093e-03
1.476537306313877680e-03
-3.686887041463581503e-03
-1.054782188046467575e-02
-6.363295400170143265e-03
6.866796960083198370e-03
1.407285049828910575e-02
1.168328767645012041e-02
3.734068932950196373e-03
-3.821904358329530210e-03
-5.712383932533309817e-03
-3.123502046802152220e-03
-1.236563661814036284e-03
-2.838044797960978180e-03
-5.813949134534706839e-03
-3.171009392575500560e-03
4.044504394234584412e-04
-2.066708291728582697e-03
1.123348272013638535e-03
8.192429259766204411e-03
6.148652843052881088e-03
-1.267726014628215358e-03
-9.577676779241520513e-03
-1.192966762278782102e-02
-7.930113862422621951e-03
-6.671779245296697095e-03
-9.662612222363691156e-04
7.862448040069124414e-03
7.653982549926760526e-03
3.843513033489048131e-03
2.640124159292515579e-03
3.828401161511033220e-03
6.065317812931438068e-03
6.847998750929930323e-03
4.344520631005427749e-03
-2.605890035279611727e-03
-7.177522817065016755e-03
-5.093770019735319350e-03
8.223271744518889995e-04
8.097815118755484140e-03
8.143741278410665529e-03
2.312049914665110194e-03
-3.500484503342623328e-04
-3.522019912429964414e-03
-4.441643743209265291e-03
-1.538396232715815240e-04
1.410229951998869316e-03
1.626273454945923944e-03
2.003357797269230550e-05
-5.202243584482593025e-03
-4.333453335951398776e-03
-1.653011076938406404e-03
-3.737017660033878277e-03
-5.858181086240495821e-05
4.421527989357261663e-03
6.402625225591070460e-04
-2.121328108679267858e-03
-1.893528842087214637e-03
9.264934277190318718e-04
6.019516247487840047e-03
3.725513513015707347e-03
-1.926248956993655524e-03
-4.054797242453511870e-03
-7.539119763532197913e-03
-9.003839592224692490e-03
-2.849712269773409679e-03
5.223749647959886888e-03
7.119308773727386387e-03
4.112576662905134163e-03
1.105495585488651010e-03
-4.590729476822222863e-04
-7.410058969041987895e-04
-2.665835004517721780e-03
-1.157839346457001893e-03
3.417018462886540261e-03
-7.932291610178263553e-04
-4.013262237222323461e-03
-2.627082833331789193e-03
-5.586180629683616498e-03
5.079069235017682473e-04
9.828296258577683825e-03
4.395551266425781756e-03
-2.818798317927711464e-03
-2.429725397145542348e-03
-1.509590993090808588e-04
2.320406567140060727e-03
5.753039486965615991e-03
8.867839107797540615e-03
8.762515605447879566e-03
3.254145697117437949e-03
-4.502907186036472255e-03
-5.203096798041628376e-03
-2.679788851519553008e-03
8.553019314469454955e-05
7.842101855032038854e-03
6.637511486016532160e-03
3.282009864625837301e-03
2.360875165864366639e-03
-1.980387093791257519e-02
-2.787769891022364929e-02
3.396345397152027406e-05
1.183559252694149806e-02
2.724779530646803932e-03
-1.900393373490261726e-03
-2.802354252413034007e-03
9.588096754584254401e-04
4.192331005128734772e-03
3.522275832385400249e-03
1.602416515107432790e-03
-4.894244169474784101e-04
-2.052279628948742215e-03
-6.387197322045776171e-03
-5.825571632656890292e-03
1.752461800694597293e-03
3.379004579744875492e-03
-1.926644723423731869e-03
-7.165979452881892850e-03
-7.329190205979587737e-03
-3.872756147240534637e-03
3.349463962788988840e-04
6.066023156886212603e-03
7.042493547394958718e-03
2.994861365942961401e-03
4.311691746079788644e-04
1.741766167461655931e-03
5.751636595501330614e-03
5.444635928814804335e-03
6.532353494027454653e-03
1.013454183231852872e-02
2.815734338269995207e-03
-3.787728473752804970e-03
-3.065792486469576337e-03
-4.660284985917103814e-03
5.345059414132238580e-04
6.770047328757400167e-03
7.131953660923181539e-04
-5.546269769296304115e-03
-5.415157525058504791e-03
-9.692301787444450962e-04
6.129828364684158232e-03
7.438270588972585411e-03
1.341608162973208489e-03
-7.648536320539653030e-03
-1.470175203373122810e-02
-1.340487582450901848e-02
-6.400595393487886614e-03
3.729708894591246549e-04
4.677127015406197692e-03
2.186804936867566256e-03
-3.572280943340959761e-03
-5.533690576506132726e-03
-4.873498139083268753e-03
-2.301539964078383980e-03
-3.686505808123790836e-04
-5.002435130113591297e-04
3.620626401051900076e-03
6.664165785786307222e-03
3.051951497278688943e-03
6.268464827303737302e-03
1.449967713110163030e-02
1.203589752196548325e-02
4.914246787788506023e-03
5.359875499027203947e-05
-5.021735317165224033e-03
-5.739959040683547016e-03
-4.007023528422318237e-03
-3.655295048040598221e-03
-1.099238262262704387e-03
-5.201654306098952392e-04
-6.141092647830771571e-03
-8.009811053502327929e-03
-2.694417530582536406e-03
-8.334442094465330589e-04
2.982072852598260763e-03
1.139161880373968511e-02
8.993877540888808517e-03
6.178889262239464428e-03
9.864978976035542260e-03
7.905189347420682466e-03
9.936478368238989972e-03
1.228687133197770009e-02
4.382105447783871469e-03
-3.555863072107019393e-03
-1.099006194526556089e-02
-1.443958675235709060e-02
-1.261444504947654109e-02
-1.433987207220862106e-02
-1.527869301796585047e-02
-1.440514034449667281e-02
-1.494541551688864482e-02
-1.555223091146476846e-02
-1.287554155276911076e-02
-5.367316279911687159e-03
8.529061246066345359e-04
7.589964383858000332e-03
1.308565645691043590e-02
1.143292227235665967e-02
9.338049869614405835e-03
1.089830881424506265e-02
1.708561658628202085e-02
1.743221277547002054e-02
9.605215521408369886e-03
2.852226043903343441e-03
-1.415371374745659147e-02
-1.766729456751006677e-02
