-1.728034713575159685e+03
-2.211755520457284092e+03
-2.440913563767787764e+03
-2.745566652653254096e+03
-2.429599451088335627e+03
-1.552993457104330673e+03
-6.317183732029811836e+02
-3.105021689211595799e+02
5.317374946790915828e+02
1.964882652041110305e+03
3.335950629029908214e+03
2.952883649338579289e+03
2.936747073932538569e+03
3.222753704311997808e+03
3.469028065331071048e+03
2.451452831154910200e+03
1.226923181282206315e+03
3.254495101879425647e+02
-8.400088061590515736e+02
-1.787518120010829762e+03
-2.234787642054015123e+03
-2.814808219219638431e+03
-2.307351935154565126e+03
-2.007386984767284048e+03
-2.467810738071319065e+03
-2.064694373585776248e+03
-1.996477936586257783e+03
-5.477547827765868078e+02
7.372808777481155857e+02
2.029439069358860934e+03
3.205768637579314600e+03
3.678411434360964904e+03
3.549428063882464357e+03
2.735789281014267999e+03
2.409490796352814414e+03
1.652470390410976506e+03
8.706114356729851806e+02
3.198900866438613093e+02
-7.766727854345159585e+02
-1.346089369588036334e+03
-1.998398989656771164e+03
-2.488633029017242279e+03
-2.607717603104096270e+03
-2.245586249728612529e+03
-2.186347212555209808e+03
-2.042000601308087198e+03
-1.245562512013782680e+03
-5.749482897652233078e+02
7.192479755479890002e+01
1.343974242364851307e+03
2.468125813536333681e+03
3.021350946483339612e+03
2.614677030791684501e+03
2.568126906995147237e+03
2.472720132229368119e+03
1.800428220598455937e+03
1.126128434089852362e+03
-1.562239085853895517e+02
-1.497605523255956768e+03
-1.753056106100932993e+03
-2.332559381169218341e+03
-2.773270162976672964e+03
-3.112230230395321541e+03
-3.204469776877937875e+03
-2.682992082912722253e+03
-2.124786232121526609e+03
-1.495749813112429592e+03
-7.179686464366501468e+02
9.453415782343473950e+01
1.320789922008549638e+03
2.112811882968029295e+03
2.621591517063482570e+03
2.956025476713832632e+03
2.897113163404334045e+03
1.995845872748291640e+03
2.591912521841425701e+02
-7.159280557929671431e+02
-1.823571200534690888e+03
-2.105743166177385319e+03
-1.872562218478523164e+03
-2.001056761795839975e+03
-2.538345609139345015e+03
-2.800450522179598011e+03
-2.701362358262694215e+03
-3.056092310714305313e+03
-2.580548738124287411e+03
-1.979634496973583055e+03
-1.414331892902808704e+03
-5.775841532582398941e+02
2.314404175408184017e+02
-9.012143145056866160e+02
1.221840974239643856e+03
2.542274488457717780e+03
3.075976430767694637e+03
2.986094876223068241e+03
2.237565971367339444e+03
9.560095959789081235e+02
-3.347663824895736866e+02
-1.070686818778702218e+03
-1.788247922726894103e+03
-2.543845516852227775e+03
-2.644683658742686021e+03
-2.782436967628070306e+03
-2.807508269165803995e+03
-2.895631151425468488e+03
-2.388668369024463573e+03
-1.209071147336478816e+03
-3.848925788456687087e+02
6.274237476346502262e+02
1.559385267752610389e+03
2.258071316560507512e+03
2.711469910520482244e+03
3.230043713336949168e+03
2.604721256978155907e+03
1.850086659817314739e+03
1.097081018036614068e+03
-2.043885696779236696e+02
-8.105966079830523086e+02
-9.082620080480413662e+02
-1.485220065345338298e+03
-1.965460589316492587e+03
-2.626430420435467113e+03
-2.814426119662171004e+03
-2.401249507188608732e+03
-2.016634680775502829e+03
-1.420801927866404640e+03
-1.348495125233232329e+03
-7.898581871285532543e+02
1.054236964024952385e+02
1.611238493811269109e+03
2.821252273925498685e+03
3.498396069667302982e+03
3.670904475952169832e+03
3.078129635899471396e+03
2.831038981082862392e+03
2.210317348228049923e+03
1.403633666343116602e+03
7.448515801659517592e+02
4.596066760037461307e+01
-8.019841570134223048e+02
-1.308952211093065898e+03
-1.839845828768483216e+03
-1.994706273996227765e+03
-2.004616313460534911e+03
-1.574557120465038452e+03
-1.163413743221388586e+03
-7.540941852760943220e+02
-4.277799191127697753e+01
1.330566514448794351e+03
2.343930519931127947e+03
3.269379096241031220e+03
4.052946304283445897e+03
4.284669446340106333e+03
3.039584654636123560e+03
-5.372916425350418876e+02
-6.248717261676899852e+02
-9.411062057939742544e+02
8.509181333688101176e+02
-2.065926212857814789e+03
-2.148747813304876672e+03
-1.511188042220570651e+03
-5.143210861743711575e+03
-5.902976691702713651e+03
-4.687629575530548209e+03
-4.370282529060990782e+03
-3.618876848668423008e+03
-2.950238442324176958e+03
-2.075261293717097942e+03
-4.870050105202440136e+02
1.359531284292140299e+03
2.984239221814509051e+02
3.278796609578821972e+03
3.386940615005297332e+03
1.328695523220208770e+03
2.479887770003524111e+03
5.076478129085132309e+02
-2.409380750017784862e+02
4.858653503430834348e+02
-1.828056037431874529e+03
-2.184837005554950338e+03
-3.825444421118540504e+03
-1.933649930501519293e+03
-1.200473256648893539e+03
-1.168954327200052830e+03
-1.305040236041931848e+03
-8.046215823192652579e+02
2.149024625643398778e+01
4.033630296634151335e+01
1.044922021324114439e+03
2.663184995672829245e+03
3.517293342964269414e+03
4.134183325726689873e+03
4.076767801362694627e+03
3.899159814327338609e+03
3.741484116892415386e+03
3.504786505131404738e+03
3.155047916500332576e+03
1.436274856532688773e+03
4.151884296069392235e+02
-3.844365563080833113e+02
-1.432421493505590888e+03
-2.040701264323011856e+03
-2.161192832855148481e+03
-1.508915182235645034e+03
-7.108361510663307854e+02
-8.396972953985880395e+02
-3.864969709282175927e+02
2.355658282195558684e+02
7.213654137338879764e+02
1.646167617009725973e+03
2.393222739741856003e+03
3.069678287616403395e+03
3.307427151909498207e+03
3.754494945222711522e+03
3.345940936731115926e+03
2.443115756822970980e+03
1.659289182811670798e+03
3.481777212866062996e+02
-1.156492977107007391e+03
-1.208748621585466253e+03
-1.756536550130692376e+03
-2.181792834237158331e+03
-2.063283521200606629e+03
-2.303255377270473673e+03
-2.486845021513132906e+03
-2.225781851318166446e+03
-1.406085379571423573e+03
-4.226615423554555946e+02
3.073080861056823778e+02
1.635846994620096439e+03
2.607868907627269436e+03
2.988357234899167906e+03
2.706313149146405522e+03
3.030871883715041349e+03
3.116214707486810312e+03
2.211163277803622805e+03
1.295819182050105383e+03
6.051041729010751169e+02
-4.323463938954124046e+02
-1.625607488652882921e+03
-1.994424391448124425e+03
-2.511930680427589323e+03
-3.315286116367448813e+03
-3.288286479493332536e+03
-3.228762488403675889e+03
-2.838910846725655119e+03
-2.417930197042681812e+03
-2.032790456885623598e+03
-1.320459392280744851e+03
-9.138810791845978656e+02
8.152232015985787257e+02
2.446887454937237635e+03
2.942007152053178288e+03
2.427497297228518164e+03
1.820285081480742974e+03
5.174559342724643329e+02
-1.282886704093546541e+03
-2.214807116014512758e+03
-2.520281471225326186e+03
-4.196321960020861297e+03
-5.652034241492857291e+03
-6.393354209684702255e+03
-6.997427521049829011e+03
-5.585403693451264189e+03
-3.617959339487031684e+03
-2.136068978676533334e+03
-9.388753213053986428e+02
-1.426558855922217390e+03
-2.147048561083044206e+03
-9.162273958891490793e+02
1.454068599907816179e+03
2.961015930377961013e+03
3.203545503014609039e+03
1.755358589971767515e+03
-5.396980950371952304e+02
-3.294464345194763609e+03
-3.697939140727010454e+03
-6.039391136407345584e+03
-8.349846890941909805e+03
-9.330128930792985557e+03
-8.076051950856911390e+03
-5.987720580129192058e+03
-4.993143172006195528e+03
-6.993453570192135658e+02
6.824109742051795138e+02
1.068957846719478312e+03
1.886370706624197965e+03
3.045760544486579875e+03
3.954962012022216641e+03
5.039778740809178089e+03
6.217315992319550787e+03
7.204682784739381532e+03
7.458947601354554536e+03
7.310090910922996954e+03
6.813241103506688887e+03
6.004538645911291496e+03
4.500787221695877633e+03
3.035815896445667931e+03
1.965547272742522864e+03
1.296830523432747441e+03
6.366498117349577797e+02
2.901858039412938979e+02
-2.732715253788679775e+02
-2.249347994730791811e+02
6.346182121906542761e+02
1.708188436907404821e+03
2.195027706640235465e+03
2.705337824287701551e+03
3.096284578346736907e+03
3.470074277382094351e+03
4.201682401372840104e+03
5.080476529959241816e+03
4.915208813517279850e+03
4.319988933119829198e+03
3.852058642678695833e+03
3.894332598081685774e+03
4.448611395056177571e+03
3.216055804312813962e+03
1.795771050029802836e+03
3.937981069431580750e+02
-9.019114840307543091e+02
-1.434555788435728118e+03
-4.041679628028747402e+02
2.529118901321453450e+01
-2.872748825220276103e+02
4.615784904212083006e+01
1.560557294896652138e+03
3.069838055586403698e+03
3.315037108176671154e+03
3.375308945809898432e+03
3.909643582117590995e+03
4.669207493300581518e+03
4.846118081786980838e+03
4.545258907605304557e+03
3.773550838570598899e+03
3.481724798203208138e+03
2.411711925946761312e+03
1.296374394709504259e+02
-2.623352797953096797e+03
-5.025103534003897948e+03
-7.402577413934234755e+03
-8.511940461377269457e+03
-8.575440594674862950e+03
-7.881875800836048256e+03
-5.997145070401728844e+03
-5.954038490337749863e+03
-6.306442190139479862e+03
-5.668142271440561672e+03
-6.198215510056486892e+03
-4.962026947461780765e+03
-3.058215919412643871e+02
3.927297373091853842e+03
4.092401364633765297e+03
-1.342382003298654354e+03
-4.647923036403513834e+03
-3.807022385661550743e+03
-3.195567125728194242e+03
-3.886862557283356637e+03
-4.558184306307159204e+03
-5.262324264740813305e+03
-5.784198213823750848e+03
-5.883838075070945706e+03
-7.117165815484919221e+03
-7.869180673484476756e+03
-5.156900573910835192e+03
-4.983382702840155616e+03
-7.018634221390941093e+03
-6.833632691844978581e+03
-4.739184398753912319e+03
-4.231305843964333917e+02
2.666723942437476126e+03
2.876331670121771367e+03
1.163645155610199708e+03
-8.419657006137648523e+02
-1.130533988908704032e+03
1.208866627639822809e+03
5.338450684775927584e+03
3.968061967890801043e+03
-1.990475885530491951e+03
-5.177237957024008210e+03
-4.185172640486711316e+03
-5.678053560585031846e+03
-3.932916527469383254e+03
-3.993905769072835483e+03
-9.960991940444463353e+02
1.816086849170561379e+02
-9.445592158696100569e+02
-3.559578568470087248e+03
-2.775343188409362483e+03
2.203071177682918005e+03
7.996542009236878584e+03
1.119307431703858310e+04
1.059902652254175337e+04
8.330605087317509970e+03
6.556720351782158104e+03
5.309277694817194060e+03
4.193603077671703431e+03
3.832365479707561917e+03
2.957390175046427430e+03
1.365044448934842421e+03
3.692914677888934420e+02
1.605203578245125229e+01
9.832921129648523220e+02
1.617905966952296922e+03
1.871823922545721416e+03
1.697959540916282094e+03
1.670514832912745533e+03
1.433528325110372862e+03
1.264991244636796409e+03
8.340205444678421145e+02
-7.620710550882469647e+01
8.935387055682087976e+02
2.649184195945862484e+03
3.756766137738104590e+03
2.776912917417128483e+03
-9.478708703275231073e+02
-9.809063386468368435e+02
1.214763357712155766e+03
2.868779577440985577e+03
2.176628187039461409e+03
-3.349315973785142546e+02
-2.565845729354984087e+03
-3.136018271190847827e+03
-2.144370500002160497e+03
-2.232967126681345690e+03
-3.262711909788987668e+03
-3.566758930571407745e+03
-2.361908606024065648e+03
1.387509441844415505e+03
3.549388543854103318e+03
4.297254594556064148e+03
6.352198857276605850e+03
9.513057883104926077e+03
1.049653895802003717e+04
9.574842902750899157e+03
6.513281188907571959e+03
2.836810900045546532e+03
1.797270243699812227e+03
6.202461231297562563e+02
-1.524196618215035869e+03
-4.322028570574696460e+03
-5.730190301176920002e+03
-4.688727284572945791e+03
-2.655675818961201003e+03
-8.651202321980642864e+02
-6.042121526759916605e+02
1.331057669956499922e+03
2.410762362654835670e+03
2.143942960186889650e+03
1.233648444993128578e+03
2.600881452828234615e+03
5.281541890369943758e+03
7.695567313469029614e+03
1.050392073255537616e+04
1.058262452723451679e+04
7.622541378884495316e+03
5.236858856585660760e+03
2.973765646956700493e+03
1.608088879597011783e+03
-1.793370738735644636e+02
-2.205618612762149951e+03
-5.429108318669300388e+02
1.188690870363182512e+03
-2.575976696806106929e+02
-5.032743024271326249e+03
-7.803810661781221825e+03
-7.031743843634894802e+03
-5.720633624411118944e+03
-5.174720915444427192e+03
-4.577869422896590549e+03
-5.499092041430493737e+03
-4.674473372633680810e+03
-2.199926333063808670e+03
-9.294904983530295794e+02
-2.107068662646471694e+03
-3.480430996658210006e+03
-5.642821315777408017e+03
-6.944361650507880768e+03
-4.975035360473434594e+03
-6.121765221854068841e+03
-9.083919872653070342e+03
-8.007663297542956570e+03
-6.995893589312901895e+03
-4.985753304282369754e+03
-5.588315813922906273e+03
-5.737544131536129498e+03
-3.500417785439388354e+03
-1.284838125727619172e+03
-1.834778620995206211e+03
-1.300293114313002889e+03
2.253548548197637956e+03
3.487740033790239977e+03
6.932353768347756159e+03
9.891333583697187350e+03
8.749769883607081283e+03
6.091734329922282996e+03
6.754182091609937743e+03
6.341063954719799767e+03
3.945355959946451549e+03
3.695007500132896894e+03
5.643920924676353025e+03
6.603139912628567799e+03
5.164661567333337189e+03
3.800426557155116825e+03
2.163480017422376022e+03
7.318999727081020410e+02
2.170753729137942173e+03
4.445886499340789669e+03
5.356240577138958542e+03
5.143850662771230418e+03
3.113863640622448202e+03
1.925358074378882293e+03
2.481432710494751063e+03
2.006195169952552078e+03
1.863665333314716463e+03
1.855788175771220722e+03
2.945837209578192528e+02
1.099957592270100122e+02
-1.275022382281137652e+03
-4.796412134262057407e+03
-4.943261942884417294e+03
-3.821733265556733386e+03
-3.278724493871012783e+03
-4.722205540442513666e+03
-7.268019994458160909e+03
-8.346091095654815945e+03
-6.784579215615584872e+03
-1.925611882530589355e+03
2.029952228008772636e+03
2.441475243448980564e+03
1.035151175474986303e+03
1.244154876618013532e+03
1.765564093442139438e+03
-8.547461205464451268e+02
-4.667456571387171607e+03
-5.476620438535018366e+03
-3.611299486194370274e+03
-3.323584693915189746e+03
-1.765556609602832168e+03
-8.996907168368949215e+01
3.868137920294365131e+02
-9.051822197759920527e+02
-7.380317095947771122e+02
1.696411115557928952e+03
2.198219218611075121e+03
-3.636713863699279159e+02
-2.759289859070009243e+03
-3.573548947327677524e+03
-3.977292868755210293e+03
-4.748488474787847736e+03
-3.474993705614516784e+03
-2.796804913121229106e+02
1.696517475778241078e+03
1.844696793220893824e+03
1.295963121337680604e+03
-9.317403523901895142e+02
-3.109339900803292949e+03
-3.203781981338213882e+03
1.454943735262655309e+03
5.659901071118952132e+03
3.061065429009317540e+03
-2.735617126775391625e+03
-5.233146553568844865e+03
-5.021485809926513866e+03
-2.417567993717517311e+03
3.240689533116040366e+03
1.093434262644083901e+04
1.189444142314029341e+04
9.068001427815403076e+03
7.151120295338798314e+03
7.568917091550203622e+03
6.713484443881137850e+03
3.972826095660259398e+03
2.576909674638334764e+03
2.599872240079330368e+03
3.508845141740854160e+03
4.466881845922776847e+03
3.820002071411754969e+03
2.938079288334652119e+03
2.854017797344745759e+03
1.901022931560032475e+03
1.472039672302720192e+03
1.374988096700056531e+03
-8.613028567960417092e+01
-1.480334318850848831e+03
-1.017468896352510001e+03
-9.244320112400495191e+02
5.857615310653866345e+02
2.975074433285070882e+03
4.890591937336606861e+03
5.816385934387844827e+03
3.842486938079026459e+03
8.729344210578091179e+02
-1.545225874168819701e+03
-3.142879899757696421e+03
-2.784936589092539180e+03
-1.436406626620880161e+03
-2.770241684966276807e+03
-7.305541733020827451e+03
-1.006337622280681899e+04
-1.221285361310003645e+04
-1.159617037959995287e+04
-9.114308484462822889e+03
-5.216304306872918460e+03
2.437834102606186661e+03
6.447474610166525054e+03
7.265497022550393012e+03
5.981646154088294679e+03
4.283740764771121576e+03
2.820096852042639057e+03
2.199164940915317857e+03
4.437845918593026909e+03
8.606853290727196509e+03
9.048123943506061551e+03
5.953690787661116701e+03
4.682505012430335228e+03
4.114575982503558407e+03
2.529006488192080269e+03
2.062594829651241525e+03
2.174034244411510826e+03
1.606474635635002642e+03
1.477162181636025196e+02
-2.055157997202250044e+03
-5.050019215820010686e+03
-6.662920221348088489e+03
-6.685997720435303563e+03
-5.662621650813379347e+03
-5.891817681272974369e+03
-7.623408548305945260e+03
-5.850257873316600126e+03
-4.004309434865029289e+03
-2.678763450680143706e+03
1.121274188863574409e+03
3.288433383609979501e+03
2.713808388107368501e+03
8.619624274831884350e+02
-4.803028647029314016e+02
7.826976704654546211e+02
1.867100045798538531e+03
2.185625169853312002e+02
-2.867821950768548959e+03
-5.185171646158694784e+03
-4.319619020817627643e+03
-3.245128264807725827e+03
-1.079579946025065510e+03
-3.002492414502557949e+02
-2.510553600527986873e+03
-5.522711986962067385e+03
-5.185684316262684661e+03
-2.585241174330252761e+03
-1.009193241941543988e+03
-1.016556461964399432e+03
3.012641122964846090e+03
3.203358256884883758e+03
3.465702394065216367e+02
2.062250378817801447e+03
3.587365855910074970e+03
4.687844687595499636e+03
5.455560692060096699e+03
4.754464901443893723e+03
3.068513216324721270e+03
4.006406581566474188e+02
-4.222066356091715988e+02
-1.022077368087472792e+03
-2.130872973372989236e+03
-2.619598028108275685e+03
-2.781226215097336080e+03
-3.261647594125166052e+03
-1.746044224617712416e+03
2.574367520082166720e+02
-1.481688784877571550e+02
1.050250862441044546e+03
5.448891771912041122e+02
5.952755536951301707e+01
3.473907745644158695e+03
2.921994293091904183e+03
9.749354292894478249e+02
-1.574130731592354778e+03
-2.830264749470206425e+03
-3.196589761498285498e+03
-4.170186135744749663e+03
-2.821005917093427797e+03
-2.517049084569729530e+03
-2.378304372398348733e+03
-2.101889909834719219e+03
-6.135110903365086415e+03
-6.378921514607107383e+03
-1.740228689806043121e+03
-1.750090389577295809e+03
-4.993576129149993903e+03
-4.434607658522210841e+03
-2.699066815652775404e+03
9.581788693366219150e+02
1.776241416809855309e+03
1.087961085807472728e+03
4.753196694568782164e+02
-3.196871921121100399e+02
-4.179708840541226209e+02
-1.525614620969306259e+02
5.223474087449435501e+02
-3.503863582748497834e+02
-2.144797890950741930e+03
-2.951811508240248713e+03
-3.143620553003357145e+03
-2.553205698602788289e+03
-1.457461261720998664e+03
1.457241462343449143e+02
1.055163600355927656e+03
1.510699459464136908e+03
1.695324308710540890e+03
7.439386003865960220e+02
-1.768342971376630430e+03
-1.910269399767193136e+03
5.241904563477359034e+02
1.811984946701863237e+03
1.927990427641202132e+03
1.920237595607185540e+03
4.427584151038102505e+02
-3.440767431124249470e+03
-4.188479813668027418e+03
-3.920289248451160347e+03
-4.141861410067056568e+03
-2.485139791587248965e+03
-1.236377203180940569e+03
-2.656550759599072080e+03
-2.483586749317610611e+03
-1.737619541010209787e+03
-2.635428340826138083e+03
-2.929102790629563970e+03
-3.665162495532045341e+03
-3.759598789133302489e+03
-7.673292709050588201e+02
1.345661221015994670e+03
2.031414727199208528e+03
3.570688872369843466e+03
7.718009513040381535e+03
7.664898962370129084e+03
5.589511810946073638e+03
5.316463544085573631e+03
4.034618229950915975e+03
2.086871269688852408e+03
3.754838562545177751e+02
-2.728302746051637087e+02
5.316188562095015868e+02
1.729845326391274511e+03
1.966830847828834976e+03
2.153537542434438365e+03
2.279597552147130500e+03
2.425015647007257485e+03
1.654523705274142003e+03
2.151052801140696374e+03
3.338808462591690841e+03
3.843857988696307530e+03
4.619928101325992429e+03
5.097066542708590532e+03
4.553323798137122139e+03
3.330473951709675475e+03
2.500177576271134967e+03
1.862346106778325066e+03
3.201433502823330173e+02
-9.665006232515308966e+02
-1.002643540970549338e+03
-3.182864681051870548e+02
2.328416971865273766e+01
-1.240729980425326033e+02
-9.603622700637661183e+02
-1.244561034102927579e+03
-9.525699231517148746e+02
-4.374878847208799471e+02
5.414480321202031519e+02
2.458351948464149245e+03
4.441137467531812035e+03
5.207717512332528713e+03
4.914127296108767950e+03
4.080214233154941667e+03
3.547978018148489809e+03
3.703524675563905930e+03
2.351592820315009703e+03
1.699987767312887627e+03
9.776200422268535704e+02
8.853877064850766487e+01
-8.412173083594276477e+02
-2.583760448634242493e+03
-5.406355394755227280e+03
-7.975374376699431195e+03
-7.772848584587221012e+03
-7.404625607978747212e+03
-6.516578640830976838e+03
-6.129786649849434980e+03
-5.861271516038311347e+03
-4.038843741327787484e+03
-3.710370130297058950e+03
-3.740081734936080011e+03
-3.084272936103950087e+03
-2.535831448627278405e+03
4.401135402262639218e+02
2.935448756391455390e+03
3.468213992423352465e+03
1.546456992178057135e+03
1.222049533670268374e+03
1.899694632752857387e+03
1.173454860798096433e+03
-4.084275398408134379e+02
-1.461888558236917561e+03
-1.172953294403135033e+03
-1.728614991954873176e+03
-1.572883501534748802e+03
-7.468804619701239744e+02
-1.169949259171894163e+01
4.727155184506355567e+02
1.528538676203140767e+03
1.418790354815501587e+03
1.866651572632760463e+03
2.366241470678534824e+03
2.707456113065922636e+03
3.049879251730120359e+03
3.111532928938458554e+03
2.826918213874872436e+03
2.358323328628410763e+03
1.213617786629077500e+03
2.416717201330813225e+02
-4.537067646321301595e+02
-1.087791330116984909e+03
-1.239766026530145609e+03
-1.436040991601669930e+03
-1.976181594875581595e+03
-2.154200565867576188e+03
-1.638098765438093778e+03
-9.725881198024810601e+02
-4.684112213875582142e+02
-4.885201406039020071e+02
2.910632938205842493e+02
1.206377556389444408e+03
1.956484201184492576e+03
1.246620337453395450e+03
3.839007232827739244e+02
1.446403852517308678e+03
8.152977813112272543e+02
-7.933588206936846063e+02
-1.569482019363739255e+03
-2.746778223871563569e+03
-3.512206014168451929e+03
-3.492776464562164165e+03
-3.357240626119016724e+03
-3.565623794312715290e+03
-3.375902841637648180e+03
-2.882864029961402593e+03
-2.715226653692620857e+03
-1.710647593182632136e+03
-9.818735768492538227e+02
-3.647256854926042706e+02
4.109512121292337952e+02
8.662318348577864526e+02
1.508225030352321255e+03
1.874221803108891436e+03
2.467690091399017547e+03
2.750718139301006886e+03
2.139417029723013002e+03
-4.920311253649524730e+01
-3.776257178258521890e+03
-7.408797387299850925e+03
-7.867041459840441348e+03
-7.927694439021117432e+03
-6.762397330772401801e+03
-6.878765398328050651e+03
-6.190500848286767905e+03
-5.672445845794290108e+03
-5.085418405206115494e+03
-3.853471021689467307e+03
-2.886643546256989794e+03
-2.288542153034788043e+03
-2.025670021527863810e+03
-1.373953425347728626e+03
1.471690746063968845e+03
3.075524370107453251e+03
-3.733285519869550626e+02
-1.880816618490978954e+03
-1.995751608025607538e+03
-2.882885912396130607e+03
-4.437980818868328242e+03
-4.435791907108907253e+03
-3.363322675858177263e+03
-3.362495939562019430e+03
-3.499207753108573343e+03
-3.355254066035694450e+03
-3.073328741839964096e+03
-2.237501286833619815e+03
-1.919602808180906095e+03
8.475185394854880769e+02
2.606704380629174466e+03
9.571448411389551438e+02
1.331077574673349773e+03
1.304839112514280259e+03
1.740596906215160516e+03
2.047205227173935100e+03
1.822784323381050172e+03
1.747633489836885474e+03
4.530969869320809266e+03
5.397848216758160561e+03
5.068136154610810081e+03
4.781882103533859663e+03
4.636988563634246930e+03
4.628608451610502016e+03
4.567034778365108650e+03
4.019552568217724456e+03
3.256063198151608503e+03
3.209460933389481852e+03
3.381816429177103146e+03
3.861299310284099192e+03
4.196647950612937166e+03
5.447283926563586647e+03
6.443481533829318323e+03
6.599895581776071595e+03
6.580551990103751450e+03
5.768456580125239270e+03
6.135711570607109024e+03
6.345434599448628433e+03
5.861639760022707378e+03
4.443451844646592690e+03
2.479741884810289775e+03
1.543497176289064782e+03
7.007038149805567855e+02
1.218540100989408259e+01
3.921049323073771120e+02
7.677031363637483992e+02
7.878511247362936274e+02
1.403479081552014577e+03
1.837509806750079179e+03
1.746710150131834553e+03
2.446520062656537448e+03
2.803566894338448037e+03
3.059634321295579412e+03
3.370129930469359806e+03
3.572803532966615421e+03
2.886947940428442962e+03
2.005304342725904007e+03
1.871763350403328559e+03
1.632431937465267765e+03
3.877016533845500703e+02
-1.201370250788025373e+02
-3.493274494083619857e+02
-1.195012331135601926e+03
-2.294066333521261640e+03
-3.313763294412394771e+03
-3.370192812831394349e+03
-2.225423751440258911e+03
-1.287154146108620125e+03
-3.397005618451216833e+02
-4.355900905735150275e+01
4.632714777457440505e+02
1.303865261322750484e+03
1.882241090517538623e+03
1.215332175252007119e+03
4.329485626858480600e+02
2.269103965585065055e+02
1.680514552347718791e+02
-9.183055588696092286e+01
-3.477657564036516646e+02
-7.188271329732098138e+02
-1.517214786330735706e+03
-2.524145095924813177e+03
-3.433830812690830498e+03
-3.622434254744930513e+03
-3.666146624516936754e+03
-3.651048531657384046e+03
-3.003212637472341157e+03
-2.120727136747701479e+03
-1.715643535460549629e+03
-1.133941311864091176e+03
2.441727017275789251e+02
1.062370699224292821e+03
1.169542223799663361e+03
1.218673300722055728e+03
1.351659816243612113e+03
1.453477318213831268e+03
5.972183718058990962e+02
-2.328480347940530464e+03
-5.483850868951851226e+03
-7.085008454102246105e+03
-8.597295027813532215e+03
-8.737907675822643796e+03
-7.860742705060599292e+03
-7.887043291552708979e+03
-5.835941899613894748e+03
-1.836407543400457598e+03
-1.219578183330634829e+03
-3.935396213787186070e+02
-1.754322988978919682e+02
4.744807528508046630e+02
1.290115795552453619e+03
5.844653723706804982e+01
-3.856761580695727844e+03
-3.851884952071351108e+03
-3.410718388522039731e+03
-3.265165719701876696e+03
-3.925437526554302167e+03
-3.798562292330534547e+03
-1.619607084960514158e+03
-1.641677873344048521e+03
-2.208882731691348908e+03
-1.098450293604501439e+03
-1.860560774790518053e+03
-1.163245202141010395e+03
-5.865719372483579264e+02
-6.955612858297312187e+02
-5.452452016678608970e+02
3.840828955396682431e+01
3.832717801666211130e+02
5.062614693681144900e+02
1.166346188987042297e+03
2.575457014128407991e+03
3.512654250699244585e+03
4.547913269599046544e+03
4.767235571703477945e+03
4.142572620677318810e+03
4.010921141952168000e+03
3.560319495998708135e+03
2.452678318827497606e+03
1.873853290034452129e+03
1.297703606748434822e+03
1.081229625000844408e+03
7.274483337860574466e+02
4.784113339650747889e+02
2.500908966586000304e+02
3.043138596749642488e+01
-7.905900314939680129e+02
-2.939665203186715985e+02
4.112290208050068827e+02
1.218975623600334984e+03
1.809357195335219103e+03
2.684460185210798500e+03
3.243357325634780409e+03
3.381060560431672002e+03
4.071545982489068592e+03
4.744950259212444507e+03
4.911295474164099687e+03
4.434565284384751067e+03
3.497756622315577715e+03
2.727850115887400989e+03
1.868907275334620635e+03
9.170502047748409495e+02
3.524038197863313258e+02
-7.730348495205834070e+02
-1.884165248103862950e+03
-2.135022112384503998e+03
-1.660507249290704067e+03
-1.549512508258172147e+03
-1.176150584441742240e+03
-7.542826696595700469e+02
-7.477989220271355180e+02
-3.469745758681656156e+01
1.216125653189940522e+03
2.243687010796119921e+03
3.520769016344856936e+03
4.093433572601752985e+03
4.777833417871193888e+03
4.559970116369695461e+03
3.639760967700568472e+03
2.341257656981063519e+03
1.144622522875808272e+03
6.159188851265437279e+02
3.380814682132769917e+02
-7.988030020361123889e+02
-1.734744315484015488e+03
-1.599725905184860721e+03
-1.436650523331478325e+03
-7.224294713071624301e+02
-7.030677497003061944e+02
-7.513951411075308897e+02
-9.937599155679660612e+01
7.930627593433192715e+02
1.436967072455781818e+03
2.825414756628447776e+03
3.786442036844722679e+03
3.631139167832175644e+03
3.297591286737383598e+03
2.938844440857447808e+03
1.977905853900561624e+03
5.237940051040778826e+02
-7.604072474651811717e+02
-1.295685242453547971e+03
-1.439041713419627058e+03
-2.773419288729802702e+03
-3.400816068938627268e+03
-2.878212288463629193e+03
-2.540514981022334268e+03
-1.940687210376088160e+03
-1.562662482236027472e+03
-8.904364104702211762e+02
-3.669134622071900367e+02
3.699274818692081226e+02
8.292068372495710946e+02
1.627005673330113950e+03
2.223203781649153825e+03
2.451929349531570097e+03
2.445344301960879875e+03
3.087393951787858896e+03
2.259128837019752154e+03
1.052553428925307799e+03
8.175342338644219353e+02
-4.188771555572222383e+01
-1.324707154366584746e+03
-1.895969910683392300e+03
-1.418670519409816052e+03
-1.478714717205352599e+03
-1.989170783985238586e+03
-2.483994497648717243e+03
-2.802108987917375543e+03
-2.364554636053067952e+03
-1.118293731403404536e+03
-6.263230738919006626e+02
7.392821256262527285e+00
7.388678367294337477e+02
9.691180305035696847e+02
2.057101836127261777e+03
2.070899688929653166e+03
1.565771416900029635e+03
1.366970950670156753e+03
5.882652135999013581e+02
-5.674116652150804612e+02
-1.408087179198345211e+03
-1.566733050277750635e+03
-2.181922087529853343e+03
-2.160413954093080974e+03
-1.889002301431255773e+03
-1.454731500051724424e+03
-1.191641252463834007e+03
-5.037381007886585280e+02
4.170388256816350463e+02
9.076674970875708368e+02
1.482936406721506273e+03
2.637037047527868253e+03
3.138041430152823978e+03
3.377755793735127554e+03
3.704291378111837275e+03
3.972672387201855599e+03
4.008924967611006196e+03
2.713888300485631589e+03
1.607395245564922789e+03
9.464580406357661104e+02
-3.059564667928165136e+02
-1.493864731818786822e+03
-2.051320166734601116e+03
-1.634420323092193712e+03
-9.190660146318944044e+02
-6.294505404410948586e+02
-3.125468081470451693e+02
-1.170208916559239924e+03
-9.747866478357905180e+02
9.495578320242314874e+01
6.200426276861303450e+02
1.589464986458329349e+03
2.460249608197910675e+03
2.914561056004878537e+03
2.941931140144895380e+03
3.097259663303584603e+03
3.245531896175482416e+03
2.484739002817127130e+03
1.388808283710407522e+03
-5.363853218853757880e+02
-1.654916634624228664e+03
-2.161758217092293762e+03
-2.312873636121687468e+03
-2.940312897617198814e+03
-3.716098585784983698e+03
-4.175274728477606914e+03
-3.098796662563082009e+03
-2.269757094237686943e+03
-1.845149039292567522e+03
-1.204920652111224399e+03
-8.860612815385403565e+02
4.944873693755413342e+02
1.976569924173462368e+03
2.322233847277258064e+03
2.614497786564001217e+03
2.552409404425782668e+03
2.272973295401016003e+03
8.740726894301340053e+02
-3.015253165065742905e+03
-5.272036800240452067e+03
-4.937376292363089306e+03
-3.707325925290092528e+03
-1.725887214171198593e+03
-2.440112723041103891e+03
-4.423000850170878039e+03
-1.861496840951248259e+03
-3.610659967072306699e+03
-3.543467377429305543e+03
-8.878730017415001612e+02
-2.384847233213102299e+03
-5.694189462369517969e+02
-2.324069106689903776e+02
3.333020630493480780e+02
2.791613017533488346e+03
8.244208418277677310e+02
2.762775742252194050e+03
2.770605228652561891e+03
2.146859411964535866e+03
-1.043485511873770520e+03
-4.197367252358231781e+03
