3.133887170245560810e+03
4.063679401108603088e+03
4.582236809685324260e+03
5.660631628566780819e+03
6.356817174085677834e+03
4.789836876845998631e+03
2.778683455707723169e+03
2.141426031046278695e+03
1.592067086310383047e+03
1.655474891625297857e+02
-3.721151761848373667e+02
-3.587848117678974091e+01
5.134327611194419205e+02
9.618828577072054031e+02
8.564661195285831354e+02
1.060959036274914808e+02
-1.642439064210298909e+02
4.365302780762170300e+02
1.370600324711596841e+03
1.832988776755443268e+03
2.257881669063865047e+03
3.561480164775688536e+03
4.298912231471601444e+03
4.337161847797290648e+03
4.147108488067869075e+03
3.279520760986035384e+03
2.395715908591375864e+03
1.618923644380216501e+03
4.801367372756541272e+02
-9.988929063274594000e+02
-1.441420127611251928e+03
-2.025045907063399682e+03
-9.438252206258633805e+02
-3.746097425058504768e+02
-6.806505574818042987e+02
-6.208669684054056006e+02
-7.769119772961539638e+02
-2.748091306493163870e+02
3.473983669172590112e+02
1.224599956465663354e+03
2.263507335737804169e+03
2.559498164577905754e+03
2.551617309772326280e+03
2.984532374365541273e+03
3.337447806632453648e+03
3.518227034779837140e+03
2.459970232320693412e+03
1.551515258547647591e+03
9.487567055134834391e+02
-1.662658190195274130e+02
-1.439561941934583047e+03
-1.840266937986762969e+03
-2.282370017075705164e+03
-2.362912417153430397e+03
-1.911847336958428286e+03
-1.623167793845782398e+03
-1.365829152189255637e+03
-5.458203616753900178e+02
-3.460676112172048988e+02
-2.315709625429355469e+02
3.596755336741235283e+02
1.517717901894320448e+03
2.259543609578415726e+03
2.202134620107719911e+03
2.602416156472280363e+03
2.812480492427786885e+03
2.259286526751310703e+03
1.580740370827278866e+03
4.818964388755086361e+02
-1.137196294695183497e+03
-2.271571292163551789e+03
-2.546276449328498074e+03
-2.676322554528953788e+03
-2.445789548436967380e+03
-2.000807039683140374e+03
-2.506324582827369341e+03
-2.960329330147753353e+03
-1.961740933879004388e+03
-4.086524693236891608e+02
3.968888887775353851e+02
1.559939093283388047e+03
2.328546572988749176e+03
2.471645858426840732e+03
2.212203553074895353e+03
4.234495263655727371e+01
-2.910768653152851584e+03
-4.623170484470152587e+03
-5.510054399349562118e+03
-5.958511381087936570e+03
-6.707695667272259925e+03
-6.855729977405041609e+03
-7.213575482042602744e+03
-6.344305557726478582e+03
-2.694675234351589097e+03
-2.839588892831311114e+03
-4.528223192519459189e+03
-2.536737355030128128e+03
-6.120623552115729353e+02
7.567972613349818403e+02
9.428140355691125478e+02
1.369998478260476077e+03
2.329427189130378338e+03
3.262204317800675199e+03
3.619217196610980864e+03
3.149373399918048563e+03
2.531616616956164762e+03
1.527869170905872352e+03
8.581225821132909459e+02
5.374098897744510168e+02
1.527077741103872484e+02
-1.990598052622238470e+02
-4.238566303148996326e+02
-1.027706661358079600e+03
-1.349686323175667667e+03
-1.831746035576999475e+03
-1.888894065663640504e+03
-1.527241391324290817e+03
-7.708769043310339839e+02
3.119468199443551626e+01
6.560303491076601858e+02
1.555741007385179273e+03
2.448365002204352550e+03
3.189919971281762173e+03
3.622373083595506159e+03
3.378743037747797644e+03
2.974103342265405445e+03
2.486470059940207193e+03
1.766770896577334497e+03
8.688756845306384093e+02
8.886825163765389561e+02
4.582422854819837994e+02
-8.083824474639181972e+02
-1.323099933735345530e+03
-1.855662488188832413e+03
-1.661061093285389916e+03
-1.653632503955986294e+03
-1.277529530067201677e+03
-1.020668387764246063e+03
-7.870893737936582966e+02
1.705664714075443200e+01
8.728412038679006173e+02
2.132503563455519270e+03
1.821068084844287569e+03
2.096415694651523154e+03
3.228576929879863656e+03
3.367734476122447631e+03
2.412719549096394530e+03
8.354349837405578683e+02
1.578927935070841784e+02
-3.950791327303794986e+01
-3.918639731225280229e+02
-1.138432921869479969e+03
-1.658139474746990572e+03
-2.007803419615295979e+03
-2.368536777460997655e+03
-3.027390086729121776e+03
-2.083348738612895431e+03
-1.156565818668656220e+03
-2.454848828407809833e+03
-4.734951347122288098e+03
-3.851811403229912685e+03
-1.173572339238361565e+03
2.474780473652061573e+03
3.795313111534937434e+03
3.578998085460077164e+03
2.020801355591228230e+03
-2.552050769405943811e+02
2.105899671329813373e+03
6.419599955131568549e+02
-3.877200382477592029e+03
-3.059296639005320230e+03
-4.295375491620636240e+03
-4.960719184850951933e+03
-2.998272550973449597e+03
-1.574999650805345482e+03
-3.522870796732718190e+03
-1.893853677764769600e+03
-2.467083920490785658e+03
2.903412653623041138e+02
-2.653430289583267950e+03
-2.559203534683082580e+03
-1.298881330474765036e+03
-5.544135323252137368e+02
2.623610437240127524e+01
6.570858387188515053e+02
-1.005714720282430562e+03
-3.962479034504635820e+02
-1.225773143339130229e+03
-2.122400692326484659e+03
-1.036136125350089742e+03
1.447724945619643222e+02
-2.244615563976041813e+03
-4.318676660770466924e+02
-2.161843923870982962e+03
-1.658666131812767389e+03
4.762403564218991647e+01
-1.009819062311961773e+02
-2.189268450279358603e+03
-9.697697704423961795e+01
1.494745200375314653e+03
2.482460921708679507e+03
3.512899590327439910e+03
4.315497590694189057e+03
4.882320742185665949e+03
5.205880537249426197e+03
4.916996424558328727e+03
4.351765783419431500e+03
3.692399535368229863e+03
2.681082137830660940e+03
1.848817526687938198e+03
1.031669026575932321e+03
5.538193937664777877e+02
6.616545491683899627e+01
-4.896897340136387129e+02
-8.513079726914520506e+02
-1.257609409791810094e+03
-1.607152106311841408e+03
-8.915534155717612066e+02
2.411618063223152930e+01
1.292772505592631660e+03
3.421655175943837094e+03
3.771601419365843412e+03
3.865362343475396756e+03
4.924021154122025109e+03
4.939058347230204163e+03
4.505255231735807683e+03
3.877246586640121677e+03
2.815092468837304295e+03
1.859749688554023123e+03
1.748056813719287447e+03
1.198803583609598718e+03
2.201571830617290573e+02
-4.490855400376600528e+02
-3.744696172685365241e+02
3.341965194926032154e+02
5.277199501839744471e+02
-3.656838352526168592e+02
-4.880811174152686931e+02
8.137065900783895245e+01
6.170941917520042352e+02
1.282227203840710217e+03
2.061777664423362694e+03
2.853731682242517763e+03
3.881174961445397457e+03
4.291118923704736517e+03
3.658498418368240891e+03
3.201002502487314814e+03
1.840495408429819236e+03
1.363688299416679115e+02
-4.629506925249103801e+02
-4.427028229215362103e+02
-1.660368343882539932e+02
-6.093475126744749559e+02
-1.605690760676485979e+03
-2.166841050552612614e+03
-2.334144922606198179e+03
-2.422701385018636302e+03
-3.133119539334660658e+03
-2.184610071592442182e+03
-3.253831778187214923e+02
5.346427434693233636e+02
1.324520876285168015e+03
1.617218759922606750e+03
2.246705455194442493e+03
2.489984482693659174e+03
1.723198829641483144e+03
3.803362598871135560e+02
-1.298689696380397663e+03
-1.213056109215872993e+03
-1.078095712949426570e+02
3.540778668209422335e+02
-6.482625409272324077e+02
-3.153788572597522034e+03
-5.821632530805642091e+03
-7.196758482091744554e+03
-7.747065411654013587e+03
-7.763397965910872699e+03
-8.659878958319131925e+03
-8.961581664309069311e+03
-8.382474084341642083e+03
-7.863593430046232243e+03
-6.515824238899745069e+03
-4.062790606737450616e+03
-1.076399831466042315e+03
-3.846608701698408481e+02
-5.663020058350506361e+02
-1.535502156825249585e+03
-3.279643505235666908e+03
-5.043050352244888927e+03
-4.277009900800800096e+03
-7.575866800391850120e+03
-9.771345731300323678e+03
-8.235607987893972677e+03
-6.292975561918942731e+03
-4.210434232744701148e+03
-2.368886049344094772e+03
-2.689287688126304602e+03
-2.961415495402924989e+03
-1.980182430920197703e+03
8.841366480564340691e+01
5.143304549711837353e+03
6.183473245066709751e+03
5.590091382671447718e+03
5.659324726832284796e+03
6.362160520953597370e+03
7.053769208804771552e+03
8.126308972319691748e+03
7.638762835826813898e+03
6.608056164032844208e+03
5.406251353170973744e+03
4.130350873825122108e+03
2.745369771513618616e+03
1.699339693390600587e+03
9.714202723738995928e+02
7.656669963483005859e+02
6.190359205091423291e+02
8.684537057268269109e+02
1.570900919618564330e+03
2.442353966939886504e+03
3.148162218503333861e+03
2.972691124737782502e+03
3.403573277623089325e+03
3.470748237725224044e+03
2.613511839832064197e+03
2.147864669943513491e+03
2.350993810537072022e+03
2.563048596929845644e+03
2.757948583644888004e+03
2.843633168646249487e+03
2.201049741308272587e+03
5.992121502198031067e+02
-5.598984811108201711e+02
-1.062150163284681412e+03
-4.863649620086329719e+02
-1.227685102774450797e+03
-1.993279487661698795e+03
-2.241031853730130933e+03
-1.684793309939670735e+03
-2.352452599268402537e+03
-3.428005286687666739e+03
-2.863484193717392372e+03
-4.135351829614371582e+02
1.984983408054484698e+03
4.242055902455173054e+03
5.237079246052499911e+03
4.507590206315197975e+03
2.707722739719043602e+03
1.220895348742859369e+03
-2.018313125266035286e+03
-2.578884727614314215e+03
-2.917970075836189608e+03
-2.649577116448912420e+03
-3.672236247699927389e+03
-4.041217596104969743e+03
-3.815877756822301308e+03
-3.860372625418037387e+03
-3.755458942536245559e+03
-2.737831230446044628e+03
-4.516240270838820834e+02
1.382011817429868643e+03
2.556106220447766191e+03
2.796714292433351147e+03
2.495935462215229563e+03
2.292837115774164886e+03
2.172498461940507241e+03
2.043904947940149441e+03
1.372914372685664148e+03
1.321787391253420537e+03
1.167616367145514005e+03
4.432960360025489308e+02
1.164444776533722688e+03
1.789027748869544894e+03
1.450219161258094573e+03
4.371450546138025857e+02
-1.380367707523105537e+03
-2.704650513041660361e+03
-2.678591028401397580e+03
-2.656033949722620036e+03
-2.212920015862824584e+03
-1.694225768078189731e+03
-1.884285215228800098e+03
-1.323168105995173391e+03
-4.517458787208250897e+02
2.829971136360438209e+02
1.260158651009620172e+02
-2.069799910269165139e+03
-4.340484073603952311e+03
-5.757003127791233055e+03
-6.114346999950149439e+03
-2.972613957878772908e+03
1.707148994039103627e+03
2.890830369484899165e+03
2.162394280257243281e+03
2.499800119637661282e+03
2.297957884390657000e+03
5.277585123066839969e+02
-9.568991647656883970e+02
3.011869679278253784e+02
1.725930808083825923e+03
1.084282203196814635e+03
7.211792596625198257e+02
2.338491775670129755e+03
1.795295506295384484e+03
-4.034087801181258470e+01
-2.987488602082025409e+03
-1.134303228912881877e+03
3.400991671890218413e+02
-1.740258569379585651e+03
-2.860383951655067904e+03
-2.464439527390018611e+03
-2.297486741757130858e+03
-2.559581808884797283e+03
-3.729831532712699300e+03
-7.310233543424774325e+03
-8.472692325174124562e+03
-6.004274273526270918e+03
-3.701058656111931668e+03
-2.749059313918320186e+03
-2.238579109959936432e+03
-5.846743935722278138e+02
1.509521031368744843e+03
3.100052600299544338e+03
5.339889078403080930e+03
7.127246344297002906e+03
7.589919365496208229e+03
5.711005849373025740e+03
7.524551762660245004e+03
9.430393573524475869e+03
8.534344745957825580e+03
7.343422142528032964e+03
5.915645022586215418e+03
5.262691255448170523e+03
5.765654375869970863e+03
4.288544153144961456e+03
8.691287742580304894e+02
-1.565653883021653201e+03
-2.454392410798842320e+03
-2.580520173824012545e+03
-1.704932923422584508e+03
-3.818875912408176987e+02
1.132810211839774638e+03
4.623987100074412410e+03
7.003745876158478495e+03
6.684170003193151388e+03
5.771416495809152366e+03
5.034090450587145824e+03
2.813521651630009615e+02
-5.919062226472897237e+03
-7.828965984186093920e+03
-7.308585412063739568e+03
-7.397958951789377352e+03
-8.303942551642696344e+03
-1.021763983631455994e+04
-9.011090389904869880e+03
-2.686183719714556446e+03
4.097599506960524195e+03
5.044572425465417837e+03
2.299708032163208827e+03
5.781905520175209858e+03
1.077913850217085201e+04
1.018548151024839171e+04
6.371986180729364605e+03
1.966711077707512914e+03
-5.883414507775033826e+02
-4.221511531170333456e+02
-6.468169916187308388e+01
1.439150691519936800e+03
6.150344503604929741e+03
1.021383585391433189e+04
9.921631870751716633e+03
4.395751608920901162e+03
-2.171849470390390707e+03
-7.739121550119140011e+03
-9.280009040532158906e+03
-8.386591529374623860e+03
-8.724863958480915244e+03
-6.016869883022107388e+03
-4.983660390699239542e+03
-8.159999018769340182e+03
-7.307889407039033358e+03
-3.054232493021366736e+03
-2.328020296278112255e+03
-4.916217597920198386e+03
-4.998735076000986737e+03
-5.341483052319042145e+03
-8.439405133246988044e+03
-1.505950704418411624e+04
-1.943273751206055022e+04
-1.538303862018732070e+04
-6.235408671393590339e+03
-2.211843132741849786e+03
3.193656613439969078e+03
1.130511130652938300e+04
7.051584283457152196e+03
-8.438939987806352292e+02
-2.754176908261038989e+03
-2.785283617560201037e+03
-3.706216459570732241e+03
-4.475926884505684029e+03
-4.008380471025306633e+03
-4.023547437801076285e+03
-3.936286365549255152e+03
-3.323463314348110544e+03
-7.005052597513469664e+03
-9.396922552543141137e+03
-4.994983765911396404e+03
1.062749831067131709e+03
4.150255240243930530e+03
3.013509776471233181e+03
2.320643593558675093e+03
4.303756635229587118e+03
3.191867144783813274e+03
1.418970381937203001e+03
4.530102539307243205e+03
6.286357862478226707e+03
5.420672582827917722e+03
6.578011091954367657e+03
8.879447345374595898e+03
8.827041155445398545e+03
7.402914928035969751e+03
6.924089661169346073e+03
8.473634727895670949e+03
9.133690421685369074e+03
9.567340555856106221e+03
8.601683522780998828e+03
7.119634380799616338e+03
5.688132621378068507e+03
5.198283125631118310e+03
4.305240234118713488e+03
1.546113691373223674e+03
-5.351392706558553982e+02
-1.243589720748856280e+03
-3.351187550187975717e+02
-1.037555719838090909e+03
-1.951758980855075606e+03
-3.235772231531527723e+03
-6.412673446790106937e+03
-9.438379805449485502e+03
-9.097924254320510954e+03
-7.917358980119100124e+03
-6.991820219547082161e+03
-2.813199342759818137e+03
-1.129292599745708912e+03
-4.014048178688077769e+03
1.583599626651009885e+03
6.311859158409541124e+03
6.733680058959813323e+03
1.008794262049561075e+04
1.215472360767372084e+04
9.505813781565153477e+03
6.727103946806611020e+03
4.474554084905876152e+03
2.269108922070177414e+03
2.715934444790450016e+03
3.444054549431174564e+03
3.613394188317600310e+03
2.873874602221975238e+03
1.138430133025213991e+03
7.261157356568597834e+02
4.897245768374821751e+02
-7.375636378658645071e+02
-3.037038592559337644e+02
1.140156423042515371e+03
1.619905295836594178e+03
1.288638406848794602e+03
9.984535496115352089e+02
3.793957269875812699e+02
-1.616074242792701341e+02
-1.112557537287276546e+03
-5.934862597523687100e+02
1.061591675253338963e+03
1.353610380747721820e+03
-6.442011479129452312e+01
-2.223572905742782041e+03
-5.174903602160258743e+03
-4.770428749334796521e+03
-3.771950494027108221e+02
-2.211737071813746525e+02
-1.747391537162275199e+03
-1.000830776622345979e+03
-1.057394613251561395e+03
1.908065864650283459e+02
2.346741689371407574e+03
3.466435115834912267e+03
4.189860343806764831e+03
3.857959128491898355e+03
3.465765159719046551e+03
2.430340409086543787e+03
1.334619346762141049e+03
1.863556203709850024e+03
1.623006328621786679e+03
-7.470468151144071953e+02
-3.216528759052584064e+03
-4.133549944807151405e+03
-4.460195767101377896e+03
-6.019388789339646792e+03
-9.640100121232142556e+03
-1.231145302882355099e+04
-1.599566287359176567e+04
-2.091980245535096037e+04
-2.150390852106177772e+04
-1.457188830450005662e+04
-4.549669614647684284e+03
8.877759407116201373e+01
-7.304994137324969188e+02
-3.241860902268446125e+02
1.600432488602524927e+03
-1.007301884038492972e+02
2.343170642843503174e+03
5.623211002620846557e+03
4.977303394752636450e+03
1.527371350683683204e+03
-6.645872516493641342e+02
1.209454589972567419e+03
2.348356865279723934e+03
1.742948828047628695e+03
8.291903644843414440e+02
-6.039187730252883739e+02
-1.407326940092303403e+03
-2.196947669848244004e+03
-1.943774719570873685e+03
-1.565858620413535164e+03
-3.320221793120123493e+03
-1.755804894361599509e+03
1.818368976823889625e+03
4.519278901623676575e+03
2.778981151092383243e+03
-8.865223295634957879e+01
-6.046946745511472727e+02
1.377964561493801739e+03
2.317354649459715347e+03
-7.625366935928030898e+02
-2.787736598087866696e+03
-2.260308032151300722e+03
-8.925081759413058080e+01
3.540387221813417000e+03
3.562621964126138664e+03
2.243526019263893886e+03
2.595046779584527030e+03
3.531150690661372209e+03
4.142868611356357178e+03
3.393293704878626613e+03
3.398602950568230881e+03
3.902822843758490308e+03
4.095955207666780097e+03
4.122958295102491320e+03
3.940463688366547103e+03
3.514294162142263303e+03
2.932683577096218414e+03
2.757772460547321316e+03
1.866495894256737984e+03
-1.490918047790108005e+02
-2.751894336037621542e+03
-2.137975015743182212e+03
-1.117542329645273185e+03
-1.477609164975445537e+03
-1.466086428826610927e+03
-1.443986603053451972e+03
-5.043394674894104242e+02
1.108296185124937892e+03
1.834362656710872443e+03
1.973762261098758472e+03
1.671944976348955151e+03
2.177931153415466724e+03
2.939934592416259420e+03
2.441023685462608682e+03
1.794068576452337311e+03
8.460046177342211422e+02
-1.628009707959159641e+03
-2.097960406797802079e+03
-2.066598228506953490e+02
-5.171477930868243220e+02
-2.943747148482551438e+03
-2.054536882108866848e+03
-1.950433994756450375e+03
2.325926829569927179e+02
-4.853980691519794988e+01
-5.858589571186473677e+02
-2.822315386266043333e+03
-3.218968246506815376e+03
-6.847754748888542053e+02
5.303520491889457844e+02
-8.953664529094643285e+02
1.157799611214722063e+03
-6.091471985698148046e+02
-1.560982810599943605e+03
1.430357508403282736e+03
1.163915516993202573e+03
-1.076346615029755640e+03
8.844722450123083490e+02
-1.722509293972765136e+03
-1.258115477632226202e+03
-5.663406247152842070e+02
-2.439277087783034403e+03
-1.231927979810511715e+03
-3.225387906949956232e+03
-2.439704651606647076e+03
-3.275906516384950919e+03
-5.208166988646065874e+03
-3.622342832730396367e+03
-5.162509393749538731e+02
-2.255828709046087170e+03
5.458869223600208898e+02
1.111295412378526180e+03
6.616583529295693324e+02
1.801706303082642535e+03
-1.052769226701350362e+03
1.028479203579075119e+01
1.826897892832962270e+03
1.928153293092251715e+03
1.315817146692763572e+03
-1.621608207865024042e+03
-7.143480775440917796e+02
-1.570446239240713737e+02
-5.224674566440091894e+02
-1.368076008030220919e+03
-1.464047965947788725e+03
-1.034941242653147128e+03
-3.994096477378514578e+02
-9.640048356959543696e+01
1.720374178816883273e+02
2.497705981696235256e+02
1.351747529506779301e+03
2.355857283876139718e+03
2.723769974884980456e+03
2.945415560091991210e+03
3.056118019292255667e+03
2.382341931910154926e+03
1.806184655093617948e+03
1.536646984432339423e+03
9.714308883385926947e+02
4.392472638420383078e+02
-5.448424331112627215e+02
-1.502132488229004821e+03
-1.385378484415600269e+03
-2.008201329384540031e+03
-5.829316365746813062e+02
-1.807290763867073338e+02
-2.677157676912004831e+02
-9.601212454302995525e+00
3.216441105361026302e+02
8.228630467377746527e+02
1.615457040316594430e+03
2.212706489771257566e+03
2.525602714616877165e+03
2.461104814164340951e+03
2.598955943540800490e+03
2.986155418638638366e+03
2.706552547145689005e+03
1.269936814229328320e+03
-8.379659513798844728e+01
5.084611562719275639e+02
4.355712073795401125e+02
-6.594419859596686706e+01
-3.679483352789104629e+02
-7.323801384044913902e+02
-9.672301778619302013e+02
-4.324358256085263861e+02
2.497046048822589341e+02
7.974205187065315386e+02
1.396023325949938680e+03
1.903371948722403431e+03
2.560786926467758349e+03
2.994971908027769132e+03
2.863335254287062526e+03
3.065169507419260299e+03
3.260310491804854792e+03
3.368484693910118494e+03
3.111832430439280870e+03
2.700381941284405457e+03
2.060724725368909731e+03
1.572874538314449865e+03
1.226988712773143106e+03
4.668738838590928140e+02
-1.415614541853060189e+02
-2.040899038791175713e+02
-1.156286460144161765e+02
5.270886766625210385e+01
4.557467848414633522e+02
6.066185882650398753e+02
8.074473803600435531e+02
1.021304570348486550e+03
1.196180037834937366e+03
1.922295976434561908e+03
2.850600669234387169e+03
2.913971065102284228e+03
9.136187062523268878e+02
-2.328447121254097510e+03
-4.585358658702065441e+03
-4.911256785038625821e+03
-4.811996394799986774e+03
-5.222576151697381647e+03
-6.231946166768943840e+03
-6.586920320945351705e+03
-6.649397651429072539e+03
-5.992764185917741088e+03
-6.048125128611982291e+03
-6.931206575382676419e+03
-6.321267824044449299e+03
-6.144235111373205655e+03
-6.517692455510815307e+03
-4.710345471245722365e+03
-5.222297920006052436e+02
-2.038998822573579446e+03
-2.543869059200884749e+03
-2.168842473143021834e+03
-2.346559121512988895e+03
-2.438939622516353666e+03
-3.097887943388207987e+03
-3.793367058215063935e+03
-4.403660618676815830e+03
-4.765773988026678126e+03
-4.683620589659010875e+03
-1.013149954944194633e+03
9.117668068436333897e+02
-1.420924285316915302e+03
-1.073184159358304896e+03
9.581418686049893267e+02
1.707979390752058634e+03
1.837284871946124440e+03
1.827151664877805388e+03
2.536778336020252027e+03
3.751187198964581512e+03
3.991394882762831003e+03
3.968414078749020973e+03
3.733301031979055551e+03
3.569033866670699808e+03
3.119504683732714057e+03
2.990798110277492015e+03
2.517998237607217561e+03
2.057231986732031146e+03
1.961696532027105604e+03
1.512104852796865543e+03
7.361116470233628206e+02
3.870459884679460174e+02
1.790965057352588303e+02
4.921595401092861835e+02
-1.357143630545465953e+02
-3.275936358555469496e+02
2.215349410585309045e+02
9.607523957565670116e+02
1.363113609073987618e+03
1.857790622059706493e+03
2.383751037745328631e+03
2.618114782797739736e+03
3.195918620794191156e+03
3.517067134367023755e+03
2.608675266323691631e+03
2.732906225920560701e+03
2.169727284524868537e+03
1.611003999660068303e+03
1.064768168419109088e+03
5.073133375662667390e+02
2.299172935072404016e+02
-2.363788025430923483e+02
-8.124348201989957943e+02
-1.157999512492786607e+03
-8.133219170225835342e+02
-8.740675403838436068e+02
-1.762548583210246306e+03
-1.993449874991547631e+03
7.563235445736926188e+00
1.309453102576321044e+03
2.267093547452914208e+03
2.331910023021723191e+03
2.361618538556986550e+03
2.063954329171848258e+03
1.618141226525215870e+03
1.122376028380030220e+03
1.445583767595024028e+03
1.392378788390458794e+03
1.115784279840093859e+03
5.949241779605911233e+02
-9.316848875715130873e+01
-8.164384839967203789e+02
-8.628487321352744175e+02
-5.583959834611144970e+02
-6.371224668001287910e+02
-9.050121950067848502e+02
-9.198311275825562916e+02
-4.848584199610793348e+02
-1.943019917455119128e+02
4.028787307650036951e+02
1.121049264151047282e+03
1.221343957929707358e+03
2.068550704735784166e+03
2.758504413497627411e+03
2.252253985772512351e+03
1.410083023594392898e+03
8.569644798928067075e+02
2.446763040860255103e+02
-6.240215060920737642e+02
-1.228339173470995547e+03
-1.668081202704933730e+03
-2.077139340689473102e+03
-2.530559440456287575e+03
-2.598364436687910711e+03
-2.284594997183354735e+03
-2.006128259674120727e+03
-2.056972546001072260e+03
-1.706192299906033668e+03
-9.447986749368695882e+02
-9.887075977783346161e+02
-7.749479889179343672e+02
-2.735310820025400176e+02
2.005736050791902301e+02
8.913580617934970860e+02
1.856871402771470457e+03
2.295252548436503275e+03
1.625455746569136181e+03
6.452452672719081193e+02
-3.904791412332191385e+02
-2.878708238669372349e+03
-6.364449594359028197e+03
-9.135787497884630284e+03
-8.826789162692022728e+03
-4.004537482370335056e+03
-1.412002711189416914e+03
-1.023114244737656009e+03
-3.547948821413144742e+02
-7.221828696683636508e+02
2.196419117033680095e+02
9.618906580032876263e+02
5.975514720306304071e+02
1.763640254098368359e+03
2.037312260092663792e+03
1.497328941373494672e+03
2.110512215865199778e+03
2.365970318079974277e+03
1.909845855720260033e+03
1.307819401203928692e+03
5.088913984476662904e+02
-3.171463029193860734e+02
-9.431791386993140804e+02
-1.286194393712927422e+03
-1.534024793448220635e+03
-1.414798686538885249e+03
-1.406811502818525241e+03
-1.345952433724169396e+03
-1.288004662758922905e+03
-7.802719232350830225e+02
-1.544506662654648323e+02
6.944533022097800767e+02
1.501094861248287316e+03
2.344676883916463794e+03
3.083361428464701476e+03
3.180816567000034865e+03
2.755365912278287396e+03
2.383731198899663923e+03
1.686821742698552498e+03
1.351855529488721004e+03
6.845375234208275970e+02
-1.409385602933017481e+02
-1.088824446775773140e+03
-1.972965781666977819e+03
-1.526245258387303465e+03
-1.168957198710449575e+03
-7.762474081474838385e+02
-9.697740078714573428e+02
-8.518484142095751395e+02
-1.933562439398801303e+02
4.088019062097383767e+02
7.605197565810544802e+02
1.455111426464265378e+03
1.813353771444129507e+03
2.056116386388086539e+03
2.555464825911573826e+03
3.042473417804372730e+03
3.000354908998710926e+03
2.797769438600718331e+03
1.511710894193316790e+03
4.142044555447519087e+02
-5.337450613135453068e+02
-9.412098323720374538e+02
-6.681984524378781316e+02
-1.371718679437226456e+03
-1.807777770386061093e+03
-1.419342151939081759e+03
-1.196362209907698343e+03
-7.558731119373144338e+02
-2.398109953224127082e+02
1.528431076045492887e+02
1.172075959198648434e+03
2.638899352382703910e+03
3.180394800213819053e+03
3.497636121977706807e+03
3.401540782944963667e+03
2.072122332934828592e+03
2.854128885157878699e+02
-2.173543267976101106e+03
-2.780721133536862453e+03
-2.797230398996032363e+03
-3.074200789299032294e+03
-7.434749683855686726e+02
-2.466956571184748100e+03
-4.171724652417956349e+03
-3.127725806829098474e+03
-4.096974730289298350e+03
-2.738505810468830077e+03
-1.937334136159208583e+03
3.695569194487072195e+02
-1.869813262929538951e+03
-2.223683027772478056e+02
-1.547063448403329176e+03
-2.095946135653761303e+03
-4.229275034471646677e+02
1.658099498562095732e+03
2.591771565010316749e+02
2.146149704210232812e+03
-2.119398035708516943e+02
-2.054056292677901183e+03
-3.270197364327161722e+03
-2.979372737397407946e+03
-1.804656760959239136e+03
-4.212066381670971168e+03
-2.904622833758129673e+03
-1.661321813355425547e+03
-1.204098851716812987e+03
-2.167897015715634552e+03
-3.984724698424810867e+03
-2.062550212903269767e+03
4.576934876394336698e+02
1.803017593377225694e+03
3.046457235571036108e+03
3.565010388983698704e+03
3.706728925440780131e+03
3.912661177898159167e+03
3.778859166721138990e+03
3.234287374151182576e+03
2.197806007018906712e+03
1.467480859357730196e+03
1.612447511882018716e+03
1.302605997554004489e+03
8.486986171921589062e+01
-1.563768668958595754e+03
-2.415329717685929154e+03
-1.814801845188015022e+03
-1.700148451660017145e+03
-2.710320415637700535e+03
-1.168323051109543258e+03
8.288563061408800650e+02
9.002460487509431459e+02
1.385894470944137311e+03
2.174954069909108057e+03
2.384533377626615220e+03
2.441589420005809643e+03
2.803970207976581605e+03
2.760865837050772370e+03
2.632304689320782018e+03
2.310341856093831666e+03
2.573907895524442665e+03
6.319737519297769950e+02
-2.320564643464034816e+03
-2.183739505712343544e+03
-1.445464787085515127e+03
-1.528818622826157934e+03
-1.100797853398335292e+03
-9.973185725310395355e+02
-1.049504926474021659e+03
-4.375618861274377878e+02
8.050232946545701225e+02
1.408882438409514180e+03
1.655928633500986734e+03
1.829375226548122328e+03
2.982243701752764991e+03
4.089540037919831320e+03
3.808276637860009487e+03
3.542522142487467136e+03
3.631301303012285189e+03
3.007617732569213331e+03
2.216697403542015763e+03
1.214576109473608540e+03
2.116906891458029918e+02
-5.602064636243104587e+02
-1.275335699792413607e+03
-1.816670934696387121e+03
-2.390185882260071594e+03
-1.552847537742553186e+03
-6.207215294347761301e+02
-1.138843843215127976e+02
2.157656819720476165e+02
3.512331049982026343e+02
1.408542503100439944e+03
2.406765020697438104e+03
3.261920999448585917e+03
3.054977002132433881e+03
2.847982342254420018e+03
3.405887046424827076e+03
2.976611718436729461e+03
2.237157656872498592e+03
1.539568839084540514e+03
8.457964893280386605e+02
4.747484505828881538e+02
-5.156911917515484447e+02
-1.580444058409091440e+03
-1.667515318517702099e+03
-1.748998688526167143e+03
-1.699956209608924610e+03
-7.253791110007570069e+02
-5.862505506974383707e+02
-4.754564232615241082e+01
3.607750988236807643e+02
8.356863091113986002e+02
1.896298804975175244e+03
2.444662610890759879e+03
1.446683980239819221e+03
-9.335739691816593222e+02
-3.436065824734044782e+03
-4.420706836955439940e+03
-5.100493467032168155e+03
-5.556500708203951945e+03
-6.489852853706862334e+03
-6.963629709359454864e+03
-7.303882499333893065e+03
-8.161688690409928313e+03
-7.983024608052515759e+03
-7.325804813107609334e+03
-7.516056716603496170e+03
-7.263993172725256045e+03
-6.980533910529356035e+03
-4.719371223332293084e+03
-1.324307176329854656e+03
8.026261920315445195e+02
2.567470094150143268e+03
3.755440287891098706e+03
4.652461161219475798e+03
4.644203788125985739e+03
4.492487410735237972e+03
4.107282889588326725e+03
3.422593209225800365e+03
2.320428692651305028e+03
1.759759220838993542e+03
8.065367493198947386e+02
2.477212012025708532e+01
-5.444345878722070893e+02
-5.020784167563858205e+02
-7.861228703650577927e+02
-1.136437104043483941e+03
-1.054791089769678592e+03
-5.201997609414295312e+02
1.752907026457307609e+02
1.776690731751364183e+02
8.996752347251358515e+02
1.878292132184463526e+03
2.484764191223952366e+03
3.433165393259605025e+03
4.247406533992178083e+03
4.226446872178038575e+03
3.809405224039179757e+03
2.705384770718429536e+03
1.265356177826580051e+03
6.291696668388372018e+02
4.758667852932159121e+02
-3.186034307964756067e+02
-9.782748782333071631e+02
-1.053110965357526084e+03
-1.293102466178623899e+03
-1.860336081875625268e+03
-1.344747619096994413e+03
-1.187122627118980972e+03
-1.331471194271430250e+03
-1.199857594051294882e+03
-5.792667871726774820e+02
2.002585875430476392e+02
1.790662765879617837e+03
2.094204031492196464e+03
2.716024723960139909e+03
3.085175998280596104e+03
2.541616167809043418e+03
2.426361119235792103e+03
1.377461861347413560e+03
5.459652334353479546e+02
-2.853406780636730105e+02
-1.292874273068960747e+03
-1.814436798213761904e+03
-1.594886029858276743e+03
-2.103268922561670479e+03
-3.175415961151389638e+03
-2.578479817519822063e+03
-2.035415025689979075e+03
-1.383006118314550349e+03
-1.954215360198386122e+02
1.943095573383128283e+01
9.467405817480931773e+02
1.810346811085503077e+03
2.550231059777765495e+03
2.740444085319246824e+03
2.613035421874555141e+03
2.469003761312351344e+03
1.775340944986749037e+03
9.750384707229512742e+02
3.621085685262816014e+02
-2.834120958180763523e+02
-1.471487861261827220e+03
-2.026071526641622086e+03
-2.328138253524724405e+03
-2.840796008999548576e+03
-3.106199193404650941e+03
-2.749318680464885801e+03
-2.279118778038643995e+03
