4.697791322060946186e+03
-1.966131084788086582e+03
-9.973418397112858656e+03
-1.041519989288819488e+04
-1.078398031630321566e+04
-1.129512987661673105e+04
-1.031559292445822757e+04
-5.499302087510438469e+03
-7.552294154824314319e+03
-8.462482026188015880e+03
-6.929696735760277079e+03
-5.963855631254992659e+03
-5.004809014652916630e+03
-3.947388136511712219e+03
-3.234497576344501795e+03
-2.607044331861304272e+03
-2.864910008791054679e+03
2.532970257972466698e+03
5.300723980343581388e+03
-3.558602834595092190e+03
-6.246874529770473600e+03
-5.927978841593135257e+03
6.570634244774034869e+02
2.590319316714630986e+03
2.212897211108196643e+03
-7.100895162260204643e+02
-4.106113997355158745e+02
1.638409855552010413e+03
2.160123024461246132e+03
3.987733382112627623e+03
5.547382653969408238e+03
6.178307830986028421e+03
6.701708722900435532e+03
7.658794819249921602e+03
8.543693030818310945e+03
8.302435780952469941e+03
7.696112593394390387e+03
7.178875862115518430e+03
6.706881329400393952e+03
5.812221997264767197e+03
4.747877923116050624e+03
3.862895128977496825e+03
2.360473529946813869e+03
1.050729774973092162e+03
4.286874973922905383e+02
2.814046876380417075e+02
-1.960276448413025605e+02
-3.064960464787378669e+02
2.972194792996005503e+02
1.233230148038953530e+03
2.445720469590558423e+03
3.012803405615805787e+03
3.619677620837202539e+03
4.541480116787582119e+03
5.228532246461851173e+03
4.966158420327250496e+03
5.161557201035857361e+03
5.323304687736568667e+03
4.783417917879864035e+03
3.688357235004514678e+03
2.805360657120997985e+03
1.915462739331293960e+03
6.296699550056487169e+02
-9.279754627011401453e+02
-2.210456571017721217e+03
-2.406777696625991666e+03
-2.866821962711301694e+03
-2.656581784616116238e+03
-1.841195518715411254e+03
-1.833498156778561906e+03
-5.071933034577717990e+03
-1.467331279759037216e+03
1.852494661874276062e+03
1.801234367125792687e+03
1.276075095980828110e+03
2.860721758157490058e+03
2.202058207349829445e+03
2.414011651988451831e+03
2.496626489111114552e+03
1.445953123243067012e+03
6.369755892485892446e+02
7.573695524700490012e+01
-9.147645043858583449e+02
-2.648586268951222337e+03
-4.055749646361044142e+03
-4.556294263299291742e+03
-4.688205400325718074e+03
-4.404476483662002465e+03
-3.693074693205752737e+03
-2.854938965590704356e+03
-1.670989233523428538e+03
-2.461754041996062767e+02
6.134830144818986355e+02
1.270044544437889272e+03
1.625538433217066540e+03
1.846967124162244772e+03
2.183302856888378756e+03
2.347478442341172013e+03
1.722481418866581407e+03
2.043139822845762126e+02
-4.580591305598447889e+02
-1.017739413193774112e+03
-2.327821010840073086e+03
-3.957387254424585080e+03
-5.434484167484614773e+03
-5.516153291850396272e+03
-5.501460684196521470e+03
-5.288487677301674012e+03
-4.617209261207320196e+03
-3.248628235180218780e+03
-1.917784720989156540e+03
-6.207294039717334044e+02
-1.654786759735526402e+02
7.969725644692954347e+02
1.955649170654048703e+03
2.097536099960405863e+03
1.830576201487042226e+03
1.569709695215673491e+03
6.628999075824851843e+02
4.528814858243295021e+02
7.063521035044726659e+01
-1.100942885774205479e+03
-2.187944557270459427e+03
-3.319511118961861484e+03
-4.275701796086676950e+03
-4.282604726951893099e+03
-4.211341215063951495e+03
-4.409168822246290802e+03
-4.624916614344062509e+03
-2.876508652352678382e+03
-1.280165162287521525e+03
1.930707518121852928e+01
1.026767111379964717e+03
1.687091532636182137e+03
2.403344422132852287e+03
2.891369684332313227e+03
2.730054683637185917e+03
2.774289818867512622e+03
2.955999938851252864e+03
2.141194085201061171e+03
9.118678292566182790e+02
2.358518465416844094e+02
-5.500104533375516667e+02
-1.712829631331674591e+03
-2.378785630420871257e+03
-2.156939938396357775e+03
-2.342375297409694213e+03
-2.446170527232622590e+03
-1.899406233258755947e+03
-9.031030988456827799e+02
5.167417428968138893e+02
1.253053301251097992e+03
1.974809741081116954e+03
3.125044555621733707e+03
4.062726222754350147e+03
4.534813295794259830e+03
4.798236980615411085e+03
5.029978986384152449e+03
4.264042661336908168e+03
3.491396631092257394e+03
2.917895719070481846e+03
2.413359251360235703e+03
1.298645865761646292e+03
-4.722656196640336361e+02
-1.382396328387948415e+03
-1.290907360613475475e+03
-1.107852462873170452e+03
-1.179213143300534057e+03
-1.409052870705962505e+03
-2.004367233558821226e+02
1.549639278936068195e+03
3.057134736434182287e+03
4.083026764787983666e+03
5.108405642583761619e+03
5.688317139103300178e+03
6.081693219352069718e+03
6.286500430005951785e+03
6.282747326814394910e+03
5.796317053746087367e+03
4.354227170405300058e+03
4.101499735117051387e+03
3.417059127820195044e+03
2.461884478619441325e+03
1.045818242025777181e+03
-9.216999902004394585e+01
-9.841000830665597050e+02
-1.545955691327636487e+03
-1.256763782670950377e+03
-5.895742494224874690e+02
5.906384669388949078e+02
1.932874143758809623e+03
3.126111420066735263e+03
3.128600501447244824e+03
1.046490184815737621e+03
-3.474159538401934242e+03
-6.375498570994284819e+03
-5.370573129583265654e+03
-5.280285493104580382e+03
-5.111556708292499025e+03
-5.206442168488783864e+03
-6.297948392643750594e+03
-7.639937033456358222e+03
-8.417413827789132483e+03
-1.005040099280176037e+04
-8.736895332282138043e+03
-1.081766248108762056e+03
4.400472984680768604e+02
-4.867590257816564190e+03
-1.019878091317835060e+04
-8.953693181287575499e+03
-6.236441410243473001e+03
-2.519458141905132891e+02
-2.515055566394506968e+03
-4.783661690763871775e+03
-4.121543531692292163e+03
-3.445641714198849058e+03
-3.429862180101888498e+03
-3.660027083321600912e+03
-3.589140128785456909e+03
-4.345291376677038897e+03
-5.251497860865939401e+03
-5.591676602781555630e+03
-1.630692678404697972e+03
2.765496719093103820e+03
-5.294016661945176565e+03
-9.354324125490411461e+03
-9.204448042660518695e+03
-4.196474059786289217e+03
2.495036004045951188e+02
3.313501830733673614e+03
4.507622060350458923e+03
5.357128759695832741e+03
6.006278378424775838e+03
6.952241668669226783e+03
7.279890606297023623e+03
7.742076720495009795e+03
7.848881381670702467e+03
7.828404559978994257e+03
7.484694318889100941e+03
7.056996790109335052e+03
6.229690127944884807e+03
4.531803715624864708e+03
3.748042513847466125e+03
3.022113319951564335e+03
1.602878780617272469e+03
6.223750897479278592e+02
6.880603058901820077e+02
5.585349452571144866e+02
7.080606173735965285e+02
1.464946982606538540e+03
2.562108044042695838e+03
3.452638127947994690e+03
4.229658964960882258e+03
5.023223112146957646e+03
5.829752868780397876e+03
4.440979861381410956e+03
9.215523647954764783e+02
3.688613022002327398e+03
5.712136151680101648e+03
4.952151973751358128e+03
2.268181366059167559e+01
8.528981898005010862e+02
1.559712073304981232e+03
1.658134703848500067e+03
4.235007085109788818e+02
-4.024043688832744010e+02
-4.661511235369468409e+02
-8.050231550175474240e+02
-8.771868679869409107e+02
-1.385445449404324734e+02
1.093046884068012332e+03
2.414445164126845157e+03
3.465362234472066575e+03
3.970858319632117400e+03
4.681740092390854443e+03
5.143343339059411846e+03
5.397638128656318258e+03
5.590331910994343161e+03
5.104843831632421825e+03
4.384812961807310785e+03
3.493133335286219335e+03
3.004945598723499188e+03
1.828292070166010944e+03
3.138692350240441442e+02
-1.428600833789631679e+03
-2.297778797625169318e+03
-2.889271112053976140e+03
-2.783295918911125682e+03
-2.611272271662095591e+03
-1.722267188122049220e+03
-3.124442245965501570e+02
9.813073763658267126e+02
2.216350450221259962e+03
3.348845428970673311e+03
4.290704999644238342e+03
4.604571972798002207e+03
4.268639896352635333e+03
4.275943239953990997e+03
4.688130820070179652e+03
4.284108680187315258e+03
3.227050882960578747e+03
1.985009129037425282e+03
4.742724277689950441e+02
-8.567628133528755825e+02
-1.478210439948878957e+03
-2.404448208003339914e+03
-2.871588861111698861e+03
-2.803911741957770573e+03
-2.384916456065865532e+03
-1.626395965069768181e+03
-6.630180973738151806e+02
6.013305215971086000e+02
3.419186846947399658e+02
-2.611353663749401221e+03
-7.266222432191022563e+03
-8.684382077954005581e+03
-8.084796713122656001e+03
-7.694998661300795902e+03
-7.912270708831338197e+03
-7.698734889367103278e+03
-7.643646140012453543e+03
-9.406987528180086883e+03
-1.033014384316381802e+04
-1.121505361611846820e+04
-1.191578928507435921e+04
-5.869499476956972103e+03
-4.618240532339873425e+03
-1.273255076362706313e+04
-1.348973355335753695e+04
-9.329638915829471443e+03
-2.051808867262175227e+03
1.693693638795701190e+03
2.691374034697842035e+03
3.050394784761768278e+03
3.477847111616991697e+03
4.213992131465176499e+03
4.294906360149725515e+03
4.483356638674488750e+03
4.716245412897998904e+03
4.337782457618101944e+03
3.344096625687922369e+03
2.349125981884121757e+03
1.415718459831757627e+03
2.883725578545327739e+00
-1.299339503963820334e+03
-2.268192739593777787e+03
-2.631303580527911436e+03
-2.161059680170710635e+03
-2.119945319230680525e+03
-1.528357782028597967e+03
-4.170837510514018049e+02
8.281616126721767159e+02
2.105964298082695223e+03
2.547919207054182152e+03
3.198314414038793529e+03
3.913371383731052447e+03
4.000440279555950838e+03
3.968719305945219276e+03
3.898281456821279335e+03
3.159325089470644798e+03
2.458659219709968056e+03
1.711184265968787258e+03
9.488478408462860898e+02
-2.302564858023616807e+02
-1.309934307799934459e+03
-2.238018770448084979e+03
-3.129601022342486431e+03
-3.393755829425092088e+03
-3.470592564030306221e+03
-3.055100929753658420e+03
-2.289089372398560499e+03
-8.601768895282203857e+02
6.903857557582813342e+02
1.992441219159664570e+03
3.253197175596523266e+03
4.021146394609791514e+03
4.328472580745385130e+03
4.412748430807937439e+03
4.444550886846019239e+03
3.766393888630814217e+03
2.896745173488053297e+03
2.191244633771057579e+03
9.371768478347682958e+02
-2.093972815722801897e+03
-5.144446434419603065e+03
-5.023497237421311183e+03
-5.372375629103332358e+03
-4.960921108929095681e+03
-3.982200233182601551e+03
-2.261151130319693038e+03
-5.470356111848346359e+01
1.381045598966245734e+03
2.159125674212230479e+03
2.663552163133136673e+03
2.970376884309009711e+03
3.297569982977419386e+03
4.086156702740823221e+03
4.374100653478436470e+03
4.057258250394550032e+03
3.581600105185145821e+03
2.538196305693360955e+03
1.601040623852374438e+03
5.719117045774144117e+02
-6.292151510012388371e+02
-1.800383248881557620e+03
-2.504829804615214016e+03
-3.062752655987815615e+03
-3.654183080329167296e+03
-4.160113466670408343e+03
-3.432558208430058585e+03
-2.249581006960935156e+03
-1.180260759647638906e+03
-4.775869095906013513e+02
7.814858893129043054e+02
2.072952259788300580e+03
3.472831565754920575e+03
4.484944682430366811e+03
4.207176383683095082e+03
3.034510436867540193e+03
2.079863809718395714e+03
1.344103017137950246e+03
8.131108048120246394e+02
3.277065383957609015e+02
3.281998315622228546e+01
-3.416034325797572251e+02
-8.267101769742495208e+02
-8.207332756243964695e+02
-1.208657132543778062e+03
-1.529554493668812938e+03
-5.555769331813296503e+02
9.742115491400609244e+02
2.354782188005601256e+03
3.145104499338164715e+03
4.323211316861442356e+03
4.752070588239564131e+03
4.918599881227282822e+03
5.343786150892573460e+03
5.700369615194231301e+03
5.611326806700918496e+03
4.618502501094757463e+03
3.233082370821652603e+03
2.287254251038307302e+03
2.106656829404976634e+03
1.821076190494369257e+03
1.043369155623746337e+03
2.884096440777462362e+02
-1.231934316566077996e+03
-3.697831091835359530e+03
-3.479613143692093672e+03
-3.169838036088409353e+03
-1.505017322730549040e+03
2.839432575463523563e+02
-1.688950541725962182e+02
-5.294202499535352047e+01
-2.285066027467113940e+02
-1.278801443519744680e+03
-2.152500714333962151e+03
-1.628345286931093369e+03
-1.229907330747954575e+03
-1.546157938193993687e+03
-1.809782184151858701e+03
-5.556489016773636536e+01
3.697393994704572833e+03
6.879321371919039848e+03
8.896553632859749996e+03
8.252990674355971350e+03
5.539206521708581022e+03
2.687207811899130320e+03
3.285268095937166777e+02
-1.267012893820281761e+03
-1.011300011311016647e+03
-1.146828469827766867e+03
-1.025804156386130217e+03
8.504378962930160242e+02
2.706421843167042880e+03
2.497338996319285798e+03
6.684253838460575707e+02
-9.378208465273618231e+02
-1.240079786254349983e+03
-8.719432060822782660e+02
5.628747970731694750e+02
1.607201173682072749e+03
2.538627684257946385e+03
2.144495236604362162e+03
-4.890485698377127051e+02
-3.834056040482702429e+03
-7.035259697407122076e+03
-8.079649075019865450e+03
-6.455278080468702683e+03
-2.776075783414779380e+03
-8.000139226787372309e+02
-1.923133247934296151e+03
-3.450380754892744790e+03
-5.182632192173935437e+03
-7.325769612067238086e+03
-7.925675942042285897e+03
-3.994284278365676528e+03
1.235533829912054443e+03
3.281877298488647739e+03
1.119756620416305623e+03
-3.087738967908108862e+03
-8.602449368022194903e+03
-1.171334322890891599e+04
-9.490432779816341281e+03
-5.446660759389715167e+03
-5.908993724672388453e+03
-7.281399599090736046e+03
-9.613803760496579343e+03
-1.112208515629297835e+04
-1.156814768605966128e+04
-7.147919813567097663e+03
-1.598449847177602123e+03
6.354644153990896484e+03
1.093317181423357579e+04
7.989603140502872520e+03
6.398513638788942899e+02
-1.352799042914525444e+03
-1.572714638142344256e+03
-3.601296621778814824e+03
-4.408566355162754007e+03
-1.014434568441594092e+04
-1.365036454881289683e+04
-1.116457477121309967e+04
-9.346925488531336669e+03
-9.823298771890358694e+03
-8.809576176399379619e+03
-5.024731771961540289e+03
-2.366729521728134387e+03
-3.079554332962261924e+03
-4.090125639901724298e+03
-9.782615664548449104e+02
6.272208137056421947e+03
9.974740021827784631e+02
-4.802360681720745561e+03
-2.984183583340161931e+03
2.395166431310922235e+03
3.868791106907569883e+03
5.543797759931415385e+03
5.033223242148474128e+03
3.314220373721638680e+03
-5.530682690200698062e+02
-1.850418058528968459e+03
4.232149136812749020e+03
9.251622939931879955e+03
8.987037471810668649e+03
7.830433085534982638e+03
4.733918878271827452e+03
2.612516499034516983e+03
4.080213739012161568e+03
7.890067297008084097e+03
1.159520558560078098e+04
1.115874332883134230e+04
1.288883279714259697e+04
1.530260733567154057e+04
1.331011484651284263e+04
8.381389456445473115e+03
4.430572015281565655e+03
6.158381610130763875e+02
4.001917723192783001e+02
5.564678736260863843e+03
1.102840785790586961e+04
1.356937974506389583e+04
1.595463143059270806e+04
1.569214705872286322e+04
7.558911652500197306e+03
2.509111557793100928e+02
-3.830873681621361357e+03
-7.624570334058349545e+03
-9.788276305830830097e+03
-1.377782601881213122e+04
-1.528954345293497499e+04
-1.385505845815397515e+04
-1.259155005296517447e+04
-4.297126199720826662e+03
1.884370392428412288e+03
7.234921031098934691e+03
9.614427206299451427e+03
1.280386842407997392e+04
1.225536774867912936e+04
1.200485624950822057e+04
1.128231943449392566e+04
8.910721142027116002e+03
4.055617117821358079e+03
1.645497501001343039e+02
-1.662482253290362905e+03
-1.338234898573811506e+03
2.212858720820109284e+03
5.014919685517816106e+03
3.677507372040612609e+03
1.614253423152278174e+03
9.019520951867250460e+02
3.416516500663406532e+03
6.063084184338437808e+03
5.754604122943494986e+03
3.676998605491998205e+03
3.021208397900599266e+03
2.473200421731056849e+03
4.059528476194919335e+02
-4.137570758188018772e+03
-9.977471465305819947e+03
-1.695574554284272381e+04
-1.465544038945867942e+04
-6.222687492630467204e+03
-6.776261153783659665e+02
-3.314209994402121424e+02
-6.469135054372189188e+03
-1.176692677725579415e+04
-1.514589711827418978e+04
-1.145213643485518151e+04
1.924220431250683987e+03
8.316163554589180421e+03
3.799594429523869621e+03
1.390475309586952790e+03
1.482819380142184855e+03
2.271524568790977810e+03
4.765587335362645717e+03
4.079009495372335095e+03
1.131671031899962145e+03
-2.400590211096834082e+03
-5.817867572395316529e+03
-7.442157298991808602e+03
-6.736551827301230333e+03
-6.352165698295147195e+03
-6.883144345775500369e+03
-9.128579126150774755e+03
-1.291361123743159624e+04
-1.453138988231007897e+04
-1.076101339293087040e+04
-1.081562897644168515e+04
-1.397340647583567988e+04
-1.534847540627251692e+04
-1.099892277448550885e+04
-2.138720594529076152e+03
2.720122477935624829e+03
1.629586419486754494e+03
-7.237405479782045404e+03
-1.227985792556472734e+04
-9.505814792960558407e+03
-6.773885223058508700e+02
3.448336325218922411e+03
5.115443414801206927e+03
3.696936302333828280e+03
8.915088843538884475e+02
2.020836597331160647e+02
-1.322505714422111851e+03
-2.110501381082629905e+03
-1.959817065403609604e+03
-2.619692307646065728e+03
-2.800270839862282173e+03
-3.155731967681946571e+03
-2.253542047905836171e+03
-9.108819630325568824e+02
4.260740705736545806e+02
1.344125694793636512e+03
1.309150162148648633e+03
1.064799257292988159e+03
1.675770720943680089e+03
3.340966880508837676e+03
3.900262784882870619e+03
4.547595565325458665e+03
5.582972497434964680e+03
5.051246024811393909e+03
3.012383521019142790e+03
1.582754452243791775e+03
2.109525870571787891e+02
-7.400298860436053019e+02
-1.289440767123739533e+03
-2.236352105885657238e+03
-2.761540254645680761e+03
-2.011763410743485338e+03
-1.574309143326462390e+02
2.270396973600232286e+03
3.536712041247592424e+03
4.538337145940587106e+03
6.586611493512249581e+03
8.182953977502254020e+03
8.232107878322582110e+03
8.312015583919181154e+03
7.959357216995740600e+03
7.807601435497717830e+03
7.734660515555816346e+03
6.457004544191499008e+03
4.358213436643890418e+03
4.125349323259251832e+03
4.147182501210099872e+03
2.936777987168709842e+03
1.882320887406522388e+03
9.564522397419295885e+02
3.621008446034743997e+02
1.071325964366556263e+03
2.437110498269072650e+03
3.498534995474451080e+03
4.435714951327749077e+03
4.069742297267242066e+03
3.748648741560789858e+03
1.602492546413997161e+03
1.783383989681921321e+03
5.860428672775567065e+03
6.946611089839111628e+03
6.503909860244631091e+03
5.881385041356980764e+03
4.895113569086778625e+03
3.605085337273576442e+03
1.035404787052561232e+03
-6.051726031340245754e+03
-9.031505243544674158e+03
-7.544948074329213341e+03
-7.170140951935067278e+03
-4.165024568677888965e+03
-1.211378440950744562e+03
-1.937181050404069310e+03
-5.053289429485947039e+03
-3.774535971078274542e+03
1.196152499809135179e+03
-6.632182600501442948e+02
-1.564817654120320867e+03
1.314808300398766733e+03
-2.488232417674778844e+03
4.041657873262060434e+02
2.461473404117871269e+03
2.237502425748719361e+03
-6.417089139542658813e+02
-3.234608494152052117e+03
-3.759049703274049079e+03
-5.900740363005985273e+03
-5.129604406551013199e+03
-2.906775166426418764e+03
-3.947438205733289578e+03
-7.943489543004703592e+03
-3.829906714481005110e+03
-5.735757910342165815e+03
-5.016010746866318186e+03
-1.625369625623861566e+03
-5.080562964409702545e+03
-4.452489850112018757e+03
-7.017184710724381148e+03
-4.556676919898300184e+03
-4.262996523954840086e+03
-7.432087466809311991e+03
-2.541982614563754396e+03
-2.718575507016175379e+03
-3.313632733984881725e+03
-1.040001941543952171e+03
4.933994514817455723e+01
7.298852864145720432e+00
3.677405987837304906e+02
1.156481029063957976e+03
3.265626876659875961e+02
-4.877577391065499910e+02
-8.803514526308265431e+02
-6.771806265038354695e+02
-4.714396079684163965e+01
5.727778211497214897e+02
1.620290111152206691e+03
2.024270329043437641e+03
2.317051423269027055e+03
2.764874260553340264e+03
3.475970895974583073e+03
3.866579660239416171e+03
4.093550909796015276e+03
3.802444642359514091e+03
3.005023299734633383e+03
2.000594867897503036e+03
1.148213417662478832e+03
5.269719178008834888e+02
-1.461154754891334164e+02
-1.156131039802632358e+03
-4.426687138666534338e+03
-7.198046806868171188e+03
-3.587169663601689990e+03
-1.151445971233687942e+03
-9.476296660276757393e+02
-1.068410520781452988e+03
8.975651576131001548e+02
1.962740732759575394e+03
1.560567815980967225e+03
1.513433399495554795e+03
2.154268939600633075e+03
2.273406881939417417e+03
2.339865727842789511e+03
2.209172166131414542e+03
2.452682696644433236e+03
2.605474808542564915e+03
2.617949530342908020e+03
1.752798807022024221e+03
2.575819947891560560e+02
-1.013635802636751009e+03
-1.359310604807284335e+03
-7.266356221560976110e+02
-1.199879099821573192e+02
7.296549728455312334e+02
1.815635748336846063e+03
2.729962121839218071e+03
3.544932198665194846e+03
3.915639716258577209e+03
4.153265834146315683e+03
4.346635425815114104e+03
5.778962856899457620e+03
6.588834449124670755e+03
6.285914970682670173e+03
5.853964265008426082e+03
4.760499206995450550e+03
4.713729368577416608e+03
4.721692342493229262e+03
3.646148642856813240e+03
2.230772985304064150e+03
1.372284053627722187e+03
9.095714672560035297e+02
9.169432366322134840e+02
1.071225685324187907e+03
1.289260610492338856e+03
1.613388562473979846e+03
2.229997602330432528e+03
3.758150027167881944e+03
4.401886534148713508e+03
4.406972484802751751e+03
5.070966942719209328e+03
5.796763856548682270e+03
6.093488028905433566e+03
6.004998188212029163e+03
5.715419292142942140e+03
5.145443747371833524e+03
4.262143324149818000e+03
1.323327278592078073e+03
-3.651959011249193281e+03
-9.675820322974466762e+03
-1.148306625274654652e+04
-1.179294451536969609e+04
-1.228368278866669789e+04
-1.249630875132529400e+04
-1.065345581928981846e+04
-9.255141808689262689e+03
-8.384422352690129628e+03
-7.621723664493635624e+03
-7.025263457618448228e+03
-6.506882675752292016e+03
-6.007578289944718563e+03
-5.588273759275019984e+03
-2.646825683449250846e+03
5.250001114627481002e+03
4.218181182172585068e+03
-5.954212424888273745e+02
-6.478988372117733888e+03
-6.420827638635027142e+03
1.540487318370008438e+02
1.476966942183178617e+03
3.149713523684852134e+02
-1.573004347510405751e+03
-7.252318383616593565e+02
-2.317171790445027000e+02
2.388016696934053016e+02
9.414759793961076184e+02
1.530295241528192037e+03
1.986364736902556842e+03
2.709895812343521811e+03
2.950205950377066074e+03
3.467511786498741913e+03
4.256060198374874744e+03
4.518157394843229667e+03
4.470218622519589189e+03
4.149281488377166170e+03
3.607664014581304855e+03
2.524973021338178569e+03
1.724223703078607969e+03
1.106385987104837795e+03
-2.407096105299389777e+01
-1.099088366868882076e+03
-2.305309083859099701e+03
-2.904832524301728881e+03
-2.839747833564840221e+03
-3.134185615459314704e+03
-2.359129384915107494e+03
-9.266450021704761184e+02
3.006087356291052402e+02
5.579219193182540266e+02
6.114396244133438358e+02
1.321325340760103245e+03
2.024562756224769828e+03
2.505013169108543480e+03
2.143671593508610385e+03
2.271579023437571777e+03
1.915965171814461428e+03
1.259035765337548582e+03
9.136804498877418155e+02
7.463430663285564606e+02
-5.080611282485030955e+01
-1.547441660291435028e+03
-3.167178673401986998e+03
-3.881368908957820167e+03
-4.093441171443262647e+03
-3.667981866603473918e+03
-3.109245257626835155e+03
-2.194346437360647542e+03
-9.415344856135892542e+02
1.384802961241126127e+02
5.204774120472706045e+02
7.101610861704773470e+02
1.217824250328749486e+03
1.711604656248932088e+03
1.776635757205043546e+03
1.404834479919415116e+03
-7.136859259992099851e+02
1.120534386997792495e+02
-1.990097642049136368e+02
-2.112798089338913087e+03
-6.792297391046306075e+03
-4.274476845643267552e+03
-2.965392627947060191e+03
-2.933065910796120534e+03
-4.407420892833049948e+03
-7.862402040655048950e+03
-2.757894386384447444e+03
-2.307947247676431175e+02
1.378928808010883813e+03
2.081266755183862642e+03
2.274338865634375907e+03
2.687195914229438586e+03
1.278851530600734122e+03
-2.574888030878418590e+02
3.691280703895180977e+03
3.099110877232489656e+03
2.604047522312816000e+03
1.630866250800252715e+02
-2.909779072591036766e+03
-3.092484455892323695e+03
3.569493868656074937e+02
-3.658597972789043951e+01
-8.282150496201237502e+02
-1.310987461499827759e+03
-4.563824221983034477e+03
-5.134701534949796041e+03
-9.366609007976228440e+02
6.493342409372733073e+02
1.837439538225406068e+03
-1.355238199015244390e+03
1.238328206814328041e+03
3.323193756296708671e+03
-2.125627173585745822e+03
-1.073039140462358546e+03
1.515032806107997658e+03
7.623993850109690129e+02
4.730039883059661179e+02
4.165946807126028943e+03
4.406227328508986830e+03
3.620781549560678286e+03
2.764529579187788840e+03
1.736350063270302371e+03
5.211442848075312213e+02
-5.307420817512436173e+01
4.276234949645967731e+02
1.019397926229303039e+03
1.615262431693802682e+03
2.237356326598272972e+03
3.206551431277513984e+03
3.795500588540135595e+03
4.353291562570516362e+03
5.164011495897953864e+03
6.008733964519670735e+03
6.123422972807037695e+03
5.953988557868890894e+03
6.389511511171375787e+03
6.134296819136753584e+03
5.109012352445374745e+03
3.673345416057735747e+03
2.633556881070573581e+03
1.416329346313814085e+03
-1.847539746609410827e+01
-9.056684694184134514e+02
-1.576137751985784689e+03
-2.264228645664468786e+03
-2.332362593145248866e+03
-5.761127398483298748e+03
-5.165580029134828692e+03
-3.664096188266976696e+03
1.581802220028009287e+03
2.907804029149895996e+03
1.420064563206913817e+03
-1.373920480936203603e+03
-5.953946864518928805e+02
-1.201040289496540254e+03
4.566125078818126894e+02
2.685694407789671004e+03
3.098199785309029721e+03
2.039876209068649132e+03
9.938337968328971783e+02
-5.197510630520325776e+02
-1.961678171855937990e+03
-3.616640458257307273e+03
-4.337928492263356929e+03
-4.239880047385690887e+03
-3.665040890246143590e+03
-2.965825926459770471e+03
-2.434023702523490101e+03
-1.392864229693870357e+03
2.597575917113976374e+01
8.789161407729566236e+02
1.457016995562782313e+03
1.988860993592332306e+03
2.611843252706927160e+03
2.384376439694890905e+03
2.023245234594606245e+03
2.244221929340158567e+03
2.504102235515838856e+03
1.891743025451976109e+03
9.742182514597872114e+02
3.523110397700121439e+02
-1.070102536978197577e+03
-2.903211662136579434e+03
-4.040110054133681842e+03
-4.537939320512834456e+03
-4.499858514930255296e+03
-2.476890635119837043e+03
-1.519108598974238703e+03
-4.965735889448743592e+02
1.108640417574315506e+03
2.243474437966384357e+03
3.071897680433747610e+03
3.558892345530478451e+03
3.986409629756844879e+03
3.913397707142997660e+03
3.452723108585801583e+03
3.388243248715395566e+03
3.004889118009529739e+03
-3.524588564566368518e+02
-5.844464151275815311e+03
-7.686276308508864531e+03
-3.187641616273901491e+03
-2.238506868042057249e+03
-3.149796810937526061e+03
-9.217573033602395299e+03
-8.901036386555451827e+03
-4.237211480380747162e+03
-6.222056865118061978e+03
-1.604513877640857345e+03
-4.157624002171567554e+03
-2.674265478075699889e+02
-2.099907030314701387e+03
-1.424070282039966060e+03
2.650028872192991003e+03
3.287376268088100005e+03
-4.981092284809768103e+02
-4.964423868091771510e+02
1.124222870154861056e+02
-5.175747917048579438e+02
2.394479539606246362e+03
1.528508986212579202e+03
-1.297572991719718857e+03
-6.268832567495344847e+03
-7.187307494263428453e+03
-7.208952064009836249e+03
-4.929787553714429123e+03
-1.391771043659338375e+03
-8.508221742662220777e+02
-1.189906650155600332e+01
-2.559062131246343142e+03
-1.304273342047051301e+03
-2.480394732836623461e+03
-1.477314198720003787e+03
1.940062620036461112e+03
4.354684227037736491e+03
4.606512292062414417e+03
4.490656848929646912e+03
4.000147900109048351e+03
3.039015087165370460e+03
2.328268835372744434e+03
1.755939259549098779e+03
2.939765348816442838e+02
-1.400583711519966755e+03
-2.123653667994481566e+03
-2.171253174744528678e+03
-2.429422485082152434e+03
-2.461027067740486018e+03
-1.837951004494351537e+03
-4.231444783061060662e+02
1.295485198557631065e+03
2.164055759741840575e+03
2.550711939289252769e+03
3.099504081982503067e+03
3.658643543973882515e+03
3.778252825702934388e+03
4.006373945098448985e+03
4.013099216803962463e+03
4.109708251004030899e+03
2.906520767863217770e+03
1.665583263704626916e+03
1.428560142705923681e+02
-1.424509743811824592e+03
-3.797712116642809633e+03
-6.842726427983808208e+03
-4.555474499741972977e+03
-3.045882160107733853e+03
-2.679857627800022328e+03
-2.006197591598374629e+03
-7.649289965251043668e+02
5.270904840773915794e+02
1.667943151305076071e+03
2.516400098039260683e+03
3.098784069861506850e+03
3.391945438495635699e+03
3.492291413285942326e+03
3.470114453712071281e+03
3.612052461557720562e+03
2.969046847373563196e+03
2.140254003469905911e+03
8.607259070993623027e+02
-1.717824118887591283e+02
-9.431501640340584345e+02
-2.396317633748906246e+03
-3.530341797472387043e+03
-3.833130286730614444e+03
-3.583620768862129353e+03
-2.748766387040070640e+03
-1.833466901134181853e+03
-5.116182558638341220e+02
6.838237546102764099e+02
2.034980155332911636e+03
2.848986180386388696e+03
3.166929160635708286e+03
3.839900798083526297e+03
3.814011256219193001e+03
3.896250753367637117e+03
4.012631182264338804e+03
3.600216865389025770e+03
2.834045391068344543e+03
2.336188913200070147e+03
1.169609183943114658e+03
-3.366962635987138697e+02
-1.727735764469773812e+03
-2.697581049266897480e+03
-2.979235752896292979e+03
-2.904716758829248192e+03
-3.009931642797114364e+03
-2.325791353461583185e+03
-1.032228217741996559e+03
5.018042346320406182e+02
1.581316927296613358e+03
1.871407642553864662e+03
2.606096208451744587e+03
3.285430904381256369e+03
3.598464278644402839e+03
1.690184816725773771e+03
-2.771466422893309755e+03
-8.532474569021520438e+03
-9.702762182444179416e+03
-1.012634010300805676e+04
-1.059827968640771360e+04
-8.444613581550227536e+03
-1.724431719828068708e+03
-5.959761320589053867e+03
-1.367765907367522595e+04
-1.158617825989904668e+04
-4.179372634572892821e+03
-3.154165909083023962e+03
-2.522912406814774045e+02
1.237018219078060838e+03
2.119818029603815376e+03
3.179329556502586456e+03
4.195382924615741103e+03
4.983248786232200473e+03
5.367643746288084913e+03
5.311540766854728645e+03
5.189009893182697851e+03
4.528303880366052908e+03
3.694877979858660638e+03
2.467721596374091405e+03
1.706833112801109337e+03
7.063153969364839213e+02
-5.536883604476256551e+02
-1.645882023382508123e+03
-2.244164146647274265e+03
-2.284532494852793207e+03
-2.173972687099917039e+03
-1.655491024479267935e+03
-7.200645493922552305e+02
1.192514287921256937e+03
2.541307058510785282e+03
3.204815117618256409e+03
3.890357307248113557e+03
4.396922216804416166e+03
4.761610997455819415e+03
5.127462280395560811e+03
5.199221103587008656e+03
4.863544902636882398e+03
3.942638963285250156e+03
3.016517751461295575e+03
1.902108808819904880e+03
5.465865909059700698e+02
-4.542536580658139655e+02
-1.467871187292150125e+03
-2.290165946718168470e+03
-1.977113341728264686e+03
-1.925391305404292098e+03
-1.072462224353991132e+03
1.666962954308358178e+02
1.507765878556973803e+03
2.865297692951553017e+03
3.642072011092853700e+03
4.140365345529035949e+03
4.778171644492670566e+03
5.589100824183095938e+03
