4.686636403683901335e+03
3.137418920853819600e+03
2.602811139804104187e+03
2.858117568854167985e+03
2.905421915762368371e+03
3.209812986037366954e+03
3.123493202043242036e+03
2.152284252864469636e+03
1.311631465616818559e+03
1.194486027959166449e+03
1.745764342591283594e+03
2.486205348231829248e+03
2.443139888807352690e+03
2.436788872686012837e+03
3.404017836323469510e+03
4.043164868965537153e+03
3.789247066013454969e+03
3.526105106291481661e+03
3.747733195845358296e+03
3.930539801209472898e+03
4.113307249682668044e+03
3.876143439520119955e+03
3.283155013513478025e+03
2.491122735599481530e+03
1.841831954271595350e+03
1.391230968949243334e+03
5.493123247482919851e+02
-1.890591098627408684e+01
6.386203612625878350e+02
1.189873978177025037e+03
1.606769691529895226e+03
1.805322660346711473e+03
1.586513953331948187e+03
1.643330165970894086e+03
2.970699377162774454e+03
4.881576873504031937e+03
4.572003152511878397e+03
3.662017530158802401e+03
4.095635122006507572e+03
3.813717020025677357e+03
2.833149435757179162e+03
1.296869669835674813e+03
7.637692379096771447e+02
9.988041933176319844e+02
1.151921593844636845e+03
1.041069151600335772e+03
6.930699310781536724e+02
4.188781759463137178e+02
-1.206572950933795710e+03
-3.012387755740395278e+03
-7.321663881245963239e+03
-7.959418501954071871e+03
-6.705744382720348767e+03
-6.533657757776622930e+03
-6.124188610478362534e+03
-5.261439906758650068e+03
-4.082518711710768002e+03
-3.889596055554852683e+03
-3.271592251990590739e+03
-3.678429010767499676e+03
-3.942378201392486062e+03
-4.343541269867648225e+03
-3.601036166430519188e+03
-4.958907236122809991e+03
-5.113258588066570155e+03
-4.130219062889883389e+03
-8.530815582354282014e+03
-1.110020609707519725e+04
-1.161448775840951384e+04
-1.054861211690051277e+04
-1.001768091760462812e+04
-8.915875148750450535e+03
-6.108203367095634349e+03
-1.151532949300318251e+03
9.220627545924779724e+02
2.124454047469121633e+03
2.888551354359829475e+03
4.270328400571568636e+03
5.255786999045907578e+03
4.929925571316545756e+03
4.432629673006823396e+03
3.355772802962205333e+03
2.228386321625668188e+03
1.395400787915574938e+03
5.857360120200125948e+02
3.733285877244950370e+02
6.201073505284767862e+02
9.060329227559385572e+02
6.770825698841213125e+02
6.252623039679855310e+02
6.675049602418024506e+02
9.827583622447705238e+02
1.511045996701040622e+03
1.960337508519238554e+03
2.122663517601735748e+03
2.605086932431474452e+03
2.594597720484225192e+03
1.238128200447856671e+03
4.636574986346878973e+02
9.682075662535718266e+02
1.974774730800623729e+03
2.582320261747780023e+03
2.488782689552825104e+03
2.672036370518421336e+03
1.566160960101786713e+03
8.823617725343977725e+01
-1.305753135182653978e+03
-2.025864980911253951e+03
-1.781021279697467435e+03
-1.347234263748939156e+03
-1.641552988076239217e+03
-1.547006996065905241e+03
-1.484521217131282583e+03
-6.586951314496400300e+02
1.353317497129263074e+03
2.506372102428449580e+03
2.265008945916740231e+03
1.069284185374153594e+03
2.519952349541920356e+01
1.324776304652451927e+03
2.516010294507965682e+03
2.207924474288097372e+03
8.605608104054961132e+02
-1.226217693344367262e+03
-3.128523943102201883e+03
-3.298131304015845672e+03
-3.090094146651825668e+03
-2.899338059648517628e+03
-3.893933902750387915e+03
-4.973973448406087300e+03
-4.666428942017943882e+03
-2.944264123523170838e+03
-1.596339657684552549e+03
-1.336413288491367666e+03
-1.071512106591030260e+03
-9.015935486653801263e+02
-9.086441717752545628e+02
-1.149587989570070022e+03
-1.281334506627289102e+03
-1.452843673802730109e+03
-1.427038356987213774e+03
-4.269000303646009797e+02
1.845795489560232738e+02
4.433641213281537716e+02
4.855229409976535067e+02
-1.247857404494342063e+03
-2.456750565713901324e+03
-2.419160121208718010e+03
-2.381002625035790970e+03
-2.281259157957024399e+03
-1.998916329032407020e+03
-2.134870253677874643e+03
-2.242120432452521982e+03
-1.546652491911128891e+03
-6.243734898507419757e+02
5.748118634592680110e+02
1.776054977150137347e+03
1.179353983779336431e+03
7.846788303357151335e+02
2.320737651284724450e+02
-1.027503408858656258e+03
-7.150919003714375322e+02
-6.526105159221785925e+02
-1.212041069512075410e+03
-7.162816142891485924e+02
-1.504357254440218185e+03
-3.829383926478145440e+03
-3.678449934420545105e+03
-3.134414952475798145e+03
-4.118191983067914407e+03
-4.468913176653600203e+03
-3.155541966390476318e+03
-1.284001978627940161e+03
9.206488103857321903e+02
3.583355902753796272e+03
4.714215143852934489e+03
2.864381454695203956e+03
2.544807967299017037e+03
3.341422970148340482e+03
4.077172129670456798e+03
3.979984702087835558e+03
3.284962886834626715e+03
2.475122226346510161e+03
2.271376050782126185e+03
1.501648944837544605e+03
1.209624763603394797e+02
1.663257637276339835e+02
-5.443469840732963121e+02
-7.869263506677215219e+02
-1.512187754188024655e+02
9.477064561099201967e+01
1.237866103653978143e+03
1.377021557632004260e+03
7.702712338664688332e+02
2.047561064295576216e+03
3.285821719427321113e+03
2.969047967335703561e+03
3.996268110632623120e+03
4.554445989350054333e+03
3.038500216804921820e+03
3.350411528709917548e+03
3.290144859838559114e+03
1.810503403124077295e+03
2.162420495721773648e+02
-2.375164186297552931e+02
-4.535789269378376503e+02
-5.832068650395680152e+02
-6.744040633365613076e+02
-2.515432265494869313e+01
1.113467792356852442e+03
1.122480119476574373e+03
2.438467852331852725e+02
6.315272359035643603e+02
2.060437698439801807e+03
2.858527550774309475e+03
3.254445154605416519e+03
3.462473071849408825e+03
3.966031104191516533e+03
4.206965028973092558e+03
4.021018854271150758e+03
3.757889214251679277e+03
3.145677242758703869e+03
3.058656428215622782e+03
3.021614990337996915e+03
1.680551092530231699e+03
-9.363988941527419740e+01
-3.482212839532340354e+02
-2.223479479678983353e+02
3.903516174182832543e+01
-1.379952048326553893e+02
-1.633827743983690368e+02
-3.120929683127124576e+02
-3.752205221549943985e+02
2.772600800208099372e+02
1.427353160930013019e+03
1.485041960326298522e+03
1.400396863349760224e+03
1.694427964901912219e+03
2.343104785635797271e+03
9.033928389286955962e+02
-2.537716842799584356e+03
-7.086266118558512972e+03
-7.247217113144570249e+03
-6.949586745806458566e+03
-7.740420377915173049e+03
-8.193751253317961528e+03
-8.648489633649423922e+03
-1.009269518625931050e+04
-1.115747283562057783e+04
-1.051978413366575478e+04
-9.732472247179239275e+03
-9.391036447865913942e+03
-7.901231268754845587e+03
-5.747125771685041400e+03
-3.828463611406085420e+03
-3.341141170497381836e+02
-1.807952441636611411e+03
-1.230807381199766269e+03
-1.344584928311754993e+03
-2.731268478677468465e+03
-3.322694351993412056e+03
-4.387645022608378895e+03
-4.375037709342540438e+03
-4.677881807282336013e+03
-4.605340073831279369e+03
-4.754902138366439317e+02
9.977351990503738079e+02
-3.243849871027458903e+03
-5.649460738653560838e+03
-5.798014484004854239e+03
-5.368272996655295174e+03
-3.487132863304972489e+03
-1.116399390231327061e+03
-3.847909666431594815e+03
-4.819486737607803661e+03
-3.980738205571083654e+03
-2.550266220854211952e+03
-1.579425523487216651e+03
2.885219565123132725e+03
6.013348194748356946e+03
5.879817185466243245e+03
4.936884749928050041e+03
3.841790322561894300e+03
2.872604734158322572e+03
2.988668474337690895e+03
3.177190693417763669e+03
2.427554823884887355e+03
1.809081960602944491e+03
1.477459685378810946e+03
1.853676634331140576e+03
1.700879483938392241e+03
1.002698339433045021e+03
9.046575937441963333e+02
2.013748940293211717e+03
3.457447812527062524e+03
4.296869558798631260e+03
4.710258523220523784e+03
5.311874448325216690e+03
4.829955385968056362e+03
4.344874337774469495e+03
3.728587377616495360e+03
3.648713286936416807e+03
3.114969873221067246e+03
2.609124397698317352e+03
2.161247346427294360e+03
1.668324104442390308e+03
9.421930296062911339e+02
1.096536681179574089e+03
6.941448662964454570e+02
4.302992327735357776e+02
1.025752439379637508e+03
1.490355465934559334e+03
1.638695494802565008e+03
1.756803858665760799e+03
2.203676375486959387e+03
2.452956696173266209e+03
3.729947652321008718e+03
5.087199139824271697e+03
5.300959881092640899e+03
5.252918506703052117e+03
4.810637670321973019e+03
3.972917774018504588e+03
3.273966433844351286e+03
2.558423306951760878e+03
1.499820018610644183e+03
7.694696322917028510e+02
3.142259660282803111e+02
-2.464500802803024726e+02
-7.140468476095777532e+02
-3.778321613552611780e+01
8.118420476774701910e+02
1.494812607533728396e+03
2.231561666672481806e+03
2.468475987456010898e+03
2.596873952751166144e+03
3.665000116111742045e+03
4.398063327647920232e+03
4.444850065474678559e+03
4.663158577017579773e+03
5.153355399714989289e+03
5.208051338498677978e+03
4.532297824261449023e+03
4.065847347048714710e+03
3.256990214289100095e+03
2.569407599807523638e+03
2.248050780938959178e+03
1.782893629173028103e+03
1.186935882133681389e+03
1.036401011394891384e+03
4.625770688524257253e+02
-4.010050098699984034e+01
6.932011215908560189e+02
1.931981748766245346e+03
2.726871723851362276e+03
3.057132499675245526e+03
3.697306672169887861e+03
4.701895631244074139e+03
5.103166642822361609e+03
4.667797875155846668e+03
3.700907954680862531e+03
3.344681792974101882e+03
3.023519628821872175e+03
2.825930032958031916e+03
1.949495420994131791e+03
1.193142783485658356e+03
8.873426696118108339e+02
-1.307148250691873841e+02
-2.490270169477447780e+03
-4.374164170939202450e+03
-1.077336177567125105e+03
-1.141965932492720640e+03
-6.638780407233682126e+03
-7.384464923776160504e+03
-6.699160708292793970e+03
-6.032620667318304186e+03
-5.056605922316007309e+03
-4.929073333879939128e+03
-4.432347517568463445e+03
-3.907288619722467047e+03
-5.293399502455853508e+03
-4.933207718568171003e+03
-1.516660251749657164e+03
-3.711620844218777506e+02
1.125557839651193717e+03
1.376067161004679065e+03
4.104507587218830054e+02
-6.491260134605710164e+02
-2.524697941641066336e+03
-3.660686039894205805e+03
-2.278025583405761608e+03
-1.422325645066087645e+03
-1.125087360404164656e+03
-1.414561987493610104e+03
-1.397479685778306020e+03
-9.146277706243948842e+02
-3.756140840049467897e+02
2.336364897363540933e+02
1.021333024457169017e+03
1.048164566948264337e+03
1.552070072229897164e+02
-3.563939720333819423e+02
-3.644929241230055936e+02
-9.936448643763421842e+02
-2.734315440476272215e+03
-3.351706342444512757e+03
-3.822941153233302884e+03
-4.575855632958507158e+03
-4.443293639530514156e+03
-4.938888123661407917e+03
-5.998883628329455860e+03
-6.904219078091727170e+03
-6.981404485639189261e+03
-5.874994490832385054e+03
-5.027380049729647908e+03
-4.244001174952473775e+03
-3.443455537463213659e+03
-3.199385201889183918e+03
-3.591636842224441352e+03
-3.968489386887761611e+03
-4.381388769613764453e+03
-3.580248333454848307e+03
-3.015000534804134986e+03
-3.547577001039580409e+03
-5.135526197099979981e+03
-5.718168126700808898e+03
-5.421140580984518238e+03
-5.826501086752103220e+03
-6.599391722795008718e+03
-6.653572044668709168e+03
-7.116048452377937792e+03
-8.221680962785128941e+03
-8.263058432393148905e+03
-6.689651281417599421e+03
-4.866646570396344941e+03
-3.815838208051674883e+03
-4.305126755273186063e+03
-5.230228119744498144e+03
-5.125549294995254968e+03
-4.065829676227406708e+03
-3.398846262130784908e+03
-3.999502737493894983e+03
-4.971540546291485043e+03
-4.657907487620346728e+03
-5.073100000696927054e+03
-6.469557464671427624e+03
-7.707498225522544999e+03
-7.860753875526938828e+03
-7.516169669526093458e+03
-7.920607530245712042e+03
-7.695787675732000935e+03
-6.704371614153440532e+03
-6.462154783602151838e+03
-6.036704379141050595e+03
-4.993579460525244031e+03
-3.961831687694647826e+03
-3.542106560950128369e+03
-2.129218635440002799e+03
-7.894602960870996640e+02
-1.306304558524930144e+02
6.496905033341308808e+02
7.823355221539486593e+02
-3.520670802481284056e+01
-1.421761540610988959e+03
-2.249145838651824306e+03
-2.265165545317444867e+03
-2.521846026221257944e+03
-2.610578015840817898e+03
-2.136940135808574269e+03
-1.823952172493862918e+03
-2.130714802389570650e+03
-1.661481567238742400e+03
-3.281768781852204597e+02
1.293894164201794865e+03
2.279260606752020976e+03
3.526587427002982622e+03
4.798650755180588021e+03
5.677376332788136096e+03
6.524492643439108178e+03
7.055750452990660051e+03
6.799830121999924813e+03
7.105353250345974629e+03
7.375034475865853892e+03
7.448666511182751492e+03
7.860686759208703734e+03
7.116455263985554666e+03
6.443519666304557177e+03
6.530149747820107223e+03
7.018567638799374436e+03
7.297325128575581402e+03
7.961718135784894912e+03
8.815811771001617672e+03
9.682819570229659803e+03
1.063615858897758153e+04
1.138534594217422273e+04
1.251378199577690793e+04
1.370096067399643289e+04
1.515856184822775140e+04
1.633721918154884224e+04
1.774242929343005744e+04
1.850630718579835957e+04
1.855330282914247800e+04
1.868390695615301956e+04
1.951843363157472049e+04
1.973237863166077659e+04
1.893124711566020414e+04
1.675527552478857615e+04
1.382561932482305383e+04
1.580965493376177983e+04
1.560690110046695190e+04
1.329179107854448011e+04
1.125364655695949477e+04
9.517884612511294108e+03
7.851615015875656354e+03
6.533545562832030555e+03
4.786849340404648501e+03
2.974940704955537058e+03
3.250391089001970158e+03
5.973594472613834114e+03
1.044391554770994298e+04
1.508044763498843713e+04
1.691966540582493690e+04
1.743520676871992328e+04
1.918868127141520745e+04
1.894860836375783765e+04
1.523292707696785692e+04
1.014700416504161694e+04
6.356430586504988241e+03
3.453144614157842170e+03
1.623921889473465399e+03
-1.346693620008716437e+02
-7.224599329015201192e+02
4.057988804713493664e+03
1.543297310231200208e+04
2.438188963918125228e+04
2.658135098438607383e+04
2.356174590310417989e+04
1.644473489885380695e+04
1.027377457405333371e+04
5.136608247171812764e+03
-1.892313604603310523e+03
-6.677474162593980509e+03
-9.175168437618651296e+03
-7.470819055889791343e+03
-1.243679663993883423e+03
1.404993546981972486e+03
3.568994883237084650e+03
8.266999473379079063e+03
1.005072541949852894e+04
5.979930319443353255e+03
-2.304579231729635012e+03
-7.513033860843557704e+03
-1.170359201876196130e+04
-1.493438065954257581e+04
-1.686949969572125337e+04
-1.743181923003705379e+04
-1.228511803634616990e+04
-5.786599149866609878e+03
-3.311225871473146526e+03
-4.819789908232939524e+03
-1.081102467052825523e+04
-1.782488901399945826e+04
-1.444345402071863828e+04
1.529487180074148455e+03
1.389125904608465135e+04
1.576803085243184432e+04
1.011906563711110539e+04
-1.683415931336539415e+03
-1.872719910084745788e+04
-3.143287423472819501e+04
-4.683296363985058269e+04
-6.796710342962435971e+04
-7.070699557541869581e+04
-7.106719930257280066e+04
-7.821961852028197609e+04
-8.417677450754198071e+04
-8.038987716964088031e+04
-6.954146490522410022e+04
-5.694398109883466532e+04
-3.556076077259677550e+04
-4.224374111073376298e+03
1.694688650699244317e+04
2.270677555365857552e+04
3.132278307654580203e+04
3.565643620673175610e+04
2.165443290547117431e+04
4.119435415201003707e+03
-6.381882081945296704e+03
-6.553828204674677181e+03
3.433366451316696839e+02
1.615333613952478845e+04
2.913299880026568280e+04
3.630111683434204315e+04
3.409939099850630009e+04
2.931765526994682659e+04
2.072376116505474056e+04
1.196562304773574851e+03
-2.869508823157205916e+04
-5.123532166355881782e+04
-6.803319945142460347e+04
-8.431791014440444997e+04
-9.465848916676663794e+04
-7.916506657793535851e+04
-4.355680779998088838e+04
-2.557582027534678491e+04
-1.201817523277457985e+04
1.168303111840656675e+04
2.099461087195450091e+04
1.718239405281584914e+04
2.163023609459875297e+04
2.299503500656930919e+04
1.357475567832328852e+04
1.109523274870373461e+04
1.809930623209957412e+04
1.855386877023894340e+04
1.548583823545472842e+04
2.860519813529150997e+04
5.011493731006019516e+04
6.908882038660060789e+04
7.241966248746526253e+04
5.687129572709526838e+04
3.723168752078924445e+04
3.550664331704935466e+04
5.218491599210715503e+04
5.571837535891229345e+04
4.920184580522182659e+04
4.236419945875953272e+04
3.240884225385606987e+04
1.085454545991575287e+04
-2.782767484722265363e+04
-5.249717497134271980e+04
-5.325718684624846355e+04
-3.670006671664497117e+04
-2.715819305070094924e+04
-1.989079151134068525e+04
-2.543033275727594810e+04
-4.237827347214343899e+04
-4.504573824325588066e+04
-1.956839122117767693e+04
-6.463844070507373544e+03
1.414761272004140119e+04
3.378798903973655979e+04
4.352299606942188257e+04
4.257500422957032424e+04
2.649336058994138148e+04
1.481650756717076729e+04
-8.742180949924849074e+02
-3.418657612829883419e+03
1.376344915187937477e+04
3.062437768553509886e+04
2.500939235281746005e+04
1.860771127417082243e+04
1.405653303524423427e+04
6.908005878015961571e+03
1.333424697375309370e+04
1.594234002261120077e+04
1.773848316358247030e+04
4.503825576218103379e+03
-1.365364539855317707e+04
-2.129496640171625768e+04
-2.640210823372416053e+04
-2.329302832845558805e+04
-9.594868180609117189e+03
7.476273019686724183e+03
1.423326307512792118e+04
9.909830067483018865e+03
-2.763153331730491118e+03
-6.108824554645352691e+03
-6.358433965424724192e+03
-3.160288689519334184e+03
2.150215699391802627e+04
4.156558406923706207e+04
4.062671611559815938e+04
4.083716429248061468e+04
3.870357581759312598e+04
2.980162150182900223e+04
2.241487666264181098e+04
2.425491432274380350e+04
2.500518966320900654e+04
2.159623096830804934e+04
1.768656579214914382e+04
2.126178222235767680e+04
2.795330036901102358e+04
3.014844226234525922e+04
2.760666337918703721e+04
2.609137557532169012e+04
2.130892154100741755e+04
1.427767488392328050e+04
8.552044363003418766e+03
3.796273132988749239e+03
2.147515740769383228e+03
5.780617932044458485e+02
-2.495735105890541945e+03
-5.954411466575314080e+03
-6.318597869597903809e+03
-7.447183674399609117e+03
-9.600036583999901268e+03
-1.398089029614587344e+04
-2.013933824145146718e+04
-1.700402837718178853e+04
-7.252795594376696499e+03
-5.069438548051327416e+03
-7.963638869804395654e+03
-1.095545285297189548e+04
-1.555446019463142511e+04
-2.083144695480258815e+04
-2.699730656448869195e+04
-3.331276674693199311e+04
-3.848476130003872095e+04
-4.058781157408606668e+04
-4.039904887216737552e+04
-4.102636584879543807e+04
-3.846348878523371241e+04
-3.626519702360428346e+04
-3.693729541599070217e+04
-3.614170763518298918e+04
-3.144306044853561252e+04
-2.881518365332360554e+04
-3.213670408090837009e+04
-3.366833121086846222e+04
-3.264074701535022541e+04
-2.790088439052199465e+04
-2.036441688081463508e+04
-1.440411170608648899e+04
-1.497257434253404972e+04
-1.556084241116664634e+04
-1.458947406741176383e+04
-1.350915524001915037e+04
-9.023465441699590883e+03
-5.361295309247509067e+03
-4.807501740738473927e+03
-5.473730643257534211e+03
-6.487694200926314807e+03
-5.796724258252294021e+03
-5.232724105716813028e+03
-4.634105475284199201e+03
-3.751483821664301558e+03
-3.584131245165657219e+03
-4.484965986958651229e+03
-4.645412333672847126e+03
-6.451940506552032275e+03
-1.236307375535363281e+04
-2.087621495937487634e+04
-2.262458351531585504e+04
-1.540577558785766814e+04
-6.466383689192665770e+03
1.444078473228096072e+03
5.705117858671682370e+03
7.566352073644189659e+03
7.587391795059876131e+03
7.779899847127520843e+03
7.277634541695694679e+03
7.503165000377360229e+03
8.516165940722838059e+03
9.522351708938547745e+03
9.226466936768823871e+03
8.577257489821671697e+03
8.778596658289434345e+03
8.939305166313197333e+03
8.077170061042242196e+03
8.341002429518890494e+03
9.027690636820298096e+03
7.869181728188405032e+03
5.021499946941863527e+03
1.781584001619264654e+03
-5.640291896500738176e+02
-1.037262288279361201e+03
-9.789915160319842471e+02
2.297392126738027400e+02
6.839310969778834988e+02
9.515873356767951918e+02
6.957127830612614616e+02
3.644136118262566129e+02
1.269788712027197107e+03
3.450747693257593255e+03
5.426138601053060484e+03
4.953843150006233373e+03
5.385842055183715274e+03
1.015441145385608252e+04
1.018876005111128143e+04
9.886935149609080327e+03
1.044218694358420908e+04
1.164897502104981686e+04
1.803965259446342316e+04
1.991434608183650562e+04
1.464927540166616927e+04
1.078556345156213320e+04
1.028845425724305824e+04
1.056906291883203630e+04
1.016416773613857913e+04
9.095338005977657303e+03
8.931817343063916269e+03
1.140923846126628086e+04
1.587226625800452166e+04
1.673961742343466904e+04
1.912069739919969288e+04
1.949786482618972877e+04
1.829268226014381071e+04
1.881436043173131839e+04
1.841110297490057201e+04
1.770092328177590753e+04
1.734864979690071050e+04
1.813978619853494456e+04
1.897463962730409548e+04
1.877623275478406504e+04
1.729302846830698036e+04
1.583787788180698772e+04
1.448055230933464554e+04
1.317428363458336389e+04
1.089439879408841625e+04
7.401195788945477034e+03
6.005001686371563665e+03
6.710066340291749839e+03
4.574182854095322909e+03
1.729531021747938894e+03
9.418070682223469703e+02
2.190611351225909857e+03
2.876574115761277881e+03
8.382229282870281395e+02
-1.144867219789955470e+03
-1.966316710352648897e+03
-2.573709122969052260e+03
-3.501049574262468468e+03
-5.118267689504299597e+03
-7.127399748455002737e+03
-8.180416015498003617e+03
-7.642001222468555170e+03
-6.803423211316562629e+03
-6.449569951787628270e+03
-5.562322390446351164e+03
-7.909523128144394832e+03
-1.010519832151523588e+04
-9.432873497543985650e+03
-9.432180000284522976e+03
-9.488510625779164911e+03
-8.459995422778067223e+03
-9.238487836161961241e+03
-8.731209624248565888e+03
-6.576603326418935467e+03
-5.694071543216855389e+03
-6.168630822842355883e+03
-6.573731087606901383e+03
-7.460548882562217841e+03
-7.666144180107545253e+03
-7.908583756840906062e+03
-8.131289278848737922e+03
-8.572331749889099228e+03
-8.685532890291977310e+03
-8.768945933227330897e+03
-9.040038283095049337e+03
-9.157794703331108394e+03
-9.563542371954363261e+03
-9.576505938988331764e+03
-9.059324871076549243e+03
-8.601402117108909806e+03
-7.835554037808622525e+03
-7.661534306077629481e+03
-6.747874344916103837e+03
-5.856584338899790964e+03
-5.238498989709486523e+03
-4.737539917669004353e+03
-3.925670691905158492e+03
-2.398570411128897831e+03
-2.316226774085319448e+03
-3.347658648169964636e+03
-3.920677264994845245e+03
-3.843644830172771435e+03
-2.998218374543517712e+03
-3.209245671719616894e+03
-3.808903232447367827e+03
-3.920786902578694480e+03
-4.108207018688102835e+03
-3.826623691305825105e+03
-2.608263200257948938e+03
-2.036834662232287883e+03
-1.991276432521298602e+03
-2.109370248917973640e+03
-1.287307025102476246e+03
-6.281173818239468574e+02
-3.097401143800161094e+02
1.084770388658574234e+02
-8.424618958288897375e+02
-6.845110045996730150e+02
5.277541689818775694e+02
-8.130259859909850775e+02
-5.346580021506129015e+03
-7.674774148756586328e+03
-7.910894468504712677e+03
-8.452392830467721069e+03
-9.026736680521724338e+03
-8.508591198986257950e+03
-8.561788366379529180e+03
-9.174067746516322586e+03
-7.795162039754217403e+03
-7.284858626362708492e+03
-4.552497804213004201e+03
1.676961327320186683e+02
2.058729968480582784e+02
2.907817912319715560e+03
4.071111040853214490e+03
4.359606028375163078e+03
4.336702043568152476e+03
4.512483094138459819e+03
5.247649868544819583e+03
5.388464500734194189e+03
5.158381596615538911e+03
4.459126391233896356e+03
3.843482268806975753e+03
3.740778712636110868e+03
3.561914328429415946e+03
3.253150975140352784e+03
2.832540618044476560e+03
3.186592259582488168e+03
3.791480602897832341e+03
4.157388764326363344e+03
4.542136144057701131e+03
5.017509968798008231e+03
5.388423170333717280e+03
5.883117992560650237e+03
6.638513054052372354e+03
7.133979932106873093e+03
7.057259675540120952e+03
7.062254892777128589e+03
7.304757532242224443e+03
7.336264054957012377e+03
7.558456820347925714e+03
6.933939789065515470e+03
6.036666137156555124e+03
5.935595651108777929e+03
5.641175349211399407e+03
5.223240906055229061e+03
5.055152889096502804e+03
4.788689986425426468e+03
4.623810550483015504e+03
4.781700133391052987e+03
5.229462636764570561e+03
5.149407729418275267e+03
5.296582244194060877e+03
5.913359230656457839e+03
6.116483137809157597e+03
6.231376122066924836e+03
6.069293691137051610e+03
6.078104144124628874e+03
5.757027734425322706e+03
5.326009310650232692e+03
4.549933263704187993e+03
3.253769151978601712e+03
2.167496096813238182e+03
1.210395942826214878e+03
9.742910493472259077e+02
1.422045149382096270e+03
8.671585858147333283e+02
-3.193965319947832882e+02
-1.694528494624471023e+03
-2.390146718188237628e+03
-2.113988151276822464e+03
-1.184801442331067165e+03
-1.008421053869746288e+03
-5.445440246007522092e+02
-3.994025583071728761e+03
-4.181089455964660374e+03
-3.560464433800430470e+03
-4.916041348766053488e+03
-4.803838323454441706e+03
-5.449825970756436618e+03
-2.718153250487967853e+03
-3.630477322136880048e+03
-5.164232761068283253e+03
-5.722499466619203304e+03
-6.635630616389865281e+03
-6.542946547837983417e+03
-8.059483307231313120e+03
-8.178411116401952313e+03
-8.733199849536087640e+03
-7.909981386545991882e+03
-7.197521960986910017e+03
-6.106983472776832059e+03
-7.042647174886137691e+03
-6.398185681591444336e+03
-6.333225710548513234e+03
-4.299862320547397758e+03
-5.673774777134101896e+03
-5.321220179998084859e+03
-5.422608135375705388e+03
-3.072182197791336876e+03
-1.949448140082347209e+03
-2.601646588054967651e+03
-3.768854467775918692e+03
-5.829204949645765737e+03
-3.870721887909107863e+03
-5.890640258438659657e+03
-5.694140184825386314e+03
-6.234456696856998860e+03
-3.584780808542283012e+03
-5.046106874250242072e+03
-5.397558062617198630e+03
-5.444381106681787060e+03
-5.483568828543340715e+03
-5.819873046148178219e+03
-2.813010059132674996e+03
-3.336171754690956845e+02
1.043478938765203338e+03
1.228892386980538959e+03
6.214774946801103397e+02
2.151257303658486819e+02
-4.743892428022289778e+02
-9.330565287072182628e+02
-2.988689926534090091e+02
-6.098843858855409508e+02
-1.164368282556903068e+03
-1.431457283546632425e+03
-1.785200923474968704e+03
-1.933618161367299535e+03
-1.259750323128157561e+03
-8.476684781565064668e+02
-7.064755525510121288e+02
1.690152367259819144e+01
8.771417630885814560e+02
1.835098603531959498e+03
3.051942226155822937e+03
3.509722452123866788e+03
3.964763492114756900e+03
4.415131355666421769e+03
4.744629271210071238e+03
4.688119580382924141e+03
4.700413304604740915e+03
4.408440834564337820e+03
3.917279469353275090e+03
3.550993493144045260e+03
3.380515294024029117e+03
3.249637830968795697e+03
3.155349960734236902e+03
3.215571313557346457e+03
3.181535866749590241e+03
3.357358517327816116e+03
3.669263668025003881e+03
4.515648179612784588e+03
5.041708329764614973e+03
5.543546695654959876e+03
5.986268003605061494e+03
5.927149248346825516e+03
6.337025725178025823e+03
6.310839892942109145e+03
6.399776869751231061e+03
6.055592761694381807e+03
5.848423903449749560e+03
5.782233097156728945e+03
5.921069073097655746e+03
5.516927582668642572e+03
4.673670296022761249e+03
3.798334295387178827e+03
3.537176851438376616e+03
3.733826978297766345e+03
4.002568695626350291e+03
3.937700285113196969e+03
4.032061394459023631e+03
4.653757205144522231e+03
4.838885019016677688e+03
5.163564975153448358e+03
5.613816451121495447e+03
5.721669955315973311e+03
5.482276473866001652e+03
5.753877354287158596e+03
5.850484608777099311e+03
5.969210387897624059e+03
5.789232656504327679e+03
5.027758199863040318e+03
4.665041963179708546e+03
4.163983061817425551e+03
2.763406725347453630e+03
1.913673917143460358e+03
2.769959743271681418e+03
3.228206921694992161e+03
1.752383907990253874e+03
-5.883741388036478384e+02
-3.563790933777850114e+03
-4.275692963290422995e+03
-4.084078556260489222e+03
-4.298834359372933250e+03
-3.271768788023526213e+03
-2.644634628163437810e+03
-2.124337875424627327e+03
-1.271984636448830543e+03
-1.507660148865061501e+03
-2.149285782990545613e+03
-2.942807949116216605e+03
-3.746255076147124782e+03
-3.643259875683680093e+03
-1.304755709717896707e+03
-8.169370695349026619e+02
2.932901260464652182e+02
1.304023442811289442e+03
1.112243265403328678e+03
-2.053818024246960249e+03
-6.174234784610831412e+03
-6.242143262081548528e+03
-5.860389757047955754e+03
-4.969802141835857583e+03
-4.166272115701795883e+03
-2.708646647268875768e+03
-2.429949602204028906e+03
-2.376137498490228609e+03
1.531841216136467438e+03
3.907982617695618046e+03
3.008239491436318076e+03
1.689652114140693357e+03
5.313113892411413417e+02
5.452134766887671731e+02
1.293260764551763032e+03
1.347479732138821873e+03
1.624937478819584157e+03
1.484584122257326499e+03
2.125475729532990044e+03
2.227658235895190955e+03
1.975078520840447482e+03
2.110756398023666407e+03
1.821752779752094057e+03
1.517085671559018692e+03
2.319702941405067122e+03
2.743591524989404661e+03
2.813911021505044118e+03
2.721679095328741369e+03
3.367867756307967738e+03
3.164443370687601146e+03
2.892273490145361393e+03
2.767554301461620526e+03
2.108300950450129221e+03
1.774387702433310778e+03
1.625806858658921783e+03
2.184301646274761879e+02
-4.768522584454717048e+02
-6.569601172849770592e+02
-1.011790830348198710e+03
-1.826356448365308324e+03
-2.007781694804702965e+03
-2.007085869476431071e+03
-1.674281764242512509e+03
-1.657434224862602832e+03
-1.393480777525459644e+03
-3.003771112142181892e+02
1.445996402727724671e+03
1.539839410123520565e+03
1.759442134919305772e+03
2.037838157811941983e+03
2.569354669488480795e+03
1.980216526780014192e+03
1.324846887953556802e+02
-1.817082564611387397e+03
-2.138543840909062510e+03
-2.205805491792280918e+03
-2.179046009838913506e+03
-2.530290756082637017e+03
-1.569738115460412700e+03
-9.023984649392947404e+02
-7.516807368908587250e+01
6.934987652543956074e+02
1.377646366800102896e+03
1.040306939308063647e+03
9.164659598681557782e+02
7.360654221928590459e+02
4.950631295605601281e+02
8.734486002676834460e+02
6.931871703578117376e+02
1.230289617743277404e+03
2.680733250439513540e+03
2.255435286076494776e+03
-3.706614175157232580e+02
-3.410600183665444092e+03
-3.937424174352113823e+03
-3.350289134553636814e+03
-5.093271434158496049e+03
-6.505380191964758524e+03
-3.941664935278135090e+03
-1.367161641740347250e+03
-4.009102394398194065e+02
-6.739406610952945584e+02
-2.073244408645698513e+03
-1.538891144335153740e+03
-2.179096504770921854e+02
7.836973674921569000e+02
2.847879016575020160e+03
3.888541166673662246e+03
3.914677409880326650e+03
2.723385041411004750e+03
2.104594977196603395e+03
1.376163613463020738e+03
-8.529754418080792675e+02
-1.421865421906673191e+03
-3.556679227613105354e+01
6.208480126672591268e+02
-4.866690036324180255e+02
-8.751652391280464371e+02
-1.555674402970801793e+03
-2.925244676479489954e+03
-4.837935098735708380e+03
-5.344744587574192337e+03
-2.938653573009975844e+03
-8.257034986601009905e+02
1.336081824744422875e+03
3.588620933238514681e+03
2.325929294856673550e+03
