-5.262442174819030697e+03
-4.421451359273440175e+03
-3.324555137851533345e+03
-1.101739396062861260e+03
1.309726985276658127e+02
6.946088445832664320e+02
1.192395920699506405e+03
2.307388391862399658e+03
2.749625111721012217e+03
2.629201280515353119e+03
2.288092929404232564e+03
1.911518144673422512e+03
1.107547358976497890e+03
7.420522163869700307e+02
3.790387310567174382e+02
-1.087445585317597079e+03
-2.978505996214104471e+03
-4.411262664325692640e+03
-5.000752193611919211e+03
-4.907028801532780562e+03
-4.415200555623579930e+03
-3.814972525195846174e+03
-2.724193055924478358e+03
-1.153844341527387542e+03
5.429506807257885157e+02
1.640142439835152572e+03
2.258843955534282941e+03
2.768996734190737698e+03
2.993555667133919997e+03
3.106549601446205543e+03
2.565958838406839277e+03
2.469848359079389411e+03
2.462405105204868960e+03
1.927649838549753213e+03
1.214353732827734348e+03
-3.195455774367330264e+02
-2.295176857177363217e+03
-3.915704150591057441e+03
-4.758149676084291059e+03
-4.610545615404515047e+03
-4.608062612366476060e+03
-4.003620462007137576e+03
-2.743104511231817924e+03
-1.058569427360920599e+03
7.399385259314294672e+02
2.253399665673642630e+03
2.644016643981950438e+03
2.762848299477562705e+03
2.922754787556639712e+03
2.805773047876163673e+03
1.978898147526221237e+03
5.021837586198195140e+02
2.313828531092663980e+03
1.989607666777524400e+03
1.441261280131341209e+03
7.841624311238291511e+02
-4.977025047768620425e+02
-1.955506808828539306e+03
-2.776606405332539907e+03
-2.988763564767427852e+03
-2.877361446434716072e+03
-2.434486385333972066e+03
-9.897716564498244907e+02
4.814351640617665566e+02
1.914328119764739313e+03
2.812119606914629458e+03
2.564459459649658584e+03
3.607538628004447673e+03
4.335419375172175933e+03
4.886972431800372760e+03
4.527178562900811812e+03
4.101039533566889986e+03
3.836026274101513536e+03
3.463728989920830372e+03
3.080868183289968783e+03
2.157746284864550944e+03
4.851287477861743014e+02
-1.130146413164460682e+03
-2.088038057356450281e+03
-2.769917195458759579e+03
-2.563800560941940148e+03
-1.564640852633082659e+03
-4.421379012771855628e+02
9.392993602903438841e+02
2.471896457520416789e+03
3.028673354757166180e+03
2.967586285316278918e+03
2.966532006177574203e+03
3.423530440772352904e+03
3.200558258712477709e+03
3.109522356812499311e+03
3.570466130371861709e+03
3.740450650191251043e+03
3.478451246293034274e+03
3.445353390374787068e+03
2.077132631288443918e+03
4.546359867672427981e+02
-6.672228193559291185e+02
-1.189566529853214661e+03
-1.039458366114561386e+03
-1.253995868371930783e+03
-8.062526067089720527e+02
2.897914093510893849e+02
6.751921158697377905e+02
1.692975148759371450e+03
2.048121050469857437e+03
1.066643208135555142e+03
-1.208389953949284745e+03
-2.132980567215675364e+03
-2.061196609246753269e+03
-2.071125279941556983e+03
-2.706773744754245854e+03
-2.741141453391005598e+03
-2.829173167934511639e+03
-3.288941609537730983e+03
-4.280370276082141572e+03
-6.599517165998986457e+03
-9.011636115365934529e+03
-8.943847363928925915e+03
-5.254306252898207276e+03
-4.864198720264298572e+03
-5.002503165407961205e+03
-1.011197780135879043e+03
6.297675643019290419e+02
-1.575498977655797717e+02
4.688253352665101374e+02
2.905927048331992864e+03
3.387767832956916209e+03
-3.856104642202822106e+02
-6.313077397949505212e+02
-1.249610374646892375e+01
-2.625133075610480773e+03
-1.542198969849377590e+03
1.792317061729629359e+03
3.364204097957708655e+02
7.480510864461845131e+02
-3.388762755967834437e+02
-1.418505741887220665e+03
-1.825957075259884050e+03
-1.685232095903488016e+03
-2.549437586144254055e+03
-2.456593213544130322e+03
-1.013682207618922462e+03
1.007256112884030813e+03
2.822245926214291558e+03
3.643299738104801236e+03
3.486503881172313413e+03
3.270832161311901018e+03
2.702282462209568166e+03
2.654824367731545408e+03
2.847430748285466507e+03
3.637125713231566351e+03
3.384005117773066104e+03
3.279025128663655778e+03
2.982134493800467681e+03
1.705345366763023776e+03
-3.934294851644295932e+02
-1.682259317412002247e+03
-2.342135264654064486e+03
-2.920119526982400657e+03
-3.371396437634741233e+03
-3.501074779404005767e+03
-2.461089308201856966e+03
-7.982591581268778782e+02
9.474520937836008443e+02
1.792041835303315111e+03
2.039616744358042979e+03
2.007183228660994246e+03
1.741763911096285938e+03
1.610374149411607505e+03
1.699011977635189851e+03
2.408642271720804729e+03
2.077407513035430838e+03
3.085626803595968113e+02
-2.208192073994850944e+02
5.121251957653320233e+02
-6.726497369038261240e+02
-2.268210132358385181e+03
-2.944510909299192008e+03
-4.918660840580015247e+03
-4.450751548944358547e+03
-2.824818622762780706e+03
-1.782848126739369945e+03
-1.647739924290496219e+03
-1.256592721025882156e+03
5.581498041511248687e+01
1.350425898991733220e+03
2.191176542067884839e+03
2.912039086387566840e+03
3.808072659065914195e+03
4.279294088721404478e+03
4.393679659708536747e+03
3.677336893041324856e+03
3.042319748500588958e+03
2.418672623937504341e+03
9.342617529426937608e+02
-9.899004272576944459e+02
-2.892822180272400601e+03
-3.563500353855462890e+03
-3.183004693931435213e+03
-3.068431229938159049e+03
-2.657849004858228000e+03
-1.508189985420221547e+03
-5.903683756479633757e+02
-1.803318849231858394e+02
9.779725959095646886e+02
2.135590014690463704e+03
1.780617198200107168e+03
1.867140526394902736e+03
2.739119786642773306e+03
2.325537639053107796e+03
1.785376981442221904e+03
1.744753222289234600e+03
1.062786426589832217e+03
-4.715887238515118156e+02
-1.744400155336551052e+03
-1.247747553475500126e+03
-5.766084356781869928e+02
-1.644974443091373814e+03
-3.199999502385007872e+03
-3.558723104211321697e+03
-3.698135004818078869e+03
-3.106190046214458107e+03
-1.970863482579607989e+03
3.879124288262623281e+02
2.272180396306449893e+03
2.433947391191013139e+03
2.695379787260502781e+03
3.140718690228127798e+03
4.037903455482135996e+03
3.619803808360121366e+03
2.041367712366588648e+03
1.559682656079060962e+03
1.966010869829070089e+03
1.060515637382110526e+03
-3.110006137596738540e+02
-1.908916505766127557e+03
-3.433469401943998037e+03
-3.769800027296861572e+03
-3.573899058997223619e+03
-3.987702019429675147e+03
-6.067342350108118808e+03
-4.649818197621042600e+03
-2.600078268770354498e+03
-1.669795252678453608e+02
2.595692935447710170e+03
2.651857994165435684e+03
2.540490811861585826e+03
2.728664756423477229e+03
3.196123973483519421e+03
3.315963062772771536e+03
3.177488409530165427e+03
3.143765801158523118e+03
2.999579268476607012e+03
2.099837881379586634e+03
1.501412233344061178e+03
-4.856614563922300363e+02
-2.462191644098667894e+03
-3.051945444277624119e+03
-3.840250355598711849e+03
-3.691708905443852018e+03
-2.997515091032567398e+03
-1.760449941080584267e+03
-8.552935984340082314e+02
-1.770980241845553280e+02
1.040106479963525089e+03
1.747327286172560662e+03
2.674538424702533121e+03
3.231614652718686102e+03
3.104584621393659745e+03
2.833488097469280547e+03
2.684555746571118107e+03
2.589137937925892402e+03
2.193130367294782900e+03
1.190468334501594654e+03
8.818527527635528429e+01
-1.820986829758182012e+03
-3.027396794798427436e+03
-3.594753010768712102e+03
-3.025588562489720516e+03
-2.800807526335308921e+03
-2.704883893818962406e+03
-1.724462430403062854e+03
-1.062933047214730095e+03
-3.460941647541049520e+02
1.225617119833528477e+03
2.786602382338121515e+03
2.732163753643637392e+03
2.349667012836869162e+03
2.363040947911274088e+03
2.126892374271124936e+03
2.304440011469558158e+03
3.375855119325761734e+03
3.409816738781338699e+03
2.685970466510700589e+03
1.830061528460545105e+03
3.242938260369605814e+02
-8.283365455173790224e+02
-1.970459224423899286e+03
-2.965658644463949713e+03
-3.521566505476609109e+03
-3.959680068162895168e+03
-3.423164246564970199e+03
-1.069787770502593730e+03
3.272421773414912991e+02
1.681381877003538875e+03
2.701199442259296120e+03
2.940710783121503027e+03
1.086886147467227602e+03
-1.781877764739211898e+02
-1.657526835373465929e+03
3.511500469220532636e+02
1.607092869962416671e+03
1.941245061077224136e+03
1.193935813596628350e+03
-6.358513337305871573e+02
-1.073997585297774549e+03
-2.737807950150787292e+03
-1.941095530036320497e+03
-2.319625978412005225e+03
-4.256247960765593234e+03
-2.140560392116316962e+03
-2.831356253073471635e+03
-1.887474355226549051e+03
1.273744153465752561e+03
2.486201813920821678e+03
1.335468314951960110e+03
8.571026005243219004e+01
2.055031045403469307e+03
1.793878845077464348e+03
1.883551626725152119e+03
2.187689622028122812e+03
3.423833994456023902e+03
1.033255012028482497e+03
2.394456197757112477e+03
-1.601251258995273474e+02
-3.484227502227087825e+03
-2.569042333420637988e+03
-1.885253707151846811e+03
-4.259131560190349774e+03
-2.858631166972590108e+03
-1.316090063180194647e+03
1.467509891297147533e+02
9.051474201574039853e+02
2.315842522036124592e+03
3.954055480865023128e+03
4.199877344586005165e+03
4.116188721815601639e+03
4.438803062018942910e+03
4.445752611662359413e+03
4.194352556212667878e+03
4.461595220629458709e+03
4.467952752982168931e+03
3.925191717738610805e+03
2.948412869261702781e+03
2.423354265088398733e+03
1.339173113178267613e+03
-1.451198092803230111e+02
-1.316207151979861010e+03
-2.082044526736075568e+03
-2.356357747646866301e+03
-2.577656833432663007e+03
-2.182560467500374216e+03
-7.496762884414472410e+02
7.138229613825891420e+02
1.686999130913114413e+03
1.798465325719165548e+03
1.577353358446947368e+03
1.025780974190719689e+03
7.007320035538945149e+02
4.046270626845789025e+02
1.070749098104178302e+03
1.906008773564397416e+03
1.937125405594197900e+03
2.063946756848542918e+03
1.841765678318234450e+03
-1.794044973010880710e+02
-1.566931489632475177e+03
-3.205629186106595625e+03
-4.285539666496451900e+03
-4.266185779979953622e+03
-3.966542283110941298e+03
-3.293782874154440378e+03
-2.305570330650943106e+03
-8.428980954317864871e+02
4.733388492099509222e+02
1.170201050433988030e+03
1.594909956101657372e+03
6.237000644518285526e+02
1.260735866717013209e+02
1.472917355663193177e+02
-2.322023658226911778e+02
-7.423950762048800698e+02
-1.715859774939290901e+03
-2.710001338829921224e+03
-2.734044039720682576e+03
-3.409496598647775045e+03
-4.195129815154936296e+03
-4.706927318201412163e+03
-5.675950584971847093e+03
-6.411568281437524092e+03
-6.430775350855373290e+03
-5.686262787480084626e+03
-5.059725797738725305e+03
-3.879251496506832154e+03
-2.915644332999378548e+03
-2.595094686760508921e+03
-2.793655885302635852e+03
-2.687006316284978311e+03
-2.339352656738125461e+03
-2.640764100110975505e+03
-2.739896655772363374e+03
-3.389043294666406382e+03
-4.358537843799696020e+03
-4.957016965745312518e+03
-5.127103979359691948e+03
-5.540543714059266676e+03
-7.023164428668616893e+03
-9.047422620170606024e+03
-9.699947638792395082e+03
-1.004273693345689753e+04
-1.008240609554883849e+04
-9.509047043803295310e+03
-8.508450835900011953e+03
-7.395396334526942155e+03
-5.822341610688547917e+03
-5.336608889905247452e+03
-6.766739825609467516e+03
-8.982147716635228790e+03
-1.087631942800808974e+04
-1.072643732707816889e+04
-1.107065648446629893e+04
-1.160713832157773686e+04
-1.181806359174682257e+04
-1.102128398674966593e+04
-1.068271394811992650e+04
-1.170007062349859734e+04
-1.322422785258225485e+04
-1.470506952319728407e+04
-1.523745882389614417e+04
-1.449577162544527891e+04
-1.050334211122202942e+04
-8.425997100205948300e+03
-7.149291431990672208e+03
-6.434155802594900706e+03
-5.254352135878287299e+03
-3.730366596628425214e+03
-3.263324270225055443e+03
-3.056089296077262134e+03
-2.965388461244160226e+03
-2.340028613075987778e+03
-2.519518196370134319e+03
-2.722121118382341137e+03
-2.869925296426862587e+03
-1.985576692238598071e+03
-1.385852125607222661e+03
-1.640102761807726210e+03
-2.710255693971349956e+03
-3.579502381632149536e+03
-4.077891098502486784e+03
-4.332413045066487030e+03
-4.221353360208067897e+03
-3.710764776549439830e+03
-2.198560178884443758e+03
-5.059737578612534890e+02
8.765560259605573492e+02
1.823743251143976977e+03
1.903483652997628042e+03
2.138463483847443058e+03
3.281340281747654444e+03
3.871689557254853753e+03
4.073193030884027394e+03
3.793546098474674181e+03
3.730408025150170033e+03
3.979280263287869730e+03
3.972598909008455394e+03
3.349837364353687008e+03
2.652382839839976896e+03
1.971997434661582020e+03
1.067367654815859623e+03
3.621487497224015897e+02
-3.907629257084741425e+02
-1.523641223131235620e+03
-1.162725008658741444e+03
1.501736993969374453e+03
4.035150611819727601e+03
5.808855763562445645e+03
6.098031495005116085e+03
6.107031209733510877e+03
8.909169945961853955e+03
1.503986730741736937e+04
2.081490391343709780e+04
2.263744674959708937e+04
2.192876346186665251e+04
1.979729583175917651e+04
1.868255125709921776e+04
1.901117895660371141e+04
1.762123923869562350e+04
1.550317426119132870e+04
1.364017322236972723e+04
1.291859215233840587e+04
1.411930263186670709e+04
1.504615483642431718e+04
1.638257702914785295e+04
1.780391399707171513e+04
1.631846033624630581e+04
1.570738769068880902e+04
1.860070876903264434e+04
2.227079930136674375e+04
2.270600038705585393e+04
2.166047309944977678e+04
1.919952140668693028e+04
1.738812809857910543e+04
1.966282841867025491e+04
2.630910577179556276e+04
3.095787639569659223e+04
3.016807227174837681e+04
2.590586998220104579e+04
2.331747055626461224e+04
2.349010912359539361e+04
2.410815760513352143e+04
2.413675312157191365e+04
2.389712538201278949e+04
2.309378628702352580e+04
2.025909572386310538e+04
1.652253813703712513e+04
1.275873415626935093e+04
1.134017661913907250e+04
1.332037915927988251e+04
1.357962094445163893e+04
1.323521931488525843e+04
1.422599825625507219e+04
1.256154237923434994e+04
6.068299649783833956e+03
2.477868532641663478e+03
5.791866923269099971e+03
1.278287705381284286e+04
1.586127688474199203e+04
1.041466296801997669e+04
-2.443408054860854008e+03
-1.595734588873081884e+04
-2.532720897476579557e+04
-3.160014944519970231e+04
-3.607538370479558216e+04
-3.602881919871589344e+04
-3.686236110867664684e+04
-4.437511782986763865e+04
-5.125333927338912326e+04
-4.407133341487683356e+04
-2.548505257945694393e+04
-2.107812566853041790e+04
-1.810947424800655426e+04
-9.629216507605759034e+03
1.884688715609989913e+03
9.128679057406538050e+03
1.180703512243507066e+04
7.756715820736046226e+03
-3.382997673787420808e+03
-1.941688830335913735e+04
-2.241984557611279524e+04
-1.415559667958668069e+04
-1.060162756321253619e+04
-1.188453777183694547e+04
-1.346975926236885607e+04
-1.624872625460096060e+04
-2.874659275504178731e+04
-4.678184976541045762e+04
-5.107295655345979321e+04
-3.780444810868678906e+04
-2.156739299127009508e+04
-1.000207066459513408e+04
6.318132223901357065e+03
1.632913295621604084e+04
1.172560706841660613e+04
-4.575639089736223468e+03
-1.975694729005245608e+04
-2.096338641218150224e+04
-1.515398675135665326e+04
-1.852617951796144189e+04
-2.070884875647327863e+04
-1.113311080158030927e+04
9.369199247869920555e+02
1.150117773031217439e+04
1.318070175630153790e+04
3.154901684131632464e+03
-2.008301553550111748e+03
-1.825459976365978582e+04
-4.394191613385053643e+04
-3.981215244604313921e+04
-1.603023028009897098e+04
-6.635694093615931706e+03
-1.283709558188345000e+03
1.075905061257837224e+04
1.093274894734968802e+04
3.258215674512578971e+03
-9.254211290046161594e+03
-2.334703449934329910e+04
-1.571856503331871863e+04
-1.681973142944708161e+04
-4.409934889481298887e+04
-6.819318911195376131e+04
-6.592117933771041862e+04
-6.218410753320307413e+04
-5.880364256842040777e+04
-4.145746109351953783e+04
-1.830425632109384605e+04
1.662304990257445979e+03
-1.317431825499026445e+03
-2.918229709641548470e+04
-5.475212361271777627e+04
-5.687077994120328367e+04
-4.838218832762513921e+04
-3.436528845271686441e+04
-1.546884124468606387e+03
1.728024138538043553e+04
1.406120824506960525e+04
1.347307474645888942e+04
6.124812169222673219e+03
-1.331153417909123527e+04
-2.000702568806182171e+04
-4.096716336819933531e+03
1.824531277201015837e+04
2.753908035627693607e+04
2.638275987899995744e+04
2.537839816887565030e+04
2.389192122586649566e+04
2.747427533691188364e+04
3.512539262365569448e+04
4.220098658366398740e+04
4.444180147571529960e+04
4.341066145624101046e+04
4.794228027863021998e+04
5.775431310797746119e+04
6.080558929099094530e+04
5.091667589016393322e+04
4.130310934163217462e+04
3.231735111746834809e+04
3.125285869185545380e+04
4.172304635880301794e+04
4.605528730545919825e+04
4.783804775712089031e+04
4.403865243913662562e+04
4.102541162258460827e+04
3.887872145947353420e+04
3.282694343537221721e+04
1.871249438215985356e+04
4.336694004901947665e+03
-1.604246109986028387e+03
4.171810610155572249e+03
1.264590875247790609e+04
2.862917902589555160e+04
4.316263286460663221e+04
5.164600952141278685e+04
6.129023134383578144e+04
5.668318711182009429e+04
4.782170683835416276e+04
4.290569318362891499e+04
3.283989571585157682e+04
1.927893446205447981e+04
1.544643818645336432e+04
1.928607871273607088e+04
2.205143167149476358e+04
1.867806382373664383e+04
2.386964336138538783e+04
3.148481655471675913e+04
3.246519034583777466e+04
2.802016966330897412e+04
2.214421061932904558e+04
1.861480136715507979e+04
1.739736986858988894e+04
1.656426554655123255e+04
1.642766898320205655e+04
1.486773260130676863e+04
1.028262859618935545e+04
7.528651212094615403e+03
5.793037345885385548e+03
-4.391637843008222148e+02
-7.427892141129542324e+03
-8.929045927322851639e+03
-1.349959655234539787e+04
-2.165261204185261886e+04
-2.975118081318871191e+04
-3.534833504932147480e+04
-2.590369339821955145e+04
-9.002033281600999544e+03
-4.823157819972873739e+01
2.394747062924925103e+03
-5.828327425434244446e+01
-8.490297368480563819e+03
-1.389039038098419223e+04
-2.381357707149286216e+04
-3.888931951546175696e+04
-4.549883496730928164e+04
-3.877013877768762177e+04
-3.032529842964029376e+04
-2.101345024639576150e+04
-1.852266605324430930e+04
-2.286348436452007809e+04
-2.748534199144506783e+04
-2.922419284618959864e+04
-3.316426361223545973e+04
-3.699284173666669085e+04
-3.604215104261810484e+04
-3.882836356798974884e+04
-4.244250121027645218e+04
-4.560555949142120517e+04
-4.819263210799646185e+04
-4.541486659316958685e+04
-3.283728119608246197e+04
-1.901594774135519765e+04
-1.097400238323625854e+04
-1.046568051256491344e+04
-1.303911510096188249e+04
-1.447632289670135106e+04
-1.742425242276751305e+04
-1.928400223669758270e+04
-1.964567250956312273e+04
-2.255628036685601546e+04
-2.358484148504168479e+04
-2.054334914442730587e+04
-1.860979880136998690e+04
-1.873911605702353336e+04
-1.840716052972525722e+04
-1.693679396188508326e+04
-1.564576656642846865e+04
-1.391383450483548040e+04
-1.383983308690372542e+04
-1.451344056401799207e+04
-1.445530621106729996e+04
-1.161705886882085542e+04
-8.715418939172299361e+03
-8.832164232131764948e+03
-1.093096789297972828e+04
-1.456438419026289739e+04
-1.528900245112435186e+04
-1.232738000664392894e+04
-4.744006984545410887e+03
-1.015346282952955107e+03
-6.414880768512555733e+03
-9.947989405991085732e+03
-9.122170612870582772e+03
-7.348019533554923328e+03
-4.662902990277087156e+03
-5.104048272664142132e+03
-7.019565663296939420e+03
-8.630632714061706793e+03
-8.038652979923509520e+03
-1.619080505772820061e+03
4.246913458060907033e+03
1.128845032784770228e+04
2.300461275394320910e+04
2.868947923614972387e+04
2.829688591925837318e+04
2.485970365812747696e+04
2.163408743875782602e+04
2.124716208574726261e+04
2.443908529865405944e+04
2.505986658070067642e+04
2.209451406939920344e+04
1.916116911623596388e+04
1.752297185146655829e+04
1.739312206404065000e+04
1.747407351784688944e+04
1.472512661727093655e+04
1.363335538608500065e+04
1.454104819369664801e+04
1.509580930132271533e+04
1.637717923180382422e+04
1.492874951347103524e+04
1.590395419586835851e+04
2.059390367368511579e+04
2.344855831223598943e+04
2.238937034197539833e+04
2.112218493366860275e+04
1.954583546525274505e+04
1.803673901683387885e+04
1.745323808591856141e+04
1.440885848121628078e+04
1.020521267360078491e+04
7.192949008697875797e+03
3.998690112204916204e+03
1.419224711395595023e+03
8.432996263701962789e+02
1.194661999464698965e+03
3.077874805596523856e+03
3.136413226668923926e+03
6.151084051567862616e+02
1.405692721458108963e+03
3.114739311264730986e+03
2.711141956957345883e+03
3.157052035091065136e+03
4.769970982267995169e+03
7.852950623752188221e+03
7.861273727106026854e+03
6.869758059203388257e+03
4.840746852531199693e+03
2.076389343075395857e+02
-2.696564727661874713e+03
-4.145318822814790110e+03
-5.990046850058251039e+03
-6.346140794385303707e+03
-4.001277161471362888e+03
-7.447979515913782507e+02
4.365441870854428998e+02
-1.628466677125612478e+03
-2.402227337129805619e+03
5.587172396861960806e+02
3.636887052342935931e+03
4.074940024275420456e+03
2.230921881501075404e+03
3.904014961841536660e+03
7.024848137427658003e+03
6.980140324716720897e+03
7.523916531591691637e+03
7.110342175958314328e+03
4.522593201617436534e+03
2.377364706319088327e+03
7.901916181247723898e+02
-1.371221257364584517e+03
-2.706067284602669133e+03
-4.184841322823013797e+03
-4.139015723722751318e+03
-4.700311736594011563e+03
-6.913552169635239807e+03
-8.111169699302007757e+03
-6.016183037353131112e+03
-3.646757110785296845e+03
-3.423507934165301322e+03
-2.247710447845689487e+03
-9.158015361577378144e+02
-8.274508411747773380e+02
-5.122567394868922293e+02
-2.448473344556149414e+02
-7.079184214280074912e+02
-1.590871749392873880e+03
-3.001916465521727332e+03
-3.966892030279328992e+03
-3.417609925676516468e+03
-5.277340976156348006e+03
-1.019908962961105863e+04
-1.171118474762031838e+04
-1.200854393204395092e+04
-1.138932983398793476e+04
-1.056234316497363398e+04
-9.446346997463737353e+03
-7.465356691099324962e+03
-4.627133525727904271e+03
-1.510853950595851529e+03
2.636869960198027343e+02
6.297722672736148297e+02
4.201181639472391680e+02
2.321368429296446266e+03
5.489963767228027791e+03
6.252153087129798223e+03
5.879192952918197079e+03
5.388609862572382553e+03
4.498552668202083623e+03
2.296076228384949900e+03
5.216120131667391036e+01
-2.543562520722578029e+03
-4.744328404321159724e+03
-5.785670784770623868e+03
-5.682728392858277402e+03
-3.838869721590323934e+03
-1.266648706268820661e+03
1.508031784071893526e+03
3.723364170784450380e+03
4.570554790129339381e+03
4.584490479974406298e+03
4.541186542201859083e+03
4.979384123259327680e+03
5.667248398449248270e+03
6.242171939763270530e+03
5.885780388689527172e+03
5.267587795129917140e+03
3.766421044980798797e+03
2.249870531815029608e+03
-3.933148237262820999e+02
-3.393034841795390548e+03
-4.872858871667865969e+03
-5.463355583014481454e+03
-6.404806121861063730e+03
-6.482406188812663459e+03
-5.418913015428140170e+03
-4.448982112145899009e+03
-3.447000472249271297e+03
-1.985881325944715854e+03
-1.635587461846371582e+02
1.192302851781123081e+03
3.017589713023878630e+03
4.711476466094959505e+03
5.344983192032929765e+03
4.988846429841072677e+03
4.678923816828759300e+03
3.573428810929654446e+03
1.542060730398552550e+03
2.368888285149022579e+02
-1.393218729796761636e+03
-3.805068902198265732e+03
-6.102923091678775563e+03
-7.970028262505488783e+03
-9.460240569568257342e+03
-9.322906438227220860e+03
-7.887842174013841031e+03
-6.333806518028595747e+03
-5.173985390874450786e+03
-3.138962178927577042e+03
-6.997873793502780018e+02
1.141340887900211811e+02
2.819381721836678025e+02
1.902136527903711567e+02
-7.124024429349533705e+01
2.188045452790012178e+02
2.869090274516101431e+02
-5.935424794707478213e+02
-1.759165105257800633e+03
-3.049712757532046908e+03
-4.569981846622245939e+03
-6.850147371734944500e+03
-8.740803064530491611e+03
-9.985732290451505833e+03
-9.553381486273798146e+03
-9.415487202907695973e+03
-9.498720619229716249e+03
-7.996899219719969551e+03
-5.754133982686756099e+03
-3.092515497729848903e+03
-1.105133261256773494e+03
2.319305692444369527e+02
7.057685869838318240e+02
1.132595005226485227e+03
1.424230556504632204e+03
1.491515394262796008e+03
8.387968273872681948e+02
3.081768245213650630e+02
-3.136696285166466396e+02
-2.224463463462594063e+03
-6.110874729319111793e+03
-1.099679635845076700e+04
-1.269928810506602713e+04
-1.376858674447613885e+04
-1.434055487593269208e+04
-1.410685510092182085e+04
-1.351607919494631642e+04
-1.180177841003164758e+04
-9.955318750010681470e+03
-5.932682393090367441e+03
-4.527277225711372012e+03
-4.366380961701370325e+03
-4.028351446487647081e+03
-3.427154442340622609e+03
-2.838108098394949138e+03
-2.744013135102498779e+01
-4.497315381925923816e+02
-5.893971954026436606e+02
1.036724843148247828e+03
1.780540282430712523e+03
5.123298797271079366e+02
-1.325795965329401952e+03
-3.237072043215302983e+03
-4.840075101675679434e+03
-5.037612914057715898e+03
-4.858599067541298609e+03
-4.292931250011066368e+03
-3.026890573694953218e+03
-1.009204979579553310e+03
9.799288689524061056e+02
2.586886845168300169e+03
3.620306915832091818e+03
4.590637990806118978e+03
6.061951611260466962e+03
6.817532355876815018e+03
6.655459889396546714e+03
6.208736436507967483e+03
5.361699435028472180e+03
4.177363941042070110e+03
3.106575855519000470e+03
2.114476787842540489e+03
1.267349691289196699e+03
-3.965547858397866321e+01
-1.358447616255591583e+03
-2.082909511951055265e+03
-2.553980971746465002e+03
-2.383395044238108312e+03
-1.289905982369680714e+03
6.856509525150602258e+02
2.834252606882977943e+03
4.157017229686393875e+03
4.903399858870209755e+03
5.697804903238771658e+03
6.137577318783882220e+03
6.262673405845705929e+03
6.233891562744625844e+03
6.458850655772493155e+03
6.021907428932518997e+03
5.372954073365812292e+03
4.559100672627811946e+03
3.146229594342168184e+03
1.379386863838586123e+03
-1.284358743962462768e+02
-1.219891145081717013e+03
-2.111687909212499108e+03
-2.630640872885858244e+03
-2.339572824260488687e+03
-1.086789543276933273e+03
4.748899553970695138e+02
2.063450475252989236e+03
3.874470027490936900e+03
4.723431800140586347e+03
5.282143407766647215e+03
5.565091416179183398e+03
5.397206591808223493e+03
5.787371415286997944e+03
5.547359850727812045e+03
5.431471748032292453e+03
4.766168761261661530e+03
3.768632548356899406e+03
2.519928389669355056e+03
4.351075851628995679e+02
-1.341722445337600902e+03
-2.744225483355606229e+03
-3.352346123758294652e+03
-3.610174449101710707e+03
-3.390590703431113525e+03
-2.466492163642275955e+03
-9.765240756758671523e+02
8.612942408783075052e+02
2.253794803467920701e+03
3.064164020716069899e+03
3.544769050683639762e+03
4.078754594203625402e+03
3.955299335980805608e+03
3.584399785619797967e+03
3.206050471216249207e+03
2.672521288960286711e+03
2.506951711849555977e+03
1.788395189765028135e+03
5.550407983319422556e+02
-1.263120816212553791e+03
-3.102215515150239298e+03
-4.728285234211220086e+03
-5.407421736134186176e+03
-5.338529598794006233e+03
-4.919411379482498887e+03
-4.134207377770815583e+03
-2.981969388538704607e+03
-1.205555284044081191e+03
3.840099045096389432e+02
1.179612573424727998e+03
2.222152767124341608e+03
2.685816195065941429e+03
2.958601664703835922e+03
2.721589901017925968e+03
2.604996389818132684e+03
2.103678145294877595e+03
1.593479605965279916e+03
9.074405183456635768e+02
-1.464535462587595305e+01
-1.868104125699851011e+03
-3.935140810731350030e+03
-5.491635785657957967e+03
-6.023419647744442045e+03
-6.526614906227518077e+03
-6.280632424378865835e+03
-5.445613768549083943e+03
-4.166398149054453825e+03
-1.738790767353583306e+03
2.888082507369513223e+02
1.559186384787155248e+03
2.324509487306584106e+03
2.206624856303135857e+03
2.072570021310292759e+03
2.170384165445341296e+03
2.098844573549953111e+03
1.892841258460031668e+03
1.599289237686226443e+03
1.383216980087039701e+03
5.794326761864972468e+02
-1.091472776840556435e+03
-2.584564559892047328e+03
-3.881515823591962089e+03
-4.172467362628991395e+03
-4.029739373546069601e+03
-4.130544067009436731e+03
-3.306818027625261038e+03
-1.716685352586740692e+03
-3.352980576994242483e+02
1.470322377395933245e+03
2.105099197654306863e+03
2.869869171596496926e+03
3.621571752476421807e+03
3.268100202669907958e+03
3.127515288403108570e+03
3.263497761967935276e+03
3.451577699212443804e+03
3.346159162524490512e+03
2.944463650820226576e+03
2.085757146032734909e+03
5.176653239080419553e+02
-8.196403798502477684e+02
-2.169230861168169213e+03
-2.999287342192390952e+03
-3.345049376103254417e+03
-3.092726192882717442e+03
-1.981438406371979227e+03
-4.741959844871565792e+02
7.680227177367048625e+02
2.431202158930691894e+03
3.449275835207413820e+03
3.872777018620418403e+03
4.206667806739345906e+03
5.138911144301529021e+03
5.704395028658743286e+03
5.474979890585475005e+03
5.044645858003340436e+03
4.545392495056710686e+03
4.199231853019836308e+03
3.470117010488107098e+03
1.735891623697158366e+03
9.440341296906592561e+01
-1.301479505404802921e+03
-2.103023803656101791e+03
-2.159487134525155852e+03
-2.059830656691530294e+03
-1.114040485594395477e+03
-4.930542375894146971e+02
-2.028397796297199420e+02
-1.610468616527190761e+03
-1.891966339648601434e+03
-1.353353078764873544e+03
2.065383830828000100e+03
5.023294838289423751e+03
3.150362617219012918e+03
-6.565168827709456991e+02
-1.261204513255148868e+03
-1.559669157359163592e+03
-2.096048665217832422e+03
-2.845409072618614118e+03
-3.368744291818994498e+03
-4.816080178918922684e+03
-5.756534114017412321e+03
-6.945197826887758310e+03
-7.240074564337239281e+03
-6.150202970762717996e+03
-3.562598019339814073e+03
-4.402199128477332124e+03
-4.819011206197627871e+03
-2.330979356020322939e+03
-1.739009273334750787e+03
-1.234978536090477064e+03
-6.589193932339331923e+02
-5.188433312909877486e+02
-2.995731422543925646e+02
-2.450745287410690310e+02
-3.973499418210099634e+02
-9.912870619498442011e+02
-1.649804367539179566e+03
-2.612859012555438767e+03
-3.054474347733250397e+03
-2.023674931970101397e+03
-1.728544388286323056e+03
-1.894041517939398318e+03
-2.038102523790586702e+03
-2.138853327268444900e+03
-2.226267166718223962e+03
-9.331713707783803784e+02
1.444581385655924123e+03
3.277153865953036075e+03
4.566595226454126532e+03
4.629930500766604382e+03
4.583206651484679242e+03
4.969539883861983981e+03
5.226981965335771747e+03
4.903622171670991520e+03
3.832582673128700208e+03
3.337031620420146737e+03
3.169998115000516464e+03
2.877531273632322609e+03
1.696555576899101879e+03
-2.508753951378691340e+02
-1.902711100807552384e+03
-3.105010819176291989e+03
-2.834800145783561220e+03
-2.531042779122279171e+03
-1.646673650488201019e+03
-6.256220652994319664e+01
1.635430393845183062e+03
3.004397485440860692e+03
3.660471235114026967e+03
3.942772576478483643e+03
3.557425980655823878e+03
3.837436085372686193e+03
4.374780501741777698e+03
4.342556333109769184e+03
3.886021897668452311e+03
3.582658315536801638e+03
3.093384811735304083e+03
2.430219444736080732e+03
1.276105632963182416e+03
-2.019645566062195314e+02
