2.331473433943332111e+03
2.575393153846564019e+03
3.031037340601572396e+03
3.219373064391528260e+03
3.466351607830986268e+03
3.380979016377629250e+03
3.231350659090767294e+03
3.151456618892470033e+03
2.886271998156637437e+03
2.281791499676282911e+03
1.052964268471735068e+03
-6.772646097445935993e+02
-2.063889489456964839e+03
-2.556954373240727364e+03
-2.761520035403868405e+03
-2.734609895780257375e+03
-2.025216364414993677e+03
-4.452551475668567491e+02
1.040378594807875288e+03
2.191722502289457680e+03
2.572763067987949853e+03
3.021560450326810951e+03
3.712201854603519678e+03
4.091695617763801238e+03
3.867964245844741981e+03
3.183018904971456323e+03
3.710910430343693861e+03
4.041690355471589100e+03
2.938374453445368545e+03
1.861947081443040133e+03
5.063874231550933018e+02
-8.013606203029501103e+02
-1.594278803848904090e+03
-2.750439206178464246e+03
-3.060973247123676174e+03
-2.387819519587266768e+03
-1.647892375271659603e+03
-8.311783401074408175e+02
2.413748247345281754e+02
1.564870645475250967e+03
2.283324347644972477e+03
2.468860802327774763e+03
2.838494335923845028e+03
3.679245719467767231e+03
3.831105122040236893e+03
3.614998171921380617e+03
3.361009246579109004e+03
2.975218111039332598e+03
2.750594056479100345e+03
2.023124972113447711e+03
3.327593962396298366e+02
-1.163502916851426562e+03
-2.420597641249660228e+03
-2.773583120182792300e+03
-2.705616146813268642e+03
-2.669753194291456566e+03
-2.257926058407865639e+03
-1.036043905538331956e+03
2.990019034348502487e+02
1.089321748015208186e+03
1.873928278262962294e+03
1.919872673218533009e+03
-1.204829933545188624e+03
-1.451431883326974912e+02
-5.120929668479448083e+02
-9.727293697827157075e+02
2.213955832425400331e+03
2.599030937478126816e+03
1.474591679982165488e+03
-1.848363006636876662e+03
-2.842950459579579729e+03
-1.991185580571473565e+03
-3.691089162061510706e+03
-5.965653697189116428e+03
-7.566989479365119223e+03
-8.454216412507861605e+03
-5.772263600033772491e+03
-1.588016198462250713e+03
-2.060431944868988467e+03
-8.054517179570166263e+02
-1.130563867216690142e+02
1.364811332150844464e+03
4.772507509132636301e+02
3.304214351234581045e+03
9.877044949705941690e+02
-2.013420428752990290e+02
2.864087249934018018e+03
1.535016032489376585e+03
4.134529821473564652e+02
-7.125753533567112754e+02
-2.303098133259120459e+03
-3.608155030900878046e+03
-3.881798994003811913e+03
-4.705133974200198281e+03
-3.469307103356600237e+03
-4.890310270936850429e+03
-4.100105099170123140e+03
-2.801656919912303692e+03
9.414692471803064677e+01
-3.715920338696366230e+02
1.486122615062010254e+03
2.824276591624998673e+03
2.923861680874905687e+03
3.297872082750303434e+03
3.550320010442066632e+03
3.614126748744033648e+03
3.821369263210287045e+03
3.893087041736881929e+03
3.041202666395196502e+03
2.074699701333560370e+03
7.625425209354930303e+02
-5.084145475730906014e+02
-1.998220397208317308e+03
-2.965870660360474176e+03
-3.177432343006502833e+03
-2.776998217627055965e+03
-2.177556200676776825e+03
-9.210692435810218512e+02
3.584874468105994083e+02
1.436212859225026250e+03
2.321107197411778543e+03
2.712112828877736320e+03
3.338276799385661434e+03
3.516637175159678918e+03
3.399135208785199211e+03
2.635660240904414422e+03
2.622138236034426882e+03
2.745069742194944865e+03
2.513483763636463664e+03
1.679957630170027642e+03
6.214768657833958514e+02
-3.730624406918964269e+02
-1.466576973094624236e+03
-2.160113252148548781e+03
-2.254813049648082597e+03
-2.446769333748845384e+03
-2.075279312753514660e+03
-1.324850107497790759e+03
2.385643497174645802e+02
1.823778218373822256e+03
2.940250131353924644e+03
3.238777273820687697e+03
3.524470192267770017e+03
3.688805745193969415e+03
3.880941829333356509e+03
3.424110832518828374e+03
3.152873594710211819e+03
2.858714471593985763e+03
2.625047327086455880e+03
2.327005282119744606e+03
1.140687516115127892e+03
-4.369312808944321773e+02
-1.525940575508375787e+03
-2.387422449822489398e+03
-2.521631840425217433e+03
-2.535610637561292606e+03
-2.505367460629213838e+03
-1.719887131563662933e+03
-3.730500197341140165e+02
1.186205233004665843e+03
2.173897177005008416e+03
2.661018908673378064e+03
3.004563409875518118e+03
3.035538203218234685e+03
3.564946183565411047e+03
3.823753932321161756e+03
3.700911195737226535e+03
3.436482265397654828e+03
2.848453103153378834e+03
2.014836742854873819e+03
1.106616627133062593e+03
-3.363013535330566697e+02
-1.562989716100695659e+03
-2.317517665627089173e+03
-2.408925713822566195e+03
-2.265263761702211468e+03
-2.471583888485061379e+03
-2.110799453967805221e+03
-1.532802860824498794e+03
-2.504547258128175145e+03
-3.930070420456958800e+03
-3.513278115886967498e+03
-3.244073679170893683e+03
-2.582505233130636043e+03
-2.218597196139952302e+03
-2.613363657651695121e+03
-2.740790621962964451e+03
-2.803811260129215043e+03
-3.110422590573347861e+03
-3.605634970765303478e+03
-4.287525177996857565e+03
-2.200905682314827118e+03
-2.120837321462852287e+03
-7.513536829761528679e+03
-8.068035103842068565e+03
-4.744363341325275542e+03
-5.263542935836498145e+03
-6.749463040227476995e+03
-5.743057907783412702e+03
-3.563259546975158628e+03
-2.365980285170959178e+03
-1.809178028946036420e+03
1.571140624754972578e+03
2.327026008195373834e+03
2.324507683245121370e+03
3.931555250253836221e+03
4.125138560908720137e+03
3.844372665815137225e+03
3.637258860456937327e+03
3.141806256145788666e+03
2.252015998329257400e+03
7.858937396769370025e+02
-1.037618026690472789e+03
-1.876556440592085210e+03
-2.150954004044689555e+03
-2.264829685283527851e+03
-1.906144891538514230e+03
-9.737879823771773999e+02
1.262498247123982935e+02
1.684061908087682014e+03
3.041727870046923272e+03
3.445274285268963467e+03
3.011737939363153146e+03
3.434225629696430588e+03
3.850815845264551172e+03
3.833428493409816383e+03
2.885056374652577688e+03
1.894766948318015693e+03
2.009590299336050066e+03
1.520519617456551714e+03
1.248559501147717356e+03
8.887198851046733807e+02
-5.890437176792875107e+02
-1.933752136770577863e+03
-2.421421540105413897e+03
-2.603103424303938482e+03
-2.326765480034554912e+03
-1.339349051460893861e+03
-4.407567305725429492e+02
1.236125111967229714e+03
2.606422470757230258e+03
2.829073432692221104e+03
3.213075705061410645e+03
3.114609086807705808e+03
3.125832571992915746e+03
3.226767258314374430e+03
3.415414956696173704e+03
2.584875723322159502e+03
2.213191816917900724e+03
1.997347739755867224e+03
1.249318757594372073e+03
-2.509370842088870290e+02
-2.052612347697078803e+03
-3.551701450117060176e+03
-3.972250119444012398e+03
-3.512398644145539038e+03
-2.761839057972948467e+03
-1.625717705018848164e+03
-3.939259024603751413e+02
8.075681284036403440e+02
1.561753809752701954e+03
2.029667813435668904e+03
2.836511081440135968e+03
2.964414110092573537e+03
3.015415604467623325e+03
3.253482176253945454e+03
2.683759886266982903e+03
2.187498115518686973e+03
2.125801057168094303e+03
1.799672467886330423e+03
9.300716518654627407e+02
-8.198571528775586614e+01
-1.792781232262063668e+03
-2.980498119600144037e+03
-3.337056669517778573e+03
-3.082365497054878233e+03
-2.992000531100834451e+03
-2.367724284920253467e+03
-1.180489846070709518e+03
1.535963424602900318e+02
1.139345937436341728e+03
1.539750912792582540e+03
1.793157206566320610e+03
2.040960416100942211e+03
2.399507260882218361e+03
2.489589094421181471e+03
2.465661785491990486e+03
1.914389389703572760e+03
1.709375472737949167e+03
1.568939204828628135e+03
3.987212098022527584e+02
-6.588073213314968370e+02
-1.292080072795272372e+03
-2.707589904584943724e+03
-3.551443343980351074e+03
-3.676237274037760926e+03
-3.505669733765746514e+03
-2.620675679735108588e+03
-1.332205725953625006e+03
4.225130138026394775e+02
1.672497252245712843e+03
1.989502795202160996e+03
2.272770835088085732e+03
2.665109986883425790e+03
2.473882630860763129e+03
2.437069139595771958e+03
1.931776329088536841e+03
1.580227957398519948e+03
2.024701690794166325e+03
2.595772803696493611e+03
1.889753722893626218e+03
3.206126926568102817e+02
-1.025113082848767590e+03
-2.346205301026392590e+03
-3.124884723888505960e+03
-2.753152789643143478e+03
-2.305724268203780866e+03
-1.674168727071078138e+03
-4.907932543105320633e+02
1.456435714205282011e+03
2.595709674274425197e+03
3.216120484641860003e+03
3.495410430515771623e+03
3.089306050029116250e+03
3.351277305276455536e+03
3.961469526968426635e+03
3.751940763495865667e+03
3.425342758354465786e+03
3.249418701579888420e+03
3.508242456605191819e+03
3.419472726589022841e+03
2.109819156458796442e+03
4.444866481943813028e+02
-5.076975320011514441e+02
-1.156237575647277708e+03
-1.277288181212742984e+03
-1.027384370952173185e+03
-8.649167000348602414e+02
5.229817105341124943e+02
1.999987377466389034e+03
3.635716379760688142e+03
4.136997523607668882e+03
4.187243417669069458e+03
4.235692929487008769e+03
4.524864232981491114e+03
4.642867127436785267e+03
4.976252392695495473e+03
5.139441174350792608e+03
5.306642497948270830e+03
4.709196341402588587e+03
3.270416304666333417e+03
1.673234441319162443e+03
3.669849917005115003e+02
-1.121537116174562470e+03
-1.886541468437581898e+03
-1.545312211887051490e+03
-8.233186311167637541e+02
2.584930649281529895e+02
9.916856118640556588e+02
1.790036968102555193e+03
2.815853778986826910e+03
2.987677003065572535e+03
4.083141117490768920e+03
5.189880708509554097e+03
5.021646456907462380e+03
4.623240079416718800e+03
4.728355324093388845e+03
4.070870205500318662e+03
3.077454949921453135e+03
2.895947865368368184e+03
2.205408082717266097e+03
8.807154979278788005e+02
-3.902051224496195800e+02
-1.664845584800490542e+03
-2.675649792354385227e+03
-2.563370205031160367e+03
-2.318576048870774684e+03
-2.087508085489322639e+03
-1.498566039222038853e+03
5.637369507616372744e+01
9.995032084572397935e+02
6.246793913706931107e+02
-1.957406669359126681e+03
-1.843778757521571151e+03
-5.295481687317525257e+02
-5.858385023797740132e+02
-5.361810199087478850e+02
-2.361631246258797091e+03
-1.478128681688472170e+03
-1.850291517887063492e+03
-1.849471570103402428e+03
-3.172138191441523304e+03
-6.584842177180602448e+03
-5.675601334982479784e+03
-6.241605500759859751e+03
-7.096079913261082766e+03
-1.101488476741516934e+04
-8.632780725799275388e+03
-6.177215370051129867e+03
-7.737239908557614399e+03
-5.104697223191911689e+03
-2.923992540954510787e+03
-3.880303958553776283e+03
-2.069891316164761520e+03
-4.166322415408829329e+03
-3.980516611498223483e+03
-5.723988905319110017e+03
-4.819951554204845706e+03
-5.444892342475448459e+03
-3.545523065015276643e+03
-4.117591101377859559e+03
-5.315194671601706432e+03
-6.921388142368386070e+03
-8.559896234277315671e+03
-9.332475314307810550e+03
-9.403859245369822020e+03
-9.494827099444661144e+03
-9.070410412093187915e+03
-8.115945533997728489e+03
-7.105892490710783022e+03
-5.703667367939234282e+03
-4.766188594582879887e+03
-4.844659763659125019e+03
-4.678500663683093990e+03
-4.599270557211966661e+03
-4.499810789090051912e+03
-4.440164457841761759e+03
-4.217960229573746801e+03
-4.550343984320224081e+03
-5.113356282627471046e+03
-5.870944690250154963e+03
-6.831910973870376438e+03
-8.234281968232111467e+03
-9.474465918065328879e+03
-9.770267905772290760e+03
-9.829521511602491955e+03
-1.030351374368565303e+04
-9.810052347859615111e+03
-8.391316028789284246e+03
-6.883086390324304375e+03
-5.636735682821541559e+03
-4.796709535158403014e+03
-4.328384532081652651e+03
-4.120175996871962525e+03
-4.249772100181157839e+03
-4.379291336395027429e+03
-5.252304634556739984e+03
-4.587395533443348540e+03
-2.582132257218132054e+03
-2.461661174613765070e+03
-2.730873377188184804e+03
-3.497739804830909179e+03
-4.842385072304538880e+03
-5.804762906672851386e+03
-6.101520636863324398e+03
-5.819261340655442837e+03
-5.423648146635290686e+03
-4.878864041041446399e+03
-3.650227155213230162e+03
-1.809647652864311794e+03
1.348946926175551653e+02
1.590944612292582178e+03
2.241353334285992332e+03
2.896497690540483745e+03
3.061578626164756770e+03
3.380250173559260020e+03
4.005003214420315999e+03
4.598533826209419203e+03
4.638678419796938215e+03
4.260093804355214161e+03
4.077356582473861181e+03
3.532182663414872422e+03
3.128295552458411748e+03
2.777116121415891030e+03
2.419069319921668011e+03
2.371792270468709830e+03
3.130143883510965225e+03
4.294756353072336424e+03
5.540321938454824704e+03
7.537465283141410509e+03
1.015262827105387078e+04
1.186253665911347707e+04
1.292386555208895697e+04
1.375521450511907096e+04
1.439200131196913208e+04
1.504143899690405669e+04
1.578197461006932645e+04
1.622496213906357661e+04
1.626783598551145769e+04
1.669018052327989790e+04
1.676052267183773074e+04
1.628608916614986629e+04
1.567516314954152404e+04
1.476110015930327609e+04
1.433425393942033770e+04
1.460294773851058926e+04
1.556352479054907599e+04
1.659350225672001761e+04
1.757149160666740136e+04
1.802692120559396790e+04
1.822620476179528123e+04
1.760975799112361346e+04
1.825696785537012693e+04
1.901518437634083239e+04
1.953579848954319823e+04
2.017214791413129205e+04
2.034053537447427152e+04
2.017531307027749426e+04
2.076891231797787623e+04
2.335773207063739392e+04
2.217801275621661262e+04
1.955522263713181019e+04
2.105187547552763135e+04
1.944422836944698065e+04
1.824645892056600132e+04
1.706196731426223778e+04
1.470428406545813414e+04
1.185303909071762791e+04
1.029290218789165010e+04
9.625494018586954553e+03
8.930208053028436552e+03
6.831405264593573520e+03
5.312609088351116952e+03
5.624453229851355900e+03
6.178495542195605594e+03
6.553139851959447697e+03
6.898836164630587518e+03
7.562205411211290993e+03
4.277899547131480176e+03
-2.037451892450598507e+03
-7.980213980109121621e+03
-1.428682234214105301e+04
-1.650171801490853977e+04
-1.680615107427061957e+04
-1.655244941232187557e+04
-1.755902475483078160e+04
-2.204619846436246371e+04
-2.887306044492085493e+04
-3.350762583589668066e+04
-3.248298472928838601e+04
-2.621124996093546360e+04
-2.290658820403349455e+04
-2.689613188626458577e+04
-2.283595004754265028e+04
-8.725137292631417949e+03
2.471179858987148350e+02
6.427750450545229796e+03
8.026944505485362242e+03
5.558641870206409294e+03
-3.975165523456337723e+03
-1.700447934908200841e+04
-2.684335224968966941e+04
-3.398855016680391418e+04
-4.219292554301173368e+04
-5.212236460653627000e+04
-5.281793901633693167e+04
-3.735858473864616826e+04
-2.071498177706253409e+04
-9.759761174526307514e+03
2.657668742142249357e+03
1.037968867585953740e+04
6.755517973952194552e+03
-1.060876874547310763e+04
-3.018280588987569718e+04
-3.588816459338557615e+04
-3.378644444310961990e+04
-2.437726373985470127e+04
-1.076340655094355679e+04
1.635433164042596673e+03
8.379694212133732435e+03
1.992910945895235500e+03
-1.897647665841815251e+04
-4.086608926864297973e+04
-4.658045239037758438e+04
-4.310709131984049600e+04
-4.076353165965317021e+04
-4.368118718521679693e+04
-4.614939734544691601e+04
-3.705846218843025417e+04
-2.299264838145012618e+04
-1.343021576121041289e+04
-1.363854555663473366e+04
-1.439191495157467034e+04
-1.661761438346935756e+04
-1.932801989489138214e+04
-2.296352740159162931e+04
-1.733559754795439221e+04
-1.218051471067261446e+04
-1.481949013565868154e+04
-1.446875109443179463e+04
-1.928645145373202922e+03
9.342477677302369557e+03
5.458306396679454338e+03
-3.751461504510651139e+03
2.268966157413625240e+02
1.471002112619979016e+04
1.962759851265791440e+04
1.960643994284296059e+04
2.839042928569744618e+04
5.054531957426643930e+04
6.956499795335019007e+04
5.350940377496524889e+04
2.748527440301414754e+04
1.532120387461306018e+04
3.927980713174303219e+03
-3.614780874129766289e+03
-8.408381453314757891e+03
2.694907606647539524e+03
3.499578842567648098e+04
6.301498436657604907e+04
5.427525382544614695e+04
4.236221633612990991e+04
3.218044236358892886e+04
8.535535753566075073e+03
-1.361288983231848215e+04
-1.717320963963056784e+04
-2.005836919873642955e+03
1.098291709935648942e+04
7.543851751403619346e+03
-2.263507721862430571e+03
1.050438143524890438e+04
3.757232365283583204e+04
5.290199510235938942e+04
5.531386341351878218e+04
5.291644234929425875e+04
4.625918067179042555e+04
3.803443920258415164e+04
2.536568257854926924e+04
7.360331548012780331e+03
5.248805687197897896e+03
-4.590493950692542967e+03
-2.994898896747008985e+04
-2.895333994287735914e+04
-3.699277708851231182e+03
2.080353465022255477e+04
3.812645123336688994e+04
4.628082014895856264e+04
3.748168333663294470e+04
1.817524997555986556e+04
5.562029963541801408e+03
-4.225923055119304195e+02
1.286514938916540132e+03
6.451639692397938234e+03
8.585928009897786978e+03
8.704630471632897752e+03
1.066262985234634834e+04
1.951015973327344545e+04
2.111403333546498470e+04
2.607716127311601304e+04
2.926296146399066492e+04
2.742412363256930985e+04
1.905873224908960037e+04
6.625768272286063620e+03
4.360504110377268262e+03
4.455354201762531375e+03
-6.109388292749671336e+02
-9.587228852086045663e+03
-1.716004336908083496e+04
-2.053137852649737761e+04
-1.881807965844047067e+04
-1.528548381254061860e+04
-1.450226100842705637e+04
-1.147800724341660498e+04
-2.131895530146806777e+03
1.181791258154539537e+04
1.474690167214202847e+04
2.586439314937572362e+03
-4.175712559673367650e+03
-3.869792598105060279e+03
-4.343160684935201971e+03
-5.354231328167263200e+03
-6.752391440534427602e+03
-9.609085474041874477e+03
-1.908077147723031885e+04
-2.699794354791556907e+04
-3.443003202379096911e+04
-4.084740830764108250e+04
-3.757562125953655777e+04
-2.664010787964662813e+04
-8.963127492589970643e+03
1.034908754365517780e+03
-3.280472567009199338e+03
-1.436272926011291929e+04
-2.796030907169905186e+04
-3.829073274386768753e+04
-4.192555552390024241e+04
-3.492440873142271448e+04
-1.127283830438653604e+04
1.592065440026454598e+04
1.207358404900336791e+04
-7.285543275047618408e+03
-1.792330707560934025e+04
-2.607736218173869565e+04
-3.764724111347954749e+04
-4.138156262677957420e+04
-3.087096724157872814e+04
-2.443204113838295234e+04
-2.492621328861374423e+04
-1.909491866423447209e+04
-1.905461826003307942e+04
-1.574672280076722200e+04
1.473078779930135909e+02
1.126596290692615912e+04
1.622878725692144690e+04
1.745308791871693393e+04
1.488719113414639651e+04
6.229632248370592606e+03
4.259294508710439686e+02
-3.519378078246104906e+03
-1.121972937502107561e+04
-1.651162799112739594e+04
-1.356952433911628941e+04
-1.631093114054340913e+04
-2.159234999410645105e+04
-1.700923420408521633e+04
-3.726083424962686877e+03
1.396456001641268267e+04
1.753029443325398461e+04
1.033984541022780832e+04
8.465959564709510232e+03
1.193727843877800842e+04
1.510853507880443067e+04
1.528147039302960548e+04
1.459968613144527080e+04
1.476085350352269415e+04
1.370967160256754505e+04
1.176182349762961348e+04
1.067893623641197883e+04
1.069772557216718269e+04
8.337914123082706283e+03
3.401275645405790783e+03
-1.943431758694339351e+03
-3.946459747011392210e+03
-5.499092040161294790e+03
-6.443538197752330234e+03
-7.554021638678024829e+03
-9.456809866144090847e+03
-8.880114817293339001e+03
-6.199965563983747415e+03
-2.482324641715642429e+03
9.717368999947002521e+02
2.721153021676544540e+03
3.988903533154419620e+03
4.289914049983218320e+03
4.329150380647192833e+03
5.010556448201572493e+03
7.104944357527358079e+03
7.712344711549111707e+03
6.868747415253200415e+03
5.584149028701816860e+03
4.237611246756681794e+03
1.585126698369842416e+03
-1.335326971045325763e+03
-3.184781707606538475e+03
-3.407171890100621567e+03
-2.830506869713623928e+03
-2.188742851850947318e+03
-7.807294696572881776e+02
1.229953780299764503e+03
3.519496133484773509e+03
5.369044573505928383e+03
7.473813910573786416e+03
9.125963720005964205e+03
1.004469383478748568e+04
1.069217148561734029e+04
1.081945305937769081e+04
8.554467644480311719e+03
7.565715302591764157e+03
8.892291145621955366e+03
8.835033155515646285e+03
5.885265417759753291e+03
2.046197010169394844e+03
-1.328877193342404553e+03
-3.355637803059619728e+03
-3.129853996412310607e+03
-1.254196409997984034e+02
1.758869245944009890e+03
2.114220518564320173e+03
3.022057091127550848e+03
4.855666319769870825e+03
7.490170425062111462e+03
9.189774150759374606e+03
9.366735431185095877e+03
9.421352114383753360e+03
9.902757872047965066e+03
9.605423604890991555e+03
9.511806589886749862e+03
8.947155731130973436e+03
7.384835045148574864e+03
6.238772646196318419e+03
5.050992454421326329e+03
2.463664191084560116e+03
-1.303952150736433850e+03
-4.117393286715267095e+03
-5.324188434214111112e+03
-5.472231951501709773e+03
-4.749769711659718268e+03
-3.850078774779835840e+03
-2.983776433785672452e+03
-1.413064462754275610e+03
-1.884279166791937143e+02
-1.416890886968308507e+02
-3.933818359087553631e+02
9.326948441192414521e+02
1.582917361059788391e+03
2.219688340389443511e+03
1.166728466567376927e+03
-1.650346203323116924e+03
-2.498437849918053416e+03
-2.733504878137368905e+03
-2.368266236397465946e+03
-4.495327232269974047e+03
-8.017232449656430617e+03
-1.106131668823808468e+04
-1.382996469827959299e+04
-1.239097780100449381e+04
-8.723641595930737822e+03
-5.699645505039458840e+03
-5.161051552653409090e+03
-4.614491430809194753e+03
-2.744293660101096521e+03
1.032814023228226006e+03
6.121323221559689955e+03
8.412613049867819427e+03
8.278128064369146159e+03
7.833685011408684659e+03
7.945453977024285450e+03
7.812461032609570793e+03
7.166083057741643643e+03
5.947752513957210795e+03
3.886359604662405673e+03
9.923088097288268727e+02
-1.149160519085633496e+03
-3.279843014720187966e+03
-4.922803562965304081e+03
-5.585917601270402884e+03
-5.625903736160127664e+03
-5.278861356695375434e+03
-3.269252457372145727e+03
-8.587167909139153608e+02
1.337017451387989013e+03
3.144844849579805668e+03
3.780851320130157546e+03
4.488153360816059831e+03
5.016819929756507008e+03
5.740283623264128437e+03
6.142268355821233854e+03
5.694504491308463002e+03
5.028897336472123243e+03
4.095176268345752305e+03
2.637981342513479831e+03
9.052223853204205852e+02
-1.671018907280648136e+03
-3.431383566656672883e+03
-4.723598681180141284e+03
-6.814311608902994521e+03
-7.513033425794467803e+03
-5.283126541647873637e+03
-2.631962066093949488e+03
-1.033953128667763622e+03
1.705032656168326184e+03
3.611051818763083247e+03
4.785115540920485728e+03
5.206160781491030320e+03
4.996973039153722311e+03
4.935190604959252596e+03
5.188528772012752597e+03
5.070648270205242625e+03
4.606697822076129341e+03
3.719975870447271973e+03
2.663677854904373817e+03
8.850269143063793535e+02
-1.815208263936385038e+03
-3.819689534282118530e+03
-4.447548825908643266e+03
-5.087659913049941679e+03
-6.194540967352790176e+03
-5.504958591349179187e+03
-3.167337086937048753e+03
-6.261901320534700517e+02
1.631333423923699002e+03
3.151616371103344136e+03
4.076082944868955565e+03
4.557060239773377361e+03
3.765135168559547310e+03
2.275010050610441340e+03
-1.884539638351271265e+02
-6.686652732475656649e+02
-6.110363619560366715e+02
-1.558370688077661953e+03
-2.681827255123759642e+03
-3.011966930894334837e+03
-1.196704087583611681e+03
-2.581533152590320242e+03
-6.479059870061926631e+03
-1.047421658949375887e+04
-1.043419666670879087e+04
-9.692338952754227648e+03
-8.395217385516445574e+03
-6.644100882556895158e+03
-4.970778265723336517e+03
-3.101099788257638465e+03
2.078909178751868012e+02
1.242623422451722263e+03
-1.023406322349822290e+03
-1.169554514829058007e+03
-1.287855223944324507e+03
-1.456939460283957260e+03
-1.819137404520258542e+03
-1.509881756467274727e+03
-1.435824359390856443e+03
-2.725020407971900568e+03
-4.857024824509225255e+03
-8.315363666332616049e+03
-1.016686205482281002e+04
-1.107987366946942893e+04
-1.104282189441101764e+04
-7.474829501646988319e+03
-5.842646467834786563e+03
-4.987385362176889430e+03
6.834630569318754851e+02
3.030293153848452675e+03
4.391864700578751581e+03
4.800569168688453829e+03
5.843240028853044350e+03
6.240463056279777447e+03
5.577302266616216912e+03
5.312743396909590956e+03
4.962800613331024579e+03
3.757589914607930041e+03
1.763839426900441140e+03
1.367034855273915106e+01
-8.618337346334462836e+02
-2.635599836534969654e+03
-4.803241803289696691e+03
-5.599486596949102932e+03
-5.402199763957710275e+03
-5.068007018673615676e+03
-4.092817164047472488e+03
-2.091812179234091218e+03
5.276169574084965461e+02
2.659461414198686271e+03
3.373321956038499593e+03
3.554489143717827119e+03
3.692523001704394119e+03
3.695539944158502294e+03
4.104583331767683376e+03
4.891157940785224127e+03
4.445979546024855154e+03
3.439099950590040407e+03
2.096053275395781839e+03
2.094404384027721164e+02
-2.432889907501726611e+03
-4.215785230842426245e+03
-5.288812976352044643e+03
-5.955392837203233285e+03
-5.366978705065605027e+03
-4.100821330554328597e+03
-2.421162399224951514e+03
-3.959757540959770949e+02
1.248148542137563481e+03
2.817777178753647604e+03
3.498296761730291564e+03
4.045168231893617303e+03
4.369523776080143762e+03
4.366271263285744681e+03
3.946800527452427559e+03
4.138049820596349491e+03
4.163450077918175339e+03
3.568519057144146700e+03
2.811504856197833760e+03
1.737684304159108933e+03
-4.417975740083368805e+02
-2.645907362029099204e+03
-3.928441003804851789e+03
-4.445569314171988481e+03
-4.891663472664110486e+03
-4.714064190594772299e+03
-3.090868925498184126e+03
-1.567838505646536078e+03
3.343762143731862579e+02
2.279878502145006678e+03
3.878803570483819385e+03
4.694047618568829421e+03
4.949593797944723519e+03
4.935585053374301424e+03
5.064174915639603569e+03
4.892380273831672639e+03
4.400354983443291530e+03
3.553159584075029215e+03
2.855796156893424723e+03
1.633025301161535708e+03
-2.491656977159570943e+02
-2.342308296914528455e+03
-4.033564189315807198e+03
-4.379417784603101609e+03
-4.438053844709756959e+03
-4.271683737526914229e+03
-3.114332476287521331e+03
-1.545788626570756378e+03
4.972013853104185728e+02
2.438569614570488739e+03
3.019331763764750576e+03
4.049632075071735017e+03
4.534591981364394996e+03
4.607104284478135924e+03
4.684005096684129057e+03
4.522301687948775907e+03
4.087159794013969076e+03
3.195611150938395895e+03
2.384579868116384205e+03
2.620107705616421754e+02
-3.586157089037770675e+03
-8.093975458383662954e+03
-1.043655259821684740e+04
-1.106400618892612692e+04
-1.133237875457055452e+04
-1.067276431314471665e+04
-9.344293818821535751e+03
-7.372885136010070710e+03
-5.100379575516158184e+03
-2.832787758311384096e+03
-6.939323545731406284e+02
2.746488908383579201e+03
3.715249375504523414e+03
4.412973510544298733e+03
3.721719926559302621e+03
3.090757812577862296e+03
3.363150581442797829e+03
3.590828570519750429e+03
2.946795554656060631e+03
1.468017394758349155e+03
1.891892376773346029e+02
-1.736807999340595870e+03
-3.154945290197184931e+03
-3.775272897019492575e+03
-4.001866369610737820e+03
-4.016952372094497150e+03
-3.450501563663061916e+03
-1.387362922284533170e+03
6.565836174778427221e+02
2.232313598014877698e+03
3.041891066446578861e+03
3.356315082640227047e+03
3.964594107706571776e+03
4.280874142240169022e+03
4.097015988325021681e+03
4.282978838368681863e+03
4.130927671511607514e+03
3.326025466328912898e+03
2.288089406828662050e+03
8.309894619301213652e+02
-1.110149071938727502e+03
-2.919419819339842888e+03
-3.888022550217877779e+03
-4.116111875267021787e+03
-4.524774924124158133e+03
-5.073935449866189629e+03
-3.494578226240872937e+03
-1.572628127316720565e+03
2.428788210651908344e+02
1.651139206715112095e+03
2.197250332545600486e+03
2.727220330154932981e+03
3.397223310641817989e+03
3.912135036701404260e+03
3.852708259595972777e+03
3.694726353046416534e+03
3.417369809625834478e+03
3.201927308339684259e+03
2.514449386082004821e+03
1.196848667634065578e+03
-5.612893383250990382e+02
-1.681224626721102823e+03
-2.770938047279742477e+03
-3.925326239468734457e+03
-4.435366442616666973e+03
-4.316155234148242926e+03
-3.662904629084418957e+03
-2.178862427854533962e+03
-4.437555603089022611e+02
1.328534171899209923e+03
2.209026360451264281e+03
3.163767296401074873e+03
3.648796882665210887e+03
3.136138856081293852e+03
7.178772850406417092e+02
-6.328529023512750200e+02
1.172977029040125672e+03
9.232546057829202937e+02
-8.205865864603231330e+01
6.120542363023109829e+02
7.775432720830690414e+02
-1.470632402393054235e+03
-5.707484143619240967e+03
-6.105220320913882460e+03
-4.130926519167870538e+03
-3.738671194008657949e+03
-3.223437110258213579e+03
-3.843120968529601214e+03
-1.700679851584705375e+03
-2.460700343027301926e+02
1.554736120891819382e+03
2.021809126694808356e+03
4.264203243863677017e+03
2.485026512893202835e+03
2.368286168655407891e+03
1.370911162988035358e+03
2.269949258913368794e+03
1.506416449722594507e+03
3.702698810797218698e+02
1.511516409730996202e+03
1.385274287230508435e+03
-1.006551591939741229e+03
-4.798248950080709619e+03
-3.729917302103009206e+03
-4.468431126246710846e+03
-6.607947702414434389e+03
-6.916552560331365385e+03
-6.137171554415371247e+03
-2.981651400667904454e+03
-2.053918748147455062e+03
-2.709102338656945790e+02
2.404416813534201992e+03
1.645091698406826026e+03
4.129157235274823506e+03
4.943579214574176149e+03
4.753208978813040630e+03
4.602150602202825212e+03
3.985549877410776389e+03
3.749396163302100831e+03
3.287553892008079401e+03
1.084015084878468997e+03
-8.902445475111944688e+02
-1.544338396955605504e+03
-2.003458565060965384e+03
-2.086650449337445934e+03
-2.050928623036142653e+03
-2.013390136683183755e+03
-1.180888882655506450e+03
3.556775970775292990e+02
2.092357493237833751e+03
2.983153031864825152e+03
2.475378198149402124e+03
2.451078472947382124e+03
2.837201203266150060e+03
3.766847558062757798e+03
3.656899287776491292e+03
2.923259785582562927e+03
2.628883105653598250e+03
3.025718972483258312e+03
2.753948543600751691e+03
2.261643645166089755e+03
1.352683710774693964e+03
-1.608638507341403567e+02
-1.174226843286241319e+03
-1.901639299296658919e+03
-2.821023712763312687e+03
-2.482535407270237556e+03
-1.211466689918732527e+03
6.675545704322703386e+02
2.290824043227848961e+03
2.621202438442895527e+03
2.408736665647714744e+03
2.440451882706432571e+03
2.528319618803127923e+03
2.012245141561681748e+03
2.469160386888456742e+03
2.506114574272141454e+03
2.503164278771988847e+03
3.809444632094101962e+03
3.118861584590253187e+03
1.230472792699634965e+03
-5.141339548564307051e+02
-2.005319151317254864e+03
-2.905819468840117679e+03
-2.685645935752312653e+03
-3.114210245978889816e+03
-3.250577229421759966e+03
-2.347340458410985775e+03
-9.825460455009446150e+02
1.191658721857939327e+03
3.440230707865418935e+03
4.713179037527347646e+03
5.175704235357194193e+03
4.580807147155459461e+03
4.526528615155850275e+03
4.886773098612316062e+03
4.375495259949913816e+03
3.466660319432854067e+03
3.524287494089384836e+03
3.452425668553161813e+03
2.194964832661261426e+03
8.627844964673475943e+02
-1.033132411525995394e+03
-2.224866665045285572e+03
-2.034569971200911141e+03
-2.312358743098149262e+03
-3.432230960625264288e+03
-3.039089672271188647e+03
