4.777519477771284073e+02
3.139179855851299976e+02
3.343679165640929796e+02
3.615022848969373115e+01
1.762550384308355547e+02
-1.283087110574223288e+02
-3.187581463847818213e+03
-9.545770565752359289e+02
2.473244572563690014e+01
-9.028514494947600042e+02
-2.195131531948747579e+03
-8.802329489213893510e+01
-2.279643245980965816e+01
-1.050628171153836774e+03
-5.241684225566596069e+02
1.126334652257653914e+02
-1.630132303977161428e+02
-3.945697345062123986e+02
-4.758184205193036860e+02
-1.278502594474865930e+02
1.182201919452681693e+02
1.832025821798367531e+02
3.231913954615785656e+01
-1.223928409889449114e+02
-1.880513788691814625e+02
-1.433636402394365064e+02
6.245606529504023285e+01
4.813561171172287914e+02
5.063708275447197025e+02
3.096341132866822363e+02
1.989267703838111458e+02
1.352674433195757615e+02
1.225914754105589992e+02
7.864454664765464287e+00
-2.848863283099167347e+02
1.128643184783654085e+01
3.213859523341754993e+02
2.624456706529971939e+02
2.643990485911127166e+02
6.542498011968301626e+02
8.510135381805154111e+02
9.156005660934746402e+02
8.358941533890966866e+02
1.002315347369874303e+03
5.606449711709004760e+02
4.598043185526561274e+02
3.337497749534877016e+02
1.316242767053140881e+02
5.633412616352600253e+02
8.898907566877940098e+02
6.082623873764626978e+02
3.246719161589308555e+01
1.545054269737014465e+02
2.212756621381280411e+02
4.408107670937930607e+02
5.731727549538996982e+02
2.363791504175109139e+02
4.729294089744872309e+01
1.429433590455627439e+02
1.783141871372762068e+02
3.464591714135352731e+02
2.943328680659049041e+02
2.519006581938835438e+02
2.281738618321009824e+02
-4.618166360716146528e+02
-3.579055316699340779e+02
1.880259565127586185e+01
1.113174395439726254e+02
2.464724409062280870e+02
2.323824308811094568e+02
3.171029452348267341e+02
-2.778517802977677547e+03
-4.843426367971404034e+03
-3.835970749870822374e+02
1.949564313413142713e+02
1.012900064069867483e+02
2.063899465943305813e+02
-2.270757067521396948e+03
-1.250163721780167634e+03
2.152173525151149818e+02
4.823766896055850566e+02
6.082987313485884897e+02
4.429801342641946462e+02
3.324641906666212208e+02
4.347071480443129303e+02
7.176613192349248038e+02
6.854324395608452960e+02
4.200183064018807499e+02
4.983630885688876901e+02
5.615360167247764593e+02
3.635446813107475350e+02
-9.655624309714870179e+00
-2.207038912026630442e+03
-1.911599973886343605e+03
4.536681157912448157e+02
9.175812105103074146e+01
-1.307327692931906086e+03
-1.325585099877290759e+03
1.970006426278033018e+02
4.894264755622704683e+02
3.747414576440657470e+02
1.489494083919852017e+02
3.320148238506336043e+02
1.959851989981706311e+02
1.638616712906205350e+02
3.176423555805496903e+02
1.713672826988182294e+02
2.289971176211931834e+02
1.265330881802099583e+02
3.704281473144962433e+01
-8.449987972855349483e+01
7.487140150209484091e+01
3.092082053077627393e+02
3.074720508623676096e+02
8.667572069373282773e+01
2.138669173499522458e+02
-3.000826224193864888e+01
-8.691916583440530530e+01
-2.429520409613274978e+02
-1.868602140396021412e+02
2.672773196780251510e+02
3.964696391720291899e+02
5.392285560280020036e+02
6.304305406032626706e+02
2.842456413334618901e+02
3.315906282724747598e+02
3.490157881143879308e+02
2.236447815025908028e+02
-1.528415014076428179e+03
-1.521005782423420214e+03
1.017517308912354679e+02
1.570244894855970870e+02
-1.061172087882212196e+02
1.099764687554538369e+02
-4.930827446655763424e+01
-6.636840783867884852e+01
2.008299440548755683e+02
-1.586684973284955333e+02
-2.350316245427176511e+02
-4.265862744170345309e+02
-2.833566382650001287e+02
1.544648763478641058e+02
6.990275608572241026e+02
5.920042148810193794e+02
2.198745320457156538e+02
1.696743131899788466e+02
3.194355524638510815e+02
9.620203055578362239e+01
-9.206656292603992142e+01
4.742532179657838043e+01
3.301016260446458546e+02
3.140381492595786312e+02
4.381576182981513057e+02
3.303694316019543749e+02
1.567941628249513464e+01
1.450122041425837836e+02
-4.640426216233237255e+00
2.872553417281323362e+01
-8.784523442441287955e+01
9.961342816519626808e+01
-4.496916292408120341e+01
1.145497385397418633e+01
1.968871663810868711e+02
4.522993359919800014e+02
7.327184408995530021e+02
5.231710689394238898e+02
3.946507231055025500e+02
6.571538012866258214e+02
9.436527797132046089e+02
7.581701589323555481e+02
6.387390770151300785e+02
6.063211734363213736e+02
1.998975728055380046e+02
1.946406678994265604e+01
1.329848904649160488e+02
4.714020826610403674e+02
7.347742448714934653e+02
6.090987850769939769e+02
2.263880905751015575e+02
-7.932441609758970458e+01
-6.751871194559806721e-02
1.961871429724619418e+02
1.354356313969472296e+02
3.296739381559978597e+02
2.919177486129424324e+02
-1.778449554674356818e+02
1.124333789271867516e+02
2.286887194593171841e+02
2.418708308034823062e+02
1.859685556011593803e+02
-8.709575776275486305e+02
-1.636856081703641848e+03
-3.445794267334903793e+02
-2.021666871454724514e+02
-2.665814940936591029e+02
-7.057833934593691083e+02
-2.457866132553256193e+03
-1.528983898358346323e+03
-1.074017777873571049e+03
-1.491387050666774257e+03
-1.629114990084422061e+03
-1.404972228186668190e+03
-1.059052473527661050e+03
-1.336347946394106202e+03
-1.094828069058533401e+03
-3.948891220410414604e+01
1.056703241905415553e+03
9.218113714349642578e+02
1.044832757492153860e+03
1.009821757208833219e+03
4.087200941173464344e+02
-5.253824049201343627e+01
1.670093832217659440e+02
6.074153790432421829e+02
5.336401666127480894e+02
3.416850571071138347e+02
1.705170699245779247e+02
7.013482661544639996e+01
4.385455907623528446e+02
6.877343405703534245e+02
7.707027337722438460e+02
3.794376458126591842e+02
2.419526794812930746e+02
6.322440411347400868e+02
6.113110073238353834e+02
7.861682402879125675e+02
6.418092052022745975e+02
6.532931475302418676e+02
7.786689065020538010e+02
7.648706008676035708e+02
8.009110861068083977e+02
7.408868840719464970e+02
8.079304343733344922e+02
5.690896693080245541e+02
6.419991444430580714e+02
6.488141254875091590e+02
5.795725865653466826e+02
6.112889105461511008e+02
4.319516892336889100e+02
4.945430002821216817e+02
4.149943073751377938e+02
1.513661756700394392e+02
-6.805042728777283401e+01
-2.944765961202701874e+02
-2.740274623476155398e+02
-5.067696651721932000e+01
9.754680470882043153e+01
1.056708822571477953e+02
-1.251884385492438270e+02
-5.410122666020787392e+02
-1.498605026419931505e+02
-4.276747055589729598e+02
-1.251485067828273031e+03
5.769814489790835665e+01
2.729216222394643410e+02
-3.388662280951082835e+02
-8.026858287387997279e+02
-2.263209956747559914e+01
-1.465563238985724759e+01
1.532712523527595749e+02
1.271559024962258775e+02
4.580461463785214278e+02
3.419547931898495108e+02
2.281798679630086895e+02
7.463019419924785325e+02
-1.579603510951830913e+03
-1.400320470590141667e+03
4.631950372185659717e+02
-5.953933095272259379e+02
-4.925004512590087870e+03
-5.096431389901476905e+03
-4.554812150057638974e+03
-1.822281782190239880e+02
-1.652642857716564322e+03
-2.179970120656356301e+02
7.497933416741041128e+02
4.557149600175585533e+02
-2.598244918773677909e+03
-2.968124954222294946e+03
-2.728879506893456892e+03
-4.429477612112279530e+03
-2.275777980712406588e+03
-2.267767868414819986e+03
-2.595604762493451744e+03
-2.057318468200638563e+03
5.780618359360288423e+02
8.115286762788308579e+02
1.236140077590195915e+03
1.390911225639719078e+03
1.088897079003142608e+03
1.354111735763096021e+03
1.184543223166705502e+03
1.007087590795204164e+03
8.967438032767928462e+02
1.076544660443830935e+03
8.235476561722808810e+02
8.497361728809512442e+02
3.710836546796317066e+02
-2.174429539892541470e+03
6.822099581072557157e+02
1.268060550691089247e+03
7.542897100433353899e+02
-2.751706092979019900e+02
8.185609778518962685e+02
9.675206153527714150e+02
1.271635017095745980e+03
1.143938634015411708e+03
1.167489958080496081e+03
1.461259901618600679e+03
1.283181143131157114e+03
1.120216135027229711e+03
1.160314493688850462e+03
9.926687163848199589e+02
1.126232792210444813e+03
1.234914929433329917e+03
1.109860024783105473e+03
1.194278384247060558e+03
1.061204684940633115e+03
6.794415497174677512e+02
-3.961202028491732676e+02
-9.845193119857552801e+02
8.393138188151278882e+02
1.083336408844678772e+03
7.895125640466288814e+02
5.938384837135072303e+02
5.483310593731481504e+02
7.099702533802171729e+02
4.457861366748177261e+02
2.559499303676280419e+02
2.674461087923688751e+02
2.020244472703116401e+02
7.336321167996095483e+02
7.973580505361252335e+02
6.461808425403499996e+02
2.720815849194970610e+02
2.462894738077024783e+02
4.324342366422527562e+02
5.157468851144620885e+02
4.983236580459483775e+02
9.363258800325186257e+02
7.958637529349264241e+02
3.692556657678896386e+02
6.925606290218263439e+02
9.819761274089366907e+02
5.206717320465428429e+02
5.327320548032753322e+02
1.039398812391366619e+03
9.763892078068209912e+02
1.107540527301407565e+03
1.274143461117145762e+03
1.315015538638372163e+03
1.218778049267720917e+03
1.007790934132070902e+03
9.363059315465941381e+02
8.180275029862426663e+02
6.456596806318766539e+02
7.954140007251360203e+02
8.942146596312915108e+02
8.080542935672689282e+02
1.056978498999760404e+03
1.350952667346642784e+03
1.538954918311803340e+03
1.725867992176440566e+03
1.592701660104221219e+03
1.282390973269884626e+03
1.419980342156245342e+03
1.567442374232012071e+03
1.541718991170865138e+03
1.511833649726483372e+03
1.111845325438241389e+03
6.605164731608513193e+02
2.828861684478731604e+02
-6.638452853679394821e+02
-1.523586664084805079e+03
-4.103423044241369098e+03
-4.418404091225898810e+03
-6.113497633342815789e+03
-8.089589427304361379e+03
-4.186646799278566505e+03
-3.081075310454552437e+03
-1.873194669798628183e+03
-9.248484506471289706e+02
-3.842054434093335203e+03
-6.562699207134609424e+03
-6.758726861069520965e+03
-6.009126983739183743e+03
-5.611183283393905185e+03
-5.079859460768384452e+03
-2.795029440535339745e+03
-4.281665731000268352e+03
-2.717498652267113926e+02
-5.003951814874575348e+02
-9.776834618940588371e+02
-1.006689197954745168e+03
-8.063343879593877546e+02
-1.441521978340176929e+03
-5.741296234237564931e+03
-1.733790072293648564e+03
1.505883270668995465e+03
2.781763010095445679e+03
3.519995010431592618e+03
3.607632460027583875e+03
3.555706402129579146e+03
3.383263335236477815e+03
2.304362744009998096e+03
-1.900078982998503534e+03
-1.678173996115084492e+03
2.018611610892228043e+02
1.779929889933838467e+03
2.667109052136454011e+03
2.975512445962221591e+03
2.839187955409187907e+03
2.933138575051012594e+03
2.963371681405871186e+03
3.168832034554994607e+03
3.189560930516478493e+03
2.981508688105378951e+03
2.961641928012572407e+03
2.396988126328310500e+03
1.721613955915349152e+03
1.620544545305113616e+03
1.785788000591621994e+03
1.820433883529240575e+03
1.772537164542947266e+03
1.386128119293936606e+03
1.369155448051927351e+03
1.812563070556504499e+03
2.336366982364887917e+03
2.571589686074248220e+03
2.508256542621629251e+03
2.135347044890041616e+03
1.377918882357797429e+03
9.739979455959493180e+02
4.515760691189372551e+02
2.256592693653247466e+02
-4.171846856507129075e+01
-4.764343674708388789e+02
-6.003716724824458879e+02
-1.062591085723501237e+03
-1.464031271043648758e+03
-1.309424477961596040e+03
-1.339067209882622365e+03
-1.245136727662115845e+03
-1.474379906085789571e+03
-2.036583925148874414e+03
-2.954619328850853435e+03
-4.244500848494866659e+03
-4.764893018283223682e+03
-3.498018895994200648e+03
-2.864320527753945498e+03
8.631860662818014589e+02
3.116872474201959449e+03
2.710000116353794510e+03
1.811087965637503657e+03
1.684602604851498882e+03
1.632340650257198831e+03
1.426535771484118641e+03
1.603282396482034073e+03
9.784999676194687481e+02
1.360287999409988799e+02
-6.080025772843963523e+02
-1.531542638821517130e+03
-2.090770643178265345e+03
-1.919629285831024390e+03
-1.542922825793929860e+03
-2.136148545603986690e+02
4.362469416327096496e+02
3.146466461655923013e+02
6.626517635661591612e+02
1.290195800992785962e+03
1.403378203834608485e+03
1.781331886190957221e+03
1.959091344280752537e+03
2.110704238163061291e+03
1.924200002158475627e+03
1.747620993249878438e+03
1.429892143811038522e+03
6.971584711639462739e+02
6.958035797680807377e+01
-2.439457229078309410e+02
-7.113708098306939291e+02
-1.369699598081035901e+03
-2.122138840689630342e+03
-2.232628233091208131e+03
-2.297235594844749812e+03
-3.039106861461132212e+03
-3.880168349764208415e+03
-3.755416109267097454e+03
-3.106761849482899379e+03
-3.002089920201656241e+03
-3.066340357002939072e+03
-3.006501608100725207e+03
-2.784677366022399838e+03
-2.135926547400164054e+03
-1.629180337849541502e+03
-1.588253529537441636e+03
-2.552259642984798120e+03
-3.050240646093105170e+03
-2.681232508302548922e+03
-1.464252243488439490e+03
-8.603076341331767480e+02
-9.323843048091555374e+02
-1.811509258172944101e+03
-2.792576700873975369e+03
-1.902602965492737439e+03
-1.252475629541208036e+03
-1.258952010315021653e+03
-4.582220579312565292e+02
1.834513753451327318e+02
6.010730481140496977e+02
1.394560855834338781e+03
2.013001877098554132e+03
2.525630430514197087e+03
2.002621561221953243e+03
1.410701667403753618e+03
1.140666867095348834e+03
3.843727503091171229e+02
4.798795702983637739e+02
1.472333062194718138e+02
3.373970237711978939e+02
2.503837867714916001e+02
1.991401800780208760e+02
1.036782544349949603e+03
1.926018650588999890e+03
2.057776283254201644e+03
1.314284006493634934e+03
1.909855586978238534e+03
2.261232098621473142e+03
1.725246871554940526e+03
4.704303892094633284e+02
-4.248406443906249592e+02
-3.357369454021093702e+02
7.731394007986211570e+00
1.295920572097366232e+02
-5.559484369002079802e+02
-1.150100642127102674e+03
-1.633920327982825029e+03
-2.162644312323790246e+02
1.844515530048615574e+03
2.337577447549258977e+03
2.800963481264732309e+03
2.509540007985765442e+03
1.658018024838430620e+03
1.378553926926638042e+03
1.186005409846964540e+03
1.718412117729804322e+03
2.413812209330520091e+03
2.814081290854801864e+03
2.419236248860859178e+03
1.940281690576653091e+03
1.354184192841227741e+03
1.441856677980363656e+03
1.758282034894872368e+03
1.588424602925131467e+03
9.072994643565463093e+02
-9.970449435149619788e+00
-1.058533522568649943e+02
1.451789059657381131e+03
2.746071420408729864e+03
2.588018894252581958e+03
2.760380569915488195e+03
2.650183667852817962e+03
2.998356818991758246e+03
3.616902392988566589e+03
3.523835190510579650e+03
3.147088793168447410e+03
2.071640403966061513e+03
1.424295847862061066e+02
4.234430779539388254e+02
-4.702785651186274549e+02
-2.914797195219326568e+03
-3.660162217858549866e+03
-1.581371086241457306e+03
1.833505693752446405e+03
3.160439040389722777e+03
3.320420043478604839e+03
3.023653996876546444e+03
2.852028777195866496e+03
2.886304324054181961e+03
2.857562913329369621e+03
2.579829443053219165e+03
2.625058451978756239e+03
2.309221185120840346e+03
2.545267190506126553e+03
1.352207902208326686e+03
6.809798702611134047e+01
2.678893950802540530e+03
1.701604585472397048e+03
1.139141109102840574e+03
4.115090316333588021e+02
-4.067319149045626546e+03
-2.624313666430151443e+03
-5.258484582323179893e+03
-6.327850650121948092e+03
-6.347399530858539947e+03
-4.265189230542628138e+03
1.887376108731568820e+02
-3.748567318274673198e+03
-7.652078909323969128e+03
-1.007883733512178515e+04
-1.099582544121703359e+04
-1.052001099706845707e+04
-6.247454755513315831e+03
-5.088160457385435620e+03
-6.160096373373509778e+03
-5.620287501858857468e+03
-4.892698633385619360e+03
-6.614293448168421492e+03
-6.227055516961376270e+03
-3.307948317075622526e+03
-2.325928998332088668e+03
-3.235028997761505707e+03
-2.242147886389292125e+03
-2.323294622261915720e+03
-2.524555157834633064e+03
-1.447973652625905743e+03
-7.085751577298144639e+02
2.446127147719657557e+02
2.105880036491696501e+02
1.963754548385746830e+02
-3.319227275891140607e+02
-3.242531404284757173e+02
-5.036489108512217854e+02
-1.437038307409207164e+03
-1.751394051918752211e+03
-9.167708789677503773e+02
-3.361114217721967179e+03
-6.049400110876685176e+03
-6.009660199109016503e+03
-4.859877686691125746e+03
-4.250065316936208546e+03
-4.128908158047445795e+03
-3.052384000003357869e+03
8.056991460254376989e+02
6.289407050323115982e+03
7.774241025503085439e+03
5.240450921680573629e+03
3.982014457808795669e+03
2.740975230345924047e+03
3.022698114338009418e+03
4.279152603403165813e+03
4.158210739758882482e+03
1.805126993010896740e+03
1.611658739209335181e+03
1.886357762349020049e+03
2.456177622949382112e+03
4.222893045723938485e+03
4.631010919439481768e+03
4.292477109980563000e+03
3.305525648635347807e+03
2.614273748051516577e+03
3.576699303408839114e+03
4.166885152941369597e+03
3.505171510553499957e+03
1.532909292027725087e+03
-7.285393099412874562e+01
-6.019879038331912398e+02
-8.081891377934369984e+02
-2.446571556499915232e+02
1.487231257204407484e+03
4.253862135035075880e+03
6.680384100962794946e+03
8.643081874412910111e+03
8.311649380479255342e+03
6.213822026539647595e+03
4.835610322974312112e+03
4.476128466410020337e+03
4.414368986975850930e+03
4.850337037685774703e+03
5.182061416654877576e+03
4.956559120754322066e+03
5.041834518279588337e+03
4.716919516075256979e+03
3.342842810820309296e+03
2.072609281602196006e+03
1.462287655471055587e+03
1.038900789502030420e+03
5.504064656688047990e+02
5.018162274942102954e+02
1.098176858025592537e+03
2.592534260759115114e+03
3.685903685150036381e+03
3.538258831915324663e+03
3.385540520050216855e+03
3.356795634739967227e+03
2.944054948735328253e+03
2.005343967332650209e+03
1.679692154278774296e+03
1.666157339305373853e+03
1.216728884534519693e+03
-4.155874811639899491e+01
-1.907709346367069656e+03
-2.914705244669427884e+03
-2.479482175678744170e+03
-3.034070251622575142e+03
-3.536440134448661411e+03
-3.285510950964469430e+02
-1.193434516031244812e+03
-5.951065991280554044e+03
-8.020477568745042845e+03
-8.191639541523093612e+03
-7.089470084027856501e+03
-6.446929600525263595e+03
-2.440976198726870734e+03
-9.146244316632896698e+02
-3.463914049475718912e+03
-8.603895962661474186e+03
-1.053888792315522551e+04
-1.022384350447959696e+04
-4.479449796764875828e+03
-2.391684609551070935e+03
-3.466587248537804953e+03
-2.858184967538188630e+03
-8.714632475627568056e+02
5.295724590490367518e+02
-1.990204920997064448e+02
-3.711642433827358900e+02
3.441891985225274198e+02
-6.569336978401697706e+02
-1.161539439154379124e+03
-6.206924740214994927e+02
4.975949797774060244e+02
6.702619912916366047e+02
-4.936425803211459993e+02
-1.414058737271750033e+03
-3.254007400876562770e+03
-4.233489034082922444e+03
-4.488480124737695405e+03
-4.890977459477105185e+03
-5.136984645045498837e+03
-5.367472768604865450e+03
-4.834401546523461548e+03
-5.658734096367115853e+03
-5.082451404015429034e+03
-2.885528410835189334e+03
-1.649904239014082350e+03
1.054413371198061213e+03
3.847444523062898043e+03
4.460236755194413490e+03
5.594840117961569376e+03
6.054222749986687631e+03
4.481410575816942583e+03
3.218462209334437375e+03
1.531406639451899309e+03
3.662020481998465584e+02
5.548527904097553574e+02
1.173410091052149255e+03
2.369814018921769730e+03
2.236108191450663071e+03
1.011283799656248220e+03
4.713149749765772185e+02
2.187212473135996788e+03
2.972020962131024135e+03
3.197861109430198212e+03
2.702693220169050164e+03
1.802451815798300458e+03
4.670533921947392173e+02
-7.714438747664947869e+02
-2.473963404879547852e+03
-3.111411300565526290e+03
-4.268780207679631530e+03
-4.358215389096136278e+03
-1.103701594251152528e+03
1.380880956409913779e+03
1.324197681509959352e+02
-2.052030791092027812e+03
-3.412515944760687034e+03
-4.753151582435814817e+03
-3.863790039456460363e+03
1.066494871362955195e+02
2.969150294164608113e+03
3.201696156076190618e+03
1.881302744744657275e+03
1.160020901882520320e+03
1.676789813455942522e+03
1.653670901850627388e+03
2.131611159148230399e+03
3.117662125034055407e+03
2.958801062425154214e+03
1.384975538631845211e+03
9.201880365206889110e+02
8.614507728449360684e+02
1.269849530840810758e+03
2.537310078762553076e+03
3.091833105242559213e+03
2.518475106990143104e+03
1.543305151983770656e+03
1.565316355659679630e+03
1.754436132102951206e+03
1.542650038928731647e+03
1.128923005852255073e+03
5.533390968691518310e+02
1.798966805926712595e+02
-1.184185885785384897e+02
-6.717692928098300627e+02
-6.692284871696501796e+02
5.327156725850080932e+01
5.857098676751428457e+02
4.381089529435213876e+02
7.605511696604623921e+02
-8.401072363798205345e+01
-3.045989958504700894e+02
-6.228472212501908700e+01
-4.271121788647392918e+02
-6.280887927220678648e+02
-3.741371644240056753e+02
6.740997225982771290e+00
7.052534975816867302e+01
-9.987441704172451296e+01
-5.648167572435856698e+01
7.771069854309138236e+01
-2.602653186593383339e+02
-8.564146418576132191e+02
-1.186796521494732360e+03
-6.996584370100583783e+02
-4.390443502514342811e+01
2.950116406417397386e+01
9.949175115333082431e+01
-1.589186870086523413e+02
-4.828437156815788853e+02
-8.832241330798341039e+01
2.346714624420141320e+02
2.171150563533566924e+02
-3.199187269016421169e+02
-5.973930977102788802e+02
-2.245133733349258875e+02
7.281768457928899352e+01
1.137011565965567002e+02
2.989714170042257138e+02
8.632565125927921201e+01
-5.383983879939412418e+02
-1.524105153269659468e+03
-4.747950931636881933e+02
-1.444686259573260543e+02
5.772197146517791921e+00
2.048002981522917594e+02
4.809781393417757158e+02
4.710761435281474974e+02
4.220978982733858516e+02
1.071224688167777401e+02
-4.169147724415826701e+02
-6.508980042691175072e+01
1.524560921340501238e+02
6.574034465949363266e+02
9.371926167861191743e+02
1.098395637589291027e+03
7.893474873270880607e+02
6.252722551665201536e+02
7.236196703488452613e+02
9.515953351073028443e+02
1.450051008275332151e+03
1.217930887826765456e+03
9.389822644516733590e+02
7.676489721307260652e+02
5.347047057799541108e+02
5.056974759224929699e+02
7.822081159793966663e+02
7.209689383069643327e+02
1.968229769799503117e+02
6.821498183380269609e+01
-2.736776146761519612e+02
-9.274318509844856635e+02
-1.262114804689526181e+03
-1.380182369541839307e+03
-1.575976287270601688e+03
-1.600981525827535052e+03
-1.022405785586662205e+03
-9.642761598075638858e+02
3.394756296358534655e+02
2.121571668403255899e+03
3.000098737479707779e+03
3.125068255641686847e+03
3.163313105868709954e+03
2.761785498772266237e+03
1.967443788065539138e+03
1.143337889532962436e+03
9.954113366933173666e+02
1.085657425027012096e+03
9.590555771038845023e+02
1.660633449133014665e+03
2.544425772462828263e+03
2.616367124901872558e+03
2.765328417894356789e+03
2.861550738389646085e+03
2.209114081246805654e+03
4.728412488046928388e+02
-2.446389471646374204e+03
-4.399602456417642316e+03
-4.757749494666996725e+03
-4.581925182984646199e+03
-4.554430227636062227e+03
-5.127472238190048301e+03
-4.940791637577924121e+03
-4.878062012832196160e+03
-4.450361358741814911e+03
-3.567647037763273147e+03
-3.805094655447443074e+03
-3.829660448959401492e+03
8.137456241862705610e+02
2.802149820858704061e+03
-1.186355067429607288e+03
-4.894651993293078704e+03
-2.773878443544191214e+03
-8.852168153348966371e+02
-3.828549011606681688e+03
-4.908759661231799328e+03
-4.459737430312356992e+03
-4.224467102083667669e+03
-4.027074463810761245e+03
-3.995523789186419435e+03
-4.315674230218846787e+03
-4.095337933681145842e+03
-3.759483016944146129e+03
5.558425968963520063e+02
2.320620934535344986e+03
-1.390113109652432058e+03
-9.714136129419641748e+02
2.586325926753018507e+02
1.418029995697385402e+03
2.668809650552949279e+03
2.406178239597794345e+03
2.185357103917468066e+03
2.946403542660708354e+03
3.120271605205588003e+03
2.715018090436131388e+03
2.650636328101031268e+03
2.544201072650711012e+03
2.489837007127559900e+03
2.496553258200902292e+03
2.424430262493049668e+03
2.374627531542265388e+03
2.405260817456807672e+03
2.268344499250358695e+03
1.814927838290070440e+03
1.520053534642406703e+03
1.517771615911412027e+03
1.910134240432777915e+03
2.010095799729558848e+03
1.939704624490916331e+03
1.393118569594886139e+03
1.438365646475631593e+03
1.558492350312754070e+03
1.598638929116737927e+03
1.490937528310321113e+03
1.423373723057823781e+03
1.245984140356313219e+03
1.090924178224996240e+03
9.082894389548067693e+02
6.602107788810307056e+02
8.437189122742586278e+02
7.697579294593701889e+02
4.924358247306207659e+02
5.398204626280177081e+02
6.106774331787860319e+02
7.453661229935934216e+02
4.742947596434586330e+02
4.236141550197436345e+01
6.149213109561504353e+01
-8.337126571063261338e+01
-5.301865400443165299e+02
-8.251732001581069653e+02
2.708120997419191553e+02
4.029680001298643219e+02
-1.627239840312348917e+01
-8.037397567453517695e+02
-1.433923316260017202e+02
1.149745873410585801e+02
4.444734228816897712e+02
3.726255752803895689e+02
1.193422881271697946e+02
-1.755517743808281139e+01
-5.040668927306168712e+02
-6.260173893582154960e+02
-3.653822381843531844e+02
-2.512075474765838692e+02
-1.553454665362603464e+02
-3.507727615148934888e+02
-6.185525489886993000e+02
-6.737457930504464230e+02
-6.752355921137994983e+02
-7.768531321647449204e+02
-8.285849482323834536e+02
-6.223323424381743507e+02
-6.811352819956101712e+02
-5.320011926350596241e+02
-7.438393346714124164e+02
-7.847356240145046513e+02
-8.537089104232295540e+02
-6.607738778902371450e+02
-5.847838535883072382e+02
-9.718721839192655807e+02
-8.791876455971212181e+02
-8.696513599832447881e+02
-1.069453041694387821e+03
-1.229658947316470858e+03
-1.229152663666865465e+03
-1.296999233123507338e+03
-1.178139351290054037e+03
-1.258424077896153221e+03
-1.484854301124264566e+03
-1.587368974267109706e+03
-1.125976460556768643e+03
-4.677916118134012322e+02
-8.738765746607922438e+02
-8.033398970996888693e+02
-8.001080248924366742e+02
-7.430887558389841843e+02
-6.883401076189239802e+02
-6.020640839714318417e+02
-1.902486575262277029e+02
-1.068961085939269253e+02
-1.619655256179217986e+02
-4.264276140519631326e+02
-5.192797307018037145e+02
-3.875601302416866361e+02
-7.821518999657453719e+01
-1.343469876190596892e+02
-3.769115177827263778e+02
-6.700422737366787942e+02
-9.912009057526566380e+01
-1.281470081865934105e+02
5.200776365794235971e+02
4.455720643844032907e+02
-9.056873125729873664e+02
-6.285450523307006279e+02
8.206876822964995881e+02
1.119553116634679782e+03
8.830363141102817508e+02
9.202819328348336967e+02
8.904387845450924033e+02
7.273882517853642184e+02
7.999622413240562082e+02
6.041373898383411642e+02
7.308145337274323765e+02
5.109168028765286067e+02
5.304637545669680776e+02
8.594983015868682514e+02
7.019183110941382893e+02
6.236513673101698032e+02
9.125713847073810712e+02
1.143553674341966826e+03
1.223612044325359875e+03
1.259778500414444352e+03
1.322031583436884603e+03
1.389252701423585677e+03
1.686372830886177326e+03
1.446403124571138960e+03
1.451298828600601610e+03
1.450030591598738511e+03
1.323508885722566674e+03
1.221663157555021826e+03
1.420461702569210956e+03
1.409835720908655276e+03
1.346673798178109791e+03
9.149207051191763185e+02
9.265907951048270661e+02
9.216071135605399149e+02
8.240302937961949965e+02
7.557828180121827018e+02
6.207196798415837975e+02
4.048595307297254635e+02
6.091743083812791610e+02
8.925679960230866072e+02
9.679611507655840796e+02
7.403505651567337509e+02
7.476973083018534680e+02
6.629673574158179008e+02
6.611509111417941540e+02
4.432599760548855556e+02
4.662456940820158025e+02
-6.379351098778729465e+02
-1.214114632442119017e+02
-9.246672255288785891e+00
-4.342915150980854833e+01
2.400607531486959658e+02
-5.780107662815593272e+01
-1.070643000752204017e+02
-5.477609133138228970e+01
-2.439696824867100418e+02
5.837333502039560784e+01
7.428502876832365587e+01
-1.102632002138324623e+02
1.986819584995564014e+02
3.810799292259098365e+02
2.419232067238092156e+02
-3.497926682046930864e+02
-5.380196828465600447e+02
-4.557534089663140549e+02
-8.830195164012267242e+02
-1.401917035501583541e+03
-2.923294812520790401e+03
-5.985252485322317625e+03
-4.098808142159000454e+03
-4.779969288245531970e+03
-4.677710365385808473e+03
-3.220009063563791642e+03
-1.023801904340128544e+03
-4.280587112114760657e+02
-1.561885377550544717e+03
-2.418241245172242088e+03
-2.391205803290440599e+02
-2.828487365514955400e+03
-9.633700318853525459e+02
3.623098323438346142e+02
1.020573637261273689e+03
7.774753799338686804e+02
2.449893823449004060e+02
5.161165348873227003e+02
6.079489404119888150e+02
-3.064499755862131678e+03
-5.308212941767611483e+03
-5.911332134155665017e+02
8.187571722316104115e+02
6.824718509274894132e+02
4.810823101851296997e+02
-2.166350308330942426e+03
-5.057811371693781439e+03
-4.465240313257959315e+03
-2.258553502025783473e+03
-5.078757628816651049e+03
-1.347792427617929661e+03
-7.986019012788332248e+02
8.978491515170879893e+02
1.687548061595166246e+03
2.160581816690778851e+03
1.449885475594085847e+03
1.271433631962215941e+03
1.567335352127089436e+03
1.605671233028959023e+03
1.332470736668277596e+03
1.330852956355641481e+03
1.510887398927677850e+03
1.341646083279074446e+03
7.401461367772172935e+02
5.584373162249820552e+02
8.355762398709980516e+02
9.995453362348926021e+02
1.076371710063400769e+03
9.541518650200252978e+02
6.049002928014504050e+02
5.216866441032248076e+02
7.706523873064767258e+02
9.749120678950218917e+02
7.177150798196890946e+02
8.039444730423252850e+02
9.274916762670592334e+02
6.806879333994941135e+02
6.096445556654803113e+02
7.816259542939004632e+02
9.746973839194731681e+02
8.684269486872576636e+02
8.897891863016628804e+02
-2.098878482497209745e+02
1.923104200886363344e+02
4.332073063730792342e+02
-2.045659166404810776e+03
-2.063747401956839440e+03
-8.245781462242099735e+01
6.352698360261257449e+02
2.770983107828550374e+02
-4.005497876523573808e+01
7.289464933313979600e+00
3.470813123755261245e+02
6.612596847711082546e+02
6.950044275386831032e+02
5.872696433610706208e+02
5.618648946134006792e+02
8.646081150444581453e+02
1.065446219505876343e+03
9.807350705266492241e+02
2.941839777986156150e+02
2.641449375649756917e+02
5.009733653779708220e+02
7.482878321662519738e+02
8.439677036441694327e+02
8.299332697750663783e+02
7.121309687648946465e+02
6.477574257470236034e+02
9.227926764071662546e+02
7.151269201856080144e+02
7.577808710877393423e+02
5.228659415084508737e+02
4.803671614249754498e+02
7.902809858867371986e+02
7.996044850397889832e+02
6.163415765693423509e+02
3.864926319254523719e+02
6.310770590390701500e+02
7.520913010610819356e+02
8.125113696688525806e+02
4.223944989535791592e+02
1.877207842323437035e+02
5.834424011139440154e+02
8.725477737458049887e+02
9.820475845472328729e+02
1.252946137438881806e+03
1.043242998205187405e+03
6.458841635449689420e+02
7.668374285093372009e+02
1.147122881725745401e+03
