1.654253544108684764e+03
1.710362579207375802e+03
1.213562072660227841e+03
1.319898128389321982e+03
1.358174207440683176e+03
1.395730095402738925e+03
1.366708269259863982e+03
1.736712363981496537e+03
2.214860936776324252e+03
2.628179069684109436e+03
3.145599452883190679e+03
3.437915458918750119e+03
3.783223586729299768e+03
3.999665623146499911e+03
4.152113616992191965e+03
4.213617928505630516e+03
4.277426337222185794e+03
4.345667432485112840e+03
4.347255645859489960e+03
4.209252276757187246e+03
3.987763118613697316e+03
3.702768985943253938e+03
2.600468526026829750e+03
1.420168021588128795e+03
1.384884287622243392e+03
6.645514915166537548e+02
-4.786167884103940651e+02
-2.496275099299279248e+02
6.125453236253168825e+02
2.694231210649497825e+03
5.152636501078377478e+03
5.906709288925529108e+03
6.000655357951358383e+03
6.398510076866455165e+03
6.288353430496498731e+03
6.396289433796918274e+03
6.052569499877762610e+03
5.636467856498667970e+03
4.857025229939607925e+03
4.700327435133275685e+03
3.990530641828134321e+03
3.886753511767310556e+03
3.750078142320438019e+03
3.279681968938416958e+03
2.278847337244082610e+03
1.791697609113751696e+03
2.023314826928068442e+03
2.674895190536039536e+03
2.578570540247173085e+03
2.581334063944937043e+03
3.280357031163980992e+03
3.536848433470806413e+03
3.998985007956325717e+03
4.421896883539286137e+03
4.913752791862866616e+03
5.180632487975395634e+03
4.469701565315025618e+03
3.591065351946588635e+03
3.149973153976828598e+03
2.887503031282814845e+03
2.600625149870260884e+03
2.534543985767476443e+03
2.940447861843014834e+03
2.736435746074120743e+03
1.166610422464226303e+03
-2.243859828187732546e+03
-5.161871712146487880e+03
-5.714358595523683107e+03
-4.869214803440901960e+03
-1.283289522693519530e+03
-1.134317242109329413e+02
-2.065498146481398180e+03
7.005702736139879789e+02
-6.030882690139427496e+02
2.150508406497448988e+01
-2.490531729583292872e+03
-3.050144355135425371e+02
8.240815707228981637e+02
-2.616164991294819629e+03
-1.937734287074011945e+03
-1.200540781730345088e+03
1.997466351676638396e+03
1.649289023142602673e+03
1.104070435842123288e+03
7.489251008024573366e+02
-4.710579565585357500e+02
-3.783882550281145086e+03
-4.675531384030888148e+03
-4.251984740077537026e+03
-7.112918706260140880e+02
-8.583193900964821523e+02
-3.223974051462704210e+03
-2.578220897905130641e+03
-8.397463701758147181e+01
7.767290396745064527e+02
-1.766195054880075531e+03
-1.006301806175326021e+02
-2.229622944642644597e+03
-3.133199497417070233e+03
-2.463264418127278077e+03
-3.877803261291322997e+03
-1.553856979169006308e+03
-9.375675042615262100e+02
-4.788334629116374686e+01
4.141785636267935047e+02
-2.673222495165437635e+02
-9.513591371610350507e+02
-9.530087159373376835e+02
-2.573205679184339942e+02
5.796863116526436670e+02
5.200190624739793748e+02
5.815817411407502959e+02
9.244456931633503700e+02
1.353596437639709848e+03
1.598049379603097577e+03
1.574745115615622581e+03
1.088596091215581964e+03
6.746379272811068404e+02
5.289254306386411599e+02
7.660580817310810176e+01
1.116082855646554606e+02
-2.132743397879821430e+02
-3.759889720738615324e+02
-3.126241768300339459e+02
-5.112681430264227629e+02
-1.198923073260366664e+03
-1.635709960944843488e+03
-2.095421534352224171e+03
-1.238194221950956035e+03
-2.750263135160347261e+01
-7.842813651452242141e+01
1.764695224673319274e+01
6.809065708555770016e+02
1.367456145598472176e+03
9.396495808017474474e+02
1.373379563134981026e+03
1.946484636832550450e+03
1.829545466018302022e+03
1.468757171999280445e+03
7.358980283561033957e+02
5.617021263184027475e+02
1.467558644100882020e+03
1.684611949309295824e+03
1.048470767325546603e+03
4.660771123469479562e+02
1.893319988714094961e+02
6.371695773055075733e+02
5.357577816546906888e+02
4.700708772882263702e+02
8.953664448756397860e+02
9.382870982666311193e+02
9.744294701283101858e+02
1.632899022704654726e+03
1.934408295633956868e+03
1.809778491290425109e+03
2.113980025052059318e+03
1.965034641067772782e+03
1.512908239214710648e+03
1.164417171923900014e+03
8.354713930233274368e+02
6.210919287927180221e+02
5.382144321655553085e+02
1.488205412079945233e+02
-3.201952920835532268e+02
-3.379168195351164741e+02
-1.154332848664371340e+03
-1.824450238624433496e+03
-8.102992615757092381e+02
-4.949212553415592879e+02
-1.694033812866731239e+02
1.047203074946762172e+03
1.659842269173909244e+03
2.069597251436957322e+03
1.924438351662711739e+03
1.758348099868834197e+03
6.872813110707932083e+02
-9.483366923684783956e+01
-1.349284610180699246e+02
1.679779916873864636e+02
-2.207764774994487311e+01
-4.822123599649715402e+02
-3.949271680356392267e+01
1.299833244431118828e+01
-3.147380644050095384e+02
-7.417133088420041531e+02
-3.270120245345599983e+02
-6.396098433187356704e+02
-2.175490756068279552e+03
-4.827648427630591868e+03
-7.927053797276260411e+03
-8.206723504592306199e+03
-5.483763077409093057e+03
-8.440380553393798664e+02
-9.729263276246686019e+02
-6.453943569453561395e+03
-8.315186310116956520e+03
-8.771525269144716731e+03
-8.649971768104442162e+03
-7.374584608186570222e+03
-7.797384041076526955e+03
-7.369385197529406469e+03
-7.426545693631739596e+03
-3.925913616001776973e+03
-2.460451087771037237e+03
-2.096097114582915310e+03
-3.482823286186934638e+03
-2.066602794335333783e+03
1.155724756742730932e+02
6.016572540615577509e+02
8.116668690554741943e+02
1.759566370951033150e+03
1.953430024409251246e+03
1.586357280031695154e+03
1.896383965613443252e+03
1.536494042970286955e+03
3.972371706742229236e+01
2.150594129784552138e+02
1.094427386382330951e+03
1.352931496914041873e+03
3.617367160810803171e+02
3.008794993380212190e+02
1.052657398620118556e+02
2.089338486366938241e+02
4.098849468675738876e+02
3.211154625300822545e+02
5.608401004141098838e+02
4.760680530071136900e+02
3.016951892301856333e+02
6.708684022564200404e+02
1.031717070347334811e+03
-6.852215764217659455e+01
-6.765724705246414032e+02
2.378535364174798815e+03
3.685581447975565879e+03
2.308333336662828060e+03
2.390709373024071738e+03
3.070826726639502795e+03
2.781924249707025865e+03
2.256258557809285776e+03
2.142744344621501114e+03
1.675179932135248464e+03
-8.143964529640898036e+02
-2.558707704154060139e+03
-2.959657998854130255e+03
-1.119280869341161633e+03
-2.746552235291492252e+02
-1.230757681913187980e+03
-2.323403454735012474e+03
-7.703632148408967169e+02
1.379301558604493948e+03
2.658738377311963177e+03
2.634119329920891687e+03
2.630352295837271868e+03
1.836263741251897045e+03
1.227356595924878320e+03
1.508624163058375132e+02
1.416851271197431970e+03
2.113969375054172815e+03
2.380065785281158696e+03
3.009252717836624925e+03
2.127670608149990585e+03
-2.639139582646998292e+02
-3.323754411106678617e+03
-2.862826088714898560e+03
-3.712374572407516098e+02
9.489387668342072857e+02
1.234602687245679363e+03
4.816678138548356287e+02
4.271327463663185995e+02
1.099081473301190044e+03
1.440523062244531957e+03
1.976887689761131242e+03
2.920573128461616307e+03
3.792288273647287951e+03
3.561432391861417273e+03
2.677746010129072602e+03
9.094227384403246788e+02
-3.282524889964091130e+02
-2.412581391775821373e+02
6.641413314272458592e+02
5.442822524485469557e+02
7.741549599275830928e+01
4.324465930238537794e+02
-2.014222046408225651e+03
-3.606002945041728253e+03
-2.096529936568244011e+03
-1.507609204263123672e+02
-5.901965524120215889e+01
4.835435539155353126e+02
3.989757158575794165e+02
-3.010026347476465389e+02
-1.179512807396035441e+03
-1.066367033271662876e+03
3.074742869588706071e+02
1.323267517221973094e+03
1.865554819260089744e+03
2.412544319545525468e+03
2.116283092595815106e+03
1.659515198286233499e+03
5.253351293450783714e+02
1.102951448333122698e+03
1.286956603627301092e+03
1.462576174083373246e+02
-6.233628244645331051e+02
-2.264461198360035894e+02
-1.840082351516593633e+02
-3.980230010916571359e+02
-3.667483831044156091e+02
-4.284230217316596736e+02
-5.627223143691824134e+02
7.241498255980529848e+02
1.485502656238071495e+03
1.776709021744888787e+03
1.401862747356994532e+03
1.819936981768238638e+03
2.247829710994253674e+03
1.407284194577339349e+03
1.143193353245433627e+03
1.039151542646667167e+03
7.355043992972063052e+02
1.514727678335179348e+02
-2.752143961567975907e+02
-3.315583018165874591e+02
-5.523356717199902732e+02
-5.972822967484551100e+02
-8.816426843184508471e+02
-8.631123674011116691e+02
-5.713092501261288589e+02
-3.806887441268654584e+02
9.177422757957849626e+02
6.693706125063230274e+02
3.229371603065598606e+02
1.151239668782766785e+03
1.847010064949518437e+03
2.667964901454446590e+03
2.546295907954467111e+03
2.500579136479640056e+03
2.476185726099915883e+03
2.412588089712336114e+03
1.066816762074667395e+03
-8.706083617997563806e+01
6.634602419573791394e+02
1.645461053802531524e+03
1.830160392586371017e+03
1.320447430450718684e+03
1.216677982676839775e+02
1.252886506199927226e+02
2.236569334175393067e+02
3.033693922197557526e+02
1.561436862201202302e+03
2.614945084646688883e+03
2.191428457931539015e+03
2.445653181214626329e+03
2.474704968388738962e+03
2.076658680507218378e+03
2.629083650868956283e+03
3.452039243770991561e+03
3.604365485300483215e+03
2.399120790774697070e+03
1.765904069193551322e+03
9.344483383892134043e+02
4.307840974405191332e+02
4.049341856897326011e+02
1.129720190382329577e+02
-3.153282361742792617e+01
-1.857806170487467057e+02
-1.054948159604330868e+02
-7.324644952266328346e+02
-9.872334918670824209e+02
-6.371956631393771886e+02
3.087385009190169285e+02
9.442454748196707897e+02
-6.355412784719396413e-01
-2.061517674065667507e+03
-5.297716260759049874e+03
-6.314967202734816965e+03
-5.907288838833611408e+03
-6.197123885423360662e+03
-6.388873826051138167e+03
-6.327208748865668895e+03
-6.683465481920621642e+03
-6.314831968130240966e+03
-6.588932542858274246e+03
-3.211475208345788360e+03
7.765177859159280160e+02
1.030679199541478738e+03
-2.606205093074253796e+02
-5.622565842363932461e+03
-7.381934485769066669e+03
-8.151680308876299932e+03
-8.363626042773799782e+03
-6.392590098384937846e+03
-4.404464542750761211e+03
-7.612807985227689642e+03
-7.852555818330152761e+03
-7.724213934020030138e+03
-6.513180106133259869e+03
-6.048351918288010893e+03
-6.337088489333006692e+03
-7.433189252217045578e+03
-7.870482696805795058e+03
-8.560599179491387986e+03
-8.971776678882812121e+03
-6.790689354978352640e+03
-1.947269164567027246e+03
-2.738496387442881314e+03
-8.473028492735425971e+03
-7.232058361958979731e+03
-3.090273331839674938e+03
-1.608323959877713605e+03
-1.360575012459936488e+03
-1.464354254940673627e+03
-1.331658858515429756e+03
-1.095464830593687111e+03
-7.788551817836854525e+02
-1.529410773377742089e+03
-1.838898450154585589e+03
-1.736639583655211254e+03
-1.401298573920210856e+03
-1.718982038091372715e+03
-2.473582709982312736e+03
-2.288623929847037289e+03
-2.174382329476906762e+03
-2.627184551448340699e+03
-2.688405829143338451e+03
-2.898764753494638626e+03
-3.506775349956140872e+03
-4.085735747115159029e+03
-3.738349552098437925e+03
-3.850336375743044755e+03
-3.469125345608758835e+03
-3.830786280431900195e+03
-4.168253761738496905e+03
-3.829361712616884688e+03
-3.197590262516629991e+03
-2.160564388241636607e+03
-1.026754095660265193e+03
-7.144112732374362622e+02
-1.058321151883415496e+03
-1.315518570542225916e+03
-1.559322776630046974e+03
-2.595239545429109057e+03
-3.862427725091813045e+03
-4.589761836109157230e+03
-4.826341381834831736e+03
-5.155187345611530873e+03
-5.561408449319261308e+03
-7.395914199404896863e+03
-9.789464076235117318e+03
-6.640251494243489105e+03
-4.810196112380657723e+03
-3.826690519287067673e+03
-2.353746454890006135e+03
-1.469513588820819677e+03
-1.090209499608849228e+03
-1.358978997934536210e+03
-1.315819114403239610e+03
-4.181129603870903111e+02
-5.708057449540164185e+01
-3.868730087513082481e+02
1.280524397632305806e+02
1.238223016139486390e+03
2.039051644349629214e+03
2.515032554501613959e+03
3.061133056868948188e+03
3.939413797016222361e+03
3.945446241610157813e+03
4.062535851180124610e+03
4.962151120389125936e+03
6.004944825550817768e+03
6.633567793733946928e+03
7.143772012116894985e+03
7.623383407202135459e+03
6.650018578601147965e+03
6.259095849654654558e+03
7.296279866466074964e+03
7.933339057290107121e+03
7.778574902850468789e+03
7.659452733472780892e+03
6.538472413617824714e+03
4.496141112845647513e+03
4.564969585390977954e+03
4.779408698289062158e+03
2.928970674875333771e+03
9.840157103737168427e+02
-2.510146061712887331e+02
1.527417186046857069e+03
7.123876995701481974e+03
1.275375115432573511e+04
1.564697186876856176e+04
1.503594751333795102e+04
1.243446712773916443e+04
1.070378131165270133e+04
1.061800943079425633e+04
1.282962480404202870e+04
1.403810597296136802e+04
1.304368059631613323e+04
1.131366012482320184e+04
1.193753320573259043e+04
1.391753431010705026e+04
1.547489705614992818e+04
1.448573826038573861e+04
1.073439344377170710e+04
5.140278734903536133e+03
2.668698113631542128e+03
-3.812561407318823399e+02
-2.598314770846072406e+03
-3.595171753230688410e+03
-5.918484715681658599e+03
-7.530931188333173850e+03
-4.104149675072630089e+03
1.359275490587584272e+03
7.647753270244840678e+03
1.117349372124837464e+04
1.282275637686481423e+04
1.553486136438100948e+04
2.144910941800225919e+04
2.537999996842281689e+04
2.655408277986315079e+04
2.820914532222075286e+04
2.914424892126330087e+04
2.944443386109585481e+04
2.834609164553010123e+04
2.583751604804305680e+04
2.235717351237144248e+04
1.916850128552039678e+04
1.502902939677699760e+04
1.594123940042915456e+04
2.295272722112288830e+04
2.788708335513723068e+04
2.559194672879836435e+04
1.884699427647398625e+04
1.287975392972562440e+04
9.299867790907012022e+03
4.935968100194091676e+03
-5.695249462213788320e+03
-1.491314643012430679e+04
-2.200492787075317756e+04
-3.349774050270143925e+04
-4.326576940794879920e+04
-4.583784429202209867e+04
-4.281223869921981532e+04
-3.625338117613926443e+04
-3.114342908858617011e+04
-2.787035041205634116e+04
-2.314521101524383266e+04
-5.374968899933331159e+03
1.616075988400594542e+04
1.853641626426715811e+04
7.801083137045034164e+03
-1.676606534680165169e+03
-5.705915222361189080e+03
-6.387670536552520389e+03
-6.393514482199529084e+03
-8.619135317013386157e+03
-9.162059202162592555e+03
-6.176887391107493386e+03
6.825509543020638375e+03
2.408957563527208549e+04
3.083794636105315658e+04
1.896421139491203212e+04
3.950615039413175509e+03
1.086528199130220401e+03
-4.165469602995900459e+03
-1.354291810549584807e+04
-1.928627478595778666e+04
-2.841056087075498363e+04
-3.425162969020776654e+04
-3.524915149438118533e+04
-3.509789161961010541e+04
-3.444187972883783368e+04
-3.346248730194921518e+04
-3.452301498991576227e+04
-2.137235047358787051e+04
-8.498687149499111911e+03
-1.400026681976105647e+04
-1.695711265961614481e+04
-1.023532470226110127e+04
-2.676015757904852762e+03
1.189072189416179390e+04
3.895587669624900445e+04
5.962541745519399410e+04
6.758138437971378153e+04
5.420880786688665830e+04
2.843571752179313989e+04
2.179199531452599786e+03
-1.432782278553278593e+04
-2.126518777368896190e+04
-2.097878143274447575e+04
-1.781762055733867601e+04
-1.722861922712460000e+04
-1.788766609493641226e+04
-1.937953434318665313e+04
-1.425309076416228527e+04
-1.067716271519960901e+04
-7.970605443587232912e+03
-2.584135589554415219e+03
-1.644862093693670613e+04
-3.353301789298313088e+04
-5.482926265808342578e+04
-8.146321146707909065e+04
-7.956655341986214626e+04
-5.074206753179567022e+04
-1.115675478899151312e+04
2.726503860316733153e+03
-4.569134867222049252e+03
-2.428966666227651513e+04
-4.296400057129679772e+04
-4.502997201325579954e+04
-4.152554373452308209e+04
-5.496558938365890208e+04
-7.794999765672058857e+04
-7.585180052147024253e+04
-4.860998888582085056e+04
-2.269150369382106510e+04
-1.115720926504352428e+04
5.158490268348660948e+02
1.596263496238794505e+04
2.035107245910195707e+04
2.698905278851842013e+04
2.994247616124072010e+04
1.681118225529042684e+04
3.874046415266575877e+03
3.530824699009260257e+03
9.376349944442819833e+03
1.087737827239949911e+04
1.362155961329175261e+04
2.628953449711705980e+04
2.744200479043652012e+04
1.828876302477797071e+04
1.532146658382386886e+04
1.433383876015590431e+04
1.095432058568795765e+04
-1.035670597426919812e+03
-9.972611350404446057e+03
1.117295220169837557e+04
3.221335784419895572e+04
2.514396699795694803e+04
1.889408982628617377e+04
1.313499762740791630e+04
1.776555706615158851e+04
4.736400444276548660e+04
7.525689570189264487e+04
7.595752200845759944e+04
6.339102055763533281e+04
6.094965437734135776e+04
5.815109487202745368e+04
5.333226789198966435e+04
4.687723267627519817e+04
4.239361270658690046e+04
3.370768290614891157e+04
2.611409931392693761e+04
3.600061964023044129e+04
4.754478428715431073e+04
4.042171741015914449e+04
2.995114174342407568e+04
2.892746354631045324e+04
2.917717783638880428e+04
2.235236632119896603e+04
1.518170423321698036e+04
1.700995037361375580e+04
3.042568171002854797e+04
4.958475008242355398e+04
5.256861683502596134e+04
4.229143788408427645e+04
3.078027452816536243e+04
2.067172312430554666e+04
1.262603075745038404e+04
1.307740710613800547e+04
9.057063201776212736e+03
1.247225521635418590e+04
1.867313896134492461e+04
2.573100300183912623e+04
2.587699070275175472e+04
1.198219642607881906e+04
2.254646726303084051e+03
1.294462833454720339e+03
3.120734052331152725e+03
1.081345070958180622e+04
1.169065503194747726e+04
5.072367989062536253e+03
-4.180447088920209353e+03
-1.313284812346235231e+04
-1.733284192053239531e+04
-2.298352532030451766e+04
-1.553705579822437176e+04
-1.882447509531860533e+03
-3.722859935665508146e+03
-9.996329914347124941e+03
-1.920094616184155529e+04
-2.623990283173156422e+04
-3.281437108443641046e+04
-3.737651624238647491e+04
-3.581148476133968506e+04
-3.253238328898054169e+04
-3.193529069701189292e+04
-3.898232400703500025e+04
-4.355167319799114921e+04
-3.837939530773393199e+04
-3.266352557240224633e+04
-3.018924164823197134e+04
-3.076873525972104835e+04
-3.586914963253608585e+04
-3.957861989443205675e+04
-3.794411447158487863e+04
-3.604953344564104191e+04
-3.767845912775371107e+04
-3.806896180194547924e+04
-3.566403194737267768e+04
-3.315382666093909938e+04
-3.188239701026561306e+04
-2.994967435760926674e+04
-2.806256360516136556e+04
-2.887307182790648585e+04
-3.201229838613240281e+04
-3.179516716902582993e+04
-2.287060314967464728e+04
-1.672158694741924774e+04
-1.675807732481399216e+04
-1.797090940840819894e+04
-1.525297428552933161e+04
-8.725187850441607225e+03
-2.831403603005980585e+03
-1.613032050031454219e+02
-7.246617958762153648e+02
-2.498311889160264400e+03
-4.189977053617385536e+03
-5.585298264493293573e+03
-6.064995720555939442e+03
-4.876731002290758624e+03
-4.949962860757352246e+03
-4.291322059708874804e+03
-1.903467818434107357e+03
-1.460972208958474084e+03
-1.996258245694205243e+03
-2.546737054297776922e+03
-2.965799597630992139e+03
-3.425768801065480147e+03
-3.904163739060907119e+03
-4.051391691958174761e+03
-5.619668907102085541e+03
-6.858261673094864818e+03
-6.629505419439926300e+03
-5.788921531536331713e+03
-4.529043942192866780e+03
-4.999175102688822335e+03
-6.484366482540207471e+03
-5.282567015268106843e+03
-3.822682574649364597e+03
-4.519808029607553181e+03
-4.541103867105050995e+03
-2.838828781871855426e+03
-1.724903938954879550e+03
-9.171113453640829221e+02
-8.234470033551069434e+01
9.726978960680344244e+01
4.827084444041452116e+02
1.030003179131677825e+03
1.509424294238623816e+03
1.753354679129190799e+03
1.660348267056601117e+03
1.573634771722513960e+03
2.219594569273447178e+03
2.587391245679055828e+03
2.244189155324786498e+03
1.946433714559774899e+03
1.160425380201211283e+03
1.488335088790161080e+03
2.286124531539012423e+03
4.176669458124697485e+03
5.027443097908605523e+03
5.293901809589598997e+03
5.267283181203081767e+03
5.306671431369309175e+03
5.555548293630537955e+03
1.008357773688352609e+04
1.455118392808312819e+04
1.758284957529528401e+04
2.017605643698803033e+04
2.034240142448618280e+04
1.933355232944745148e+04
1.804517191593466123e+04
1.773685374815361138e+04
1.653922601081995890e+04
1.615544881993903618e+04
1.677654957215764080e+04
1.860907499607730279e+04
2.090309591379396079e+04
2.152365558860668534e+04
2.081835904281512921e+04
1.946567432436932359e+04
1.904235032361738558e+04
1.834958172017962715e+04
1.707502381112206058e+04
1.607923502724749414e+04
1.589626031515417526e+04
1.716072179016764858e+04
1.726266611864387960e+04
1.633519585142554752e+04
1.511245748587759590e+04
1.300294596704380638e+04
1.027220173219272510e+04
6.595543348545314984e+03
6.109269296222047160e+03
1.057212152842255819e+04
1.725487553814339481e+04
2.041715757861454767e+04
1.836755027252113723e+04
1.522429972366229777e+04
1.339667199865793009e+04
1.101412526046929634e+04
1.047032691646854983e+04
1.002862630010541579e+04
8.182220589511498474e+03
6.468599376515032418e+03
5.964520275231145206e+03
7.725995807518183028e+03
8.047981951599399508e+03
6.297425987114975214e+03
4.500889654127806352e+03
1.003088815056168869e+03
-4.319152772137349530e+03
-6.016631822399117482e+03
1.009437381730034758e+03
4.828283557304038368e+03
2.582914657434716901e+03
2.524527225652860125e+03
1.562409346800078083e+03
-6.991818681409819192e+02
-5.848041085707633329e+02
-2.404191089650573758e+02
-1.026067235275300391e+03
-8.030654237389007903e+02
-8.943652482824403478e+02
-1.413600894440184902e+03
-2.165521129366139576e+03
-2.906526902355080438e+03
-3.815751284408845549e+03
-4.643985019721720164e+03
-5.130378696126181239e+03
-5.365940463927817291e+03
-5.065172633401029088e+03
-5.142335115480133936e+03
-5.510551658388047144e+03
-5.730187394742968536e+03
-6.231546131142304148e+03
-7.084703524551792725e+03
-7.870369183319521653e+03
-8.341187388489770456e+03
-8.853280299719217510e+03
-8.972316468762821387e+03
-9.132849426122762452e+03
-8.976701413298904299e+03
-9.140098975996463196e+03
-8.747389023518007889e+03
-8.933957011147769663e+03
-9.955043557636572586e+03
-9.669561429160581611e+03
-9.166289825806676163e+03
-9.338219662608064027e+03
-9.607084968341263448e+03
-9.458031284757031244e+03
-9.344386566240013053e+03
-9.306866542186369770e+03
-9.855093777941101507e+03
-1.053097968985243278e+04
-1.084535590601490367e+04
-1.104081077614826791e+04
-1.131694454252666583e+04
-1.146241056313142144e+04
-1.160361595444121122e+04
-1.143808513169737671e+04
-1.115824580198230433e+04
-1.111735877025504305e+04
-1.103292413271790429e+04
-1.074431435505948320e+04
-1.053579819106399009e+04
-1.050914557866817995e+04
-9.974992596743641116e+03
-9.843078232471374577e+03
-9.859227884202478890e+03
-9.600963766064098309e+03
-9.717031234594995112e+03
-9.859561063804167134e+03
-9.694451192341908609e+03
-9.081871584911525133e+03
-9.287873710596591991e+03
-9.512739149175875355e+03
-9.370484411197565350e+03
-8.955847808132288264e+03
-8.442994687096932466e+03
-7.493866617515097460e+03
-6.945798620868693433e+03
-6.843152512418753759e+03
-6.181868099764479666e+03
-6.396863204742506241e+03
-7.814852830021048248e+03
-7.672569916680673487e+03
-5.726238850019674828e+03
-3.077206000386075630e+03
-4.976543526567371373e+03
-1.588068643290103637e+03
-1.794268068103320729e+03
-2.617980221378720216e+03
5.731335228003099473e+02
9.395350326366362879e+02
1.025329194144926987e+03
1.207059637737262165e+03
1.084989174464758662e+03
-1.076135058647377491e+03
1.220455555442711557e+03
3.694357935068803727e+03
1.956176511439535261e+03
-1.777608383218615927e+03
9.501925257911619838e+01
4.405828017719251875e+03
1.947096163971549004e+03
4.136261213788776331e+03
6.919433505569638328e+03
4.372991684571048609e+03
4.886042325803263338e+03
5.257789978895784770e+03
7.434672515224771814e+03
8.277962602237757892e+03
8.033776762257351947e+03
7.464670193195855063e+03
7.440195537343938668e+03
7.027900545584601787e+03
6.980618331272277828e+03
7.271224821550119486e+03
7.733274833083003614e+03
7.652132306125783543e+03
7.504837173661554516e+03
7.192948495225653460e+03
7.162260926622871921e+03
7.518257978477769029e+03
7.666545301820166969e+03
8.026818757266963985e+03
8.004521759569889582e+03
8.095804520436047824e+03
7.646463387212258567e+03
6.963788266148493676e+03
6.741814635432964678e+03
6.223887338865657512e+03
5.815122485731973939e+03
5.680034973155751686e+03
5.307900204549664522e+03
4.760754372035367851e+03
4.374679854960852936e+03
4.247573721488620322e+03
3.911944252611596312e+03
3.702580822738598272e+03
3.873925720535659366e+03
3.389711896195039571e+03
2.951812934910582044e+03
3.354446166270699905e+03
3.637367191993852430e+03
3.596660539256110042e+03
3.160581143166223228e+03
2.220503293433048839e+03
1.191411095511005215e+03
1.636750482159569856e+03
1.554874417935452584e+03
9.357847640426751923e+02
8.207566871060977292e+02
1.795001621808141294e+02
-1.051238653177686956e+03
-1.576413867158735229e+03
-1.363672796558205846e+03
-8.839835823153507590e+02
-8.691517339700994853e+02
-6.820178303598802358e+02
-9.278166845712263466e+02
-1.058388733214099602e+03
-1.084099220747483287e+03
-4.528401351828301813e+02
-2.277327290809343481e+02
-8.143022228034041063e+02
-1.516994578207867789e+03
-1.648959927600460333e+03
-1.759279158811721118e+03
-2.144132579340124721e+03
-2.243542738954522974e+03
-1.811588067811088649e+03
-1.984417528461508937e+03
-2.390305485981840775e+03
-2.354714880644309687e+03
-2.469761921514463211e+03
-2.319695366294210544e+03
-2.891873027417186677e+03
-3.244272428371771184e+03
-2.705898838330665512e+03
-2.454870653961928838e+03
-2.171465341275456922e+03
-1.474908799880708557e+03
-9.104486966162210138e+02
-9.363812610642643222e+02
-9.338577923840047106e+02
-1.297003849683479530e+03
-2.080091219589996399e+03
-2.061363725897235781e+03
-1.793145438462856873e+03
-1.534617671459356416e+03
-2.034984468063709983e+03
-2.385668311733152677e+03
-2.600675312482189838e+03
-2.718858845003716397e+03
-3.206567897091948907e+03
-3.183375827981207749e+03
-2.691486395749488111e+03
-2.366014425677103645e+03
-2.253152578628130414e+03
-1.847029430830647470e+03
-2.510844693964439557e+03
-4.302836854919240977e+03
-7.304279202505292233e+03
-9.315255969048661427e+03
-9.220074449344603636e+03
-8.307985037727192321e+03
-8.151970165941555024e+03
-8.486039834064771640e+03
-8.519448258450020148e+03
-8.314558809937483602e+03
-4.105647357523026585e+03
-4.088310553695665135e+02
1.180070919662800293e+02
6.515608987335242546e+02
9.955393032187014342e+02
8.708575452752388628e+02
7.334934784571464661e+02
4.292781369555683568e+02
7.619683209311982637e+02
1.554102011999104889e+03
2.208533079511016240e+03
2.390245362868723078e+03
2.315175743779325330e+03
2.377382622468406680e+03
2.572863411120733872e+03
3.175539169947444861e+03
3.211232722323484268e+03
3.039079350859218266e+03
3.436061359555335457e+03
3.337076660414034450e+03
2.895884939188778390e+03
2.974071418434268708e+03
2.698673522224690714e+03
2.277879337598192706e+03
2.425756928144933227e+03
2.559359082550520270e+03
2.867729272137906719e+03
3.416867329127554058e+03
3.714742267595453995e+03
4.190312391339719397e+03
4.150522748189361664e+03
4.448689360332951765e+03
4.887014843381923129e+03
5.264282442405637084e+03
5.313476834419748229e+03
5.416743135869870457e+03
6.060320092792394462e+03
5.793086773634484416e+03
5.639678979774355867e+03
5.526732093983146115e+03
4.909478513846057467e+03
4.668392515805495350e+03
4.274706388924390012e+03
4.182463041044745296e+03
4.132798709234685703e+03
3.973675729355126805e+03
4.465255063934799182e+03
4.958752790023448142e+03
5.002222551974889029e+03
5.080670955960030369e+03
5.491030699059381732e+03
6.125446739331260687e+03
5.759246040675283439e+03
6.119637092576634132e+03
6.230908844155326733e+03
5.910370707054124978e+03
5.826821947317908780e+03
5.686567774607139654e+03
5.445858568376665062e+03
4.700331429989218123e+03
4.319910564523749599e+03
4.027684372892724241e+03
3.764908723149640082e+03
3.455564778943529745e+03
2.231720248366563737e+03
1.721634554469187151e+03
-2.306263064981608011e+02
-3.949994770262438124e+03
-5.358339293002641170e+03
-5.052548712779067500e+03
-4.051535719740305012e+03
-3.154118877281032837e+03
-3.133145071227653716e+03
-2.372519049121800890e+03
-2.599248603196567728e+03
-3.249293099763082864e+03
-3.717502967209737562e+03
-4.520758861088181220e+03
-4.806969052166961774e+03
-4.378052245985768423e+03
-3.711922967835099371e+03
-7.014450144598574752e+02
-1.415595782606198327e+03
-5.511251886620944788e+03
-6.082305533825164275e+03
-5.557658122602221738e+03
-5.157312083486352094e+03
-4.775173088439069943e+03
-4.572201479673510221e+03
-4.492284034716342831e+03
-2.187289500167244114e+03
3.390731929157356262e+03
1.991818496876583367e+03
-2.919893294994993084e+03
-3.776321420709612084e+03
-4.063432892833081951e+03
-4.295217772334853180e+03
-3.911722758339324628e+03
-1.013738229210940176e+03
-2.899290835316201537e+03
-5.423413368360388631e+03
-4.340092450422537695e+03
-1.340270976519280339e+03
7.512112165288087908e+02
2.541305613538984744e+03
2.569887494275548306e+03
2.400916876284558384e+03
3.101472471393510659e+03
3.327647229961620269e+03
3.569458560155638224e+03
4.097890670521522225e+03
4.471934948053274638e+03
4.697559498665795218e+03
4.931775941068919565e+03
5.137552833323010418e+03
4.897835613742456189e+03
4.272576691453327840e+03
3.399784142519255056e+03
2.741367162517433826e+03
2.125241167988718189e+03
1.713540958314886666e+03
1.879226527433582305e+03
1.792193663456435843e+03
1.017384454979316956e+03
4.717880117615156905e+02
9.412855324955470451e+02
1.585833862091171795e+03
1.601382127364889129e+03
6.237979102008456493e+02
1.178073975766763397e+03
1.700633376329831663e+03
2.161274216179785526e+03
2.922674623816985331e+03
3.756777382557926558e+03
3.442706821650882375e+03
3.379075695340389757e+03
2.642996085230736753e+03
1.346628198917425152e+03
1.017377654681775198e+03
8.732395794263127300e+02
2.738702358926357761e+01
-2.393869157415494442e+02
-4.887831380154552789e+02
-9.809985760604121197e+02
-8.035229772494473082e+02
-1.459214814587595868e+02
2.087284361884848636e+02
3.335137868892938400e+02
8.099291415416247446e+02
1.145679507761176410e+03
9.742244374778853171e+02
1.394100798998383880e+03
2.368168351227737276e+03
2.703570995975062033e+03
2.504443515132171797e+03
1.969667999746374790e+03
1.715108997138069299e+03
9.017254875206447196e+02
1.413764526945969635e+02
-5.894124326582691964e+01
-2.022709238947165602e+02
1.703556157415324037e+02
1.718029167311461833e+02
-1.350844239604335542e+02
-2.123176558499584701e+02
1.194510738062283473e+00
8.693261856809575647e+02
1.030063539751879716e+03
5.633494304718567491e+02
1.161122601164052185e+03
1.577407307750577502e+03
2.190169187911903464e+03
1.886402160149024212e+03
1.183021683740535309e+03
7.450195956952177312e+02
7.034318315932855512e+02
7.941706414972361472e+02
