-6.665064253462512625e+02
-2.336428802016385760e+02
-6.978849390024664956e+01
-4.099168221862497035e+02
-2.970173752490390484e+02
3.048713011078613135e+02
5.467072585813123169e+02
1.905323435719695055e+02
-8.678028723433445890e+00
-4.894298238165672643e+01
3.672186296481301326e+01
1.112407087710121374e+02
2.036396586687186243e+02
1.049261471342034895e+02
5.091013468379167648e+02
7.532057412623640857e+02
3.201964755116229071e+02
-2.829846238693207283e+02
-3.043527976467703979e+02
-2.951030369279944239e+02
3.610287659853926812e+02
7.160633913637047954e+02
6.329665382731411682e+02
4.406910000382851536e+02
5.411380274017402598e+02
8.362359864393065436e+02
6.710589149486021370e+02
4.925869477888758752e+02
9.507633267402785577e+02
1.347618080507471404e+03
1.303148571829496859e+03
-4.595439057903788580e+02
-1.351272809926839955e+03
-2.127270094154737762e+03
-2.972627883306246076e+03
-1.565450625042712090e+03
1.035444588875617910e+03
1.245271036310757836e+03
1.309545948694291610e+03
1.021461196360197732e+03
7.153108692683239269e+02
9.747852394543330092e+02
8.378798222860784790e+02
1.212364521751574557e+03
1.733244128804316233e+03
1.888016833652162177e+03
1.847377340256870866e+03
1.858130465145022981e+03
1.613126281130722646e+03
1.722403196442136277e+03
1.632817924979930467e+03
1.400919341629936980e+03
1.440093814526059532e+03
1.494452953121432301e+03
1.361546504431679296e+03
1.568854912269758643e+03
1.716432088619221531e+03
1.703291550170714800e+03
1.763429592790641209e+03
2.040732626715141123e+03
1.721099889713857465e+03
1.644633895258492430e+03
2.232484108974466835e+03
2.025467853743431078e+03
1.655598478424795303e+03
1.473918997964454775e+03
1.602201649249577486e+03
1.734873091081749180e+03
1.725261167481245593e+03
1.667941657047552326e+03
1.159996184442409685e+03
9.603258656937268825e+02
1.060036071357754963e+03
1.453836921118547025e+03
1.593628472069158533e+03
1.723415746166066583e+03
1.955413662238115194e+03
1.915704710774624118e+03
1.900854384170351977e+03
1.864003197659440957e+03
2.076301883171301597e+03
2.089611981508658573e+03
1.852815370856281788e+03
1.886348620801722063e+03
1.775245994088121506e+03
1.585249661675109110e+03
2.933444649389460892e+02
-9.794671510368021927e+02
-4.630216186677684163e+03
-5.112911307965381638e+03
-4.963541079564926804e+03
-5.402049590877537412e+03
-3.553532514247917788e+03
-5.016014287059462731e+03
-5.895419138319880403e+03
-5.090778682291794212e+03
-5.156054867548189577e+03
-5.530967929713705416e+03
-5.973724600089860360e+03
-5.238353515883468390e+03
-5.420426642524394993e+03
-4.137261060238816754e+03
6.943824660315544861e+02
1.012402654681768354e+03
-3.220067242877918488e+03
-1.999305727474397145e+03
-2.923553639258377189e+03
-2.460218495237008028e+03
-3.142473413189868552e+03
-4.425333205340691165e+03
-4.494623452295878451e+03
-4.529667381489518448e+03
-4.586308861508795417e+03
-4.873514722031004567e+03
-4.701284834799039345e+03
-3.061671116060832446e+03
1.184317001818234075e+03
-2.043238641092876151e+03
-4.708296838206947541e+03
-4.877875395006558392e+03
-1.967941779114362816e+03
1.531593916752508676e+03
1.334735638416397478e+03
-2.104799233673132903e+02
2.202029682651512303e+03
2.337356994657077848e+03
2.301580559190811073e+03
2.920746448556325504e+03
2.928788517812555710e+03
2.812651155916849348e+03
2.731317306572866528e+03
2.552882215928895675e+03
2.599371335089272634e+03
2.513767516325869565e+03
2.617102149346355873e+03
2.199388168080571631e+03
1.935671812165895744e+03
1.815994301083991786e+03
1.755528103388348882e+03
2.353290895251813254e+03
2.764247079540190953e+03
2.356416582987672882e+03
2.031831320835417955e+03
2.210496682961548231e+03
2.092526708638025866e+03
2.032940066793310052e+03
1.950769334961311415e+03
1.916038037039849769e+03
2.015783042536174662e+03
1.994128447871308936e+03
1.684132970351292670e+03
1.476773922793486236e+03
1.309914457084787728e+03
1.301478032829026006e+03
1.215600924019663125e+03
8.612924742231302844e+02
1.031526626888670307e+03
9.513620623848246396e+02
2.748611192374294205e+02
-1.408016828075856438e+03
-8.930406792435458385e+01
7.182162640811152414e+02
2.516814266848159320e+02
-1.396522424842854093e+02
8.608640248232692329e+02
7.341808815501452727e+02
4.697006927292824798e+02
4.542284243848466190e+02
6.075387756439724853e+02
6.027729096964316113e+02
5.041193306260384475e+02
5.091879400612318136e+02
2.273081774009208118e+02
-1.718303250152603567e+01
3.992521534664898581e+02
6.815155266363740338e+02
6.727548268624954062e+02
2.842721164728542931e+02
-1.885458593169968466e+01
-1.480444968538461410e+02
1.672393912581269149e+01
3.065517201233727178e+02
2.054387353783898504e+02
1.013716998794846660e+02
2.641858946880657300e+02
4.038477431663291668e+02
4.564238239600032330e+02
1.149238308672773172e+02
2.574015324983231494e+02
1.939182941978040162e+02
1.584458408323582432e+02
4.094978529821958801e+01
1.844116737556550447e+02
-2.442692770633154851e+02
-4.790081874958391950e+02
-2.787612966494517082e+02
-2.606123679577979146e+02
-2.155593253352602972e+02
-2.776313643357651699e+02
-4.237878616311712676e+02
-3.380147968771688056e+02
-1.733931711500077313e+02
7.405639904943156182e+01
-4.562987453719090070e+01
-2.415188661609411440e+02
8.947994268422299058e+01
2.004137466172966242e+02
-2.138003578942398804e+02
-1.811933970520241814e+02
-3.286730197297225686e+01
-1.688570223068662415e+02
4.395325716126824744e+01
-5.847225899043888120e+01
-8.372677777646558752e+02
-2.848451370960628992e+03
-5.869963258516371752e+03
-5.791676034595318015e+03
-9.795628565174813502e+02
-1.818236678643784217e+02
-4.967620359624572302e+03
-6.910912856860216380e+03
-6.605978051296649937e+03
-5.870563207904549927e+03
-1.472668937897391743e+03
-1.060409070407441277e+03
1.741542198951148634e+02
1.166113920811136495e+03
9.183721419126785577e+02
5.647371695223225743e+02
7.024604854571041415e+02
8.516870019366800761e+02
1.086244532366924204e+03
1.221006943688083766e+03
1.121748986150741985e+03
1.068341837280521304e+03
1.147987963509106066e+03
1.013689555188927898e+03
1.121435814690030838e+03
1.200343251912260484e+03
1.034978058529103237e+03
1.231299830200196993e+03
1.368641844647458129e+03
1.020558995881310693e+03
6.614020497472488387e+02
6.833788164445671782e+02
5.341381544640453285e+02
5.027774643082809121e+02
7.512906343429036724e+02
1.182626582957349910e+03
1.208733562335775332e+03
1.248455559597040747e+03
1.196713618334532157e+03
1.204494085828773905e+03
9.437473182842376218e+02
4.754172791894316674e+02
2.804938187401391474e+02
-1.220501192344728167e+02
-5.542702100965551608e+02
-5.530095924972218882e+02
-2.952983611005768694e+02
2.370978432033652723e+02
4.328460207791355856e+02
3.450685898362709736e+02
8.306446738073668712e+02
1.140367143284738859e+03
9.705144341500794098e+02
1.164252385542052025e+03
4.111923831063378998e+02
3.514242716152530193e+02
4.221429344841714055e+02
5.261229792932465443e+02
9.382391679705466458e+02
1.084420662871626519e+03
9.652284438548375647e+02
5.257601566913717051e+01
-2.046774742137264411e+03
-1.317673481009788475e+03
-1.193116979610825439e+02
8.244105154349357463e+02
1.455410589573210473e+03
1.071685266026782074e+03
6.931733664090794491e+02
7.208613474660193106e+02
2.927503675254314999e+02
-2.982141588365078633e+02
-9.560222097013639768e+02
-1.463712958098613626e+03
-1.421210974242093698e+03
-1.380286069439178391e+03
-3.127825957077734074e+03
-5.913835410287148079e+03
-5.590440409943518716e+03
-4.456729309713193288e+03
-2.945989382414851661e+03
-3.228150163144302496e+03
-2.694114651177261749e+03
-6.857424969200205851e+02
-2.109120409533884867e+03
-6.803253540237336665e+02
-3.255216943010841533e+03
-3.035840770042270833e+03
-6.791968249531323636e+02
2.627641229504341936e+03
4.219700526569080466e+03
3.297070421151689970e+03
2.429789091753312732e+03
-6.781367829920038730e+02
2.953415832126775058e+02
-1.611746327283380197e+03
-3.462491997988411185e+03
1.521126323563848246e+03
1.338180785352872363e+03
2.136654533224945681e+03
2.641519089697425443e+03
3.289915245933620554e+03
2.970818927453291963e+03
1.469107977836823920e+03
1.674878927349929882e+03
3.444162311523255539e+03
3.214877514834797694e+03
3.155159114656809834e+03
9.050891644026887661e+02
-1.349313972758602631e+03
-2.170754683974200248e+02
-4.209213680766426478e+03
-2.855677424403545956e+03
-1.933336882149044982e+02
-1.464170519125501642e+03
3.237825832310744545e+02
1.644805802171390781e+02
4.309286493939380875e+02
-5.798530480476619005e+02
4.690649338437921756e+02
3.089710139971138688e+03
2.111841440902342413e+02
-7.814999547480136926e+02
3.316416420097339142e+02
-1.099394103423501747e+03
-4.774558571720052896e+03
-1.923799919681909387e+03
2.298822517667975717e+03
2.968331317850512733e+03
3.326646197007340561e+03
3.358888433897033337e+03
2.401135601505330214e+03
1.719063198016138358e+03
1.712721031381872535e+03
2.057883333651369867e+03
1.896425580779756274e+03
1.180876299231183111e+03
6.478888738389410946e+02
-1.502446473029883691e+03
-3.394394007871329450e+03
-1.387043808973415707e+03
-2.604261650750961053e+03
-4.858097690683341170e+03
-3.444729347239740946e+03
-3.480053910911909952e+03
-4.241179923896663126e+02
5.205984732927804544e+02
1.035359366122286247e+03
-4.291995020588068428e+02
-2.454513362121694627e+03
6.692706026267852621e+02
1.208244061057596582e+03
9.276048250673344455e+02
9.384386193806049050e+02
1.310632783248929627e+03
2.113089675359681678e+03
2.950854218717562162e+03
3.861004671520296142e+03
3.545490048605533502e+03
2.527187332102818800e+03
1.811891934439037641e+03
1.803949452748887325e+03
9.715557548447548015e+02
-3.172627103266713107e+02
-4.989308083464516699e+02
-4.518507327362005981e+02
-1.532847144213861839e+03
-2.158449101648716351e+03
-1.652972736554999756e+03
-4.352965231514240827e+02
1.189212033292310707e+03
2.079513952813625110e+03
1.994625832329851846e+03
1.480554092213173135e+03
2.018368004017346948e+03
2.092968063837520276e+03
1.856463671066558618e+03
1.293878821274754955e+03
3.461022072682194448e+02
-8.238274832441016997e+02
-1.407927976772922193e+03
-9.862267129114767386e+02
-5.657103837125537211e+02
-1.022461121395773716e+03
-1.219519286914323175e+03
-1.303810679602278697e+03
-1.694370769013278277e+03
-1.319232095933344453e+03
-1.205318209550280017e+03
-1.244699091200285466e+03
-1.180451640729088012e+03
-1.230493399297743508e+03
-1.427883854041228346e+02
1.680601944526289117e+03
3.159629021924238259e+03
3.629279313210745840e+03
2.098592265439528092e+03
1.580558139849673353e+03
1.708180704030892457e+03
1.529577911036983778e+03
1.243714985126553302e+03
9.775718524098610942e+02
-5.729366846559126998e+02
-2.820857773240544702e+03
-3.282083359441634002e+03
-4.595556886270059294e+03
-2.295396465021055064e+03
-2.877690883978314559e+03
-4.715307490938672345e+03
-8.839338739129706255e+02
1.381362427962213530e+02
-1.501123350870612057e+03
-9.167477513125594442e+02
-1.644720488482743804e+03
-3.743028073872775622e+03
-2.424744681069138551e+03
6.421417498646552247e+01
-2.355073164687459666e+03
-5.491665132544541848e+03
-5.493698445563317364e+03
-3.002120974988713442e+03
1.281063065853260696e+03
1.475720119703417367e+03
1.674195818995901845e+03
2.541690740729648496e+03
3.425857955484044851e+03
4.336709657951334520e+03
4.144352749724091154e+03
3.186842740815528032e+03
2.345133776778738138e+03
1.676189689366447737e+03
1.330887560902946007e+03
1.704462289719586352e+03
2.316013271924532091e+03
2.406452257537286187e+03
2.487724503498437571e+03
1.296811452869179675e+03
1.007831914627400579e+03
1.063840489650942573e+03
5.357679273861433558e+02
4.126053511198524575e+02
-4.179833627946486274e+01
-1.761364277538413603e+02
2.505635473964639459e+02
-3.334754797345798352e+02
-1.317473750257802067e+03
-1.782433127555913643e+03
-2.746340974384527726e+03
-2.330260758679306036e+03
-6.778383588705748934e+02
-1.812017803028554681e+02
-2.163351321252364130e+02
-1.111281166385384495e+03
-1.898067588392765401e+03
-1.515610008155967535e+03
-9.136280732177626760e+02
-1.851299683776361690e+03
-2.840572897495959296e+03
-2.875275641736360285e+03
-1.014280769090762305e+03
1.196169282576033993e+03
2.436700806316479429e+03
2.601850459341796522e+03
1.743927353854977810e+03
-7.461914575418053346e+02
-9.386616635870948357e+02
3.734909369946804532e+02
2.559577735396084961e+02
-3.749780529682784049e+02
3.416783965346701279e+02
3.679482629241547329e+02
-2.136077947059686267e+03
-3.809564572023056826e+03
-1.893300074792595296e+03
2.383846729713150125e+03
3.844577847436835782e+03
1.474281188589305430e+03
-7.841554059345413634e+02
-7.067901487312296922e+02
-3.925552113608445666e+02
-2.404609042059049102e+02
2.412285940573508469e+03
4.931823903649807335e+02
-2.295808791948104954e+03
-8.748629332004361459e+02
-5.079986668990199178e+03
-5.322066350857533507e+03
-2.356113912592883935e+03
-2.502100536472147269e+03
-1.365019699347337792e+03
1.351163947772332676e+02
2.005296887641239664e+03
3.963510427790340600e+03
4.548803964419801559e+03
4.019201565954481794e+03
3.495745796663216879e+03
3.115412613748793774e+03
2.531202229754056134e+03
1.903158951307224470e+03
5.492747774489320136e+02
-2.234426549067654378e+03
-2.258957779954127091e+03
-2.703346230708493749e+03
-1.746235122384277076e+02
-1.077794336244725400e+03
4.651888098816876322e+02
6.273464821864572514e+02
-2.726416190514877144e+03
-2.696125904747515506e+03
1.212252566535939309e+02
-1.635361620336018632e+03
-2.427813456839584887e+03
-3.871686234747799631e+02
-1.149483412827374650e+03
-3.253780968657194990e+03
-7.047125592974287429e+03
-4.435469679202496991e+03
-2.603786951371155737e+03
-3.101066524214383662e+03
-1.428223424278895209e+03
-1.180477865741294181e+03
4.781190307814803759e+02
9.985086447632247655e+02
1.499675975724114551e+03
1.601683455203349240e+03
1.839527911881997852e+03
1.665169148001685699e+03
5.565885490117440213e+02
1.273660740004010350e+01
-1.260378321772711161e+03
-2.323776405751696529e+03
-2.636493772419706602e+03
-8.616475323111347961e+02
1.194797565676984505e+03
1.629081939199490080e+03
3.516149323159582764e+03
3.646865199196385674e+03
2.448958903028476470e+03
2.090508114372791624e+03
3.143387964011571057e+03
2.998460545332776746e+03
2.183932131328163450e+03
2.620385431059686653e+03
2.990344086316369612e+03
3.621597160787679059e+03
2.867596636759017201e+03
1.897467391680241917e+03
1.816235473087765058e+03
1.742787885707582973e+03
1.925412416413500296e+03
2.448229767406933661e+03
3.139802799443217737e+03
2.755293720456495521e+03
2.386718086775365464e+03
2.517446460749564721e+03
2.608722356765702443e+03
2.052359889036717050e+03
3.003690885665876067e+03
3.736459518041884166e+03
2.940627802716016959e+03
2.387279933819324469e+03
2.080162868305628763e+03
1.064036288608731184e+03
6.003702977828943403e+02
6.569977997492201212e+02
8.591801078554262858e+02
8.247332473930050583e+02
2.763595159758862110e+02
-1.045697790071158124e+02
1.024365441703097758e+03
1.798375982598591918e+03
2.359590825515340839e+03
2.502638001427596464e+03
2.932625787561128163e+03
3.336448461061047055e+03
2.605191429871555101e+03
1.986551811467996913e+03
2.152396023108684858e+03
2.339393172271304138e+03
2.070334306403168284e+03
1.749901927283733357e+03
1.620266849806705977e+03
1.663603421006857616e+03
8.912782385885735721e+02
-1.908642951972624360e+02
-3.164482738604139740e+03
-6.991442591230252219e+03
-1.146790342943112591e+04
-1.105680859251833317e+04
-6.994200131384410270e+03
-4.548137422668389263e+03
-4.077663687858026151e+03
-7.743749391054815533e+03
-6.756369621020126942e+03
-3.949540525127497858e+03
-2.371190497864041845e+03
-2.612148397333298362e+03
-1.423730620175737158e+03
-8.607634464102185348e+02
-1.378158976015466123e+03
-1.524226857062769341e+03
-5.609827584202206481e+02
-1.408480444971764427e+03
-3.057500142233021052e+03
-1.666059529351085757e+03
-4.783020573923135430e+02
-3.523822518529219906e+03
-4.603018861531552830e+03
-4.425751480993954829e+03
-3.893030205181519250e+03
-3.630895040978631187e+03
-4.654352495953273319e+03
-5.300414425636758097e+03
-5.233057088031659987e+03
-5.309311524037708296e+03
-5.178082428337194870e+03
-4.055254452285043499e+03
-5.850819307435906012e+03
-5.449823505247343746e+03
-1.966152483529715710e+03
4.062737515956865764e+02
-6.425946550920100435e+02
-3.031732270939514365e+03
-8.590388692108092528e+02
2.136466089297324288e+03
5.781771933320419521e+03
5.102880474624856106e+03
4.678730872079435358e+03
3.952366556038874933e+03
3.124894426934929470e+03
3.263381039181206688e+03
1.998783342862738436e+03
2.386166739781434899e+03
3.268612687301802453e+03
3.176186401277266668e+03
3.167029028852350621e+03
3.154212351848284015e+03
3.027692137590091079e+03
3.289413774109973019e+03
3.442425438431912880e+03
3.165859913494371995e+03
3.138755302213628511e+03
2.737177078394665841e+03
2.460198930649533395e+03
3.065776505502635246e+03
3.024936389644369683e+03
1.945757345520813715e+03
1.948278951219296914e+03
2.796545771989453897e+03
3.010513507051973647e+03
2.329120177680696088e+03
1.412391643282760015e+03
9.134371368433287444e+02
3.874951026222238397e+02
-2.434748560896892400e+02
3.995077379315345070e+02
1.393564224543869386e+03
2.212774379733478327e+03
1.309125376919925202e+03
-2.005278883421361343e+03
-1.259376685329213387e+03
3.409209237596870139e+02
-6.890627128574989229e+02
-3.358587078744406426e+03
-3.166457382172076905e+03
5.516425490437690087e+02
8.454463914515152965e+02
1.098641413637147480e+03
1.131436704637609637e+03
1.255789862845221478e+03
1.482040327377006633e+03
7.624040270579707794e+02
6.677546559605473249e+02
1.624090297715134056e+03
2.747489507455900366e+03
2.086041600718586324e+03
1.632545603525412844e+03
3.937504589681880702e+02
-3.317672262062103982e+03
-3.040054135780808792e+03
4.946111567199970409e+02
4.122867210308328367e+01
-9.392859836256518520e+02
-8.329699818080039222e+02
2.723046597815176142e+02
8.776432649558774983e+02
8.770637893298854806e+02
-1.640428395595263055e+03
-1.134839408373208471e+03
5.458016896796912079e+02
1.222519485792667865e+03
9.473243324938422347e+02
3.782299886132529991e+02
4.413735182475598435e+02
1.196711485725423927e+03
1.390231972325413608e+03
1.064997658121444147e+03
-1.843010341862946234e+03
-1.526792540757746792e+03
-1.970366537254551531e+03
6.892083977611507635e+02
7.070362248740734685e+02
5.391829724794766889e+02
-2.283796939535664023e+02
-2.652596071637816749e+03
-3.015917312550510019e+02
3.234635967508705221e+02
3.656644438656643956e+02
-1.159350777492146136e+02
-1.362261843631187958e+03
-2.445331942406595772e+03
3.217471061542234452e+02
5.709108859007219507e+02
3.782954583658881234e+02
4.629484534016238513e+02
1.727518964806171198e+02
-1.013464875734323073e+03
-2.248770197277181524e+03
-5.914571575647153168e+01
-3.756183261362329517e+01
7.705879016541463500e+01
-6.015787026574391660e+01
-2.854475279614439955e+02
-4.779681164445228205e+02
-7.454396128096916527e+02
-3.318693506008107192e+02
2.165652115452149644e+02
5.948365310004061257e+02
-1.920847784223970848e+03
-1.901542516287489661e+03
-2.385160170925910847e+02
-2.682068338097251399e+03
-5.360671715257105916e+02
-3.222561535812160649e+00
-4.685254825757100434e+02
-2.341700486775972649e+02
-6.491891428913241953e+02
-4.292616087515512845e+03
-2.003701352666581897e+03
-1.621126841398184126e+02
-2.097683968064539783e+02
-6.500239291837434621e+02
-3.844192344404331720e+02
-5.742240891302714090e+02
-2.318181613197303079e+02
-1.140042796284198801e+02
-2.268815106621680115e+02
-3.605747108510457792e+02
-5.591610019018525009e+02
-6.796867704808104236e+02
-6.011436487403648243e+02
-1.054437192558155090e+02
1.353892474809865121e+02
1.134205381695685944e+01
8.042848334180237657e+01
2.106282653351978240e+02
3.670059470917486237e+02
2.066072575669928426e+02
3.133909917543006074e+01
-3.097992578967625832e+02
-3.541369483485921137e+02
6.349605695910534564e+01
6.698997320205478445e+02
8.651855017224171434e+02
7.486324871730464565e+02
3.019677123990404652e+02
2.920009717167845338e+02
3.380171687652253922e+02
6.789320556701035230e+02
6.365183734009374348e+02
5.159050377012866875e+02
6.722296554540817226e+01
2.066749352517002478e+02
7.327576584978922938e+02
7.874423459623938015e+02
5.968632496847483253e+02
4.678287332084830723e+02
7.234912313347946338e+02
5.767651025698143030e+02
4.056028553387358784e+02
3.490016615444419017e+02
5.079600191405978080e+02
9.434150111873235574e+02
1.077376819747748186e+03
6.219681587951226902e+02
3.471529802015344330e+02
1.648917858088005062e+02
4.512939593357716035e+02
-3.896489115897132365e+02
-2.768219771051434236e+03
-3.667461559352821496e+03
-1.912185595655465249e+03
1.204161057180450172e+02
1.964488778894217091e+02
1.709905108973844960e+02
-1.229718818185944116e+02
1.494284738177707936e+02
3.102691818234765151e+02
-1.754384028196989902e+03
-8.576265608174586532e+02
6.885748573849292598e+02
-1.907816675536328830e+03
-8.567083168663536981e+02
2.849722993257101393e+02
-2.087854605617874768e+03
-5.222049609820008982e+02
7.469198843823851348e+02
9.555221439151946470e+02
8.295951373542620786e+02
1.060157469046293727e+03
1.064219746226597863e+03
1.087945547553358949e+02
-2.034117600684631498e+03
5.655380837827190135e+02
1.127674111005825125e+03
8.522858736874468377e+02
7.165035665543966843e+02
-8.256689202900447526e+02
-3.702236323280528723e+03
-1.993121152165864714e+03
-1.527337416252313687e+03
6.431306993131353238e+02
6.432636691581117248e+02
5.580308935307982665e+02
1.974828418004191803e+02
-2.518352039072243770e+03
-2.525801007119363817e+02
8.448625520221086163e+02
9.160089264411183194e+02
1.148800783981507493e+03
9.092475948591433053e+02
7.793366057107645020e+02
-1.011879839837113423e+03
-2.505397159284075769e+03
-4.952187463662999676e+02
1.041658965657875569e+03
1.218331943917162334e+03
1.416816237455255305e+03
1.308123076841310194e+03
-4.157853501279228112e+02
-1.946810886331400752e+03
-1.924907994884880509e+03
1.751000810882495102e+02
5.032935522375060486e+02
7.447848839051357572e+02
7.461308325998271584e+02
7.683854681580749002e+02
8.207693147725186691e+02
9.560809853921044805e+02
8.966352011503660151e+02
7.490264652402757974e+02
-5.231119578495574842e+02
1.565142718886566797e+02
9.802637081056924444e+02
1.127934302260506229e+03
9.815881727918182378e+02
3.713545933654699525e+02
-2.076788983955139429e+03
-2.046940898016315032e+03
-6.149854936425194865e+02
6.551417189473754661e+02
-2.322783698139889566e+03
-1.487767073798719139e+03
-3.113113184422497852e+02
7.295312985058990307e+02
8.721987670176928304e+02
5.766036041884146925e+02
3.629986445922917824e+02
3.516052428286177474e+02
7.203623660651214777e+02
8.063651716106519416e+02
6.986572450528551599e+02
9.248768779333577186e+02
1.086883094338172214e+03
9.596419241573512409e+02
1.042181941850828935e+03
1.103441477059409181e+03
1.105503928521558919e+03
1.324580861318788266e+03
1.220941118847950065e+03
6.331698166610090084e+02
5.499858340914381643e+02
1.089220630099606979e+03
1.310112154839800951e+03
1.271637820652588744e+03
1.275850727407996601e+03
1.138715369860645978e+03
9.821418550717223752e+02
7.352463243749276671e+02
6.509552300916316199e+02
4.131860756521841154e+02
9.179710838129419699e+02
1.460324202069489274e+03
1.322263102139950661e+03
8.647850176166577967e+02
4.938630460638924546e+02
3.344656779381140836e+02
2.585990432392368348e+02
5.812540078361081441e+02
1.032464477345111618e+03
1.208192279901039456e+03
9.654037291744638196e+02
1.006129327391413199e+03
1.122469971141092401e+03
1.157297955046804645e+03
1.365518845823870834e+03
1.352238857597927790e+03
1.152545914242775098e+03
9.594169285888244758e+02
1.085847057141327923e+03
8.278530002890646529e+02
2.124603732365092981e+02
1.725406577452199031e+02
4.380622892481263762e+02
-1.299683050631186347e+02
-1.746477953815747014e+03
-4.977269605772362411e+03
-6.881404068828107484e+03
-6.476097110453818459e+03
-6.112151039756976388e+03
-6.439388814114939123e+03
-4.609020388301764797e+03
8.964248333952164671e+01
-1.472203005330372434e+03
-4.134590651774882645e+03
-6.398483795503146212e+03
-6.420782626896003421e+03
-5.805543989473801958e+03
-3.568737651409109276e+03
7.666444638616368366e+02
1.489511920641073402e+03
1.670865388134141540e+03
1.689848019252196991e+03
8.904270271141317608e+02
-2.292280743492351576e+03
-9.640279721070380674e+02
5.429086642050328919e+02
1.676214744504569126e+03
1.850215576718457669e+03
1.500994538771726866e+03
1.458503233844047372e+03
1.601634946370074886e+03
1.632416790290829340e+03
1.463958932079757233e+03
1.136497410150686164e+03
8.927990610530979438e+02
1.158788293880673109e+03
9.755223968754230555e+02
7.810992333422403817e+02
7.665609114991293609e+02
7.848619633632898740e+02
8.829393006123409577e+02
1.103855094600364282e+03
1.411720412070512566e+03
1.290832778172680264e+03
1.125979235927378113e+03
7.151387398044497559e+02
5.361242175921228181e+02
6.071528637948576943e+02
7.082775382164629718e+02
9.485578195282706702e+02
1.008181747117663463e+03
4.237914177116656447e+02
1.744975132277221519e+02
2.343650835375838426e+02
4.065071450244268476e+02
4.269405245051104316e+02
3.326983373605960423e+02
-1.434315281712584920e+02
-3.652444686962430183e+02
-7.470078017754967448e+01
-2.507973061843815117e+02
-2.854674420899718825e+02
-5.857270240997650745e+01
1.769184781807474565e+02
1.587186641172316968e+02
2.669827217185148811e+02
1.736322620411247328e+02
-8.892646624800180462e+02
-2.393731062847618887e+03
-1.357483683112658809e+03
-4.913761915538858034e+02
-7.822391078302958078e+01
-2.743129280107573891e+02
-3.817718813228973431e+02
-6.251499930870886601e+02
-3.416115233237233042e+02
-3.563891524329154095e+02
-4.101946736608889523e+02
-3.683575227072561802e+02
-3.697627219432802121e+02
-4.823037663387798375e+02
-3.710050863156968148e+02
-4.207826859934560275e+02
-4.763746186051344580e+02
-3.802232203342826438e+02
-3.503287353538094635e+02
-5.045281136284157810e+02
-3.597656842044680161e+02
1.789203293626833329e+02
-1.674575080513400565e+02
-4.049119968485535992e+02
-1.124030547948472929e+02
-3.289357455862335655e+02
-3.984854290511584054e+02
-9.501048317553129152e+01
-3.905523350748722464e+02
-3.821345155992046898e+02
-5.127424505731220279e+02
-4.893922536482721739e+02
-2.760589028104269573e+02
-1.727236326477369914e+02
1.425696035183183028e+02
-6.771779221516640064e+02
3.061235213331384486e+00
7.052895669782577670e+02
8.655464979120575890e+02
2.477963482509672417e+02
-2.589885965067189773e+02
-2.718791519077004182e+02
-3.688397328883260116e+02
-8.177984297819519952e+02
-2.557774600298656935e+02
-1.068316903219277378e+02
-1.369988204712789468e+02
2.077016387202294254e+02
-1.867029818987381589e+02
-4.712635580340041770e+02
-4.020079403676986090e+02
-2.779743909801620703e+02
-4.921645610935084392e+02
-1.014582208383357170e+03
-1.625269598244610734e+03
-1.303254586078601278e+03
-4.045720139846635988e+01
1.060645115005811334e+02
5.572738733793660231e+02
9.121631312876425000e+02
7.966555573282266778e+02
4.637120263577325545e+02
6.973397011716083398e+02
9.855468432176037368e+02
-2.267138589596416409e+02
-1.944505654894105646e+02
4.832545760387124005e+02
-9.862026924577598663e+01
-5.120048111039685637e+02
3.023985746256641960e+02
5.790632153114179346e+02
7.980709983591378887e+02
5.455307291655932431e+02
7.532290881559916897e+02
7.734141856264398029e+02
6.848220964518448000e+02
5.922931864375377700e+02
4.030371533385626890e+02
6.450251741651525208e+02
8.058189994133019809e+02
7.060973504921851145e+02
1.062284546961791875e+03
1.135369017743594668e+03
9.027749951058059423e+02
8.049933767108693701e+02
1.114945997797002974e+03
1.697710697303306688e+03
1.431286969529972566e+03
1.029590858212805642e+03
1.111541099664884769e+03
1.089181139121652222e+03
9.258716324588313000e+02
1.079883603821823044e+03
1.075507142599087047e+03
1.078699989546543975e+03
1.065654383916033339e+03
9.841325672829066207e+02
8.624124530153537762e+02
7.652173308826394305e+02
1.271557100262343283e+03
1.713386982411361714e+03
1.453602799338822706e+03
1.045178659675916151e+03
8.489375214208224634e+02
7.352403529912813838e+02
1.272850937874287411e+03
2.277691533404174606e+03
2.209550805099305762e+03
2.537705187591354388e+03
2.732183831115195972e+03
2.261861039727375100e+03
1.500815053085097816e+03
1.154046290943426129e+03
6.912341638549308982e+02
8.293840702586453517e+02
9.615712393782556546e+02
1.321777156516749756e+03
1.294004231224976365e+03
1.544370309770934455e+03
1.800887372302365293e+03
1.869458171745030768e+03
1.067895369107301121e+03
-3.527353040429431417e+02
-3.767412548425921159e+03
-2.548111833708905124e+03
1.413122028669102747e+03
1.748300085296616544e+03
1.592394892322402484e+03
3.513981208852931672e+02
-4.021722442848415085e+03
-6.147815941672097324e+03
-5.558875806868955806e+03
-6.048009405175066604e+03
-6.276176802470131406e+03
-5.951380006090957977e+03
-5.578556393972726255e+03
-5.179541473808705632e+03
-5.040484007681419826e+03
-5.220478935677923801e+03
-5.315558022686030199e+03
-5.358357306818809775e+03
-3.201141746246751609e+03
5.250641437429309235e+02
-1.545710486849261088e+03
-4.944416851510847664e+03
-5.759986870696756341e+03
-5.080407123977611263e+03
-4.840672695842958092e+03
-2.287823086172416879e+03
1.646173273729760012e+03
1.821398508200505148e+03
1.458801069973708991e+03
-2.826564618354303548e+03
-5.534650005381652591e+03
-5.717446848707185381e+03
-5.009926724544244280e+03
-4.602066493231386630e+03
-2.046866386499947339e+03
5.027388174877529536e+02
1.548835609331184287e+03
2.313411718536711760e+03
2.425465110975993866e+03
2.481040342573821817e+03
2.940149301438753810e+03
2.789852456799344509e+03
2.403226542033066835e+03
1.963267830780830309e+03
2.203005788951199975e+03
2.188462912379702175e+03
1.767721749262477033e+03
1.623744799331760760e+03
1.804544289498700891e+03
1.960195429078880807e+03
2.344792623853813893e+03
2.427339036668426616e+03
2.217890262171119957e+03
2.152488053384723116e+03
2.171076966687224740e+03
1.765710500693070344e+03
1.895448254571672123e+03
1.941340652705439879e+03
2.209383915318954223e+03
1.830602511722528334e+03
1.114968893598779914e+03
1.245476879711714901e+03
1.668189320330021474e+03
1.416644681083136675e+03
1.335735488194320851e+03
1.340946875115395414e+03
1.479641491572249834e+03
1.273017008321177173e+03
1.225096987509950395e+03
1.352992326649292181e+03
6.135349866208007370e+02
-8.491069224112692382e+02
6.363623747127620618e+02
7.239340154913450078e+02
8.157018541675557799e+02
1.098562707277430491e+03
1.278034139160609129e+03
1.544075713664113664e+03
1.444718249411804663e+03
7.995920611214573910e+02
2.239103781476059964e+02
1.001342080758203451e+03
1.256618203165243813e+03
7.765926263599949380e+02
7.622291603144290093e+02
6.316506626550406054e+02
