2.699452861544652933e+02
5.634219658860496338e+02
1.113550105159197301e+02
6.917754176667841648e+02
1.284659492341367240e+03
1.192960532836707216e+03
7.255677093193252176e+02
7.553310455701855517e+02
7.270418179624509776e+02
5.884730768576087030e+02
2.704832664499926409e+02
3.170359444235893989e+02
4.352261503273010135e+02
5.200137967226597766e+02
7.032686601024020092e+02
8.667662596037318963e+02
7.475085305493435044e+02
7.915328149803307269e+02
1.389780943304042694e+03
2.288191163431727546e+03
3.217706893760287585e+03
3.952279466362214862e+03
3.740796451934416837e+03
3.623130470024861097e+03
3.424162185054438851e+03
3.033889538571238063e+03
2.797348237654477543e+03
2.360595103212696358e+03
2.577737805301449498e+03
2.243747753361554715e+03
2.064495115157413693e+03
1.940067518656107723e+03
1.141624377317931248e+03
2.380136631841445706e+03
2.812840478922732927e+03
2.587743455631507913e+03
2.513789072199281236e+03
3.007151268142185472e+03
3.694892504031860881e+03
4.247995517096381263e+03
4.365518452022018209e+03
4.089514996400042492e+03
3.441193270167087121e+03
3.850512829952134325e+03
3.689429856852248122e+03
3.193342523690298549e+03
3.163724040972616422e+03
2.939505600248584415e+03
2.751833521086385645e+03
2.413247797210392037e+03
2.061642624592106131e+03
2.027918870598864260e+03
1.594612812513993276e+03
9.578462515035695333e+02
1.093577990423430492e+03
1.884889371270993252e+03
3.072058887123923796e+03
3.593639697834868002e+03
4.088915588685174498e+03
4.484710254903995519e+03
4.355876921549603139e+03
4.384164036432693138e+03
3.739839173420583393e+03
3.276259081040495403e+03
3.288430603231413897e+03
2.878328933771662378e+03
1.881291803402275718e+03
9.871090135094191282e+02
1.636261900637810186e+03
1.656670537603178673e+03
8.201895237832092107e+02
7.149757987009363660e+02
9.049786167710411746e+02
1.152057336171931411e+03
1.534637676263692811e+03
1.540729816828009461e+03
2.493485426952865055e+03
3.215791468722681202e+03
3.440595859141736128e+03
3.834430807837400152e+03
3.392583031983942874e+03
2.521407126917424193e+03
2.601185766756754219e+03
3.826801557567654072e+03
2.987322528100209638e+03
1.833804094226157531e+03
2.841113648503809145e+03
2.824009578443070041e+03
6.446173791714603567e+02
-9.180834846894074417e+02
-6.321247063124941405e+02
1.634481703473164771e+02
-2.173533496391866038e+02
-4.333579108828397466e+02
-3.418186229932902052e+02
-7.718423190188042327e+02
-4.213338021375574840e+02
1.427126267446919314e+02
4.722074245849445902e+02
4.350761133739681554e+02
2.163291591897313538e+03
2.415781755974350290e+03
2.103525538076811245e+03
1.561416867825101917e+03
1.269336939692193482e+03
6.542173852869236725e+02
7.110578872600890463e+02
-4.652473032824904067e+02
-4.875519622870502644e+03
-6.907004486707465730e+03
-4.361761840884529192e+03
-3.914790053314881789e+03
-5.737194405556413585e+03
-5.247192305104872503e+03
-5.665946870614792715e+03
-3.508457803452388362e+03
-4.882818844821508719e+03
-3.393071137482679660e+03
-1.926256265845641337e+03
-2.966449720297926433e+03
1.928229015965561530e+03
7.467967006736063240e+01
-1.884097216596982889e+03
6.473866264563667983e+01
-8.865160898308536375e+00
-4.780615352692327633e+02
-7.349994337428151994e+02
-1.186729860439991626e+03
-2.972411857031820546e+03
-4.379095047965223785e+03
-3.787836001985958319e+03
-4.347732953284315954e+03
-4.866859697250985846e+03
-6.374291092974179264e+03
-5.152158430252751714e+03
-2.735562847787546616e+03
-4.120596696184944449e+03
-1.240243528627015166e+03
7.824860789259493004e+02
1.447417476546249873e+03
2.499461277245758993e+03
3.226599922566746045e+03
3.015746821780531718e+03
3.070808872619726571e+03
3.026716795908578661e+03
2.201431386767384538e+03
2.211869780551578060e+03
1.290890915478691340e+03
-8.550334407287476779e+01
-3.993135590597362921e+02
-1.040679384920668099e+03
-3.126737358438891192e+02
1.228703674140553630e+03
1.576450731146804173e+03
8.274466182298654076e+02
6.737012547645056202e+02
1.553232323501557175e+03
2.400958839013947909e+03
2.972793139642827555e+03
2.669701163370823906e+03
2.687825616273709784e+03
2.998997628284179882e+03
3.130118352585298453e+03
2.586157087956489704e+03
1.111329780629824427e+03
-4.991677076813434155e+02
-1.427271760333135944e+03
-1.893959670808666488e+03
-1.216473845764151065e+03
-1.567761626472656928e+02
-3.418157531182727098e+02
-1.893713661146805634e+03
-2.433470478318680762e+03
-2.787982719320321394e+03
-4.109563096164119088e+03
-5.508421689914283888e+03
-4.161002304833939888e+03
-2.464016488645609115e+03
-1.892034933471265504e+03
-6.378291131381299692e+02
2.153571270372694016e+03
3.367134438293219773e+03
2.502198434064058802e+03
1.649461581979600851e+03
1.710866948477698770e+03
2.021782836067692415e+03
1.472339151409569695e+03
4.691065067506720538e+02
4.676960258645210899e+01
2.064366678345318462e+02
8.002450649559273188e+02
1.247203228828631836e+03
1.239353652467205848e+03
1.486647709004652597e+03
1.469143765039209256e+03
1.469945157230535870e+03
2.687023355911507679e+03
3.366444757340595515e+03
2.488320003279619868e+03
3.235695665444242877e+03
3.651589448148273732e+03
3.813997458065110095e+03
4.339985609619716342e+03
3.022591197903893772e+03
1.251793392544108201e+03
1.229627354441699254e+03
5.421532899581713991e+02
-8.395556207177288570e+02
-1.371504010983370563e+03
-1.516641042311097181e+03
-1.598943388638963370e+03
-1.872440463870226949e+03
-2.892106152062338879e+03
-2.898874912225642674e+03
-2.027658682124955249e+03
-1.246402130868820450e+03
-1.294017756798726168e+03
3.244819469062291546e+02
8.321127508984158112e+02
2.395681947995340266e+01
3.350799564223530638e+02
1.057575349822578346e+03
1.366479356318570353e+03
1.435734633745943029e+03
1.214436303526138772e+03
-2.292718087580436475e+02
-1.253532634435875224e+02
-8.697787964885487781e+02
-5.470571961354915402e+03
-9.640809225677407085e+03
-9.779510799892157593e+03
-8.613487475130174062e+03
-8.420472487001003174e+03
-8.715340768273283174e+03
-7.903044017590262229e+03
-8.416415985574591105e+03
-8.192367757253785385e+03
-6.127804240691254563e+03
-3.243479687192626443e+03
4.980269830034016110e+01
1.838908762174658705e+03
2.590366064175434076e+03
2.023111693924930478e+03
9.333168448923630649e+02
-3.249750071721051086e+02
-9.085968638935579520e+02
-2.184528316145192548e+02
5.024135139840135480e+02
1.319994809857729251e+03
2.293484937647441257e+03
1.105142659523715338e+03
-7.190131673324474377e+02
-8.741836184877835194e+02
-2.974430690157593062e+02
1.321628341735891432e+01
1.137156427139472498e+03
1.574690114127042762e+03
1.796073661720809696e+03
1.641421411697708891e+03
8.557705768467660619e+02
1.691495417479232231e+02
1.662510547051405183e+03
2.898759924715540365e+03
3.258625600484411734e+03
2.837723115782478544e+03
2.658232275026197840e+03
2.174519574881729113e+03
1.480709969148879054e+03
9.506837269103899644e+02
6.066940823403941749e+02
6.662885853692946512e+02
-3.819891438701221773e+02
4.098752283683662654e+02
1.472634865861950402e+03
1.443831519006913140e+03
1.732746544391893394e+03
2.038333387332241273e+03
2.152893843889551590e+03
3.011359890555754646e+03
3.643185506202280521e+03
4.163758540688600988e+03
4.151551512596169232e+03
2.974466036334036289e+03
2.535246632480738754e+03
2.812062576173609614e+03
2.832507539717983491e+03
2.045142485218517777e+03
7.840726853036003376e+02
3.981192083495278098e+02
-3.400912481170951764e+02
2.588692506589717368e+02
7.702161261664226686e+02
8.391294232932925468e+01
1.129149400235079952e+02
2.484100638441962872e+02
1.458858824926643933e+02
2.249881209796064070e+02
7.055998597294695855e+02
1.947278007659124569e+03
6.871096205584251493e+02
-2.829903374761061514e+03
-4.336170560909249616e+03
-1.924807379340295711e+03
-4.377139991477603758e+02
2.137671678851336765e+03
1.590651097855076387e+03
4.567211948167265518e+02
8.587929358388488481e+02
1.297922838312547128e+03
7.744529031172924078e+02
-7.587398175471520290e+01
-1.488252184464641459e+03
-2.251832707393653436e+03
-3.039703975537660199e+02
-3.046104321900947070e+03
1.668471256085329344e+02
-5.577281838604801578e+01
-6.080123435428284893e+02
-8.226299761556816748e+02
1.019674915755478992e+03
-9.911556314346812542e+02
1.039854049447675521e+02
1.803900882099485898e+03
-1.168798275157781745e+03
1.353590527171568283e+03
3.488747371484275845e+03
2.586685634301404662e+03
2.043767469337089096e+03
1.276476261170319049e+03
-9.642786395355713012e+02
-1.213887680998310543e+03
-1.329258590431323000e+03
6.914489446049080925e+02
-5.406332688669432684e+01
7.095831004508227124e+01
2.131553589314157307e+03
-8.910089329862561272e+02
-4.491854391282210486e+02
3.220465452905287748e+03
2.363395027681149713e+03
2.404722455148278641e+03
4.350382696838649281e+03
4.411373662876789240e+03
3.867793218979542871e+03
3.621939973288689089e+03
2.885482648098948175e+03
1.925546882216125141e+03
1.472052208169155392e+03
8.188402112365166658e+02
2.091383118371873877e+02
-2.531364377569813655e+02
-2.213970594956833224e+02
1.158638052015852082e+02
4.021013317006634225e+02
5.502638485712965348e+02
1.026278883585368021e+03
1.445619125230598229e+03
1.537235173618930503e+03
1.778322465790786282e+03
2.098350777835405097e+03
1.872876467897706789e+03
1.209129208929165543e+03
3.340202015485118068e+02
-1.984233885609206027e+03
-3.412598978436549828e+02
-1.826444892594721381e+01
-7.156738479956139827e+02
-9.911830237538459869e+02
-8.976594200203039691e+02
-1.172503301544291162e+03
-1.890496951387600348e+03
-2.261429423144667908e+03
-2.388138301715976468e+03
-2.695350295390592237e+03
-2.806527767328397658e+03
-2.827601866618670101e+03
-2.442820072009635624e+03
-2.129373040700339516e+03
-1.334817014559259178e+03
-8.774099394326151469e+02
-7.884692553848027785e+01
5.329456639406672593e+02
3.839328044848486456e+02
-3.001062616182894658e+02
-1.383764391208116422e+03
-2.248250109076013814e+03
-2.419409658051298720e+03
-2.831074568777026343e+03
-3.441055542908041389e+03
-4.033811161981442183e+03
-4.339514203395006916e+03
-4.463921760989391259e+03
-4.963239203422831451e+03
-4.638829296914219412e+03
-4.423816371604735650e+03
-4.372463317708868090e+03
-4.391305380207549206e+03
-4.005331227782980932e+03
-3.667847529391099670e+03
-3.731755049267528648e+03
-3.539363416501303618e+03
-3.779886047126284211e+03
-4.117608938557909823e+03
-4.557003974321498390e+03
-5.117546377212343941e+03
-4.833790296917408341e+03
-5.051652583532091739e+03
-6.093894864781638717e+03
-6.699996030339224490e+03
-6.923540598092053187e+03
-7.795662593846529489e+03
-8.103942536287477196e+03
-7.916724303474702538e+03
-7.487174670806165523e+03
-7.235113919531250758e+03
-7.807778225052227754e+03
-6.849892935108879101e+03
-7.148135746306762485e+03
-9.125243459546280064e+03
-1.212958455245128425e+04
-1.259238939326592117e+04
-1.197314734574119211e+04
-1.184771997084965915e+04
-1.231426819532146510e+04
-1.314157775590220990e+04
-1.334610352647266700e+04
-1.290291627982043974e+04
-1.297724984916824178e+04
-1.375671381452144851e+04
-1.372683576067339709e+04
-1.376192417338831729e+04
-1.359706506516044283e+04
-1.141701843421354533e+04
-9.576484473186710602e+03
-1.272925839652839022e+04
-1.254913637236647264e+04
-1.173820364139737831e+04
-1.098275266502856903e+04
-9.991192794052956742e+03
-9.183196167217407492e+03
-8.386987807505975070e+03
-7.778763644131194269e+03
-4.294774659891760166e+03
-1.909476895223931194e+02
2.310430676893668078e+02
-3.898650372280203555e+02
3.028758451564820220e+01
7.549046796644071300e+00
3.628953829593191927e+02
5.204030861880524661e+00
-5.171115662424938364e+01
7.458612751804507752e+02
8.408229951361216763e+02
1.188967072518648820e+03
1.824158706829743778e+03
2.431458189938386113e+03
3.649307132870120768e+03
4.814476684061407468e+03
6.014862747183666215e+03
6.810025520326058540e+03
7.368077992799557251e+03
7.860995367315547810e+03
8.434264316635038995e+03
8.874306303841869521e+03
8.943756103717441874e+03
9.380384439067112908e+03
1.004227092618646020e+04
1.036201399244603817e+04
1.035566922645500017e+04
1.007853555662101280e+04
1.014111799208021694e+04
1.085085161517403321e+04
1.204312182386767927e+04
1.278441867615137198e+04
1.331502584729742921e+04
1.368051606629977141e+04
1.414139602989985906e+04
1.500112306807986897e+04
1.592702311291130354e+04
1.555456732813375675e+04
1.563821409431225038e+04
1.703821864640972854e+04
1.829891794970731644e+04
1.882050681693420483e+04
1.848841554124512913e+04
1.632731440158489931e+04
1.253353098456147563e+04
9.768027816216466817e+03
8.492923053661059384e+03
7.543488760598267618e+03
6.007184649002499100e+03
5.488269296054892038e+03
6.335629777080148415e+03
8.280673944214184303e+03
1.277749624844222308e+04
1.964859113150714256e+04
2.553582782386141480e+04
2.670037941834962839e+04
2.512247752116360425e+04
2.436557227476291155e+04
2.304505269276735999e+04
2.278822616657686012e+04
2.335231895842033919e+04
2.272544068666840030e+04
2.054471614146248612e+04
1.910938124925270313e+04
2.034572081825092027e+04
2.184222171752068243e+04
2.029231505337443377e+04
1.646924055217292698e+04
1.042325204075839974e+04
6.711621439216714862e+03
5.933553461026796867e+03
7.934452530380673124e+03
1.126161311031857258e+04
1.437749338400572196e+04
1.923361311925783230e+04
2.427432336310014216e+04
2.802874279500393823e+04
2.770522752989265791e+04
2.143951574764014731e+04
1.519129366466568172e+04
1.162484405365674866e+04
7.849807431420188550e+03
8.278040691423109365e+02
-5.193713767317363818e+03
-5.671072636885068277e+03
1.226292944868148425e+03
9.865897228078340049e+03
1.666425578004558338e+04
1.851293963158904444e+04
1.064779031346660850e+04
-1.172848200120182867e+02
-9.815507347876869972e+03
-2.394293913687048916e+04
-3.722181615039346070e+04
-4.936420400557379617e+04
-5.901014802304174373e+04
-5.921393134629951965e+04
-4.896459889945195755e+04
-3.386821019904832065e+04
-1.973783915935935875e+04
-8.546286250775439839e+03
-7.044336543911254012e+03
-7.576710238183138244e+03
-1.453137921356976585e+04
-2.948105108164340345e+04
-4.634360237490505097e+04
-5.473294597228193743e+04
-5.133078645840291574e+04
-4.323682894088151806e+04
-2.474975979198790446e+04
-2.018817100382805074e+04
-3.061667611539446443e+04
-3.587078877639517304e+04
-4.141610605508513254e+04
-4.682791731250121666e+04
-4.511446728488870576e+04
-4.436238395677919470e+04
-4.064938560149796831e+04
-2.683286690508959873e+04
-1.811740842675204840e+04
-1.325679908139045619e+04
-7.049212194753572476e+03
-1.123302502304518566e+04
-2.556842990308110166e+04
-3.229561410471821728e+04
-1.210676632969811726e+04
2.931597223773713995e+04
5.114141873800234316e+04
4.507119733911338699e+04
4.059884800015958899e+04
4.196184062838516547e+04
2.972103241318777509e+04
4.658365640012758377e+03
-7.814211737545193500e+03
-8.356813507655810099e+03
-2.011408997519690820e+04
-3.729734023579714267e+04
-3.519976953279008012e+04
-2.065754498059460821e+04
-1.784285327620316093e+04
-1.288743008547274621e+04
-4.102633814730106678e+02
1.075763372705176153e+04
2.627570271699217847e+04
2.806632233831647318e+04
1.920762247050773294e+04
6.813723205696914192e+03
-1.077973685871250746e+04
-3.582767696532518312e+04
-5.218557538983644190e+04
-3.841202385553979548e+04
-1.208470710585395682e+04
-1.137859234821410865e+02
-5.001420034563459922e+03
8.158849448722463421e+03
3.834602818455318629e+04
4.901551607307958329e+04
5.369653292054020858e+04
6.483520148277989938e+04
5.841669147180649452e+04
3.870010787252681621e+04
1.495661071209890179e+04
-1.837685238689392463e+03
-6.119694881927304777e+03
-1.225239115695875989e+04
-1.076071363694395950e+04
-1.567661156982297143e+03
3.585715761287161968e+03
-4.618583754050364405e+03
-1.642054241133424148e+04
-2.527620150628635020e+04
-3.554156542184849241e+04
-4.790676028972202039e+04
-5.840788610419219913e+04
-3.542104709732252377e+04
-2.600268012890192495e+03
8.147265850505583330e+03
1.064546268697363848e+04
1.716520512224171034e+04
1.728594430171107160e+04
1.205041479027412242e+04
1.412745051692172274e+04
3.059168920671942033e+04
4.223069144465714635e+04
3.233107458645269071e+04
2.018737499696019586e+04
2.328113944079303474e+04
2.576091478851702777e+04
2.369522003149759985e+04
3.537343356369503454e+04
4.216096382788451592e+04
3.875420349390156480e+04
3.135648227158480950e+04
2.961102772903826917e+04
3.383523381125488231e+04
3.576533741576335888e+04
3.448651515330197435e+04
2.680494716241803690e+04
1.943686179925390752e+04
1.646242745877153720e+04
1.146471225285464243e+04
6.136705394078413519e+03
1.187848629232548956e+04
2.361299627893450088e+04
3.124618628398797955e+04
2.938692407326294051e+04
2.203807315962887151e+04
1.370346910953998304e+04
2.005811414888802801e+03
-6.878107958382339348e+03
-1.720656125319437706e+04
-1.959683885448066576e+04
-2.394267524147660424e+03
1.591377620541303986e+04
1.614893621923461615e+04
8.628725032768110395e+03
3.730706003778063405e+03
1.304423004604569769e+03
-3.860198638059139853e+01
-8.199336672686380325e+02
-4.411170285647104720e+03
-1.088289227912540082e+04
-1.484266537897607122e+04
-1.742121095208187762e+04
-1.389024077883495556e+04
-9.189383925323540097e+03
-1.233246862466278981e+04
-7.466278119425839577e+03
-2.832677527368015944e+03
-4.911550799247224859e+03
-8.990460500062761639e+03
-1.363540343844289782e+04
-1.979019366404593529e+04
-2.293759211111644254e+04
-2.073533347690172741e+04
-1.580071780635655705e+04
-1.189780634130050930e+04
-1.258614531795829862e+04
-1.364353079718790832e+04
-9.104002933633664725e+03
-6.866515170768092503e+03
-1.189825586163351909e+04
-1.757218061631222008e+04
-2.004518214974151488e+04
-1.569741210565925576e+04
-3.669427778121768142e+02
5.648147243093784709e+03
4.308698598071145170e+03
4.686525956972609492e+03
5.665904944682301903e+03
5.365725610004840746e+03
1.842952967615270154e+03
3.789142474284539276e+03
8.066125043506338443e+03
9.543659680592123550e+03
9.231070835745731529e+03
5.407343005061098665e+03
6.432866481117160902e+02
-1.121133388110007672e+03
-3.281080402180544297e+03
-5.209685896614057128e+03
-5.298037895303722507e+03
-4.425104709250569613e+03
-3.940959022096123135e+03
-3.850597136112619410e+03
-6.129066912264871462e+03
-8.137440058808319009e+03
-9.581686368323720671e+03
-1.088676376432644065e+04
-1.035264567807161075e+04
-1.263532905695898626e+04
-1.551177670831801333e+04
-1.706284062658332914e+04
-2.087746360356910736e+04
-2.197150361450628770e+04
-2.002984617742974297e+04
-1.833434710070239089e+04
-2.025682707239879164e+04
-2.371505645728660966e+04
-2.510381065516609306e+04
-1.928988849763242979e+04
-1.120606715621409421e+04
-8.200078138382748875e+03
-8.710615306250687354e+03
-8.430329923873512598e+03
-7.775913587800560890e+03
-8.129083081575543474e+03
-9.012491616499364682e+03
-1.042774741702706160e+04
-1.116744693661973361e+04
-1.240806235250622012e+04
-1.205409880730573241e+04
-1.195012535094355553e+04
-1.077965942397192885e+04
-8.113034973918449396e+03
-6.449682294033373182e+03
-6.004104206972166139e+03
-5.840706456269042974e+03
-5.054793241326220596e+03
-3.925619229091694706e+03
-2.836320541993836287e+03
-2.219013157214757939e+03
-2.117970406473625644e+03
-2.889535382895174735e+03
-1.596986274992161725e+03
1.429443130206021578e+03
-1.547148353640269306e+03
-2.307007719294549588e+03
-3.125500164329353993e+03
1.152990308783072123e+03
2.548111286989292239e+03
2.306696160413796406e+03
9.230130609263469523e+02
5.702821414624216914e+02
1.261504349188928472e+03
2.376787129614065179e+03
3.853164787395635813e+03
5.004650591198631446e+03
4.644438534571349919e+03
3.950837415252085520e+03
3.531915907679543579e+03
3.358596699327734314e+03
3.884050093400477635e+03
5.168692585421309559e+03
6.792908119487769909e+03
7.886244305475946931e+03
8.436843584690761418e+03
9.329728430307261078e+03
9.232892945109813809e+03
9.772521151563832973e+03
1.137885690272222746e+04
1.240504417300593741e+04
1.172536659652047092e+04
9.537113255607071551e+03
9.851934870879347727e+03
1.222577527317047679e+04
1.211212360382388397e+04
1.310629568091524197e+04
1.496083192525439881e+04
1.555252751808502944e+04
1.751882479393772519e+04
1.967774076389818947e+04
1.912608112756353876e+04
1.819198872546108396e+04
1.569490070166058467e+04
1.305359848470341785e+04
1.228537793362222692e+04
1.133510718689183159e+04
1.182535224758062395e+04
1.235516609291052919e+04
1.399324703369871349e+04
1.703323064260489991e+04
1.736770303345092543e+04
1.627252262716508631e+04
1.476924169482927573e+04
1.225066049281070082e+04
1.093306368598289737e+04
1.014200644405024286e+04
1.072956402107652866e+04
1.054836360779011920e+04
1.148850322039331695e+04
1.303139546576678003e+04
1.290999993639104105e+04
1.175639141928684148e+04
1.090414079667394435e+04
9.671190359552543669e+03
8.445950295399603419e+03
6.915737174845369736e+03
6.341240991126725930e+03
5.900810926448935788e+03
5.708011865892681271e+03
5.616360218747934596e+03
4.432857028830152558e+03
3.151036629122188970e+03
9.551490238789623390e+02
-3.308360529897307515e+03
-4.160902612152196525e+03
-4.324830896900983134e+03
-4.420835423190893380e+03
-3.568734610866677031e+03
-3.079069652772429890e+03
-2.918762116044300001e+03
-3.254614133433931329e+03
-3.800475953321506495e+03
-4.936055533249019390e+03
-2.437891366814641515e+03
1.102439551368507182e+03
9.999545559786820377e+02
1.112908759503385596e+02
-1.240754370819336600e+03
-2.057324951489363684e+03
-2.671813300974482445e+03
-4.983834656825446473e+03
-1.070128762156673656e+04
-1.244814951531023871e+04
-1.250117835260893480e+04
-9.861250545272265299e+03
-1.120325975907046450e+04
-1.477861826712380753e+04
-1.534609747608367979e+04
-1.474697205307009972e+04
-1.233402344235092460e+04
-9.588015721322799436e+03
-1.095809292000047753e+04
-1.697925589701840727e+04
-1.871721653861233790e+04
-1.494294956849284608e+04
-1.393252299345956271e+04
-1.395903837617193676e+04
-1.455956942395426995e+04
-1.586360897357730028e+04
-1.907133034662218779e+04
-1.728824971440968147e+04
-1.594198122509365749e+04
-1.539797326100520695e+04
-1.408566380535149983e+04
-1.351938524595021227e+04
-1.274758978016452420e+04
-1.131331602995468529e+04
-1.002553285558292009e+04
-9.322689393323653348e+03
-8.515356294372813863e+03
-7.716982537732666060e+03
-7.544952330951896329e+03
-7.568984533016554451e+03
-7.436931509227020797e+03
-7.118222170872301831e+03
-6.111752300109473254e+03
-6.067070091012638841e+03
-6.040694951667743226e+03
-5.810387217458373016e+03
-4.579851542573927873e+03
-4.078290716625307596e+03
-2.587318212473202038e+03
-1.446394089593646640e+03
-1.249181238529832569e+02
3.636580612396328434e+02
1.651204798486759046e+03
3.086063681602619909e+03
4.079200607390729601e+03
4.944856894679869583e+03
4.701531676173190135e+03
4.529666242469981626e+03
4.895491675523701815e+03
5.551744242388236671e+03
5.431055638920987803e+03
5.151839094651716550e+03
5.366432265449718216e+03
5.294857296334197599e+03
4.535427053183490898e+03
4.921733304558423697e+03
5.766271359680512433e+03
6.245169369186129188e+03
6.009678772909074723e+03
6.139302847370696327e+03
6.396040456895149873e+03
6.548075753792208161e+03
6.608462228610389502e+03
7.404198292367079375e+03
7.620487541205946400e+03
7.968936128501773055e+03
8.138357666898503339e+03
8.481411565309823345e+03
8.482423439954682181e+03
7.979383815496412353e+03
7.722973531397068655e+03
7.225931574987574095e+03
6.707430395058533577e+03
6.702890605453006174e+03
6.638474304860425946e+03
6.796602655647479878e+03
6.506385182082146457e+03
6.024444947517593391e+03
5.761605369184035226e+03
5.871617410925887270e+03
5.568345338053811247e+03
5.882691950351236301e+03
6.189732050760550010e+03
6.546597220936326266e+03
6.464074063483259124e+03
6.408027362007347620e+03
6.764778090609117498e+03
6.466866106572143508e+03
6.423706443702373690e+03
5.660588489595312240e+03
3.527159352503798345e+03
3.778762364625381906e+03
3.836452801671739508e+03
3.472162496533703688e+03
2.692938371675272265e+03
2.379431360519677582e+03
-1.093980407235794019e+03
-6.057775716303065565e+03
-6.864051029779189776e+03
-6.018716870302467214e+03
-6.302959102582110972e+03
-5.405437476111512296e+03
-6.042251150455370407e+03
-6.395047083261772059e+03
-5.699875462915873868e+03
-5.572106177095794919e+03
-5.781391000856241590e+03
-6.096045826643861801e+03
-5.227830557907425828e+03
-5.592504682260481786e+03
-6.859321344085888086e+03
-5.619525415540014365e+03
-2.461265496984688070e+03
-3.541445798493236452e+03
-5.713710470317526415e+03
-1.089136208772169994e+04
-1.150340914218907346e+04
-1.148300444624110423e+04
-9.331983299898065525e+03
-4.249305002043156492e+03
-2.738334034126013194e+03
-3.180221615559680686e+03
-3.228092733034508910e+03
-2.726281474532057928e+03
-2.246023166347122242e+03
-2.110446744954491351e+03
-2.234686597506497037e+03
-2.403698378438479722e+03
-3.075723843021578432e+03
-3.389859690029100875e+03
-3.550224221976493936e+03
-4.399259432801883122e+03
-5.046931033821379060e+03
-4.711308148791593339e+03
-4.587614809010132376e+03
-4.302817152651217839e+03
-4.383179454124961012e+03
-4.619063455875494583e+03
-4.646573264520537123e+03
-4.195534567234109090e+03
-3.833962613891579622e+03
-3.381033201246142198e+03
-2.864556504452261379e+03
-2.570041359798014128e+03
-2.404237654760325313e+03
-2.120002329337985429e+03
-1.886525008013687057e+03
-1.916994417922152479e+03
-1.706440455350982120e+03
-1.931889270516981696e+03
-2.726420901197289368e+03
-2.781147257444114985e+03
-2.422172759334896909e+03
-2.398675370001377360e+03
-2.719740214696306339e+03
-2.893613277306751115e+03
-2.766449160409564684e+03
-2.417138234543934686e+03
-2.201650913794947883e+03
-1.845904220657741462e+03
-1.306952842006892752e+03
-6.540417751070400527e+02
-1.882984318920305213e+02
3.541471933740300528e+02
5.544757709036307460e+02
-1.309602722833522535e+02
-2.751428621900597136e+03
-1.400017081231063912e+03
4.436323385613937376e+02
9.103732636086514276e+02
1.184254120444008095e+03
1.851132665631188274e+03
1.745182756111703611e+03
1.521152443889241340e+03
1.235108209432336025e+03
1.116954733728342262e+03
9.307130252634465251e+02
1.220378789500465018e+03
1.525878418141422799e+03
1.857339572568992708e+03
2.804002575044137302e+03
3.254917935436740663e+03
3.368109978819922162e+03
4.098669103120166255e+03
4.776664147954701548e+03
4.738040843174171641e+03
5.341801283782616338e+03
5.849038954354286943e+03
5.740853937610945650e+03
4.875295580770301058e+03
4.542535887909905796e+03
3.940530293023033209e+03
3.742283746472991879e+03
4.394911482201718172e+03
4.137631273502951444e+03
3.795692628022017288e+03
3.828053274847348803e+03
3.439669380738833752e+03
3.293817396175032627e+03
3.713568137487317927e+03
4.507936312866426306e+03
5.031079063047835916e+03
5.045009260906783311e+03
5.217805532947782012e+03
5.324800382838760925e+03
5.381111579813039498e+03
5.694994195304730965e+03
6.134685282655108495e+03
6.293216850915309806e+03
5.899707229846832888e+03
5.169155285529222056e+03
4.319644157807703778e+03
3.069180787829634028e+03
2.730662392130262106e+03
2.652381570082608960e+03
2.542595230870872001e+03
1.831492863496267319e+03
1.258330871114268575e+03
1.861193868565535240e+03
1.898133741789912392e+03
1.549157966023960853e+03
1.326418069632580682e+03
1.976952042190083830e+03
2.677832892774174979e+03
3.446254421951787208e+03
3.839434454597313106e+03
3.587482580724692525e+03
3.424476570787299352e+03
2.973511129488837923e+03
2.034682897119559357e+03
2.415066505221619991e+03
2.252699351838217808e+03
1.218625117300484135e+03
6.508621185587787750e+02
2.625977953527806790e+02
7.619558574391855927e+02
7.331300434960144230e+02
1.783843735128762660e+02
-1.694442914978324666e+02
3.886629517842029031e+02
1.706853633530433569e+02
2.943993713415429170e+02
6.511134656707617978e+02
1.058265281518249594e+03
1.522508709454240943e+03
1.609901286231798849e+03
1.628557454030187728e+03
1.395280062454925883e+03
9.360531597638928361e+02
6.927264393020000171e+02
1.537230159089922665e+02
-3.014916802346346003e+01
-2.611502439169765353e+02
-6.409570916634031619e+02
-1.089279529300621789e+03
-1.639904669208225414e+03
-2.020340436763051684e+03
-2.019616746099334932e+03
-2.016795827537962623e+03
-1.967863344651014131e+03
-1.577657300506704360e+03
-1.215333430842451207e+03
-1.023036271989351803e+03
-8.831790609375950680e+02
-2.385436424376013065e+02
1.560522193871142065e+02
2.476065138591187065e+02
3.271886575173203937e+02
2.204389479452240437e+02
4.729684368577135274e+02
-1.041290026155488135e+02
-7.866752355502105729e+02
-8.346021591349539221e+02
-9.721669169265967412e+02
-8.105412140717014609e+02
-9.340477009123195558e+02
-1.647493857365611802e+03
-1.258256811471898345e+03
-8.553350629839629846e+02
-8.258909888901230261e+02
-1.685076535762157619e+03
-1.202005643093835715e+03
-6.988798978196750795e+02
-1.231614451767565470e+03
3.716228053517941703e+02
1.713939901692083595e+03
2.260212046253133394e+03
2.056292283070365556e+03
1.598006570365440666e+03
1.367100763792452881e+03
7.314884435415186772e+02
7.430766025225087787e+02
-4.929665784917313687e+01
-3.379379186461185895e+02
-3.559512686997982200e+02
-1.274180626105137890e+03
-3.750812967651861072e+03
-6.543037001422931098e+03
-5.490911761958581337e+03
-7.063579234761343287e+03
-6.109188271205017372e+03
-3.650821490110313334e+03
-3.838616005781965214e+03
-4.403538996127541395e+03
-1.103645632961119418e+03
-1.208071882210962713e+03
2.282080623433587789e+03
1.527835156840366153e+02
-9.070775375697350000e+02
1.188371171839863109e+03
1.987075494902963328e+03
1.910017414757469169e+03
1.493995978261074924e+03
1.106864959828244537e+03
7.535701476649525148e+02
-8.778994450765793545e+02
-4.720583077985189448e+03
-3.164537732546718416e+03
-3.412811746518316340e+03
-5.116472513017380152e+03
-5.622628810236034042e+03
-1.807277853694745090e+03
-6.054940836199127716e+02
1.471709084715373365e+03
2.171296253724156941e+03
4.442913203242891882e+02
2.524613790960322603e+03
2.824241218330801985e+03
2.691164557779895404e+03
2.805360670870702961e+03
2.296701276644784684e+03
1.437138569860556800e+03
3.896537970344828068e+02
-1.207618030847330033e+02
-4.981170043298115502e+02
-1.070462125148578480e+03
-1.193792471214426087e+03
-4.360595438503861487e+02
-1.303203041856753543e+02
-4.285655417316158378e+02
-3.648634448334083231e+02
7.158766100318325698e+02
1.733642096872853244e+03
1.368411960806180559e+03
7.882618339752237944e+02
1.587167009358609448e+03
1.194208512305578552e+03
1.050507826643883845e+03
1.113901582795073182e+03
9.504151125899112458e+02
8.700822531265956741e+02
5.439158266031466837e+02
-1.181071651592969118e+02
-8.687259886654474030e+02
-1.576623802053749444e+02
2.579350790436927809e+02
3.418851074453226602e+02
6.632670440444846918e+02
9.950208069679944174e+02
8.640589927042734644e+02
6.286785138913098763e+02
3.887748940021703561e+02
1.689552035787512523e+03
