1.933249867076973260e+03
1.909645095606587120e+03
2.221976501947186534e+03
1.781096024067542203e+03
1.497972432112262368e+03
2.003016061922952986e+03
2.049416758762004065e+03
1.691796235457527473e+03
1.464902937436261482e+03
1.545978492101022539e+03
7.073532883881046018e+02
1.878144867440119015e+03
1.946423690775391833e+03
1.369990186031441453e+03
-1.176023956310673611e+03
-1.785884079845118322e+03
-1.946645209348427670e+03
-1.292380860296974276e+02
1.326407621208746150e+03
1.096829085952204196e+03
6.456782411802296338e+02
2.396295355288323776e+02
6.400134470346497437e+02
1.096675915996795538e+03
4.036592599762084888e+02
-6.080349076862058411e+01
8.739415542483095578e+02
1.576237622148122682e+03
6.248973079409348657e+02
5.866487897241649989e+02
1.591857230797998227e+03
2.083277219710408644e+03
1.899038712746150850e+03
9.181438175460607454e+02
2.509199196181490663e+02
1.252036341656984888e+02
1.003767730221105467e+03
1.860308655274477815e+03
1.960405383454584808e+03
1.857618240577828601e+03
1.403929298363145335e+03
1.167489799898543424e+03
8.293103417210033967e+02
6.586967913877472256e+02
7.794020042541486646e+02
7.642972897119079789e+02
1.023213943304510053e+03
6.433041649578416354e+02
-1.904946050479304347e+02
-9.391600382850144797e+02
-2.645722660565859769e+03
-2.737185047832077089e+03
-6.165358228437747812e+02
9.332357908908966238e+02
1.479071235712763155e+03
2.036921580038093225e+03
1.930829125477521302e+03
2.495818713576512437e+03
2.492821223995619675e+03
2.165826128656683977e+03
1.676841941333085742e+03
5.888528264771027807e+02
7.788431694551106830e+02
1.688847240003292427e+03
1.895837639076595906e+03
1.355826325574932753e+03
6.227506604328491449e+02
1.437612505797810854e+03
1.358440768725904945e+03
-3.007975056785498964e+02
-4.851040121749764467e+02
-1.605043293311709931e+02
-5.978973333031938637e+03
-4.006515937084642246e+03
-1.921877084014393802e+02
-4.250096593233312888e+03
-5.604903717624443743e+03
-6.390798623429616782e+03
-6.539898959204180755e+03
-6.296864304200337756e+03
-5.656643606672671922e+03
-5.981480718146936852e+03
-2.046623491431788125e+03
2.009155068786651555e+03
1.893835593171111213e+03
-1.655659772094706568e+03
-6.995317944203434308e+03
-7.343132642294538527e+03
-3.319131203287092376e+03
5.907032424546764560e+02
1.823743100821573364e+02
-9.731367057534919240e+02
-2.441799096205612386e+03
-2.252637124687595133e+03
-2.586002805652623238e+02
-1.099722468375446397e+03
-1.073968723279553615e+03
7.306794761289114604e+02
1.437211395870862134e+03
8.585657960461069251e+02
6.097696736532229806e+02
2.518515317973551078e+02
1.200789387878644220e+03
2.349602281073019185e+03
2.388313809524300723e+03
2.297890342926501035e+03
2.453329652013628220e+03
2.366664610650960640e+03
2.074923485079805232e+03
1.784073744420972844e+03
1.682155283361103102e+03
1.540196555539038627e+03
1.346164738351624692e+03
1.457135367803902000e+03
1.760146565670507925e+03
1.906081947047581025e+03
1.733996075681829097e+03
1.344899248819263448e+03
1.550825318984064779e+03
1.342763324888964462e+03
9.617034884909894572e+02
4.386673837762829180e+02
6.057559114741172834e+02
-2.080341550428017285e+02
-4.727423161177706561e+02
3.436306055297756643e+02
8.541551560952899536e+02
1.053798285987588315e+03
6.215337023447049205e+02
-4.175623920511330311e+02
-6.994790131706869261e+02
2.387672623761047248e+02
7.882573729689453330e+02
4.449616989639154099e+02
1.257927510914923772e+02
9.017433886213594860e+02
4.224633505706006531e+02
-1.413291932263372473e+03
-2.694399369076921175e+03
-5.736807633204904278e+02
3.863342144171437553e+02
6.462176241204790017e+01
-2.895693766341691457e+02
-7.373443710241815552e+02
-1.613700138053083947e+03
-1.581457480657737960e+03
-1.078761803781160552e+03
4.324802854949262532e+00
5.778148899797004105e+02
7.088032629566540663e+02
-6.770557741703760257e+01
-9.047261721576899163e+02
-1.148247775446027390e+03
-3.622982717602539537e+02
2.518933243109440667e+01
-7.317781286641840097e+02
-1.550201075667644773e+03
-1.345029533262815448e+03
-4.382684686906603133e+02
6.406696854025928189e+01
6.599573034680004469e+01
-6.746002469434192506e+01
-1.973544525026861152e+02
-5.436552379627242999e+02
-6.083627935232315167e+02
-3.734495379655148213e+02
-5.199119746767834158e+02
-6.477351761818334808e+02
-6.499729915613876301e+02
-2.965912596974216626e+02
1.874554924326025969e+02
9.618438806873221836e+01
-4.132728412955213315e+01
-3.114751073283187566e+00
-1.512375473156426153e+02
-6.766061369981736240e-01
1.906196970137337701e+02
3.626536065476003046e+02
-2.256048472560293590e+02
-8.621838919062727200e+02
-2.220729202797399182e+02
2.236758930651220396e+02
2.351046639906726625e+02
-9.840882441909309719e+00
-2.223262272527256656e+01
3.249402412581287081e+02
8.716547342397595912e+02
4.848953416972566401e+02
2.317099797206155358e+02
2.170770009270659955e+02
-2.120348306468374062e+02
7.143231733080828860e+01
8.925961391333453321e+02
8.653785597654202775e+02
1.967825061964546194e+02
5.778330911395408265e+01
3.223102508749935282e+02
2.423390837887352234e+02
5.407786779884721682e+02
7.756725810902275953e+02
3.438900638542789352e+02
-8.276073597322185833e+02
-2.844886770828601129e+03
-2.915682509509110332e+03
-1.285783578203152729e+03
5.346393770037576587e+02
5.142633174305684634e+02
2.831820575520227976e+02
2.956323977475064524e+01
8.764131595139947706e+01
4.840333959567546458e+02
7.597455294270861259e+02
4.450655657506890748e+02
9.055401313386934135e+02
1.027715231062946714e+03
1.306866218582398005e+03
7.684846341833184624e+02
7.490604493843566161e+02
8.254980317477062499e+02
1.171922471194126729e+03
1.270282028017801167e+03
1.070472328108509373e+03
1.064505116044251281e+03
7.318689825894219894e+02
8.344386890836914290e+02
1.024772808138347500e+03
1.105431841013485155e+03
8.566622544504862162e+02
7.155848437682875556e+02
5.375732643609280785e+02
1.098272016839432581e+03
1.283535562980996019e+03
1.518762329710581071e+03
1.443786082808931951e+03
1.100507175141351809e+03
7.587984129396389790e+02
6.114792651913236341e+02
1.073236549436712494e+03
1.669294551889570130e+03
1.771777042095147863e+03
1.605886143722013230e+03
1.391644651123431458e+03
1.459780421633586229e+03
1.767931232537258893e+03
1.525194247689211579e+03
1.198616991774387088e+03
1.379299448544810730e+03
1.496159328468281956e+03
1.294149795582553224e+03
1.202268344603058495e+03
9.785752784417409202e+02
7.800301488895237298e+02
1.062623091786022997e+03
1.233400618385705229e+03
1.345293743918573227e+03
1.394209040317204199e+03
1.134104019491810732e+03
1.584021203094628845e+03
9.510178053493544894e+02
-1.415935590171053491e+03
-4.730776759994403619e+03
-3.449543091990743051e+03
8.377288602361099947e+02
8.530375791882258909e+02
-3.826560484848547731e+03
-6.137131287976691965e+03
-6.051525137252989225e+03
-6.474791647047190054e+03
-3.930137330144915722e+03
-4.182446783069928642e+03
5.573049403201074483e+02
2.605285607096151125e+03
2.171262645077033540e+03
1.749369369200730944e+03
2.625099259370151685e+02
-3.882252529885845888e+03
-4.561794405644852304e+03
-5.158097492835752746e+03
-5.481118397045170241e+03
-5.449836648546482138e+03
-5.237268104757036781e+03
-5.085445863019441276e+03
-4.191495527764534017e+03
-1.301500130064024461e+03
-3.000480906027612946e+03
-5.040322042866350785e+03
-5.442992674484726194e+03
-5.232461227960733595e+03
-4.905762783753330041e+03
-4.635881695051019960e+03
-1.867991625037728554e+01
2.726851982576214596e+03
-9.429957008772130678e+01
-2.337173335797516756e+03
2.311249741097698916e+03
1.617006775069527748e+03
-1.699061895729568334e+02
1.515690798539643822e+02
-5.845628075772596048e+02
3.473994903404291534e+01
5.944732724743480503e+02
2.276624557900997388e+03
2.218253618735984219e+03
2.918348323718267238e+03
2.732954695358124809e+03
2.530054339701247045e+03
2.453671236664511980e+03
2.400974918615296247e+03
2.642860154662221248e+03
2.764221282999488267e+03
2.550127164654747958e+03
2.596754250445762864e+03
2.587115673836447513e+03
2.583171629633487100e+03
2.214882965729943862e+03
2.046421857531578553e+03
2.125879768478092046e+03
2.061356099965943486e+03
1.795811591255985377e+03
1.896069062239170535e+03
2.073917384102964661e+03
2.153433282940879508e+03
1.991867823192771311e+03
1.716211646487244025e+03
1.610504914281987794e+03
1.629809662941071792e+03
1.502156981035201397e+03
1.259435068281383565e+03
1.305831533026686657e+03
1.295304871073361028e+03
1.210623955841712274e+02
-2.395264262414476889e+03
-3.119320483244549109e+02
-6.511374763503366694e+02
-2.623237724580489612e+03
-4.450497929170419411e+02
8.786652804665552594e+02
9.100145889162307640e+02
-1.532382145756330871e+01
9.322153653604739247e+02
1.597638927076603068e+03
1.220329634667229357e+03
1.028468513124637639e+03
1.082337160543921527e+03
9.786907104532701851e+02
9.464284699451468441e+02
7.777662186707281080e+02
5.876446852688934541e+02
5.733007375482068255e+02
4.676366097341481805e+02
6.183442902308664770e+02
2.402747697996611294e+02
2.395919681433367430e+02
4.832258672557391037e+02
5.849799868778443397e+02
3.858981617305242366e+02
5.106713599821078731e+01
1.845566607236170285e+02
1.244134508592426158e+02
2.554917545937779551e+02
4.618174232462146733e+02
3.673577064823728051e+02
9.899921753495574706e+01
8.583550423431825038e+01
1.540848297318034383e+02
7.936611119018655458e+00
6.426941921983866735e+01
2.227813926641719888e+02
8.247965909487979275e+01
2.384573923351363476e+02
2.806817368095475445e+02
3.898807956328067803e+01
3.236967317763900098e+01
-8.111380457602784588e+01
2.776255343079359932e+02
2.336447599693103996e+02
-7.504644153582813715e+01
-2.195206669650804940e+02
-8.385770041387461049e+01
2.988407837373188158e+01
6.845014172272091635e+00
-8.696367181274749214e+01
3.234119747961232179e+02
3.259601266537919173e+02
-1.193190768113399685e+02
7.760496550385258274e+01
7.971953729576377157e+01
-2.071077154145088741e+02
-4.149384608525626845e+02
-1.779707108955572266e+03
-3.659373481892861491e+03
-6.872936664850308262e+03
-2.662401756465994367e+03
-3.101689775769611970e+03
-4.616642164177967970e+03
-2.842106873642673236e+03
-3.440411523251500057e+03
-3.460406188992721127e+03
-1.873088725252150425e+03
-7.026200517790858839e+02
-1.156165430590531059e+03
6.293115023993353816e+02
1.053846199578728829e+03
7.895308130041005370e+02
5.755211404222587817e+02
6.989168487844366382e+02
8.515340907960032837e+02
7.542722016141121912e+02
5.929753496670602999e+02
2.975912988616661323e+02
4.199598807040996462e+02
6.821257986521973180e+02
5.132037617113064698e+02
5.662207320753515205e+02
4.481766203589029374e+02
6.060887233566005534e+02
1.044031452509709879e+03
1.043064926274670142e+03
5.051423964346891466e+02
2.952772787741980096e+02
2.655824753066053745e+02
2.449778447066885576e+02
1.493430393429493392e+02
6.581292485181461416e+01
-7.425398607931948618e+02
-1.366858830722836728e+03
-1.702230510620485575e+03
-1.590776242983158909e+03
-1.111440541699760843e+03
-1.111184978784355280e+03
-1.161937056908932391e+03
-1.199570434278572293e+03
-8.430509022561187749e+02
-1.263498401432410816e+02
2.474744156199513441e+02
3.705527972886010843e+02
8.238289557629890396e+02
1.331176081528161376e+03
1.969624259116920712e+03
2.389241653402576958e+03
2.172095093556844859e+03
1.570174028672802251e+03
6.323546609467464350e+02
-6.435472538948954480e+01
-7.058451782647280197e+02
-1.430246859622777492e+03
-2.089606157545826136e+03
-2.579791203133299405e+03
-2.172769292903473797e+03
-1.757487274524079112e+03
-5.698239055684824734e+02
5.742038654928406913e+02
1.258564943462848305e+03
1.734339462974338176e+03
1.194456666272919392e+03
1.582775512697126942e+03
9.682659929186821728e+02
-9.489315920774930646e+02
-3.874501514197093456e+03
-3.321607471693259413e+03
-1.979128562771480347e+03
-3.291281847661813117e+03
-3.611181571706762043e+03
-2.990692138684488782e+03
-1.947776677523357648e+03
-1.491440108992542037e+03
-1.002614124058078232e+03
6.463273360086385821e+01
1.009327676143014287e+03
1.212528165731880790e+03
5.831122991703556409e+02
-7.229155272791425659e+02
-1.228591070832932246e+03
1.550647524894162075e+02
7.570237833474344598e+02
1.314328317285865523e+03
1.877969938159515550e+03
1.603991067336910419e+03
6.754201684035490416e+02
8.782701500880640424e+02
1.934526591268876700e+03
1.784144257045544236e+03
8.551093347467750618e+02
6.154206737504922557e+02
5.311072702623772557e+02
7.601433259530974738e+02
9.226100298109643063e+02
1.345465381362937251e+03
1.424767642770913653e+03
2.177532024448802076e+03
2.795808434564575691e+03
2.453619882298683024e+03
1.543838614862816257e+03
7.704030643239170786e+02
1.059263972166791746e+03
1.698426931518928996e+03
2.178861060868202912e+03
1.582587820102371779e+03
9.826354707652533307e+02
2.939205015523595534e+02
-3.185949122091518575e+02
1.161625737501057642e+02
1.200297921655514301e+03
1.334810102694729949e+03
6.737385290073930264e+02
2.422868360711515123e+01
5.963629554940894195e+02
6.820229406745527285e+02
3.810581779871233721e+02
1.142315357352674710e+03
1.201658386881109891e+03
4.939988829416075191e+02
-3.365990153162115917e+02
-8.760677660707814312e+02
-9.143643661261482976e+02
-8.724342342182596894e+02
-7.002453885726472436e+02
-8.855843353618633955e+02
-6.678690111949139236e+02
-8.075316461416363154e+02
-6.362626645556833864e+02
-1.309573391814961724e+03
3.694087022240012175e+02
6.516345942972835701e+02
3.200116463340286828e+02
4.902173913873363063e+02
2.212580987512001229e+02
-4.379537476169367665e+02
-3.048780747894644719e+03
-4.154195482796266333e+03
-4.581589985012134093e+03
-4.244157473556831064e+03
-3.868735699842939994e+03
-3.618503205180955774e+03
-2.881704565303997697e+03
-8.431450186817157828e+02
1.626269289086928893e+03
2.851098965403709826e+03
2.531621017187462257e+03
2.416575566024954696e+03
1.762522397589142429e+03
4.921298244047144408e+02
-1.062796933810334465e+01
9.342525845113667629e+02
1.055223992395896630e+03
4.733091080106331106e+02
4.150018121271293126e+02
3.356566525322394341e+02
2.782067729252241293e+02
6.389778234516542170e+02
1.360327088435328278e+03
1.845416100994986209e+03
1.901791697184406985e+03
2.061521682101899842e+03
2.193408132543920146e+03
2.488407275583018873e+03
2.635338080040196928e+03
2.673177169483198668e+03
3.169651370952668913e+03
3.690874737571507922e+03
3.997891227379344400e+03
3.117807160561237652e+03
1.878525912548603173e+03
9.891449581271083389e+02
-4.503536058591802771e+02
-1.354095411923158281e+03
-1.951115027344658756e+03
-1.308443175858481254e+03
-4.510391389539317402e+02
-9.749062431400925561e+02
-1.755076782908199675e+03
-1.155518405495631896e+03
1.986816985892249932e+02
2.784557464502936455e+03
4.328166210344248611e+03
4.755586034137018942e+03
2.887731313361347929e+03
6.375653855554862730e+02
1.860961356717663477e+02
-1.283683606450036677e+03
-1.135680360023963431e+03
-1.266830212538259957e+03
-3.385220932235185501e+03
-6.710753145138145555e+03
-7.997429615506381197e+03
-3.712344166494924593e+03
-1.740587834985781910e+03
-1.866811159484310792e+03
-3.759598693220374344e+02
7.345794834127186732e+02
-2.966005840571944645e+03
-4.680590592292141082e+03
-3.100431808940094925e+03
9.714805604401814207e+02
3.102226259896752367e+02
-1.670065657812686823e+03
-2.962503075033156620e+03
-3.378078303126852916e+03
-5.948673681478338040e+03
-8.723198358262025067e+03
-1.123856308623268887e+04
-1.056563321697749961e+04
-5.569363553902536296e+03
-4.513771590213023956e+03
-8.398922076901592391e+02
1.674215489149482210e+03
2.074530154782894897e+03
2.785076510895486990e+03
3.037942574237611552e+03
3.205144564470244404e+03
2.847722455952638029e+03
2.149698964456885733e+03
1.060151166558688146e+03
9.261893368054331859e+02
1.233824732110884497e+03
1.089003899357709543e+03
1.852769602164358957e+03
1.287160226408110475e+03
-1.267759625995847955e+03
-2.911933123532293848e+03
-2.086287605468609399e+03
1.524168716584015556e+03
4.401512089851948076e+03
3.921752757094021490e+03
3.406901242777916195e+03
4.097079972221786193e+03
4.951290249620752547e+03
4.019573669081880325e+03
2.696012100655756058e+03
1.579646898991998569e+03
1.182555289251072509e+03
2.263722957017228964e+03
3.446201648430045225e+03
3.742064433398129950e+03
2.769335509103234017e+03
1.499011604454609596e+03
8.091668466048706705e+02
6.608330416842102295e+02
1.234044393151646773e+03
1.775816918730198950e+03
2.355210970901805013e+03
2.925303883243511336e+03
2.688125541196986887e+03
1.222723670505540440e+03
2.815850088851615496e+01
-6.705375027759165505e+02
-1.887236788065817791e+03
-3.446822943325012147e+03
-4.149099048806473547e+03
-5.232633394074966418e+03
-6.153098736603895304e+03
-4.869493634385155929e+03
-3.922007808960760940e+03
-1.251062547548950988e+03
9.762546498183289714e+02
1.461763394404894143e+03
-4.764985155101914529e+02
-3.067464397182629000e+03
-4.927339592550534690e+03
-5.304021442582535201e+03
-2.522417136315632433e+03
2.314516481032135744e+03
5.589766482682446622e+03
7.340338660454517594e+03
7.125248379186925376e+03
6.715532151139963389e+03
5.191260768120517241e+03
3.676382349442787472e+03
2.093887260085545677e+03
1.708219665594383514e+02
-1.216858464024263185e+03
-1.775175671133957167e+03
-1.651139538078113901e+03
-1.106696818245600753e+03
-1.277807800967142384e+03
-1.356455095124351828e+03
-1.296943746013604368e+02
5.265073430738888192e+02
-4.984851381383719371e+01
7.421951535447445849e+02
2.803642448741039516e+03
3.470548163581686822e+03
3.499948823263982376e+03
1.984807520207221614e+03
1.720863974718529050e+02
-1.789284173161025137e+03
-3.185278605951970803e+03
-3.480868636166691886e+03
-3.138103552414448586e+03
-2.294052119557307378e+03
-2.151742065047951201e+03
-1.094172085336847204e+03
-9.152966322418335494e+02
-1.212183580208748481e+03
-1.343872953135131183e+03
-1.076393644808392310e+03
-2.098046460469495855e+02
8.558981921881999142e+02
7.427570162414848483e+02
9.448131410349683392e+02
1.628026936427923374e+03
5.033555425528285809e+02
-1.570242779492292129e+03
-3.035941102891044920e+03
-3.845453725429616497e+03
-3.515829790524631335e+03
-2.338171368919699034e+03
-2.083675907235326122e+03
-1.903444429936470669e+03
-1.685355220605863167e+02
5.161043960839965621e+02
-3.674449649322569940e+02
-2.120357780777613243e+03
-3.301638512527737930e+03
-1.435103201613267174e+03
-3.041660540072897675e+03
-1.563700690439635764e+03
-7.851992805215974158e+02
-8.480694632578359915e+02
-9.054154452680219265e+02
-8.513616492373710116e+02
-1.083985492107645996e+03
-1.693348511368893412e+02
3.545477929765502267e+02
1.300597039093823014e+03
2.607754744813662455e+03
3.345998536618849357e+03
4.008392896967201978e+03
4.528954363992145772e+03
3.867581877681503101e+03
3.056110534658604138e+03
2.700528326925119927e+03
2.446777141653029048e+03
2.488814675718239414e+03
2.575665600822479064e+03
3.051338543681221836e+03
3.019737459577185291e+03
2.773720097213677946e+03
2.399310670885187392e+03
1.818557006841918792e+03
1.098425745561095027e+03
-1.421270637696233621e+02
-6.302004371844517436e+02
-9.558263019966981346e+02
-8.070883346020394811e+02
-2.279563167472197165e+02
9.864928403104164545e+02
2.612190229494646701e+03
2.834164304896902649e+03
2.473476673371245852e+03
2.144103142210654823e+03
2.238950082448720877e+03
1.572972840401086387e+03
8.371372439980971194e+02
3.214936078863629518e+02
-1.140945525783340599e+03
-3.132170254173998728e+03
-5.131215702720434820e+03
-6.233219019300674518e+03
-6.986258769430594839e+03
-7.269298689757605644e+03
-5.707287490263305699e+03
-2.183228776191316229e+03
6.817548890060528493e+02
2.412690256380851679e+03
3.250624059509620110e+03
2.565475568700952408e+03
6.372469839469185899e+02
-6.809832806218414589e+02
-1.495204108782837920e+03
-7.754641699771513004e+02
6.228254050404976816e+00
-6.261586631872715998e+02
1.103462648149652807e+02
2.517729927024746246e+02
-1.268913872156472280e+03
-2.571687230647622528e+03
-2.791691475552772772e+03
-2.910793947070704689e+03
-9.479010318174478016e+02
4.906594008073075486e+01
7.760387483428692121e+02
-5.980785714421987223e+02
3.201763467542687522e+03
1.161631721817022253e+03
-3.292303531237113020e+03
1.858525040528816703e+02
7.580736308716342364e+02
4.282965747491765001e+02
1.077494558518025769e+03
-1.319314168440354024e+03
-9.111373863726163336e+02
1.856891991574898384e+03
-3.042557471158653470e+02
1.453460690166790528e+03
1.399188659217970553e+03
-1.844058821429240197e+03
-8.362661935128757023e+02
-4.193021917671168239e+02
2.157817362300734203e+03
-1.441016340438278576e+03
-5.133699136464986623e+03
-2.186125496643136557e+03
-1.734355481076572687e+03
-2.784359717110956353e+03
-5.403099093898902538e+03
-3.284601308262075690e+03
-4.285841593298194312e+03
-2.717814557969779798e+03
-9.804876963958362239e+02
8.981654150823418377e+02
1.763185408546456529e+03
2.096590430956836371e+03
2.628405283065217191e+03
1.222632918566851004e+03
-3.987346136969250665e+02
-6.386512576741790781e+02
-8.608571637012899203e+01
-6.569114050782975482e+02
3.519487571847557206e+02
1.608511647398864625e+03
1.945883920980139692e+03
1.968086866281783159e+03
1.301142971275672835e+03
1.449952330180392210e+03
1.659524449206895724e+03
1.566999176155726445e+03
1.540419417214481655e+03
4.357239750905483788e+02
-1.801523893675481247e+02
-2.703911278851496718e+02
4.980136973790667412e+02
6.271213003013997422e+02
3.674396848149301604e+02
3.417415382940507129e+01
-8.568318731897013549e+02
-9.134039002749091196e+02
3.365322144678841720e-01
-8.644403145013791345e+01
9.632720731152591043e+02
1.969755662042522545e+03
2.052871213353969779e+03
5.890897294550119341e+02
2.153600805901922286e+03
2.707501708860007057e+03
2.753057652607155433e+03
2.856166378857019481e+03
2.391841675671417761e+03
2.557649456551532694e+03
2.210917571553441121e+03
1.311734950880713313e+03
6.581657156553353616e+02
-1.278421037654918564e+02
-1.427337741941543072e+03
-2.930336622423210429e+03
-3.836587250352373303e+03
-3.873128698172185068e+03
-2.566190840262544498e+03
-5.835541848490355505e+02
1.104420098000964117e+03
2.261267185192561101e+03
2.613346016166307436e+03
2.170538748152421704e+03
1.785350535734108234e+03
1.451530869436106968e+03
1.128896664061837100e+03
1.101712459733942524e+03
7.619695589145998156e+02
5.567994546074968412e+02
1.134366186379961164e+03
2.009345657738695081e+03
1.588698852444246995e+03
1.337503347586229893e+03
1.138626830870690583e+03
9.191800440566477164e+02
6.243749762795714560e+02
9.671405732968438542e+02
7.903171095496284124e+02
8.206035248948098797e+02
6.179822818327290861e+02
4.169287568774976904e+01
1.377445614550748303e+02
-9.762070044818143000e-01
-2.965511505868112749e+02
-4.588102617489698787e+02
-4.566808807416764466e+02
-8.120725984253553520e+01
1.515635722317571492e+02
1.815396609045951664e+02
3.236614340125186686e+02
3.730074387639363067e+02
1.006550556310657072e+02
2.496225947383050823e+02
1.688525800270219008e+02
-1.266910618861347615e+02
-2.390541183976328909e+02
-4.882544087817075820e+02
-8.353408731957326836e+02
-7.192851404896285885e+02
-6.220517816336513306e+02
-5.355497615393122715e+02
-4.698548944224293109e+02
-5.959295551335331993e+02
-6.307380206740441508e+02
-5.492435392682341444e+02
-6.085672554554254248e+02
-1.074545885914895734e+03
-3.648162796072798756e+03
-6.435690507242207786e+03
-4.505192498001333661e+03
-3.139678994070914086e+03
-2.342247819923602492e+03
-1.188849042499174402e+03
-8.282547303542427244e+02
-9.703774146106178478e+02
-1.212246435649945170e+03
-1.257948889576325655e+03
-1.011770559882970474e+03
-8.059936416361938427e+02
-6.555641435075526715e+02
-7.724225299889927783e+02
-7.394292380343511013e+02
-9.256188457512034518e+01
2.412753610033147424e+02
5.791378505424266905e+02
1.072044738147792941e+03
1.156057905676120299e+03
6.261479345122892255e+02
1.630371747805106608e+01
3.414549774426834574e+02
8.515325450631913782e+02
1.033624605861164810e+03
6.937354683030829392e+02
9.137397333334201903e+02
1.249685372453011496e+03
9.946677086823608533e+02
7.745678702429444229e+02
4.122652331824198768e+02
5.818868627086667402e+02
5.753842262402816914e+02
6.418994539074092245e+02
3.845495007187442980e+02
1.373919590393335284e+02
3.724264398783123511e+02
1.746076615448554321e+02
-3.591425486451832398e+02
-6.358666211226817495e+02
-9.444748113821364086e+02
-6.110377043135646318e+02
-4.225210234976298693e+02
-2.548840775740360414e+02
1.808584837532035294e+02
1.166818920279175273e+02
-2.644396292792504823e+02
-3.475396247500767117e+02
-8.851475193612087367e+01
9.063514893598092215e+01
-3.012985075260657908e+01
-6.706593507083874783e+02
-3.756863578287310702e+03
-3.076782803387687181e+03
-1.425306443218483764e+03
-1.546256488581076951e+02
2.223256140668355272e+02
3.881017462235620741e+01
-8.043838533582264745e+02
-6.604004670236473657e+02
4.884219034664980086e+01
-2.651636899275810322e+01
-8.403577155459284995e+02
-5.137584213601642205e+02
-6.188380662956249267e+01
-1.008348375505565173e+03
-8.149855558378267517e+01
-3.424248753037520743e+01
-4.521913402229103873e+00
-5.539190482261672344e+01
9.518925582137877939e+01
-2.457407935363498837e+02
-5.242700705045089080e+02
-3.443626129814732053e+02
-2.040533352791009634e+02
-4.374197340816830888e+02
-2.194156459019123702e+02
-1.690345352236342364e+02
-3.522540069604921769e+02
-1.220036906334167668e+02
-5.235467529629205252e+00
-5.963381635671123782e+00
1.178815135906513092e+02
2.892956927009500987e+02
2.652563604747798536e+02
5.647451888543077985e+02
5.768488231706608076e+02
2.395310930156899190e+02
-2.317291431085888576e+01
2.817583524292539323e+02
6.793780605146295102e+02
6.287427853715679475e+02
5.758048205829751396e+02
1.455956350282094149e+02
1.860445121063562510e+02
4.610873361082122983e+02
2.956638715026458613e+02
-1.382283141010046279e+02
-2.244990016088686957e+02
-3.911581265263345131e+02
-4.511830195163953476e+02
-2.666121806715668185e+02
-1.823780228815307396e+02
-2.394720697262538351e+02
2.007867159619778974e+01
5.344085469158317210e+02
8.965458214905511340e+02
8.294774580247730000e+02
8.521973328010016075e+02
7.827313250227467734e+02
7.090436464456199701e+02
6.139498457692302509e+02
2.961819811620020459e+02
2.369500225021720752e+01
6.954642971260959428e+01
3.987161356219633035e+02
3.303520322529718101e+02
5.576105845099933731e+02
7.693608217914010083e+02
5.686387151788262599e+02
7.783143597343956799e+02
7.632839602111007480e+02
5.726307137839625057e+02
4.082759031954394686e+02
1.762247493612381959e+02
-1.054510153326277191e+02
-2.251772010161055732e+03
-4.168793656077206833e+03
-2.476611121676438870e+03
-4.854756858520840979e+02
3.107363002751271779e+02
3.991607959798879506e+02
6.319174267001842509e+02
1.229616632309541728e+03
1.678827067831617114e+03
1.773757911561450328e+03
1.953487576567143378e+03
2.006051194165054312e+03
1.703621963486100412e+03
1.386185856067717395e+03
1.405973016744590268e+03
1.201722344615589464e+03
1.465187607594185010e+03
1.306834202538462023e+03
1.375436247229352375e+03
1.548063569937851298e+03
9.765176468671256771e+02
8.736865591283818731e+02
8.166804031377030242e+02
5.541754332186837928e+02
6.426488340268977026e+02
1.106308676337252564e+03
9.865655353223587554e+02
8.734690884005334510e+02
9.553236577047561013e+02
8.170302161790549462e+02
1.210008501384259489e+03
1.331430193992035811e+03
1.167400377807026189e+03
1.095683743561779920e+03
1.208307954799520303e+03
1.463072985945199889e+03
1.640941696501770821e+03
1.395937132856629205e+03
1.139151866183455468e+03
1.232597605726280108e+03
1.253169414163949568e+03
1.252776751025513704e+03
1.214450011373052575e+03
1.058039588271074081e+03
1.018453583811240719e+03
1.126762485769705108e+03
1.320989962852483131e+03
1.131156960327780098e+03
1.100182066627163749e+03
1.189030940222485242e+03
1.050694736632966169e+03
1.137168132795773090e+03
1.062509992508272262e+03
-1.023086645552604068e+02
-2.528362341665988424e+03
-6.253735474982971937e+03
-6.922322306243248022e+03
-6.280091122235911826e+03
-6.535083364729088316e+03
-6.163275254521338866e+03
-6.211753436421929109e+03
-4.505584103889579637e+03
-5.006592088722450171e+03
-4.193895747813047819e+03
-3.781604147237118468e+03
-4.470753215674111743e+03
-4.551136363847317625e+03
-5.637934824346352798e+03
-1.331918512519105661e+03
2.481729668883554496e+03
1.510068893449195457e+03
-4.917704760755780626e+03
-4.869672225897471435e+03
4.311465874695178258e+01
2.287658656594708646e+03
2.374095849283014104e+03
1.930455368719776061e+03
1.772758041119122709e+03
2.275079613323386639e+03
1.253424535985089051e+03
-4.019267035210967606e+03
-4.277091046512404318e+03
-4.146137386124160003e+03
3.036277088943573972e+02
3.312571424200434649e+02
-1.798183468153878721e+03
8.763838989037122928e+02
1.153007893801484670e+03
-1.601267004588981536e+03
-1.337441827955035706e+03
-1.778501459038981920e+03
-9.693929300166360008e+02
1.806931092557621241e+03
1.586405128427996715e+03
1.315038822142562594e+03
1.679988890006412703e+03
1.411292429584448655e+03
1.278980967982384755e+03
1.572113658994607704e+03
1.429707295729442194e+03
1.736765090476634441e+03
1.701362032759014483e+03
1.661502123192805129e+03
1.763286203209547011e+03
1.953773157592723464e+03
2.055936389213329676e+03
1.523837588978539770e+03
1.397547476976953476e+03
1.641104902274950064e+03
1.311553545231019825e+03
9.349068298904634275e+02
1.044161546226487872e+03
9.173899484637987598e+02
1.265672777416733425e+03
1.450028868163305788e+03
1.435487890335775091e+03
1.104075252895130006e+03
8.079022496625897247e+02
8.140424160688505708e+02
8.635159380489602654e+02
5.843609065902667226e+02
9.666562952053070603e+02
1.270384905483389502e+03
1.504563791697793249e+03
7.662799424126335452e+02
8.215101576089181208e+02
7.173255164663667074e+02
4.986580319615174517e+02
-7.413407567549461419e+02
-4.523779771232532880e+02
2.593664237017858909e+02
-4.283797321652026824e+01
-1.223685811781214625e+03
-1.975349365584141310e+02
8.888039834512107973e+01
-2.483785628627586846e+02
-1.927125110062467570e+02
-1.258922974851065533e+02
-1.540005483482402724e+02
5.197426160566808306e+01
2.530375754653342426e+02
-2.782483401371917520e+00
-9.458982079811919519e+00
-7.396563899804182540e+01
-9.225441509934051965e+01
-8.632670641440414272e+01
-2.252304795910760333e+02
-2.490793615300865937e+01
-1.136545315083814955e+01
2.039353103604067030e+01
-2.316029727311095598e+02
-3.329093678776392551e+01
-6.562322520639246193e+01
-5.256434450775403775e+02
-5.793629181772920447e+02
-5.187761412717391067e+02
-6.298310448828124208e+02
-4.615544519132547521e+02
-2.769373554093305643e+02
-2.339400601163676185e+02
-1.285658527564920917e+02
6.192073699855967561e+02
1.523439930255172214e+02
-4.621566211214210398e+02
-4.882805200393165705e+02
-5.170227950722284049e+02
-5.143858969957593672e+02
