-9.842160081340047100e+02
-3.313457879159331014e+02
-2.659733135256683454e+02
2.217369539504263685e+02
-2.531624259694869750e+02
1.432690903990587401e+02
1.480783573551864492e+03
2.018058166819192820e+03
3.036346688181907211e+03
3.143813764231926598e+03
3.199261459173361345e+03
3.555366834392686542e+03
3.658851686750274894e+03
3.669584250413625796e+03
3.545957123460724688e+03
3.277928189609608580e+03
2.571092471003101764e+03
2.696585295736442731e+03
2.822632259780440563e+03
2.594093853047391804e+03
2.573859621967205385e+03
2.447052358585629918e+03
2.826761752228482237e+03
2.959836117990404091e+03
3.379473789577864409e+03
3.873765108428850908e+03
4.311404924906264569e+03
4.278524475094324771e+03
4.667355512986026952e+03
3.947039939218425388e+03
9.336717217338925821e+02
5.822501862444284626e+01
8.215466378751477805e+02
3.198610077466847542e+03
3.528473544967595899e+03
2.629087986964734228e+03
2.949410140052482348e+03
5.327518267727011789e+02
3.230229907731707499e+03
3.424893811827983882e+03
3.116685871869290168e+03
2.736671697244668394e+03
2.730980515640361773e+03
2.853527020930316667e+03
2.623336683983453099e+02
2.233731449415588486e+03
3.898832327201162570e+03
3.872702730522504680e+03
3.404383295548078422e+03
3.470513606171718948e+02
8.696922754697350229e+02
2.217405986204364581e+03
1.713295961711896780e+03
3.631271189963484630e+03
2.498297542963468004e+03
-5.359169314393243866e+01
2.579761800536076862e+03
1.390510586462373340e+03
-5.729402990816002017e+01
-7.956652559300284793e+02
1.341519243925965156e+03
2.211342164201395008e+03
2.239739073155402821e+03
2.759736625755997920e+03
3.412494912174769524e+03
3.290111554211655402e+03
3.164625583399569678e+03
3.299148339698806922e+03
3.189697865564432504e+03
3.338336838714719306e+03
3.645130340028792943e+03
3.631111842993468599e+03
3.317250242480653014e+03
2.687587061750644352e+03
2.568104521860409932e+03
2.678843861503241897e+03
1.995817855468204925e+03
1.448907726177140830e+03
8.621408190161133689e+02
4.116544698743778667e+02
1.664578590820227078e+02
3.085419074599877831e+02
8.498471004779892155e+02
7.114049484061100657e+02
4.183464205529785431e+02
7.897599266270652834e+02
1.501632917408676121e+03
1.682737223259076472e+03
1.247983864080111744e+03
1.332354926679106484e+03
1.654132785389545916e+03
1.337358151517134502e+03
1.460929432796999208e+03
1.583823072724055692e+03
1.247851430991181587e+03
5.230507475684781866e+02
3.365366773060721926e+02
-2.845629871958862509e+02
-7.532892333867011985e+02
-1.285443733097861013e+03
-1.545429433614606523e+03
-1.745907488280407506e+03
-1.061403846460456862e+03
-2.527587968923917856e+02
-2.815839877310686745e+01
9.841614361973479674e+01
6.845439117389435069e+02
1.427334389395859262e+03
1.994725072447577531e+03
1.893396952853242510e+03
1.680595746709395598e+03
1.166009720783094508e+03
7.454422807127159558e+02
4.018416309882402970e+02
8.812738643110719750e+01
-1.118065925745228100e+02
-5.068961201010056357e+02
-1.511280793032084375e+03
-1.902066218722816984e+03
-2.245329278185939529e+03
-3.067140339762383974e+03
-3.142515420307118802e+03
-2.398513507201570519e+03
-1.807155322826570909e+03
-1.109442017361579019e+03
-9.133755560126685396e+02
-8.839559240507827553e+02
-8.242485766592143364e+02
-7.363096988846352815e+02
-3.791748635322160794e+02
-5.286637556589715814e+01
-3.653848964854776682e+02
1.098263439642429375e+03
2.560956959925008050e+03
2.550698319080572674e+03
1.427448989999676314e+03
3.481789703193666128e+02
-7.611769799024200438e+02
-1.916676158733826924e+03
-2.560320537994638471e+03
-1.522085250587728751e+03
-4.660014022875794808e+02
-5.790759021303274494e+02
-1.080270446418176107e+03
-1.205623744122603966e+03
-1.034089742821643540e+03
-2.757364562292042365e+02
2.594655821076611346e+02
7.926520147753705032e+02
1.807763344282499702e+03
1.232803916207751172e+03
-2.532250181415941825e+03
-5.712369950073187283e+03
-6.785558108381178499e+03
-7.407765834070870369e+03
-7.687065262169027847e+03
-7.066495913110930815e+03
-5.702912168945310441e+03
-6.050329140830308461e+03
-8.389861064144733973e+03
-9.760535002686779990e+03
-5.356248985297153922e+03
-1.800958380193930225e+03
-8.356251355932721481e+02
-8.282257436474500309e+02
5.822132313789663982e+01
2.040801378456482553e+03
2.669599179522742816e+03
1.068587998664472025e+03
2.627774491220003483e+02
9.632015360293154345e+02
2.142846354257235816e+03
3.098762675712325745e+03
3.525942381418944478e+03
3.338423331882585899e+03
1.982225364328291789e+03
8.044348192042278924e+02
3.429789639759285365e+02
1.184901522949850914e+03
1.360277312304719089e+03
9.931533731497393092e+02
8.796134214464468641e+02
8.727058678166150685e+02
9.693627668918711606e+02
5.636958101060023409e+02
4.296939938560902306e+02
2.041354741832157288e+03
3.542693013407613762e+03
3.897779212245929557e+03
3.530697769842769503e+03
2.926522888890493505e+03
1.599271808539567473e+03
4.690293109672244327e+02
-8.912216442883727723e+02
-8.425295590823858447e+02
7.671286942520556522e+02
-4.325485384646836451e+01
-8.047664202072687658e+02
-1.763429754273233129e+03
-3.279165852038100184e+03
-4.048852956013558469e+03
-4.289431244799870910e+03
-4.207880817941806527e+03
-3.135137085453022792e+03
-2.519189063171464568e+03
-2.474024977888369449e+03
-1.199540760012781675e+03
1.413220086205677262e+03
2.447236114904463648e+03
1.941524974717469604e+03
1.966056131776879056e+03
3.914910987279807614e+03
5.044177862875334540e+03
4.616954035454590667e+03
3.932207027439388185e+03
3.531833543501749318e+03
3.033999080150527334e+03
1.529791990422050731e+03
6.701168107492742365e+02
-4.041397788209822579e+02
-1.416247536536541247e+03
2.589740046313452559e+00
1.469526548660738854e+03
4.117370197045375448e+02
1.294218688484276299e+03
1.350911164074405860e+03
1.329759173884731581e+03
2.181746168618766205e+03
2.868907179137126150e+03
2.919497620682845081e+03
2.310352022805439447e+03
1.607093508849646469e+03
2.128827532190307465e+03
2.540352141778043460e+03
2.978442313752927021e+03
2.242301303186164660e+03
4.738236282309283638e+02
-8.213511273026226078e+00
-1.408771624011159702e+03
-3.142759014122281769e+03
-3.690338747964417053e+03
-2.940590893761675034e+03
-1.314763701645369338e+03
3.232589991586564082e+01
2.743187536997563143e+02
3.402369405190786438e+02
4.540036496934711181e+02
-8.525611474176924958e+02
-1.811666357521930195e+03
-1.087875039723691316e+03
5.313746954883492890e+02
3.548771650452166568e+02
5.718456057659640237e+02
1.264614044810010682e+03
1.191639080347420077e+03
-5.791877986957213125e+02
-1.089697959371087563e+03
-1.248728912297833631e+03
-1.095308639053341949e+03
-1.585497037614058172e+03
-2.216581949825896118e+03
-2.597733400375526799e+03
-2.662846698606158043e+03
-2.915177175398106556e+03
-2.057012454852774226e+03
-1.222165337552434266e+03
-1.783584794518985177e+02
5.111817925669740816e+02
7.410933472573476593e+02
3.977183286211816835e+02
4.867095868195058870e+02
6.891336198659962520e+02
-2.746271178821156127e+02
-9.446943236714723753e+02
-9.916728924849928717e+02
-1.639990659416301241e+03
-2.122616041868566754e+03
-1.786267608205523175e+03
-1.680645886407305170e+03
-2.711846227196772816e+03
-2.912534040962175368e+03
-2.228307732461812520e+03
-2.430122824325545025e+03
-3.110921379098264424e+03
-3.086475719761873734e+03
-2.694726516319637085e+03
-1.971334407726158133e+03
-1.010549768229939559e+03
-9.774927533712681225e+02
8.771849634565721487e+01
2.597789681996800368e+02
2.039946335429524140e+02
-9.973942270770972982e+02
-1.476705326351238909e+03
-4.642804663370594085e+02
8.719066933282088030e+02
6.933769438976672745e+02
2.983792148265119408e+02
8.957892391361530144e+02
2.946164064309817832e+02
-6.595822381773364214e+02
-3.280723831272443931e+02
2.615628626751678780e+02
7.568293381450872630e+02
5.246636717840809752e+02
1.170555219958420139e+03
1.244683397506222946e+03
8.547787019472831389e+02
1.525033912359690476e+03
2.110378036798122139e+03
2.917432774397726007e+03
3.046578824402796272e+03
2.364042972014591214e+03
2.001158625130522523e+03
1.417131999216164104e+03
8.101343173822793915e+02
7.399330558912403148e+02
3.149898487925586323e+02
-4.604677711936586775e+02
-1.194530365843909067e+03
-1.701644241538068400e+03
-1.758694281736452695e+03
-2.085013224076712959e+03
-1.522476813244165442e+03
-1.926195171117931864e+02
1.176838495910647680e+03
2.231909802449109065e+03
3.047564146140762659e+03
3.516660810709612633e+03
4.110469827606603758e+03
4.159975196623761803e+03
4.251197188105954410e+03
4.187307452150939753e+03
3.339781678045536410e+03
1.938282370600545619e+03
1.865702996150139597e+03
2.604219200068518148e+03
2.845929334036508408e+03
2.973287786770619277e+03
3.026968386445963461e+03
2.431766404313488692e+03
1.629823863427618107e+03
1.388696052395403058e+03
4.737984108723509848e+02
-2.097732946857400293e+03
-5.107315849199343575e+03
-4.684019440938567641e+03
-4.010712526830418483e+03
-3.367967971472327918e+03
-2.436913740252808111e+03
-3.195678952571199261e+03
-4.022546930326595430e+03
-4.714933722120860693e+03
-3.386784745642386042e+03
1.285450553212447630e+03
2.411603689585038410e+03
-1.930616236341423701e+03
-5.713521313484236089e+03
-6.566140956632531925e+03
-7.213401380612013782e+03
-6.625314886427302554e+03
-4.487211893165303991e+03
-6.936923581246836875e+03
-7.185893068729388688e+03
-6.656388418171310150e+03
-3.786497474065864935e+03
1.881937830372270128e+03
3.434004829266679735e+03
3.654371376339759081e+03
3.854068131436643398e+03
3.430639968459353440e+03
2.627729762274868790e+03
3.218475530618117318e+03
3.396707658925812211e+03
2.954703264676501021e+03
1.909705124780154847e+03
7.616334455749115477e+02
5.593493488614594753e+02
-1.950882487802898879e+02
-1.227301360204689217e+03
-1.720468819753784146e+03
-1.410434860010382181e+03
-9.963360897153449969e+02
-8.618710908902552319e+02
-6.576495804900752091e+02
-3.674794371027716693e+02
-1.879835964729984141e+02
1.344818550369552099e+02
7.630229761937533794e+02
1.001087832120023677e+03
9.963093037435694441e+02
7.553330562920173179e+02
7.612063402273779502e+02
5.727178234781345054e+02
-2.401730389865624318e+02
-7.157590314559142826e+02
-1.193553989434738924e+03
-2.133331640621357110e+03
-2.420774635133866013e+03
-2.254454755067075894e+03
-3.112720430901132659e+03
-3.302184687194574508e+03
-3.738457011307741595e+03
-3.927702000179495826e+03
-3.255973009863691004e+03
-3.071091871205847838e+03
-2.977600336669206172e+03
-2.548117242338749293e+03
-2.413102972827882240e+03
-2.066335821273852616e+03
-1.367498024248502588e+03
-1.423075713776244584e+03
-2.243203339810985653e+03
-1.958808416408194034e+03
-1.858669012146602199e+03
-3.244234325342228203e+03
-4.800342655582169755e+03
-5.029715020468705006e+03
-5.245010166372227104e+03
-5.136257456754407031e+03
-5.190569439299648366e+03
-5.515771403350003311e+03
-5.340613065470998663e+03
-4.355154938544715151e+03
-3.809124502475036934e+03
-3.701496810333551821e+03
-3.046988821129953521e+03
-2.735187635628676162e+03
-2.084014955042518977e+03
-2.051465426171120271e+03
-2.377909024207441689e+03
-2.786378928537907541e+03
-2.614462433294394032e+03
-3.213266946616719906e+03
-3.915182596591441325e+03
-4.435216916002887046e+03
-4.864952102461929826e+03
-4.779794413851175705e+03
-4.138188944252139663e+03
-4.429139320127326755e+03
-4.207199461880850322e+03
-3.666343648024145295e+03
-3.587163744173324631e+03
-3.965244132268792782e+03
-4.337065474350637487e+03
-4.663677506752931549e+03
-4.452142773908271010e+03
-3.937377825309849868e+03
-3.245564239575991905e+03
-1.900879702798382141e+03
-6.333221982501027014e+02
-2.479078573003295105e+02
-1.566853523408348110e+02
-1.132411939450466662e+03
-3.099109476746111795e+03
-5.226936121510727389e+03
-6.446988586696056700e+03
-7.353364830206331135e+03
-7.517161770032616914e+03
-7.208729606147441700e+03
-6.952300276943496101e+03
-6.709632480620894967e+03
-5.938764291689504716e+03
-5.256904939977459435e+03
-5.391362080860350034e+03
-5.986533393953206541e+03
-7.983454894173330104e+03
-1.032036713600632720e+04
-1.034480461038903013e+04
-8.663081053233992861e+03
-7.616261349677088219e+03
-8.321512855960883826e+03
-6.869202202476169077e+03
-3.068580755533978390e+03
4.230862629154192973e+02
3.077314045714964323e+03
3.065711869538654355e+03
-5.020402515067736431e+02
-2.544596506819945262e+03
-1.989489598746284628e+03
-8.098632961319202650e+02
9.376612547394853436e+01
4.570227709435066004e+02
6.823696624517880309e+02
1.601138546508632317e+03
6.838728447744728328e+03
1.135514930350685972e+04
1.208418955314402410e+04
1.463092958191132129e+04
1.539098420472849648e+04
1.391950966616106052e+04
1.467903036634778982e+04
1.485812710539197724e+04
1.240347949197322305e+04
1.076437333727065197e+04
1.045596515267832183e+04
8.206837499563336678e+03
4.429462599487671469e+03
-3.337390371524812053e+03
-1.019075624019066345e+04
-9.240367374113202459e+03
-6.802107026575699820e+03
-4.607428231244839480e+03
-3.923266570339321788e+03
-5.897019378441050321e+03
-1.871886061205610304e+03
1.184686410218932724e+04
2.690335156847168037e+04
3.576800004427965905e+04
3.949103570483470685e+04
3.810673467216037534e+04
3.378877629016303399e+04
3.105465865765059061e+04
3.232840534258455591e+04
3.460468243131521740e+04
3.696769859122206981e+04
3.721508537842412625e+04
3.476348803365874483e+04
3.494342211743621010e+04
3.356199172418916714e+04
2.764612131994724768e+04
2.422394532477313260e+04
2.367918016067253120e+04
2.024315813417883692e+04
1.142446377498793481e+04
5.318655366119843166e+03
7.439162153029437832e+03
1.152344716174136738e+04
7.992834359562833015e+03
1.420922856826385669e+03
2.034891912770604350e+01
7.148657626853190777e+03
1.697641117401456722e+04
1.989718746759692658e+04
1.373749284165923018e+04
5.414152010000675546e+03
-2.628905446769609853e+02
-9.280356598692443413e+02
-5.578373935339752734e+02
1.207545811866008762e+03
6.759930565410963936e+03
1.581609162488461516e+04
1.695198442517151489e+04
1.195852993886576951e+04
5.951355240004762891e+03
-1.402632098183839616e+03
-1.289953456498281957e+04
-2.514634626866912731e+04
-2.417211430448792089e+04
-2.623175714895631609e+04
-2.257929167488629173e+04
-2.623078286794466840e+04
-4.051223278623080114e+04
-5.613530699447450752e+04
-4.907680138037961297e+04
-3.948365767111851164e+04
-3.341364759600901016e+04
-3.292445305867207207e+04
-3.573091090981342131e+04
-1.682867391714091718e+04
5.365595849456465658e+03
1.167526098173136234e+04
4.607616984657001922e+03
-4.520839253767631817e+03
-1.206853432280353445e+04
-9.947106747461519262e+03
-9.578136833123369797e+03
-6.652113814099469892e+03
-1.628845724820739633e+04
-1.777347514105093796e+04
-5.876484181367422934e+03
1.171615937617850432e+04
1.724409903878708428e+04
2.041200649583889754e+04
2.733067664451642486e+04
1.978086838014732348e+04
4.306338749521731188e+03
1.190894855938859337e+03
-8.478627359000822253e+03
-1.924627639129656018e+04
-2.614414980865384496e+04
-1.655455009156840606e+04
1.123908506418881734e+04
3.263671774741195986e+04
2.877940920430605183e+04
1.276412252803660522e+04
-8.799061252537199834e+03
-3.628802410193120886e+04
-5.488371060571054841e+04
-5.879708464420235396e+04
-3.983820146229674720e+04
-1.731596475041361555e+04
1.444468658986357696e+04
4.265471146414789837e+04
4.233618247881764546e+04
2.297012142189539009e+04
8.734598685360861055e+03
-8.180971825918491959e+03
-3.645823362691864895e+04
-6.729116774795134552e+04
-7.724164610467298189e+04
-5.368739836762774212e+04
-3.911631135024377727e+04
-4.824660425574026158e+04
-5.540599963748856680e+04
-5.225311120654929982e+04
-5.093465011826662521e+04
-5.490645799303227977e+04
-5.300871641441584507e+04
-3.536844522643800155e+04
-2.047954878652690240e+04
-4.271658561121386811e+03
2.656280310726954849e+04
4.713648210720061616e+04
4.360493816490027530e+04
2.599993471186337774e+04
1.750471641935489970e+04
1.516327887931246369e+04
1.380650614888471137e+04
5.288693948278316384e+03
-1.035930875555060265e+04
-3.321075888059219869e+04
-4.790894025140928716e+04
-5.265216249522584985e+04
-5.098024762495899631e+04
-3.513658130808168789e+04
-7.892092151859832484e+03
6.160848898578062290e+03
1.054299178431033215e+04
1.220307026261632018e+04
1.466807141039278804e+03
-9.836127416469371383e+03
-1.251206484623970027e+04
-5.538412573839091237e+03
3.600364523761441433e+03
5.815868575612172208e+03
4.521697336775832810e+03
1.868632299971731845e+04
3.315109682201118994e+04
2.517643534190579885e+04
1.900379002722388395e+04
2.698746272737374966e+04
4.168979177510670706e+04
5.403808205828272912e+04
5.457163276246911119e+04
4.766453414176559454e+04
4.672405947206340352e+04
5.176036014366417658e+04
5.571955841556856467e+04
5.558874194355717191e+04
5.251995896845912648e+04
4.176724811520073854e+04
3.312460789301687328e+04
3.978596792558825837e+04
5.127125871451496641e+04
5.434924908329566824e+04
5.040668129937501362e+04
4.901542762569758634e+04
5.095923814443516312e+04
4.945379673723741143e+04
4.415469497715282341e+04
3.746852227104143094e+04
3.365991818602540297e+04
2.982948636419140894e+04
2.568977742314553325e+04
2.035122943176496847e+04
1.699929740233572375e+04
1.759741175172054500e+04
1.372302512631150603e+04
7.875615436974220756e+03
1.682440662500031067e+03
-3.119097744136431174e+03
2.044348772396714594e+03
1.044503387913341794e+04
1.581919241955724101e+04
1.972715088208421730e+04
1.797595297442900846e+04
1.443955872353646373e+04
1.179614230138515450e+04
6.257786276861727856e+03
-1.006457405027645791e+03
-9.354896641255647864e+02
1.028646221067241186e+03
-6.203118093443109501e+03
-1.644868249957182343e+04
-1.766813149710920334e+04
-1.308746270486277172e+04
-1.093863973778524087e+04
-6.151729252726004233e+03
-4.098884076511725652e+03
-8.933089632387822348e+03
-1.603041415070175753e+04
-2.190299842669681311e+04
-2.354500154564509648e+04
-1.925857237864482158e+04
-1.547588985310568569e+04
-2.032803092643223863e+04
-2.851319985937875026e+04
-3.443955272181729379e+04
-3.519919069469465467e+04
-2.942930005423352850e+04
-2.477308267206449818e+04
-2.135665909188002479e+04
-1.677920841813529842e+04
-1.511193660744175577e+04
-1.600507629411684138e+04
-1.788882284456642446e+04
-1.908629305406577623e+04
-1.906454196520365440e+04
-1.766661637363954287e+04
-1.570161794117616228e+04
-1.510353720639812309e+04
-1.569239322216271830e+04
-1.610529028431963707e+04
-1.611729090731092583e+04
-1.926151088526460444e+04
-2.358102736131797428e+04
-2.382684650868691824e+04
-2.297899820889141483e+04
-2.084154717120525675e+04
-1.773550969905619058e+04
-1.787470982808514236e+04
-1.710111463357884350e+04
-1.570754239214539120e+04
-1.565276168566783781e+04
-1.685753136717669986e+04
-1.702356125743026496e+04
-1.591174459034890424e+04
-1.522598863230357165e+04
-1.356923766069585145e+04
-1.183149757475322986e+04
-1.115651263899721380e+04
-1.116999010900074427e+04
-1.051542640019461214e+04
-1.061512637590062332e+04
-1.207178331658763454e+04
-1.269317197028326154e+04
-1.249383420651586675e+04
-1.196831682931234354e+04
-1.248902765309307324e+04
-1.492445200870687586e+04
-1.979512766716493570e+04
-1.931284114444123406e+04
-1.517902590214647535e+04
-1.604371358322795822e+04
-1.364733174785574010e+04
-1.499903647034584174e+04
-1.549990397521657360e+04
-1.547923496681939469e+04
-1.334312685900007637e+04
-1.141859724379789441e+04
-1.403480620593797903e+04
-1.566891697906774971e+04
-1.567077119520954511e+04
-8.525263761900454483e+03
-3.995977951707403463e+03
4.691913827471449849e+02
1.537699488704041187e+03
5.495459821275629110e+03
6.377520812838065467e+03
9.373086756576851258e+03
5.155532583273517048e+03
7.162541032497063497e+03
7.733407285950496771e+03
7.673919869761865812e+03
6.151573338350280210e+03
3.644978571159700095e+03
4.296871413630695315e+03
4.885902106551272482e+03
1.649344731681220310e+03
2.058315169091054486e+03
4.130922745261681825e+02
1.101069539720715056e+03
5.401797849712205789e+03
1.288495700200160900e+04
1.851287325241686995e+04
1.839716165498089322e+04
1.538268977087625717e+04
1.588090391425134658e+04
1.537516173501982666e+04
1.642728789622908153e+04
1.867838427296796726e+04
2.009196694614137959e+04
2.183803521626777001e+04
2.144491420100497271e+04
2.045480164783289001e+04
2.052664471696791225e+04
2.088576516443304718e+04
2.018713205022558395e+04
1.886695563302982919e+04
1.627024873057793047e+04
1.528045033168501686e+04
1.658553909090203160e+04
1.767310851773176182e+04
1.620045253720824439e+04
1.485310034441196149e+04
1.319652817399863306e+04
1.154501178346047163e+04
1.197375161345961715e+04
1.429884449087969551e+04
1.434740244262925080e+04
1.374343324523486626e+04
1.401300627886144503e+04
1.442630411966584325e+04
1.443122676380420853e+04
1.413050106950720510e+04
1.365000630476496372e+04
1.302390894471395768e+04
1.163635574875492966e+04
1.149989845527671241e+04
1.186457402482201724e+04
1.180027648550074446e+04
1.070216695320068357e+04
9.886894774005308136e+03
8.738501405423805409e+03
8.491455157472380961e+03
8.455293122672750542e+03
7.766390324525594224e+03
6.668986783615094282e+03
5.959075615938786541e+03
6.422648249678580214e+03
6.701494004560608118e+03
6.004435420377624723e+03
5.330005871706183825e+03
4.184414517371579677e+03
3.279080040672989526e+03
3.379876580166975600e+03
3.201118866718064055e+03
2.455535570089680732e+03
1.728429466529588808e+03
1.471895009822288330e+03
8.237357496840065778e+02
-3.155754620096668646e+02
-1.451837371615808479e+03
-2.145515440144676177e+03
-1.684682764620322359e+03
6.682109046640385941e+02
2.263294707012979870e+03
-1.575752771214776544e+02
-2.663951791593261532e+03
-4.117610108564974325e+03
-6.149560989126732238e+03
-6.950438427791747017e+03
-6.683257323606161663e+03
-5.578889678361450933e+03
-4.121405811902040114e+03
-4.619606368229533473e+03
-5.550366059622745524e+03
-5.450264348388662256e+03
-5.950463667819009970e+03
-7.159215996237770923e+03
-9.834514435152676015e+03
-1.381654929894065936e+04
-1.530928392380999867e+04
-1.411219881912743222e+04
-1.351888160025471188e+04
-1.357356049957150208e+04
-1.387848765246674157e+04
-1.575840655390537540e+04
-1.969410869013418051e+04
-2.205884296401416577e+04
-2.103470713330415674e+04
-1.656956141301948082e+04
-1.194125680015926446e+04
-1.041145189191688405e+04
-1.015969484398556415e+04
-7.234495091910428528e+03
-9.119071141568427265e+03
-7.211940206146867240e+03
-2.763751849816960657e+03
-4.663337834716376165e+03
-8.339072880119558249e+03
-9.656707663962943116e+03
-9.960820352269367504e+03
-9.569839297691900356e+03
-9.450917193670285997e+03
-8.556504526344291662e+03
-9.101930628602127399e+03
-9.350339616551320432e+03
-7.989125562529362469e+03
-5.166034397346412334e+03
-6.068714564137403613e+03
-3.399553690702245149e+03
-3.036985217294482936e+03
-3.370573828319875702e+03
-2.252828265120434935e+03
-9.226859660402520831e+02
-6.323031912827104861e+01
4.316845487361256346e+02
2.424260333626748150e+02
1.011284672380017611e+02
-1.896817737415060208e+02
-7.673298525039503204e+01
1.691268928451764566e+02
-2.075417387771661311e+02
-6.071392568285918969e+02
-4.891100096253296101e+02
-1.038568247014378812e+03
-1.370713090993430797e+03
-1.633339551359751795e+03
-1.071559588960366909e+03
-1.745706091704434357e+03
-1.609202426223611155e+03
-1.616455625333159333e+03
-1.772003939003947153e+03
-1.534847635609988856e+03
-1.325736284525220753e+03
-1.369419551793560913e+03
-7.221966769937448589e+02
1.704097890760935030e+01
8.391256732134506819e+02
1.238440892948888632e+03
1.178491061473509262e+03
1.193852586926059985e+03
1.932415724236362848e+03
2.178833996541492979e+03
1.514374073391467391e+03
1.023337161054401008e+03
5.129731686205913093e+02
3.152001735093716661e+02
7.695997537631325258e+02
1.799742307608163685e+02
-4.678411012906267956e+02
-8.367100515955776245e+02
-1.385528776252155922e+03
-1.577894021263877448e+03
-1.903533738380342584e+03
-1.179269967715328903e+03
-1.186065771942994843e+03
-1.859690082520264468e+03
-1.361426034364571024e+03
1.126859871746593171e+03
2.836406016872607324e+03
2.140722727878297974e+03
1.650679453756443991e+03
1.341241689671479207e+03
1.702782000523705165e+03
2.572551803894969453e+03
2.168059245083793030e+03
1.168130032290327790e+03
1.162597618193730796e+03
7.609631335754210113e+02
2.216760187210533672e+02
3.832644218407607468e+02
4.028774167234752781e+02
1.211487096290897680e+00
1.284208262808018901e+02
5.291815166730671081e+02
7.128173617694559425e+02
4.193609987448368202e+02
3.566399963170536012e+02
4.611373088742276423e+02
6.058696460336942664e+02
5.904723614393548132e+02
1.036380462408328412e+03
2.012578259092521193e+03
2.308726958748839479e+03
1.958251430159734355e+03
2.010114928228118742e+03
2.348241483429746950e+03
2.473464362684236221e+03
1.786964870103226758e+03
1.178881494622804439e+03
9.743063504660923400e+02
1.015293755046295928e+03
1.867715409672685382e+03
1.730397656647196300e+03
1.574313869892182765e+03
1.595546335153908785e+03
1.762142862877594780e+03
2.053115174650875815e+03
2.168354408156681984e+03
2.278102280658154996e+03
2.652471048422210060e+03
2.801155655136997211e+03
2.574002562467774169e+03
1.642844136053641478e+03
1.365480233050637025e+03
-2.699178470251133604e+02
-3.160452664371878200e+03
-6.324238855961331865e+03
-6.680287422381175020e+03
-3.072616981912020492e+03
1.166697044206715219e+02
5.564257105608663778e+02
1.065653928104341276e+03
1.271155245775788899e+03
1.793810673530124404e+03
2.074632617101604410e+03
2.103566427814268536e+03
2.261548893020118612e+03
1.986505472454237861e+03
1.398529695425847422e+03
1.642527458026194381e+03
1.478298190804647902e+03
1.973737530813000149e+03
2.105818332199063661e+03
1.589628123078458657e+03
1.026336592300860275e+03
-1.114878123490055088e+02
-7.513951264544855349e+02
-9.151201485911426516e+02
-1.046976098348433197e+03
-1.530759727430004432e+03
-1.098648708130744808e+03
1.122058886024313580e+02
2.346291743650937462e+02
1.035213182428016836e+02
9.506954449202471835e+01
7.281725323018149538e+02
9.516421416055125064e+02
1.198769189100648873e+03
1.687553789210112882e+03
1.771852073302062763e+03
1.858703977453868447e+03
1.728788014977014200e+03
1.490292435789589263e+03
1.289832206812770892e+03
9.899036417152044578e+02
1.050820449261671683e+03
4.746185129702463428e+02
-3.697595564744374315e+02
-7.972354143546016303e+02
-7.356725306727367979e+02
-3.573503657390567696e+02
-4.381975491793519382e+02
-1.150252106017875917e+02
1.376593251129435203e+02
7.949810257518677190e+02
1.164763629898305908e+03
1.387637145293371987e+03
2.060181260735297656e+03
2.686370373214506799e+03
2.417661074800614642e+03
2.335325399968635338e+03
2.251910001137178824e+03
2.246269214550785364e+03
2.158369004861309350e+03
2.086060316957037230e+03
2.273258346046055067e+03
1.802003827762261153e+03
1.339480564929083130e+03
7.086711123321679224e+02
2.983733063949839561e+02
8.045207984910603045e+02
9.301908612722409089e+02
5.884839885632873120e+02
9.135658336959004373e+02
1.523426762477349484e+03
2.430830613050082320e+03
3.193764575220155166e+03
3.586499130332237200e+03
3.480060036745302114e+03
3.272514845506384063e+03
2.555928746921027596e+03
5.670446604848949619e+02
-2.942415821276399129e+03
-5.131232933245007189e+03
-5.347266460548577015e+03
-5.249636892561747118e+03
-5.603368613704364179e+03
-5.768398899249390524e+03
-5.678663112591392746e+03
-5.227085719469945616e+03
-4.915581410706005954e+03
-5.195068911837745873e+03
-4.761555574959485966e+03
-3.984045192297544418e+03
-3.230502330628278287e+03
-2.320757485427955089e+03
9.603132637112595376e+02
2.887142763041314311e+02
-2.397571907540248503e+03
2.136504066809803135e+03
4.922058836137970502e+03
3.181214417413964384e+02
-3.078237810914261445e+03
-3.548068683326928749e+03
-3.263356110518050627e+03
-3.224992583267954615e+03
-3.040885397135550647e+03
-3.494939128487767903e+03
-4.229118669076097831e+03
-4.107443359224463165e+03
-2.568886191149390470e+03
2.805734142884264202e+03
4.433514303051787465e+03
4.293366163461773795e+03
4.126336862147725697e+03
4.280725835281471518e+03
4.508786716797707413e+03
4.822515184544486146e+03
5.071755299479913447e+03
5.440257968944239110e+03
4.993096827226873756e+03
4.811737473613501606e+03
4.773272439457990913e+03
4.556616278216644787e+03
4.464842350804785383e+03
4.127931271790023857e+03
3.783885783568867737e+03
3.610656331374390902e+03
3.453181544322063473e+03
2.781689972746814874e+03
2.474215051841984405e+03
2.475682003730340512e+03
2.426076746969116357e+03
2.075755187466958887e+03
2.229031742736362958e+03
2.789137999263649817e+03
2.701991029611085196e+03
3.175383709637279026e+03
3.303449389158528447e+03
3.179279395286777344e+03
3.684909917115749067e+03
3.558413417748965003e+03
3.568910204447960950e+03
2.802364761604522755e+03
1.379408102007641901e+03
1.460917385571487785e+03
1.401102185850477099e+03
1.051893662185430003e+03
8.231390454653080724e+02
5.256174440655782973e+02
1.367263201533398274e+02
5.274562519643208134e+02
7.027225924550468790e+02
9.005151136702272652e+02
1.360656319775942393e+03
1.199354795100615547e+03
1.487799224356948571e+03
1.648945457543797374e+03
1.783719043309505196e+03
1.643042603408046034e+03
1.783975633401232244e+03
1.812515109557739379e+03
1.469537381696741477e+03
5.730932366390095467e+02
6.616374866924905973e+01
-2.876340139587914990e+01
-6.956176473478909656e+02
-8.423225471604130234e+02
-6.080519919950293115e+02
-6.878838236904246060e+02
-8.907973150276449132e+02
-9.087790910356582117e+02
-1.766906122817673293e+02
4.494417824426561197e+02
6.924945601514249347e+02
9.464222259448104069e+02
1.247146784145622632e+03
1.802744603466519038e+03
1.964194061949029219e+03
1.628413467491016945e+03
1.209431488729226658e+03
1.163179826140562000e+03
1.761629283172641180e+03
1.529706429507137045e+03
8.963931846724485695e+02
3.495550460214685700e+02
-2.637362608634882690e+02
-4.795766187569186627e+02
-8.241050422028313278e+02
-1.156332555743226976e+03
-1.925314737922004269e+03
-1.598107706567925334e+03
-9.087761688328947685e+02
-6.873813286481338309e+02
-3.980820845325024493e+02
2.012217165438672737e+02
1.343859273697255730e+03
1.440546041271402828e+03
1.357141614052488876e+03
-3.263987872988612926e-01
-1.823924842930334762e+03
-4.051651096231791144e+03
9.837504554786877975e+01
6.440071770643207856e+02
-4.286671172634545655e+03
-8.145720201888449083e+03
-7.959206046179521763e+03
-7.874126635436767174e+03
-7.970615990983454139e+03
-8.158729443683838326e+03
-8.371489840207301313e+03
-8.945838326852235696e+03
-8.589787349352989622e+03
-8.111526129926366593e+03
-4.866174480501008475e+03
8.222157918727467063e+01
1.108790826880879649e+03
1.415523268071194252e+03
2.165380259117364858e+03
2.381230768449424431e+03
2.224996152817676375e+03
1.427851517875074478e+03
8.317908803585440864e+02
8.855962124909020758e+02
1.066261373699327578e+03
1.146793258168576131e+03
