1.282300587372666769e+03
8.797668254261412812e+02
5.769992685019342389e+02
9.189363688626310704e+02
1.405564889225769321e+03
1.454954056088239895e+03
1.049010987365093115e+03
1.012684410302895117e+03
8.680224607067591478e+02
-2.219796473470987337e+02
3.665753231744821505e+02
6.407066838430516782e+02
5.123671864281631088e+02
-9.844510622715237957e+01
-1.565718440239275878e+03
-6.002445006720498895e+03
-9.293670505998339650e+03
-9.009449983902122767e+03
-9.161856303976142954e+03
-8.879867815710280411e+03
-8.663545787683835442e+03
-8.265816058727366908e+03
-7.491511218195618312e+03
-7.145704223714631553e+03
-7.082530467351985862e+03
-6.991042721907999294e+03
-6.544207694154352794e+03
-5.877976277691519499e+03
-1.913770193836499516e+02
1.788561635802834644e+03
-1.020253505435851821e+03
-5.267596275213445551e+02
-4.549374649450709285e+02
7.961584961707984576e+02
1.502404320098118887e+03
1.234762221366168887e+03
1.270322560783440395e+03
1.476091624199357057e+03
3.090673948117022292e+02
-4.867570765800759318e+02
3.845830141795361214e+02
1.431089911496467948e+03
1.402863959571224086e+03
1.109915039292731990e+03
1.327195128202925162e+03
1.219710508668376178e+03
1.137483724712700450e+03
1.215514994762717834e+03
1.832827020411993317e+03
2.859442566926597465e+03
3.055340626263200647e+03
2.661511866436198943e+03
2.116955207023909679e+03
1.838681179444364489e+03
1.781716914161101386e+03
1.667068820233890392e+03
1.750751845246808216e+03
1.516793562301252223e+03
1.415214745511129877e+03
1.212010228020604700e+03
1.762185849317091879e+03
1.429757077178070176e+03
1.057773707138508826e+03
1.443218459008813397e+03
1.290120877590476994e+03
1.416520291014875284e+03
1.522442442225265040e+03
1.484868124143630212e+03
1.493836246536590806e+03
2.016423576684181853e+03
2.395644054041176787e+03
1.778444267000344780e+03
1.097912408760899552e+03
9.590437698129881028e+02
5.459838304335391967e+02
3.557650042642104609e+02
2.666605722034120163e+02
4.696219401334302574e+02
7.084512993513171750e+02
1.182165770160533611e+03
1.330526894404260702e+03
7.715448604369727263e+02
2.904220632936008428e+01
3.083064655666077556e+02
-7.705578590433439103e+02
-7.243756217519751317e+02
-1.765230948635495224e+03
-2.641643413575512795e+02
6.418141391979798982e+02
7.126993230673512016e+02
8.575573376085968675e+02
1.374450340369009382e+03
1.553370564760203251e+03
-5.226723105779204843e+02
-5.470671432906633527e+03
-6.177647659714955807e+03
-3.235514352797805714e+03
-4.092253753161061013e+03
-3.569850288722059304e+03
-1.033268824431805086e+02
6.343351940637145390e+02
6.571698517208610610e+02
7.991315984493422775e+02
1.119253346916733562e+03
1.406608213923677113e+03
3.662143932754306661e+02
-1.889874713092250886e+03
1.238398534258771178e+03
1.642061022260563959e+03
-9.849337812545599036e+02
-2.443620770647054542e+03
-3.011001556137557600e+03
-1.597999847078814582e+03
-3.396583493435302444e+03
-2.006791719961791614e+03
5.034160873342985809e+01
-2.141228211583841130e+02
-1.481132200546701370e+03
-3.545759157220964426e+03
-2.411546451581099504e+01
8.658524780612503946e+02
1.393273592011803714e+02
4.037318652183786583e+01
2.379400874623342759e+02
-2.460065672662430188e+03
-1.166652661644082400e+03
-1.962768132435077632e+03
1.082499626373447654e+03
1.092237601568021091e+03
1.187550491665747813e+03
1.191322097830609209e+03
1.142504144374443513e+03
8.560761504265526582e+02
4.541142443229867354e+02
3.560440598326825246e+00
-3.318607294728100442e+03
-9.772942224374887701e+02
7.284684216861943469e+02
5.467660998471312723e+02
-3.484782327138693176e+02
-5.132554843696193529e+02
-4.494555566646177169e+00
4.467180968623231934e+02
8.122433571931369443e+02
8.022067554156939195e+02
1.245622693473706477e+03
1.641349282973630352e+03
1.701302814171805494e+03
1.676606976413908569e+03
1.549399714527189872e+03
1.397457717956221586e+03
-1.238284816253657027e+03
-3.952528737383903263e+03
-3.761250274290401194e+03
-3.547705040494432069e+03
-2.264896582519149433e+03
6.439414710683832936e+02
1.603098635738964788e+02
-9.590088213214968391e+02
5.770465435245383787e+02
1.201408053580716569e+03
8.621564284141016969e+02
2.555365071729988529e+02
8.139243571767052572e+02
9.345871459553687828e+02
1.009557791006306502e+03
7.736493596704857509e+02
8.809150639519925790e+02
8.676538206584322097e+02
8.348692366129142783e+02
1.007065566467509825e+03
1.164721378786529840e+03
1.148136100651403240e+03
7.076037684410296151e+02
9.276734679069620881e+01
3.147074712491123591e+02
6.762264088998814771e+01
-2.384490186344622487e+02
4.655876321566183265e+02
7.437390834472972756e+02
9.330167482732745157e+02
1.471433094974090181e+03
1.503900273700536900e+03
1.915550269997934720e+03
1.916921495194758791e+03
2.108792343204444478e+03
2.223981027171662390e+03
1.703003869873085932e+03
1.692707099487852474e+03
1.772650778173518802e+03
1.882807619051690608e+03
1.525378147220074197e+03
1.364361449277748534e+03
1.646672910877064396e+03
1.589310426580442936e+03
1.396493287672127735e+03
1.018332073457420506e+03
5.914933756673585776e+02
7.586249141681771562e+02
1.079744904170597238e+03
1.322833244885608565e+03
1.538809646681200775e+03
1.353668660241713724e+03
1.501397321489117076e+03
1.666928453717070397e+03
1.780396203210448903e+03
1.829769501647314883e+03
1.485977253366010018e+03
1.497956684203935993e+03
9.547379133039909220e+02
9.293347116419992062e+02
1.544881675221872229e+03
1.470634756824326359e+03
1.159510208059625256e+03
7.025136664378959495e+01
-2.227201767530489633e+03
-6.412037321777814213e+03
-8.537272592090259423e+03
-8.407544874594184876e+03
-8.061809061694500997e+03
-7.260983694099839340e+03
-9.181554860391804596e+02
1.493523609480644154e+03
-3.648388356195650886e+02
-6.163399100644062855e+03
-6.519224735297977531e+03
-5.802329497767494104e+03
-7.150180285639214162e+03
-6.890842447547629490e+03
-6.377429434496994872e+03
-4.890948341517731023e+03
-3.401466819767818833e+03
-5.508102631642430424e+03
-2.852684346081129661e+03
7.357843880258651552e+02
1.381127693442336067e+03
4.348158148989410421e+01
8.417422875375430635e+01
1.085305226268829756e+03
1.457780695246516416e+03
1.717247332356836523e+03
1.901452600267738717e+03
1.786447984497287962e+03
2.208502986390695696e+03
2.034845488132933269e+03
2.023531268967584992e+03
2.380595173664215508e+03
2.872034574664818138e+03
2.412032345588629596e+03
2.260787067733086587e+03
1.987129585891147599e+03
1.730874415462614252e+03
1.431437752092286473e+03
1.359697488820565695e+03
1.312889439774744233e+03
8.645329739294033971e+02
8.954820179252386652e+02
7.229941695392109295e+02
7.451009982219094354e+02
7.807559452220978073e+02
7.967584734027503828e+02
1.278910752907599317e+03
1.116232951723218093e+03
9.880480226736883651e+02
1.223317750100135072e+03
1.693251293856152870e+03
1.562114007284280888e+03
1.478501623475227234e+03
1.564835466796457695e+03
1.214924338636508764e+03
1.027821093486653126e+03
7.927790158438435810e+02
3.517672244945758280e+02
2.891565789149428838e+02
8.360166455733413216e+00
-4.679881796153872529e+02
-2.721299461930743746e+03
-3.276150191708949478e+03
-8.764788602977364462e+02
1.132492061617647217e+01
1.091865366741919985e+02
-2.589290644200351039e+02
-2.028190349755058151e+02
4.555203870414053426e+02
7.124242869692078557e+02
8.643738483651586648e+02
2.351414328075227331e+02
-7.669182681237131760e+01
1.386762196795009459e+02
7.014022648700423588e+02
8.285702415713474238e+02
5.107760112472501532e+02
6.543868729358403016e+02
3.511853465106169097e+02
1.415407733857223320e+02
1.236891161043078426e+02
-1.879544589935187844e+02
-8.932188893473003191e+02
-7.552335174625312675e+02
-2.665338452187489793e+02
-2.164573495240967702e+02
-3.633228471286810191e+02
-5.854196169557995688e+01
-5.428623972760703964e+01
2.501711711562601295e+02
5.606247166660787116e+02
6.191496348081933547e+02
7.814253516494705991e+02
4.593578899128667672e+02
2.564001997015014354e+02
1.455984923800276647e+02
8.207350173051774789e+01
6.968728161081949679e+01
1.848103560728990260e+02
-1.882610854753547187e+02
-2.010970090210557260e+02
-1.339250503684250475e+02
-2.465566417262949983e+02
-2.633666203787163909e+02
-3.002716185368565220e+02
-4.428047489599077835e+02
-2.562814006279238583e+02
1.482713996904297176e+02
-1.009815893729750513e+02
-6.431688629017025960e+01
3.704251009065135349e+02
6.751886099281397264e+02
5.090527081058540944e+02
4.431663546206045226e+02
2.305547686808671415e+02
7.172336931857705622e+02
3.196150044037470934e+02
1.841914752646240174e+02
8.088347400421612292e+02
4.260775093711118870e+02
3.093876410218221054e+02
1.098785562982292134e+02
-4.170741525075497691e+01
-4.403612576439011264e+02
-6.949181211451177660e+02
-1.739898702403249899e+03
-3.643863883325330448e+02
1.160687110349767181e+03
1.271280832127521307e+03
1.227710062342011724e+03
1.250204999418323723e+03
1.412406839341070054e+03
1.728696825461624030e+03
1.839099558690859567e+03
1.726574728525463343e+03
1.835686832694387022e+03
2.119135844104052467e+03
2.379364188729416583e+03
2.023881516887797261e+03
1.603990996807902775e+03
1.474296940317182361e+03
1.406785772488837210e+03
1.618892951243333300e+03
1.361537509915044666e+03
1.014462104549673313e+03
1.199260569388902240e+03
1.369468405960115206e+03
1.661227691925913405e+03
2.061391674355236319e+03
2.231227229975669161e+03
2.076402710306474546e+03
2.318397384562296793e+03
2.371806996855315447e+03
2.479475210151437750e+03
2.474510439369025789e+03
2.114283648072212600e+03
1.578574473199690601e+03
1.604023733119410281e+03
1.951005875377358961e+03
2.087993396863441376e+03
2.026703463966109439e+03
1.892826529793179361e+03
1.431730916793663255e+03
1.390905953752893993e+03
1.636154710526379631e+03
1.333548350032165899e+03
1.061150441915450074e+03
1.561806739072041182e+03
1.705721209133303546e+03
1.754498306586728177e+03
2.028502011240099137e+03
1.659791842487106351e+03
1.678288096215226460e+03
1.848058231719043306e+03
1.786333209030425223e+03
1.252612304452082526e+03
-9.118454566753223389e+01
-6.266455249077588405e+02
-1.017721970435123239e+03
-1.965605727611816747e+03
-2.539523720483401576e+03
-2.382505558514842050e+03
-1.488648794192210516e+03
-1.102861685652562983e+03
-7.058543854509971425e+02
3.184859619823708954e+02
1.118140266679848992e+03
1.094171374816691468e+03
-1.277340680621979274e+01
-6.322546866936236256e+02
1.318131141638530835e+03
9.856077718379275439e+02
-9.010855256760072507e+02
-1.662995157046591885e+03
-1.828367441155987763e+03
-1.836373359990054496e+03
-3.004099785935978616e+03
-8.797443854641356666e+03
-1.204136821947900353e+04
-1.135626839347475652e+04
-1.044517439099458170e+04
-1.037035256536099587e+04
-1.065180338115280392e+04
-1.042930525193162612e+04
-1.060634531642073853e+04
-1.004586258566147990e+04
-8.510433510836608548e+03
-9.061948725560170715e+03
-9.334574811957096244e+03
-4.983154476192135007e+03
3.985956985646056978e+02
9.136500259265502564e+02
-4.384312185934431000e+03
-6.505838740002923259e+03
-6.007289657945966610e+03
-1.067947204533387048e+04
-1.486506025640237203e+04
-1.617034663105761138e+04
-1.590554033115543643e+04
-1.504469799752011568e+04
-1.416496556681278707e+04
-1.274469015417229821e+04
-1.032600640735030356e+04
-6.788949913461317919e+03
5.150671736670864220e+02
2.369471234815118805e+03
1.829172248299976445e+03
-2.224462125712403520e+02
1.113795563485017965e+03
1.658160045873958552e+03
-2.303750906581747699e+02
-7.022066249066645014e+02
-4.789045473724070234e+02
-1.053623501067213965e+03
-1.656559366182430040e+03
-1.471422937124657210e+03
1.648987189564842993e+03
7.241558109363830226e+03
1.064450765190576203e+04
1.089318063837727095e+04
1.006645786178815615e+04
9.574599080762189260e+03
9.387511352234847436e+03
9.215847589670249363e+03
8.157335271145074330e+03
6.917723283674830782e+03
7.516918056477664322e+03
7.846605149858672121e+03
7.059893986770880474e+03
5.357769723778929801e+03
4.084195365362004850e+03
2.713895698966785403e+03
2.120850939740445028e+03
3.015817237525176552e+03
4.823144411570354350e+03
6.538409036097511489e+03
6.740017474975838923e+03
4.312476524459925713e+03
6.987406600038549698e+01
1.595776101355297101e+02
1.116653203592431282e+03
3.346036839538671302e+03
5.343598710261071574e+03
5.291146458657068251e+03
5.838879716765869489e+03
4.831536696085527183e+03
2.966890570991588447e+03
-1.018920417838971844e+02
3.404507970354791269e+03
5.918199801804603339e+03
6.874915518722701563e+03
8.147561227575730300e+03
8.623474815956658858e+03
7.677890932173823785e+03
8.394652935746828007e+03
8.504079278863348009e+03
6.054178863668200393e+03
4.475628160124480928e+03
7.545459584429624556e+03
1.262222100538871200e+04
1.646836663739392679e+04
1.634710013534097561e+04
1.229932973295854936e+04
7.585923446569961925e+03
5.346931520501975683e+03
5.133250538130025234e+03
5.018178911242940558e+03
4.379303780469339472e+03
2.588791598626295126e+03
1.171627773598795557e+03
9.566827964149987338e+02
2.175392692853921233e+02
-4.509037187135151726e+03
-6.181127877195829569e+03
-1.122371155865141736e+04
-1.464102764366833617e+04
-1.133358228862041506e+04
-1.030763805079938174e+04
-5.852360185482046290e+03
-1.104717892053334253e+03
3.697192791171727549e+03
7.069051015138161347e+03
8.183651855603177864e+03
8.876784662308553379e+03
1.336256612036488877e+04
1.841679533360001733e+04
2.741629187691190600e+04
2.650608462748362945e+04
2.070011662691856327e+04
1.861330883050288321e+04
1.205770317531774526e+04
3.011168498528249984e+03
-7.014597511798873711e+03
-1.077693447686000945e+04
-1.076103093106999404e+04
-1.646485119910946742e+04
-1.569237986074983201e+04
-2.094478731762490133e+04
-2.221991113114621112e+04
-2.336378689789829150e+04
-1.586772962848042152e+04
-8.115776711051980783e+03
7.038783393892978211e+02
2.146178298842017185e+01
-7.251112884597081347e+02
3.304937228189496182e+03
7.278641329048095031e+03
5.648017301295022662e+03
6.152053181620663963e+03
7.026854557236016262e+03
9.819620502594631034e+03
1.604030689484152390e+04
1.766180512510879271e+04
9.187103884567866771e+03
-4.983760406314997454e+03
-1.805870938305100208e+04
-1.888764733445050297e+04
-1.402554616561482544e+04
-3.474357041853869760e+03
8.716954437148251600e+03
1.556337074913133984e+04
1.918397693445873665e+04
1.985699043209322917e+04
1.439559634788940457e+04
4.823763401155683823e+03
-1.149537548954044178e+04
-3.518776693350015557e+04
-4.967231550435638928e+04
-4.475683201858988468e+04
-4.070011369580531027e+04
-4.401704175720945204e+04
-4.763546409013228549e+04
-5.050325724843226635e+04
-4.166223344216973055e+04
-3.923926586259520263e+04
-4.684513261746872740e+04
-5.023756219747316936e+04
-4.329437826134594798e+04
-3.033237240856268545e+04
-1.963128482927071673e+04
-4.112921108220532005e+03
9.743778937860613951e+03
8.506995410416160667e+03
7.616919587532351215e+03
9.739725997862142322e+03
9.122703568213693870e+03
1.162808024879591903e+04
8.380443459128518953e+02
-1.123422207456624346e+04
-1.033650079454603292e+04
-8.236527728270213629e+03
-3.887988987318560703e+03
-6.405761976324278294e+03
-1.611558469784410227e+04
-1.489526400732545881e+04
-1.896877382355174268e+04
-3.117377549475511478e+04
-4.422213372816332412e+04
-4.978387812577723525e+04
-4.223412993432246003e+04
-1.469306748353405783e+04
1.570285399503736517e+04
2.410399671197736461e+04
3.864642463232845330e+04
5.716116261434826447e+04
6.102448995246794948e+04
5.603064058498920349e+04
5.985581021236816014e+04
5.743118511201256479e+04
5.676297391479271027e+04
5.657238952560847247e+04
4.849968231185666082e+04
4.541604294685430796e+04
3.856864591056554491e+04
2.824269875201050309e+04
1.640039357367480261e+04
1.252095478115664446e+04
1.225655628677320419e+04
1.680333432727448235e+04
3.659844203098308208e+04
4.498708484351398511e+04
3.641248982498887199e+04
1.932477718670538889e+04
-1.770954504996103879e+03
-1.801960221622522658e+04
-2.856401884891266309e+04
-1.995703507033638016e+04
9.639538426561355664e+03
2.861574947425921710e+04
3.752577025242881791e+04
3.894175604813463724e+04
2.823779510823012970e+04
1.501397593433164002e+04
8.780428997799557692e+03
3.888281506312570400e+03
-1.172753799309114584e+04
-2.308297272143248119e+04
-2.131689691270076582e+04
-1.629322660015301881e+04
-1.956084256898532112e+04
-2.663269540703867460e+04
-3.504177589578929474e+04
-3.466306454707087687e+04
-1.796164542147891916e+04
-1.095951924922332182e+04
-3.552653016384601870e+03
7.837968744753844476e+03
2.309832741308091136e+04
2.636543621303081090e+04
1.615227652701815896e+04
5.209814893663939074e+03
-2.762970666775624977e+03
-6.811251296990105857e+02
3.253380189579032958e+03
-3.524460785382968311e+02
-9.119640528032805378e+03
-1.226528365311371999e+04
-4.257503617028803092e+03
4.156552513882357744e+03
1.245797852594004553e+03
5.171377503310291104e+02
-9.549929590152601122e+01
-2.967242338241393554e+03
-6.665253032564646674e+03
-1.819462465869683001e+04
-2.871037134470829187e+04
-3.832352975549664552e+04
-3.473542658746636153e+04
-2.101901203693623756e+04
-8.857300472244658522e+03
8.005062366378642764e+02
1.227024144504014112e+04
9.714743486029279666e+03
7.847968970243388867e+03
6.922208546109870440e+03
9.545245592097422559e+03
9.962565886619486264e+03
8.100927145487365124e+03
3.333208554707396615e+03
-2.324790948099981506e+03
-4.249344129396858989e+03
-6.223043868802624274e+03
-4.627408443949975663e+03
-2.632804888687402126e+03
-4.541256906874176821e+03
-5.973952284511466132e+03
-5.406862643236872827e+03
-6.693059959768354020e+03
-1.447200270600671865e+04
-1.951232580104527005e+04
-1.841202213127136565e+04
-1.626378927759550788e+04
-1.051587907827591516e+04
-7.877410771626937276e+03
-9.445223667112657495e+03
-1.381072590375469554e+04
-2.175919046202976824e+04
-2.411073130470284741e+04
-1.565557084767504602e+04
-5.790842749560443735e+03
-5.439897067409966667e+02
-2.614299869805185608e+03
-7.928991222005018244e+03
-9.768330519057626589e+03
-1.033508457265817378e+04
-8.700717146965558641e+03
-7.025142280608614783e+03
-1.115648646817600638e+04
-1.060380883338980675e+04
1.670556419950347390e+03
1.470053166048950698e+04
2.164599927471865522e+04
1.859177719243438696e+04
1.287550850870340219e+04
8.516778438222598197e+03
7.982548876048085731e+03
6.456914766841388882e+03
8.936850826792342559e+03
1.125422466108198387e+04
9.728969564105498648e+03
3.865170570750350180e+03
-6.474288152867164172e+03
-2.063152964431103464e+04
-2.832672782859551080e+04
-2.130198208921487821e+04
2.794695043300356701e+03
2.031333703123277155e+04
2.486095877184385245e+04
1.762144823742917652e+04
6.847855882260499129e+03
-1.287938394123765420e+03
-2.224184163839981011e+03
3.006085129642794982e+03
2.265920575562254271e+03
1.193478207741436563e+03
8.516979559154247909e+03
8.519152291130463709e+03
9.975923767570313430e+03
1.281111450047619837e+04
8.535634199198324495e+03
4.940626042685590619e+03
8.595022884872554641e+03
6.620088428849111551e+03
-5.721285070767918342e+02
-1.511488231025917457e+03
-1.133517000934359203e+03
-4.041809371738177674e+02
2.145647794463474384e+03
-2.828778165932617981e+02
3.142184711355501804e+03
3.758999516890969517e+03
2.789472556566737239e+03
6.455700870248334468e+03
6.492983238650524072e+03
7.450383701552314960e+03
6.237579348038308126e+03
6.833422544949015673e+02
-1.235252536338833124e+03
-2.318867434698380748e+03
-2.896119698631751362e+03
-4.228329442024814284e+02
4.775909325469772739e+03
3.377065773548320976e+03
-1.556250638960948208e+03
-2.235928729388573174e+03
-2.637931620604692284e+02
2.085315488797183662e+03
2.012393548172331293e+03
1.004532959540664024e+03
1.162153048413005081e+03
4.263076544202487639e+03
7.673707497226561827e+03
7.326204287012276836e+03
5.095097482470441719e+03
2.817553519740530191e+03
2.577335302212122315e+03
3.520393718810877999e+03
2.448672871350592686e+03
3.632996069424492021e+02
-2.578512587744855864e+03
-3.177671645918315789e+03
-4.811486279042836941e+03
-7.131010675563399673e+03
-7.386597352312465773e+03
-7.316486200395035667e+03
-6.556183657875070821e+03
-2.993775228819567928e+03
8.692854582021881242e+02
3.187423889423404489e+03
2.645956435396259621e+03
3.016273805817211837e+02
-4.747046212221455335e+02
-2.645626140410707876e+02
-1.652240700626436592e+03
-2.410265121638846267e+03
-1.375948643602130460e+03
-7.490008561982349988e+01
6.570683278812177832e+02
-1.293000688474808840e+03
-4.515875639552654661e+02
3.429357886269264668e+02
-6.930517917440466817e+02
-1.567212193252935322e+03
-2.343107282846751787e+03
-4.438593690676313599e+03
-5.435790222476875897e+03
-3.352851268680594785e+03
-1.023751676332944157e+03
-3.388003291458620652e+02
-6.024701071330074456e+02
-4.538908836592870557e+02
-2.955950912168805189e+02
5.985613250280988495e+02
1.506854076798761298e+03
2.066784722474131286e+03
1.638770810694311422e+03
5.425333851274892822e+02
-4.016604371675113043e+02
-2.186816869647783790e+02
1.038678032137830542e+03
1.186890906853979914e+03
1.382445043722895207e+03
1.058140769891386753e+03
2.879562841371006243e+02
-1.114023820613789582e+02
4.636632342290748170e+02
2.420502632374751499e+02
3.029504621208020865e+01
-6.775038642993334861e+02
-1.195314933799608752e+03
-2.436160493526989740e+03
-3.179710557385410539e+03
-3.381241530189091009e+03
-3.399002079111648982e+03
-3.025838801787559078e+03
-1.756510707308206520e+03
-3.216893910749510610e+01
1.274711713818002465e+02
-1.457248626243870717e+02
-3.327181404383153449e+02
-7.515495665542815686e+02
-8.984887474163808747e+02
-6.083044747996982551e+02
-1.382369902559664467e+02
-1.253065551723173598e+02
-6.901871608971148362e+02
-7.597483152726996423e+02
2.408318396600277822e+02
8.482679839840538989e+02
1.144104681096209788e+03
1.231998373306905251e+03
-7.108929355439270239e+02
-2.766139519725972150e+03
-6.645947487840644499e+03
-9.140525406390787566e+02
1.361102357930298695e+03
-2.065581965528640922e+03
-1.782135088586504708e+03
-5.192009153538938335e+02
1.590166851327385302e+03
2.029433131109966325e+03
2.088017154718482743e+03
2.224068750412934151e+03
2.172160965442616089e+03
1.887530973006905924e+03
1.731615917046067580e+03
1.425122870633723096e+03
1.438422898131438387e+03
1.549507498391604940e+03
1.606683476173500821e+03
1.936371263643978864e+03
1.674408769262805890e+03
1.714881148038557285e+03
1.912308946547948381e+03
1.617446095035583994e+03
1.301854924774045685e+03
9.098403674358994522e+02
1.169461070226266656e+03
1.565366690179391753e+03
1.351053877799549809e+03
6.601469302103629389e+02
9.670258606252768629e+01
-3.013157337561584654e+02
-3.002909089730746928e+02
-9.481505320172100255e+02
-1.153789295604723520e+03
-6.798949420493278240e+02
-4.148026750776602398e+02
-6.684075219638607450e+02
-7.500021413067265712e+02
3.538794644251102568e+02
2.309512449627512964e+01
-7.764120141257101295e+02
-1.120235201702302447e+03
-1.289521112083460594e+03
-9.616793553461523061e+02
-3.506633374728079389e+01
1.140567338507395789e+03
1.902571450915874266e+03
1.283775766639350422e+03
1.173348701386602670e+03
1.085703743784747530e+03
1.098568277102479442e+03
1.224728606788506340e+03
1.004641450487004590e+03
1.109624057532705137e+03
1.330368802128584548e+03
1.516077488484418609e+03
1.026475034765823693e+03
2.559797895568048318e+02
7.833280110972937109e+02
1.816043581079884234e+03
2.088652669828058606e+03
1.803853552199226897e+03
1.177719617494357408e+03
1.308043158762304756e+03
9.885863603883545920e+02
1.022223271068831764e+03
1.545036763548185036e+03
1.373220459346429607e+03
5.237836851014542390e+02
-5.604644486113061248e+02
-4.980168293331788050e+02
-3.061440920044804557e+02
1.393147969368288557e+02
2.823864610771299795e+02
3.448023872772191680e+02
5.416190446603538931e+02
6.525525490759779359e+02
7.895477980215937350e+02
1.099598031835891334e+03
2.156676577779192939e+03
2.429430833001445080e+03
2.118022872181350522e+03
1.556693851171616416e+03
-1.222995729646926719e+02
-3.291763428430405838e+03
6.581054859918683633e+02
1.586357392982555893e+03
1.373741253962791689e+03
1.071174450338746283e+03
6.829386370630969623e+02
-5.685961313048093871e+03
-9.870650153619337289e+03
-9.556969576373508971e+03
-8.710403465539324316e+03
-2.471041423581918480e+03
6.578015413926659676e+02
-3.010915098392271830e+03
-7.779653816645926781e+03
-6.570318895670095117e+03
-6.821557585502756410e+03
-7.783064638765341442e+03
-7.914428066040841259e+03
-7.914996680306642702e+03
-5.701676152220204131e+03
-4.752796080787822575e+03
5.868812947809821026e+02
1.768867866172922731e+03
-9.205337392413431417e+02
-8.804682072108870443e+02
-1.714975424296806750e+03
-1.627134660548173528e+01
-5.854496034456590223e+02
1.131028376389575442e+03
1.205862659763472493e+03
1.153953532285682968e+03
1.055079281484132707e+03
9.455458794114589409e+02
1.213071197681017793e+03
1.322981142506788956e+03
1.380263771800717450e+03
1.323728923822541446e+03
1.017482038011559098e+03
2.461920836555762833e+02
-1.621224926930037498e+02
1.803849948281022535e+03
2.666470124072828639e+03
2.582188705684335673e+03
3.030575087126752351e+03
3.019699553931406172e+03
2.435997037498344525e+03
1.639215455270163602e+03
1.704865098610047426e+03
4.032873316049503387e+02
7.760391971008355085e+02
1.910859328635237262e+03
1.757078152245620686e+03
2.012537535949943731e+03
2.091978578064908106e+03
1.515150468155310136e+03
1.264453712515045254e+03
1.547295448924206767e+03
2.230684022288881351e+03
2.579198727874251290e+03
2.161955164144738774e+03
1.686730668122436327e+03
7.827717553330321607e+02
1.526014125457019873e+03
1.623337058717626178e+03
1.473226451234631213e+03
8.698690762340246465e+02
2.977251044332274077e+01
-8.462183828280744819e+02
5.054452126554100460e+02
2.348160168077670278e+02
2.192022892603655038e+01
-3.979141542842818353e+02
-7.616824162049177858e+02
-8.393004264024132226e+02
-3.529364658433558475e+02
2.989791744342489324e+02
4.899213606342993330e+02
8.842958067815237655e+02
1.425898659465130322e+03
1.641676146016702887e+03
1.429525633281545197e+03
7.041920649079825125e+02
8.937173207843414957e+01
-1.448704671343524630e+01
-2.820721020691769354e+02
-8.086372762364295568e+02
-2.784081904272763381e+02
4.065176698711793506e+02
8.202989422671229249e+02
1.056981425504709932e+03
2.135268121854267065e+02
-8.652887259807307601e+02
-3.765840376774125389e+02
2.389202316229445344e+01
2.031346276794078420e+01
2.486858500611879208e+02
4.868984967998166553e+02
3.778516555756531261e+02
5.667018584378041623e+02
8.884769171152744320e+02
1.284259423458801621e+03
1.199942680548418139e+03
1.181610438995929144e+03
1.363286913371061473e+03
1.369832295501597855e+03
7.232080629067166910e+02
4.303316367756161185e+02
4.519309500986903458e+02
3.768874566407052384e+02
-1.367743242292221737e+02
-4.569160039891331166e+02
-1.044116888974814970e+02
-9.113863584203015762e+02
-4.348458545050817179e+02
-1.198534119679678270e+03
-3.971648217040571581e+03
-2.705442873973821861e+03
-2.830040121581882886e+03
-4.180284050870096735e+02
-1.338605903159416812e+03
-3.680641452950709208e+03
-2.146311085757656656e+03
-4.653779369826467700e+03
-9.858752434127991364e+02
-8.663966916002713106e+02
-8.374956305122606182e+02
-3.082226263058181758e+03
-3.495862523595226321e+03
-3.920509211291282099e+03
-1.410090530709954237e+03
1.478430170430948692e+03
1.670957441419047655e+03
8.224964500630799193e+02
7.529928113302248676e+02
2.774264245921304450e+02
-2.512537929486424275e+02
4.500252514127357273e+01
8.342274953959423556e+02
1.324422727725289860e+03
1.978474865749947412e+03
1.725258014671491082e+03
1.361837529276938085e+03
8.971972723430232008e+02
2.293211593577788108e+02
3.623712886754785245e+01
2.979109306073510197e+02
-9.177085309202922758e+01
-6.107914906339700565e+02
-7.581590924638546767e+02
-6.983549926161184374e+01
6.621580439360640185e+02
1.399919534052153494e+03
1.328426439714583921e+03
1.387619608406526368e+03
2.074487569603578322e+03
2.370990255641406293e+03
2.121022731606709385e+03
1.251482582541851571e+03
1.077485847802979379e+03
1.073010479749603974e+03
8.190286992643817712e+02
4.366248883615960494e+02
7.097303281771235106e+02
1.662293800451119523e+03
1.119283312451208758e+03
6.287456293348433292e+02
7.727153423258076828e+02
6.021211483940760445e+02
1.438600870869825599e+02
3.759906259331802403e+02
6.705658935606796831e+02
3.475807814789563963e+02
2.421364793341004997e+02
5.392976695223482011e+02
6.392963952478672809e+02
7.124195300919842566e+02
6.898096664703557508e+02
-3.481310288427160344e+02
1.342358282486532971e+03
-1.624805849773069667e+03
-2.766700760654700844e+03
-3.316990877537164124e+03
-6.926784459687813751e+02
5.640542159098903312e+02
5.992003795354249860e+02
-1.852140377679039887e+02
-4.347210933436079358e+03
-4.249742049204955038e+03
-1.697836775218208629e+02
-1.422328393457198445e+03
-3.010378370485370851e+03
4.120235341122915429e+02
8.039244170734258432e+02
8.633140817850672875e+02
7.342467499273951717e+02
1.737307964362773873e+02
-4.574157432997140859e+03
-4.269382466560036846e+03
5.860039160845079778e+02
2.199780471235622201e+02
-1.650391561823375241e+03
-3.412083736890097043e+03
-3.691080677114957325e+03
-2.630348506085208101e+03
2.810525524611035166e+02
7.042119932496470938e+02
-1.732874452781573382e+03
-2.493253666372418593e+03
-2.885934636389331445e+03
2.101621953861978795e+02
1.213068424339486000e+03
1.206709738089176938e+02
-2.901932418590691213e+03
-9.675519566310065045e+00
5.404664065425541821e+02
1.024969222498273496e+02
-1.115996545236026662e+02
-2.526885629019961016e+03
-4.218388183314699745e+03
1.909071787686363848e+02
4.651022391139284764e+02
-4.498272480668655362e+02
-2.938882490899482036e+03
-1.897089477702370459e+03
-1.624022844514001633e+02
-4.395788990429202386e+03
-1.681235682953705236e+03
6.092065496634246529e+02
-1.746589640768858942e+01
1.213855843924150349e+03
1.945189379120920648e+03
1.991427192975530488e+03
2.010522979156018437e+03
2.279549867733937390e+03
2.566493840121879657e+03
2.859372064277262780e+03
2.297375245209180775e+03
1.626630012651924744e+03
1.880995661960952475e+03
1.927346512546450640e+03
1.707584929609684821e+02
-1.446724564266997959e+03
1.875881195373174478e+03
3.893161853725967489e+02
5.946687589029226046e+02
1.010088739473127930e+03
-1.050322194595155736e+02
-2.219472993852539275e+02
6.931443765676286830e+02
9.792504618492416739e+02
1.258349340978654709e+03
1.782430272163170002e+03
1.484402892015913721e+03
1.293275136734337821e+03
1.633930639340236667e+03
1.396859167682570842e+03
1.251800490189088350e+03
1.233148822204147791e+03
1.260423329382612110e+03
1.598578329426564096e+03
1.780709390544453072e+03
1.653806392022903765e+03
1.550803213258012647e+03
1.699236519808197045e+03
1.952017696338037240e+03
1.039834782040629079e+03
-2.603852070884768750e+02
-1.051489285775983831e+02
1.244685628525158108e+03
