3.603186042748488944e+03
3.919957101162907747e+03
4.074797436646173992e+03
4.021794758159870980e+03
3.387059613372070089e+03
3.156578137271090327e+03
2.472412381871986327e+03
1.539632307432892276e+03
1.956331096285024387e+03
4.049541004593672369e+03
5.475301759894210591e+03
5.624763461574688336e+03
4.736972137644085706e+03
3.679751492443075676e+03
3.158100414679583082e+03
2.509055432860898691e+03
2.177604179511590701e+03
1.919801750185637729e+03
2.476886793320065863e+03
3.028048946806824915e+03
2.257257219651208288e+03
2.251445425392150355e+03
2.774557368194108221e+03
2.697540898117400957e+03
2.076409478220539313e+03
1.449356646609239988e+03
1.692433685923528856e+03
1.715806402919486573e+03
1.154618193713127084e+03
1.673823417798090759e+03
1.974536600176371394e+03
2.105695264904969008e+03
2.776357014746736695e+03
2.708333965925311986e+03
2.488609547105503680e+03
1.883665885959987918e+03
9.773470339101168065e+02
5.655615679899721044e+02
7.985516468859758561e+02
1.004816452144989853e+03
1.232315104534391367e+03
1.102421729489429254e+03
1.340012357422986042e+03
1.223106582561757705e+03
8.358117845955986240e+02
-2.197071520091970456e+02
-2.462315847166571245e+02
8.291108254976420540e+02
1.247448308175447664e+03
1.777891696880017207e+03
2.484527760358333580e+03
2.698426490329545686e+03
2.123630885326479529e+03
1.430093356703292102e+03
7.818456911751059124e+02
-2.210393025924677772e+02
-8.955940456449529563e+01
7.061359475119703575e+02
1.489056020823640267e+02
-4.122139186930675123e+02
3.289198953380854107e+01
3.033447149238559746e+02
2.064828978784654101e+00
-4.259752524704504140e+02
-1.051779540787164251e+03
-7.342866561422516725e+02
-8.751479246920334276e+01
1.314507750102632372e+03
1.651668442352541433e+03
1.170982311635676524e+03
2.720505072288655811e+03
3.640322757921119319e+03
3.200405406457442041e+03
2.558687095129391309e+03
2.018204520650739823e+03
1.183935283292959639e+03
5.078038188438505927e+02
2.757799029329463565e+02
3.765672504161155132e+01
-2.112757637340775545e+03
-5.575276145523431296e+03
-9.612784852847398724e+03
-1.060217574441498800e+04
-1.021436440828092236e+04
-1.003446833272333788e+04
-1.039161943544001042e+04
-1.014077908507433676e+04
-1.035690499107817777e+04
-1.020818423108853858e+04
-9.266702907152650369e+03
-8.515495079223495850e+03
-7.315431544530471001e+03
-1.765170518186483605e+03
4.161129162064807133e+03
1.852311167227231635e+03
-1.903522422493849490e+03
5.285800450106758035e+02
8.804663973796224354e+02
9.341001113280972277e+02
1.008446359310109074e+03
1.107513508358672880e+03
1.304346204123018197e+03
1.709892563187395126e+03
1.505231871883117492e+03
1.397489243927627513e+03
1.487629119759948935e+03
1.608583862261927379e+03
1.545335710099529024e+03
1.439951822385147125e+03
1.857357717422298947e+03
1.942583601213361817e+03
2.292669055970998215e+03
2.592647489999711979e+03
2.390459011183460916e+03
2.118149180480196264e+03
1.518671370119630865e+03
9.640634811690567858e+02
-1.766682246091714958e+01
-4.395446178775183625e+02
-5.926264340293630539e+02
-5.289677736150077862e+02
-1.264857523095876957e+02
4.548267380118275582e+02
9.258072928435085487e+02
7.425017763194936151e+02
9.890873756283467628e+02
1.048579426308831671e+03
1.449982643482672302e+03
1.360400698670555585e+03
1.350848148652215059e+03
1.440232016857413328e+03
1.742512501839654988e+03
2.174910000889645289e+03
1.781375567268564964e+03
7.168544803252707425e+02
1.234982809808794997e+02
1.940108189792438793e+02
1.405203335317741065e+01
-5.263332250284545353e+02
-8.620809409527075786e+02
-7.061959642482904655e+02
-4.625073036337583972e+02
-2.478338228152062470e+02
-3.572023409353903958e+02
-5.104193785673308525e+02
2.065393624956603560e+02
2.935740598410772577e+02
-7.562410681411920450e+02
2.981683265619938084e+02
7.077907359824702098e+02
6.394767177440235173e+02
9.211962123710038668e+02
1.074097981258995787e+03
7.480851955393626440e+02
3.370931680840045601e+02
-1.147802659221748627e+03
-1.975822702246891822e+03
-1.251960877812342005e+03
-1.436090032446507166e+03
-1.561196243765229383e+03
-1.447199010316658814e+03
-1.206993591935733320e+03
-9.474449645732581757e+02
-6.226582752974749155e+02
-4.505536501221159256e+02
-3.100628497399303569e+02
7.588196841852779073e+01
-2.387556155774428746e+01
3.076843507626141445e+02
7.936382000230443055e+02
1.077994422519311911e+03
1.102720493334461707e+03
1.089832291426633219e+03
1.058354957641065084e+03
2.534368964339701336e+02
-4.089342803872648915e+02
-1.073840947248942257e+03
-1.438336485653991986e+03
-8.794749404078773978e+02
-1.082262371104882959e+03
-1.553600142391178451e+03
-8.664205291042419503e+02
-5.246841408291144262e+02
-5.883580934159573417e+02
-3.524010254278381353e+02
-5.258372049825892418e+02
-4.666450894154967273e+02
-1.797692522203115288e+02
3.382272787625399246e+01
3.171230094885735866e+02
7.931115379275614714e+02
7.068477401328760834e+02
7.712873405682344128e+02
6.153953469867122976e+02
1.212415506640420659e+02
-4.423125312585803499e+02
-5.261963350415303466e+02
-8.774382339450176005e+02
-1.421090432512559801e+03
-1.210083845378385831e+03
-1.027449084244729420e+03
-7.631758805719463226e+02
-3.142868414593579587e+02
-1.067860553177313250e+02
-4.927260489544171946e+02
-5.970634065172720284e+02
7.223260472302931134e+01
6.532115029451468899e+02
6.958023107996436920e+02
7.190090577917386554e+02
6.629091013877018668e+02
1.006444125444205611e+03
1.484537368277387259e+03
1.260196904794944658e+03
5.322901612708237735e+02
-1.693372337396845921e+02
-6.287272062080903652e+02
-8.037548089935789903e+02
-7.912766270251918286e+02
-1.105478886958538396e+03
-1.317106149181058527e+03
-2.990049613866261211e+02
-1.447458209693219260e+03
-3.445179481210007907e+03
2.348941259883101793e+02
1.746304720057585200e+02
5.180224931331407561e+02
5.260883652182747028e+02
1.109583287651456658e+03
1.625522039896927026e+03
1.487874801181310431e+03
1.664593107289966611e+03
1.518720855640561922e+03
1.315220398992016726e+03
1.380076671894413266e+03
7.700470463409682225e+02
3.010325150290381657e+02
-2.548576201332141409e+02
-4.056440760715456690e+02
-1.724242797996002139e+02
6.848417163836166992e+02
1.688129369414866233e+03
1.648412533221950980e+03
1.631667220695800552e+03
1.206863949703504886e+03
7.859361388180952872e+02
9.153626500424575170e+02
1.291874920278184163e+03
1.730167864606006560e+03
2.227406915362089421e+03
2.670833468492958673e+03
2.953408473870843864e+03
3.247194458746793771e+03
3.594162794340717483e+03
3.258262085698436294e+03
2.241469485545469524e+03
1.423682715202668305e+03
9.817593662291586725e+02
5.577081845336064134e+02
5.114689435034993039e+02
9.200047932593303130e+02
1.185382655788731881e+03
1.291688991673023338e+03
1.480839480495165617e+03
1.892839018116096895e+03
2.192575695799533605e+03
2.238873342725714792e+03
2.332744630995295665e+03
2.529271810368089064e+03
2.909501360312851375e+03
3.057423046344763407e+03
3.248029492630484128e+03
3.059253830544477751e+03
2.852073765071797425e+03
2.177495975138800532e+03
1.825400551686136396e+03
1.374748637395107608e+03
6.606260923227316653e+02
-8.670733382798173352e+02
-3.657380374625398872e+03
-7.860250072045900197e+03
-9.510665083972593493e+03
-8.821548148342957575e+03
-8.695853341785868906e+03
-7.934613611203723849e+03
-8.179725510162520550e+03
-7.585300610624627552e+03
-7.560363861554607865e+03
-7.250885071271231027e+03
-6.392915905651429057e+03
-6.718418468444687278e+03
-6.742407017388737586e+03
-5.981783052340580070e+03
-5.265493483733262110e+03
-1.678624613266884580e+03
-4.281210446155854697e+03
-7.480195234771143987e+03
-7.800625359704218681e+03
-7.573448164839676792e+03
-1.176654784395542265e+03
2.096759769601953394e+03
2.042866088007274129e+03
2.353772173197069151e+03
3.060491892414809172e+03
3.130951012075493963e+03
3.176251659998228661e+03
2.980420953336040839e+03
3.121426105449777424e+03
3.777340335561234951e+03
3.704243131140668993e+03
3.962193305060552120e+03
4.333236919804393438e+03
4.312446852355333249e+03
3.946764902410868217e+03
3.339143902723286828e+03
2.419721713447849197e+03
1.745552034298659919e+03
1.002592244413793537e+03
7.878932767590036974e+02
8.154975609199061637e+02
6.874625956896753678e+02
1.011900654753920094e+03
1.203843826509001701e+03
1.308297146117825832e+03
1.640254908512480370e+03
1.815852066305224753e+03
1.799182497004380821e+03
2.419165188101142576e+03
2.866857393383246745e+03
2.710377683144840830e+03
2.968780975009522081e+03
2.842153142281444161e+03
2.586576436100122919e+03
2.493082490466886611e+03
2.070708687968392042e+03
7.205126168283995867e+02
-4.513108247597736522e+02
-7.317211283570279647e+02
-8.296009046427233216e+02
-8.750152286031396898e+02
-5.116941807551166335e+02
-3.455271036859713831e+02
-7.237064152910838288e+01
2.086814546541378945e+02
4.097995977615684637e+02
-1.786458015544354083e+01
-1.707451404504046423e+03
-3.349955284843224035e+03
-1.853576911172585255e+02
9.229533315747016786e+02
6.888719142174987837e+02
1.535383507500336918e+03
2.104607748758127855e+03
1.506638934386660821e+03
1.091612013285640160e+03
4.326635811884177656e+02
-7.842141878290426575e+02
-1.411046063022353337e+03
-1.808824892060696811e+03
-2.187536823402208483e+03
-1.520076412657860828e+03
-7.274092080835117713e+02
-1.209477715656880491e+03
-1.279234055499379565e+03
-6.666401393708159731e+02
-5.426738393536300009e+02
-6.023513510854235165e+02
-7.005947151923694491e+02
-7.839328737343961961e+01
3.232479250985948624e+02
6.793685670225751210e+02
2.639966103160821262e+02
1.511978962374022331e+02
2.549513054387758757e+02
1.803656388788452887e+02
-3.896139440723825942e+02
-1.137018292000587508e+03
-2.007864095775580381e+03
-2.478221252112078673e+03
-2.288091736357581794e+03
-2.136485329193007601e+03
-2.421321245082312544e+03
-2.395596344606519779e+03
-2.034239462002430400e+03
-9.772594323270287759e+02
6.333080143902198955e+01
-1.264669870754260614e+02
-7.676387094400158730e+02
2.797761428713739065e+02
1.312781297350511522e+03
1.415413054853502445e+03
1.899690167954539902e+03
1.893581760389335614e+03
1.370986455277267396e+03
2.178606568346095003e+02
-5.826882595847713446e+02
-1.021724447805334307e+03
-1.029336280537504308e+03
-1.220554278251799587e+03
-2.389419826862068930e+03
-2.133949948858783500e+03
-9.381340889302980486e+02
-1.704058885776982834e+03
-1.736667959172807059e+03
-3.968670948834601404e+02
4.451213768058896676e+02
6.293241488830672097e+02
2.297333339876648495e+02
7.043107992009814780e+02
9.139823445638066914e+02
1.220794481044568784e+03
1.832676900429182979e+03
1.411712795146654344e+03
1.065824717363724858e+03
3.758214558902130875e+02
-2.532881230118077838e+02
5.144331022072669413e+01
-1.920400010150784738e+02
-5.579697942038507108e+01
-6.629481581619390909e+02
-9.455357029976729564e+02
-6.675951017085976673e+02
1.081869611444742304e+03
1.371815799600990658e+03
1.549306551433271352e+03
2.083244929973515809e+03
2.623536777119922135e+03
2.346149045343623584e+03
2.102045920762237074e+03
1.747174704218460420e+03
1.940486537540422205e+03
2.338983604442692467e+03
2.808629072072589679e+03
2.962385455557321166e+03
2.703162017084741819e+03
1.730831926242132567e+03
6.864338597629811147e+02
-4.260406765266213824e+02
-1.153748612698092757e+03
-9.307386080510531201e+02
-4.320330989406838853e+02
-5.767023052528385278e+02
-1.747157849195568247e+02
7.518741478769353535e+02
1.376026225834853676e+03
1.981730548981660149e+03
2.488930977655663355e+03
2.749572043356023187e+03
2.891649772587809821e+03
2.690137295106632337e+03
2.745919575767434708e+03
2.930986514098787211e+03
3.279398481678358621e+03
2.898141951339752723e+03
2.052190256449790013e+03
1.581463998174666813e+03
1.217896216359526761e+03
1.060444293551055353e+03
8.580461590005646713e+02
2.886843724139652068e+02
-3.497330662851897500e+02
2.137852287281619965e+02
5.392073205848893167e+02
9.825586915444504257e+02
1.493936233884517151e+03
1.795292449959630858e+03
2.072502075878185678e+03
2.406515720610838798e+03
2.859267722096022226e+03
3.365719253921863583e+03
3.638897101144752924e+03
3.786837146830739584e+03
3.178597980467553043e+03
2.249138720205777645e+03
1.947414039413402861e+03
-6.986120558795498710e+02
2.070981060228019714e+02
-3.702482626322836950e+03
-1.015945491147906978e+04
-1.045655817524137274e+04
-1.008478746790514015e+04
-9.926627783764446576e+03
-1.000270068060127596e+04
-8.433108160800275073e+03
-7.381872005286323656e+03
-7.037040627271499943e+03
-6.546578095600445522e+03
-6.561243919706254928e+03
-6.758079636543417109e+03
-6.250237168140412905e+03
-4.645681424869309012e+03
-1.049391745767311249e+03
-1.458312619589795759e+03
-5.766472651712345396e+03
-6.766894957323320341e+03
-6.871545418303847327e+03
-6.826407357056161345e+03
-7.256566869412125925e+03
-7.679024938394776655e+03
-7.814718511011707051e+03
-7.928618834109075578e+03
-7.552640848399980314e+03
-6.675742741967619622e+03
-6.102948872632488019e+03
-3.844211324742200304e+03
2.669503060341453420e+03
4.294219750686337647e+03
4.412999719514940807e+03
5.096938211508857421e+03
5.431048841402529433e+03
5.256307477683672914e+03
5.052750781030646976e+03
5.501429204519977247e+03
5.397402293616985844e+03
5.249693931683092160e+03
4.557339704323213482e+03
3.371333145789572427e+03
2.506634557557330936e+03
3.445294771155000490e+03
3.202330411906768859e+03
2.859757011886000328e+03
2.653597479613523774e+03
2.489915009361515331e+03
2.601830355318676993e+03
3.079392833415317455e+03
3.410694477486506457e+03
3.517737429874112422e+03
4.234535279118097606e+03
4.154098524457002895e+03
4.222336305990541405e+03
4.677181930266466225e+03
4.733720633286862721e+03
4.626381441632361202e+03
4.410297973218363950e+03
3.504541784028000166e+03
2.716252066436697532e+03
1.859599879218297929e+03
3.656927455975831549e+02
-5.635755225483487720e+02
-1.034061836378293293e+02
-1.767199038145194834e+02
5.125931827445945146e+02
9.895214641566786895e+02
1.086991043826610166e+03
1.481136442257541603e+03
1.901136846458416358e+03
2.155412563569291251e+03
1.940142555018451048e+03
2.411667317364157498e+03
3.083988002405245879e+03
2.887081730118885389e+03
2.657723239821895277e+03
3.013406018875642076e+03
2.650201079867478711e+03
2.302937286083265462e+03
2.139482118451995120e+03
1.302503305009654241e+03
5.338440225959872123e+02
-2.165911374405255003e+02
-3.457603623468604610e+02
-5.823946537218989761e+02
-3.315623027173020319e+02
2.246078960990768110e+02
3.890410579282049071e+02
7.732526164874041115e+02
9.829274939621133171e+02
1.280062688837665519e+03
1.670635558695583541e+03
2.064575795804514200e+03
2.347871991912631984e+03
2.368620439545249610e+03
2.340879792431542228e+03
2.337612991667980168e+03
2.243716935793344874e+03
2.167268472784073310e+03
1.399225003810066255e+03
3.414948340183925097e+02
-4.299606516796147275e+02
-6.012130284413465233e+02
-9.182305885456860324e+02
-9.459799091713439338e+02
-6.744594944780577634e+02
-6.335393929707278176e+02
-2.528815792130132678e+01
5.082293674326540440e+02
6.990317825789873041e+02
5.932098786695783019e+02
8.926864079311885689e+02
1.185349454445753508e+03
1.224170371320501999e+03
1.442051322676244354e+03
1.744047854254729145e+03
1.708383950198939147e+03
-8.418457802509783505e+02
-4.961749269447265760e+03
-9.281499333085408580e+03
-1.016115829317857970e+04
-1.056473999863102836e+04
-1.034922143892689382e+04
-1.149861235480338473e+04
-1.172601508810552696e+04
-1.007245802561021083e+04
-9.600754615052568624e+03
-9.536766558103161515e+03
-9.028545988235753612e+03
-8.738492294556450361e+03
-8.434545156936874264e+03
-3.072466057194206314e+03
2.464623606112162179e+03
2.626689949552243434e+03
2.310765062762276557e+03
3.093705999406602587e+03
3.512582700577058858e+03
3.233545690182244925e+03
2.631575070236126521e+03
1.890495722644619264e+03
1.328244846495831325e+03
6.958356894017674676e+02
4.882722466421701597e+02
5.506554350211383735e+02
5.668936692543867366e+02
4.348416825800632068e+02
2.845661929477871581e+02
5.672185777110285017e+02
1.115843328680380182e+03
1.471374984703766359e+03
1.653877203558820611e+03
1.872270110422463176e+03
2.368567996352684986e+03
2.353799165578817338e+03
3.024919969095831220e+03
3.356898712144382444e+03
3.422639100673844041e+03
3.390161633286289543e+03
2.687588667489822001e+03
2.026982741976475836e+03
9.953194634207015952e+02
9.056489593535869176e+01
-5.682566731829491573e+02
-5.541279112113397787e+02
-1.920434640185407034e+02
-3.960741016725771715e+02
-5.022580984974571834e+02
-2.255595448955020856e+02
-3.996803023585435710e+01
6.475131685356240041e+02
1.290932635672681499e+03
1.598403513169961570e+03
2.051027944218982611e+03
2.073841101943457943e+03
1.424827202997127642e+03
1.938189398359870438e+03
2.080834277487587769e+03
1.842667368229386511e+03
1.606609205650138392e+03
1.102503831151461554e+03
2.304817194530029099e+02
-4.324436512550224165e+02
-1.069699725276077061e+03
-1.235548047407830836e+03
-1.062614077751021568e+03
-1.233413916819539054e+03
-1.094682330700772582e+03
-1.029667146388344236e+03
-5.572572485287263362e+02
-5.895139662868853065e+02
2.866103660172400325e+01
1.523060293082774592e+02
6.103219986273593349e+02
1.081828072100604913e+03
1.274817702130285852e+03
1.344298854134907970e+03
1.337344568249691292e+03
1.448924641623966409e+03
1.603112363428306480e+03
8.048850868158363028e+02
-8.645946096509398160e+00
-1.010513343762239856e+03
-1.683828663794790600e+03
-2.150709143403637427e+03
-1.660002588713912019e+03
-1.236642076189147247e+03
-1.085685610417707267e+03
-8.010951832572594640e+02
-5.187354281119004327e+02
-2.765824878186946876e+02
-1.459192603124980003e+01
4.123277672557946971e+01
2.139003406898932553e+02
3.883575045458446766e+02
1.736305053833525847e+02
-1.821943565215522085e+02
-1.949913930527726791e+02
-5.275716109925982522e+01
-1.314545457207721881e+02
-5.140541273984343889e+02
-1.101696878424114857e+03
-1.882511841494141208e+03
-2.272427634938596839e+03
-2.678469268434900187e+03
-2.890548607569885917e+03
-2.721547132236221842e+03
-2.588467820395502258e+03
-2.323405081474238159e+03
-2.062537913239035333e+03
-1.397835575624207422e+03
-1.961204042960092011e+03
-2.808698171824712063e+03
-2.750441461390251334e+03
-1.920423632289371881e+03
-1.113566271283249534e+03
-1.108854758334754024e+03
-8.003444355307628939e+02
-5.410684915059983950e+02
-5.159693558711441028e+02
5.937219860972699159e+00
-4.473847008266293983e+02
-1.492895416712320184e+03
-2.720808778249364423e+03
-2.634093084386753617e+03
-6.837164155296852641e+02
9.341745151717807403e+02
1.470579798628111121e+03
1.621633500473324830e+03
1.610299600535571699e+03
1.537387748312359236e+03
1.280743525357627277e+03
9.433284489386036284e+02
1.358042742731222916e+03
1.556892875666049804e+03
1.521897664368198775e+03
1.260936665231771030e+03
1.162729533025782757e+03
7.559131875504718892e+02
3.354886745447875001e+02
1.170088313207160127e+03
9.017505728015466957e+02
1.761929652305683192e+02
1.054281260543774124e+03
1.148449078931859503e+03
5.464757511934792547e+02
-2.974911630097595889e+02
-9.008302483637870637e+02
1.032757057763859393e+03
3.154444415162029145e+03
3.144985304861996156e+03
3.359240695235911062e+03
4.044067481972538189e+03
4.698227746283841043e+03
4.916080061802505043e+03
4.379602824847296688e+03
4.306923630853038048e+03
4.660698139683776390e+03
4.461068627020427812e+03
4.343358630481024193e+03
3.751279494094296297e+03
3.083698015982037305e+03
2.576968608254865558e+03
2.037427086828082565e+03
1.174159791147099668e+03
7.131370577727886939e+02
3.719026180071061845e+02
6.983250050367352912e+01
2.009703987314514393e+02
1.238467079517068896e+03
2.420669275478268901e+03
3.288361204395951518e+03
3.699587028097083021e+03
3.512355584126080885e+03
3.619444289392160499e+03
3.874937551488179906e+03
4.145919107232497481e+03
4.289506909501220434e+03
3.986774865483821941e+03
3.793462409069589739e+03
3.163514475477624728e+03
2.206117640618770565e+03
1.126986961451938896e+03
1.040468654974946645e+02
-2.208419267779273127e+02
-3.818440775903619055e+02
3.910985738689830669e+02
1.193083545580135478e+03
1.722142713736177029e+03
2.143278668136375018e+03
3.865978048214740852e+02
-3.507880572661152200e+03
-8.555147743965657355e+03
-9.145299592460749409e+03
-8.746492963234597482e+03
-8.205670554538202850e+03
-7.251655667884595459e+03
-6.086463863943045908e+03
-6.123173602405340716e+03
-6.106692762194947136e+03
-6.900982262887475372e+03
-7.660168661751741638e+03
-6.518022431599920310e+03
-6.626648322352754803e+03
-7.172078317148218048e+03
-6.769316765961892997e+03
-3.504339242996676603e+03
-7.294068988113941487e+03
-1.114644681096782188e+04
-1.111736332567109639e+04
-1.031690036313648488e+04
-9.689157450759297717e+03
-8.481106767666144151e+03
-6.797655499635683555e+03
-5.298786110859745349e+03
-3.222381476456911059e+03
-1.943398557467627597e+03
2.862170469403101833e+03
4.631356948186855334e+03
2.130203376672152899e+03
-1.122705278800862203e+02
1.498940507707612824e+03
1.928974958596238594e+03
5.389434257851418124e+02
-2.715205876281572273e+03
1.028558886717462656e+03
1.958240790360673373e+03
2.395906162565434443e+03
3.077430991805212216e+03
3.201897303790943170e+03
2.858464961145225061e+03
3.453197336301272571e+03
4.762199114559533882e+03
5.444457661231575912e+03
4.984063943589962946e+03
5.380108543878341152e+03
5.898669800441763073e+03
5.651866836413234523e+03
4.754747399542780840e+03
3.267409210055976928e+03
1.909975618948210240e+03
7.605300831371639561e+02
-2.099190945084443456e+02
5.247103821202080098e+02
4.555941307444663266e+02
4.215282643990815927e+02
8.103944314154330186e+02
2.211273688705560289e+03
3.602362078360060423e+03
3.561702613648906663e+03
3.108271027981481893e+03
1.430131277614582359e+03
-1.726465541680742604e+02
-6.703057239607751683e+01
1.522938070503581912e+03
3.054611815659381136e+03
2.910369821133177084e+03
2.104586168284514315e+03
1.628122751740720787e+03
1.454044228530822011e+03
1.520366357283234265e+03
4.252599063874145600e+02
-1.215300270541003101e+03
-1.137537083210781020e+03
-5.504301375361737882e+02
-7.858893468923430419e+02
-1.013925378970094926e+03
-1.932495458589390637e+03
-8.254928944514762179e+02
3.399855508419609009e+02
1.433474153183064573e+03
2.164078212934355179e+03
1.232231506516896161e+03
7.757462417259132508e+02
1.644657524124173733e+03
3.050964596016679479e+03
2.571679054878793977e+03
1.083839375705274051e+03
7.355125735527327606e+02
8.357087496161778972e+02
1.154407421439590280e+03
7.096049908009346154e+02
-1.064661726272506712e+03
-2.779323469578270306e+03
-2.937403904455122301e+03
-2.528999395926294710e+03
-2.041144582254357147e+03
-5.538753089229580837e+02
2.657919787470477218e+02
6.419176973802830162e+02
1.807503736284305205e+03
2.913652434254283889e+03
3.665292621611753930e+03
2.520469300060857222e+03
8.792303362514181799e+02
9.749074814843460501e+01
1.843066446455285075e+02
5.687122476735604550e+02
4.787478836660008028e+02
8.840965492725935349e+01
3.170083713691006011e+01
3.474824400398219382e+02
5.796813618098808547e+02
4.493180756827817390e+02
-6.645008032969524265e+02
-2.818788932858887165e+03
-3.902662476353475085e+03
-4.555243911388271954e+03
-4.910434405801194771e+03
-3.625268548804090187e+03
-2.216831346680132356e+03
-1.584173229476260985e+03
9.807767853023125326e+02
2.779870024752142399e+03
3.697087779225899340e+03
3.891395300786031385e+03
1.329686768944254027e+03
-1.697024482083774956e+03
-4.251694520931739135e+03
1.883633903132756814e+03
3.517940260801567547e+03
-3.189732963954585102e+03
-3.321478189972345717e+03
-1.523489479127858885e+02
-6.334158729693017449e+02
-6.628260577068125485e+02
-9.355791186549868144e+02
-3.826038886780894472e+02
7.509288270562018397e+02
9.129159983695767551e+02
1.388310569260709144e+03
1.547080340902119133e+03
9.901906713270443561e+02
8.926355855215491601e+02
1.028436291992539736e+03
1.358584742469513913e+03
1.571966586547977840e+03
2.276574769258816104e+03
2.671411301273914887e+03
1.909483230795735835e+03
9.118200941363866150e+02
2.133678286934620303e+02
-4.803647012873084776e+01
-1.010408435158160955e+03
-1.813841216177544538e+03
-2.039499950174432797e+03
-2.293441766170824849e+03
-2.444695727294049902e+03
-2.332278902087219194e+03
-1.962122898244229646e+03
-2.274251628465839531e+03
-2.772725593554798252e+03
-2.836511854064025556e+03
-2.248588335280188858e+03
-1.976075573214160841e+03
-1.604090974127782829e+03
-6.156548226181644168e+02
-4.627334052940557285e+02
-1.796340889132781513e+03
-3.207458364418624114e+03
-4.785150542242256961e+03
-4.759393547301423496e+03
-3.096244975777584386e+03
-7.917505499116618921e+02
9.170501079379644125e+02
3.990943824459243956e+02
1.923273894654000173e+02
1.017675496351274433e+03
1.688197835281360540e+03
1.073977372552599945e+03
8.649933605877151876e+02
1.095109300779236946e+03
1.099332610187040927e+03
7.517236367615432755e+02
5.925224373898745256e+01
4.429100925010108654e+02
9.027356319034836361e+02
7.536800767639450669e+02
1.232663987338747575e+03
4.348392181044785048e+02
1.103196575910155275e+02
8.120146128986236818e+02
1.926964201323631585e+02
-3.056388027575977731e+02
1.532074020741725690e+03
4.022773290858046494e+03
5.207484556953795618e+03
5.193265325680340538e+03
4.986130084619924673e+03
3.696043807363717860e+03
1.708016337517988404e+03
-6.698841217587972778e+02
-4.482621189128925835e+03
-1.402101100009776701e+03
1.646598206754074226e+03
2.525411260040907280e+02
3.953774085732924050e+03
1.333177735093847787e+03
-4.754156013897448247e+03
6.878426814080113445e+02
-1.158863469777409136e+02
-1.554319600756153477e+03
-6.944182692591136856e+02
-5.042138859268264241e+03
-5.272465311637653031e+03
-2.787549822528973891e+03
-2.701440852831850407e+03
-3.041965557206443918e+03
-3.277106080110623680e+03
-3.292815542527596335e+03
-1.418128270562306398e+03
-3.784993349137437690e+03
-1.241272406431030959e+03
-1.402989571750816822e+03
1.423880047555981946e+03
-4.751565344772008757e+03
-1.645369640980969962e+03
1.431519004966647799e+03
-3.372847682814663131e+03
-3.326427159585769459e+03
-4.981691661925570997e+02
3.349017196148289713e+03
4.715134493339804067e+03
4.200224949621659107e+03
4.283214384716744689e+02
-3.145584560029125441e+03
-1.357600778550459381e+03
-1.950806191184985437e+03
-2.134135761951092263e+03
-1.854519056393225583e+03
-3.540880858126565272e+03
-4.648209145876327057e+03
-4.542475203574821535e+03
-3.030635601220992612e+03
-4.386005910647491532e+02
-4.773549274271381933e+02
1.118101466290215512e+03
5.070803173316196990e+03
6.164812676163530341e+03
6.900221446792756069e+03
6.123062357591698856e+03
3.280263886381809243e+03
1.198855029896098813e+03
9.081126976780005577e+01
-9.059273280702193460e+02
-1.207479366003686664e+03
-7.459136554699696262e+02
3.891550335405463557e+02
2.585447919338454994e+03
3.694502126025745383e+03
2.644348526385985679e+03
1.940013830455123070e+03
2.635596390361743488e+03
3.133070710355998926e+03
2.214361612408602014e+03
1.187518490082376275e+03
5.835077061809017778e+02
-7.016400067288535638e+02
2.831044714191794469e+02
7.806132481596197294e+02
6.550111720670419118e+02
-1.875528068514133224e+02
-8.066466852504278222e+02
-6.544843755517081263e+02
-2.430156634689608453e+01
1.506003520403920220e+03
2.728132851644395032e+03
2.841939817000970379e+03
2.034369350946055647e+03
1.786357983435106235e+03
1.922881664886820090e+03
2.490901628015111328e+03
3.247315076405290256e+03
3.938132014655509010e+03
3.815045547592330877e+03
3.543376787252233044e+03
2.679664425661867881e+03
1.600316920556491141e+03
1.428160018438138195e+03
2.753070473208306794e+03
3.525176891863178298e+03
3.985557112591271562e+03
4.275493213635950269e+03
4.818608913259870860e+03
3.142711650726065727e+03
1.631655947802724768e+03
1.372442070474717184e+03
1.149012052615828679e+03
1.337287796180693022e+03
5.112072396749939571e+02
-3.723195135705030623e+01
-3.849812536729092471e+02
-5.491025111092258157e+02
-7.955953825854951447e+02
-1.896404188009717245e+03
-2.711544336956678308e+03
-2.278934845801990832e+03
-1.596571628057382441e+03
-1.172517535735506954e+03
1.182374726918985033e+02
3.334541794430617301e+03
4.430420199722761026e+03
3.368801057442430647e+03
2.066638232503704330e+03
2.102828981915246004e+03
2.445327945485913460e+03
1.780214289762913722e+03
7.824817874601740186e+02
-7.276762274134004826e+01
-1.379516464137653429e+03
-4.889885689751408790e+03
-8.397990256310975383e+03
-1.103590871121759119e+04
-1.127553836635610969e+04
-1.124378337355857911e+04
-1.063865331703188895e+04
-9.649141038933219534e+03
-8.229273904978506835e+03
-6.543011859952443046e+03
-5.872299932475036258e+03
-6.325477970197804098e+03
-6.546127469202978318e+03
-6.950465684295319988e+03
-7.513418820496712215e+03
-7.080683228698100720e+03
-1.754694006280844405e+03
-3.245049586662856314e+02
-2.707174464779665414e+03
-4.396885967995660849e+02
6.281443534852547828e+02
1.889308373348493660e+03
2.352704541241936568e+03
2.263297430114776034e+03
2.020269535404601129e+03
2.400746098740768957e+03
2.511680505795820409e+03
2.472019880466972609e+03
2.439755265837994557e+03
2.710939456916008112e+03
3.739681149000411551e+03
4.537146961859476505e+03
4.569255277935595586e+03
4.454905455871754384e+03
3.632074365905936702e+03
2.153669877623849516e+03
1.190764590373348710e+03
3.734083542558898898e+02
3.055583909375529288e+02
7.120403315181739856e+01
2.323930004315161568e+02
9.673355718754567079e+02
6.471211603820488563e+02
2.887518837694926788e+02
3.072346608846168579e+02
4.116084152571212940e+02
5.419424176262958781e+02
1.039279012565825724e+03
5.696021369934267113e+02
-3.841244536178459157e+02
-1.655820615580794765e+03
-1.356419706040034271e+03
-3.637992519946594712e+02
-4.618303493478139785e+02
-1.312506120295391611e+03
-4.128417854995124685e+02
4.181964627341574783e+02
9.595024682072437372e+02
9.480699475337939930e+02
1.586979430794358905e+03
2.030075246878101552e+03
2.515414998976625157e+03
2.709094419255767662e+03
1.868210249767159439e+03
1.102043456748637027e+03
6.856535250997817457e+02
9.603188638797121257e+01
-5.544709084073090253e+02
2.528373437871957776e+02
9.519133720544693915e+02
1.312299282190696204e+03
1.736693295284809437e+03
7.140170097693218167e+02
5.942500440380703139e+02
1.638544922334390321e+03
1.977839938485209586e+03
1.108048338495738335e+03
4.162457255537402148e+02
-1.475966146108340240e+02
-9.654311320103379330e+02
-1.580137460255759379e+03
-1.508681837586566871e+03
-7.450156711314699578e+02
-7.151339920624184288e+02
-1.340012853726748745e+03
-1.754646164724952087e+03
-2.051011191744059488e+03
-1.240033408528555356e+03
-2.756363826318211636e+02
3.232113678505082817e+02
1.579484714498967151e+03
2.254279434534436405e+03
1.543612634532876427e+03
4.724275295827450236e+02
-7.252340346279769392e+02
-1.867354784546281735e+03
