5.552218329459209599e+03
6.019140994481665984e+03
6.306169612690967369e+03
6.447266376127355215e+03
6.414458461388145224e+03
6.294717605387171716e+03
6.130053028762007671e+03
5.771478829064119964e+03
5.306008562401434574e+03
5.046603161427089617e+03
3.963260481084784260e+03
2.144968816297252033e+03
1.303683840789159831e+03
8.493542745378071004e+02
7.899176509165210973e+02
3.694069461815142859e+02
5.508917167286516587e+02
1.632435185645526872e+03
2.862076383069371332e+03
3.541922951779218693e+03
3.632001570944023570e+03
4.055310193301169420e+03
4.845699685745011266e+03
5.318104260441214137e+03
5.513981852978778988e+03
5.466608719962163377e+03
4.582657933820762082e+03
4.015279823486146142e+03
3.370507140516748223e+03
2.072296551836093840e+03
1.265953218199422849e+02
-1.648658964041200761e+03
-2.601363995735194294e+03
-2.658013943897724403e+03
-2.224723732158067378e+03
-2.263419784679330860e+03
-1.552535406713342809e+03
-6.870824136259617489e+02
3.990473252344997945e+01
1.055053325113872006e+03
1.495411644246002879e+03
2.039479478563363728e+03
2.050742313567938709e+03
2.532580954269068116e+03
3.044846789589819764e+03
2.557441753711005731e+03
1.649308994967597073e+03
8.255355837949590523e+02
-1.379997890075253508e+02
-3.173823648624479006e+02
-3.846162153936019763e+02
-2.022728352157493191e+03
-3.072727953700058151e+03
-3.579688911014905443e+03
-3.780751233976401636e+03
-3.611906810374175620e+03
-3.254122202505528094e+03
-2.753404549721696185e+03
-1.905671716779497046e+03
-1.208877595423203275e+03
-8.050251913346170340e+02
-1.821078418697273946e+02
3.128884103303750521e+02
8.229859947002425997e+02
1.288157003476293539e+03
1.221250275301907323e+03
7.712859815582594365e+02
1.702704429096790761e+02
-5.798378362976753806e+02
-1.579117366224315674e+03
-2.501642704242308810e+03
-3.129446072641982937e+03
-3.708617036104681119e+03
-4.816263300945639457e+03
-5.188429835695201291e+03
-4.964120285436669292e+03
-3.701376764989832736e+03
-2.391184117060039625e+03
-1.653547011968742936e+03
-6.164495966728327403e+02
1.721656671500686571e+02
4.862394696756051644e+02
8.267222977951721532e+02
1.136621800378609578e+03
1.670978349831127844e+03
2.063709722301176953e+03
6.317569605798862540e+02
-3.081882805923755313e+03
-8.817223700475826263e+03
-1.146338664101051108e+04
-9.562466364891779449e+03
-6.747520789818737285e+03
-1.028865874562946374e+04
-4.981972620389038639e+03
-2.617477433743908023e+03
-2.963195380295181621e+03
-2.738816186544940138e+03
-1.189723523465940161e+03
-1.229167614361796410e+02
7.695145298310654880e+02
2.153737221924983260e+03
3.454809169580478738e+03
4.056693827290377158e+03
4.489377794310508762e+03
5.057781378801955725e+03
4.982820382777498708e+03
4.903482372350653350e+03
4.356742986429590019e+03
3.290589517791861454e+03
2.921954351833167038e+03
2.953761245689583120e+03
1.528997052201634006e+03
5.654276632374901368e+01
-6.746574534068843150e+02
-1.696662164550173657e+03
-1.917521839845150680e+03
-6.942535918566309192e+02
1.100199217131138312e+03
2.303869447982116071e+03
2.907809629525428591e+03
3.430068478452044474e+03
3.908706447365911572e+03
5.252641451418838187e+03
6.315858969345769765e+03
6.930403463068962992e+03
7.493213035786261571e+03
7.268335678932833616e+03
6.083757876100470639e+03
4.631449755315708899e+03
3.832334350526727576e+03
3.074376086763387320e+03
1.675542060008895305e+03
-1.132236530752597332e+02
-1.326943623307189455e+03
-1.509617882777544992e+03
-1.593270012742307927e+03
-1.160837667961231546e+03
-9.931063941762714364e+01
1.551386633413537083e+03
3.147343716191553085e+03
4.287564967867711857e+03
5.099088499739859799e+03
5.823909189467054603e+03
6.288162251162711073e+03
6.433875686630477503e+03
6.381965101363607573e+03
5.682409709028060206e+03
4.160294776748772165e+03
2.877623855507946701e+03
3.311385602532368011e+03
1.697598422508756357e+03
2.331966173564059730e+01
-1.254253528353222009e+03
-1.460284375083976556e+03
-1.181870582577792675e+03
-1.683336278771353591e+03
-5.410371105338813322e+03
-1.049390650002826806e+04
-9.447855270412737809e+03
-7.619020685979894552e+03
-7.138406167281818853e+03
-6.739979224035282641e+03
-5.785583400176105897e+03
-5.840139273686673732e+03
-5.866692757788799099e+03
-5.170288809580183624e+03
-4.844816412666656106e+03
-4.978234691213686347e+03
-5.526491455389559633e+03
-5.597569011095468340e+03
-1.941467694714558775e+03
-2.516167112316011753e+03
9.943366390194623818e+02
-3.869712180370747774e+02
-4.859093362255446664e+03
-8.696995649529666480e+03
-1.980604412769522241e+03
1.889159309374521854e+03
3.842185186880053038e+01
-7.166675271627227630e+03
-7.553063960931777729e+03
-6.454734482858147203e+03
-5.712628449256563727e+03
-5.002647681339714836e+03
-4.461739770263481660e+03
-4.590854452577919801e+03
-4.897964450258079523e+03
-4.877911476782024693e+03
-4.936640959670647135e+03
-5.663227255954477187e+03
-5.618706926929516158e+03
-2.050929282873078705e+02
1.888648361628034763e+03
1.122528864622516721e+03
-6.741965063476538944e+01
-6.311463462061291239e+02
4.123611449418008874e+02
6.781773654125348685e+02
1.758407940518971373e+03
2.726093104434587076e+03
3.911367462713966688e+03
5.384343405474619431e+03
5.785104836327867815e+03
5.709736675040467162e+03
6.304296077382758085e+03
6.386777461209803732e+03
6.254171799864066998e+03
5.833485052705412272e+03
5.205793648618023326e+03
4.378167331184484283e+03
3.022560417867025535e+03
1.665125726514798316e+03
3.829134113094278291e+02
-4.707201346465777760e+02
-1.088094345320301045e+03
-1.422358229100603694e+03
-1.170515631948336932e+03
-3.135457575161201476e+02
8.037238218321424483e+02
1.943130980570300153e+03
3.439508341154068148e+03
4.309339600214032544e+03
3.480783168604153616e+03
4.013535992568923120e+03
4.577974779366024450e+03
1.067028654804604457e+03
1.749424337734017172e+03
3.844334083797258245e+03
3.093712579820252358e+03
2.339856240377626818e+03
1.328286019632406351e+03
3.264584243075947825e+02
-9.676233740058672765e+02
-1.491180872628923680e+03
-1.313062173268327115e+03
-1.441997250738834509e+03
-1.306572412359738792e+03
-8.889094662142758807e+02
1.310940123545421159e+02
1.594399511290861710e+03
2.536603728904868603e+03
3.240697800380959507e+03
4.120676827393773237e+03
4.612494317651007805e+03
5.217429432323450783e+03
5.113889758691338102e+03
4.979440055685968218e+03
4.198318208551608222e+03
2.991921618587146895e+03
2.458956441673577501e+03
1.548891399524235567e+03
5.447337543649996405e+02
-4.185128882758177724e+02
-1.423051041142548684e+03
-1.359636901818649676e+03
-1.761458673118769411e+03
-2.042928202006259198e+03
-1.257837644441548264e+03
3.508723924588817908e+02
1.551224408558747882e+03
2.583206777047239939e+03
3.619896151521960292e+03
3.959301030252336204e+03
3.803401713977072632e+03
3.785206796169219160e+03
3.538649912520362250e+03
3.568635621325816828e+03
3.476189998586898128e+03
2.796361653144871980e+03
1.865021348920300170e+03
9.901144456145412960e+02
5.652515085564998998e+01
-1.066753195683131480e+03
-1.875835159340602559e+03
-2.618793816694553243e+03
-2.460620135269175535e+03
-2.239338410812170423e+03
-2.682888413298972864e+03
-4.859281679782187894e+03
-9.370480904656198618e+03
-1.080242200816755940e+04
-9.142102177250009845e+03
-8.460479528904868857e+03
-7.663531084527696294e+03
-6.615290287771376825e+03
-6.175757583071444969e+03
-6.085089024271639573e+03
-6.802486774811249234e+03
-7.409341914441225526e+03
-8.748807422198806307e+03
-8.885953613040812343e+03
-2.873014705579808833e+03
-3.229224184494124756e+02
-8.347697067053497904e+02
-1.090836684738515032e+03
-6.081231096084922683e+03
-1.155889967536701806e+04
-8.045600957996055513e+03
-3.873252292871339705e+03
8.422824341573497122e+02
1.724075832637317262e+03
1.885080076748998636e+03
3.255551108869548898e+03
5.122529573359410278e+03
5.482621019781780888e+03
5.123683711973847494e+03
5.181662184613106547e+03
4.648429495244219652e+03
4.047049100305100637e+03
3.791454124579628569e+03
2.645457553462807937e+03
1.296077728246790002e+03
-1.895170002588612306e+02
-1.759319698346345149e+03
-2.254598137704632336e+03
-2.220275545444740601e+03
-2.081183832204932969e+03
-1.669304232758393709e+03
-8.007712125973185948e+02
5.874957676969102067e+02
2.160860063977304890e+03
2.710284875847487911e+03
3.397404437379838328e+03
4.440040210417966591e+03
4.795558380075674904e+03
4.564897716937207406e+03
4.240123327954991510e+03
4.252738427914713611e+03
3.675560844741478832e+03
2.713309753340336556e+03
1.697110488235091225e+03
6.560313241054915352e+02
-5.867534040121290673e+02
-1.672794006143140450e+03
-2.230878542206161455e+03
-2.628371129723443119e+03
-2.277317965817052936e+03
-1.881869543594094011e+03
-1.110911889908160219e+03
1.640188512110707677e+02
1.581198773344692199e+03
2.309738742764135623e+03
2.944801911358494635e+03
3.355624752547794287e+03
3.868928288180171421e+03
3.816297673932285306e+03
3.459534112637486487e+03
3.198748071849073767e+03
2.974745592758372823e+03
1.769291139585654946e+03
8.334544128889559715e+02
-1.332274594556788543e+02
-1.004418354992649711e+03
-2.212780872943510076e+03
-2.737510834736277502e+03
-3.503891464038794311e+03
-4.058996798159135778e+03
-2.767245296205444902e+03
-1.442893059557806282e+03
5.461582385424429198e+00
1.267119862093507663e+03
2.221622676969444001e+03
2.989696542579267771e+03
3.186335627611977998e+03
3.624844266710493230e+03
3.318826506821979820e+03
3.143295932501654534e+03
3.187946547165155607e+03
2.404528616565080029e+03
1.433372022791706286e+03
5.570732696425492350e+02
-5.453975626760216073e+02
-1.753416355036541745e+03
-3.011324208750202615e+03
-3.747046401978234826e+03
-3.861437155228463780e+03
-3.962468686879647976e+03
-3.100758507047170042e+03
-2.395221390453308686e+03
-1.501411198757694137e+03
-3.329227383308845560e+02
5.296842334410700914e+02
1.240809239877200980e+03
2.080281662218416386e+03
2.874304524970173588e+03
2.862951971127564320e+03
2.850256236399344289e+03
2.463621958383492256e+03
1.516932860760162157e+03
7.650670578303833054e+02
-5.404377390447385743e-01
-8.030355928545689039e+02
-2.086742285042814729e+03
-3.319857505831914295e+03
-4.161495956238123654e+03
-4.121922275768047257e+03
-4.181013189988979320e+03
-3.937875468080020710e+03
-3.288424414865984090e+03
-1.882873730334337324e+03
-2.443414462991435130e+02
4.314879267272669381e+02
7.478791643059917078e+02
1.455772711262225357e+03
1.664633521675330940e+03
1.734189687178222812e+03
2.104066523414930543e+03
2.122582388329534751e+03
1.682998758852618266e+03
6.892051985880854090e+02
-8.418945618856250803e+02
-1.536099369223540634e+03
-2.629210403864367890e+03
-4.302507897290253823e+03
-5.706428754654327349e+03
-5.851246804350488674e+03
-5.711856952770242060e+03
-5.252422443646844840e+03
-3.705606119904398838e+03
-1.961963586049028208e+03
-6.247914863917287676e+02
1.128978643516246052e+02
9.113457394870426924e+02
1.445783973236196061e+03
1.789628677239896433e+03
2.013000570134066948e+03
2.185882658360350888e+03
1.856071942850316645e+03
9.946388494859751290e+02
3.951652808521802172e+02
-4.329554479244256981e+02
-1.574435333826430451e+03
-3.146027580878503613e+03
-4.607468568450878593e+03
-5.440690947822267844e+03
-4.889356322802876093e+03
-4.303053202438013614e+03
-3.718124835770141544e+03
-2.961688071264386508e+03
-1.887589465146925249e+03
-7.036920382513538925e+02
6.099942205101860964e+02
1.390600433027180088e+03
2.375043709278047118e+03
3.036652692272026798e+03
3.073836461505485659e+03
3.057957301225616447e+03
2.599094395778534363e+03
1.698100922292768701e+03
6.730617992610597184e+02
-1.587995339009808227e+01
-4.728723905192960615e+02
-1.830480675550339811e+03
-3.297838880821283510e+03
-4.080988423664863603e+03
-4.499747375836953324e+03
-4.464600714355283344e+03
-4.190353509962029420e+03
-3.502069764664647664e+03
-2.156423685188394302e+03
-5.656617122022588546e+02
8.281047711621752114e+02
1.903992355344648558e+03
2.318087242151955707e+03
2.655545399192218611e+03
3.028544717809984377e+03
3.594094125390702175e+03
4.447795913854795799e+03
2.635583639658266293e+03
2.704356485519571834e+03
3.169029257351171964e+03
2.269537428442797591e+03
9.080902386165772668e+02
-2.703811163290337163e+02
-1.093413707685200052e+03
-4.192287316106138860e+03
-1.062794935084372810e+04
-1.252834039446422321e+04
-1.019849204810250376e+04
-4.555533741262885997e+03
2.581351416885955587e+03
3.523978969655531728e+03
-2.096502966651386032e+03
-3.483131481040759354e+03
-4.588905989987150861e+03
-4.406765818364013285e+03
-3.773993389777143420e+03
-2.861802868772496822e+03
-4.004419201795938079e+03
-4.715512716022538370e+03
-2.605789922271765590e+03
4.042228824900804739e+03
4.501473940359484914e+03
3.736836670672624223e+03
3.186224158024632288e+03
2.665625472339065254e+03
-3.218214117387033184e+03
-8.183285170811634089e+03
-3.190734119563783224e+03
2.132234752210377337e+03
-5.762796432099260073e+02
-3.370636021516573237e+03
-2.680140260930610566e+03
-1.763537534404987809e+03
5.427033613817072364e+03
1.093434941244266884e+04
1.100919847532454696e+04
1.100336366055176768e+04
1.081072885843857875e+04
1.017005572629872040e+04
9.417374795113104483e+03
8.557653110671919421e+03
7.482868658262800636e+03
6.116782261658730931e+03
5.237146331250206458e+03
4.665587105968788819e+03
3.977897092777058333e+03
4.367007224176429190e+03
5.219891073410297395e+03
6.301611182950763578e+03
7.909184045203378446e+03
9.165466403715157867e+03
9.925272125706684164e+03
1.057036772290589761e+04
1.128171367187793840e+04
1.147326303043879852e+04
1.163192119820194603e+04
1.097466948479024177e+04
1.000140530513309386e+04
8.156043280797789521e+03
6.343514617319907302e+03
5.060735212081052850e+03
3.086555289629267463e+03
1.220866686803875837e+03
-5.613641224165917265e+02
-1.383023526923474037e+03
-1.349964969431089912e+03
-1.159447044077582632e+03
-2.267869887887864877e+02
5.520678452134027339e+02
1.553992163010298782e+03
2.929798003679642534e+03
1.722515346801146507e+03
-3.734335877590356631e+03
-1.860731053920759450e+03
-7.956857019340828856e+02
8.028586986697083603e+02
4.196553423542042651e+02
8.231509096578250819e+02
1.311636396258733384e+03
-1.420471029499839233e+03
-6.168435732757114238e+03
-1.069311644288160642e+04
-1.322110705057853193e+04
-1.481883673062377602e+04
-1.522731830023772818e+04
-1.388511495962160552e+04
-1.246999706351226268e+04
-7.779970795207446827e+03
-1.519051511043405526e+03
9.218619503661477665e+02
1.884009514683173165e+03
3.370627104242569658e+03
3.850763865308574168e+03
3.678455522038304025e+03
3.063798889383482674e+03
2.058532605518830962e+02
-2.702174609816668180e+03
-3.301138355087917716e+03
-3.417919281981502991e+03
-6.995504962732334207e+03
-9.706812336945109564e+03
-1.051169438941245062e+04
-1.129410035868410341e+04
-1.375794473247991118e+04
-1.564216913967763503e+04
-1.244867444945387979e+04
-8.622335743825147802e+03
-9.478959403375250986e+03
-1.364929376978702749e+04
-1.391020708035246025e+04
-1.545741433894235888e+04
-1.699465042255974913e+04
-1.167368796028679753e+04
-7.216389076316704632e+03
-5.542534832255594665e+03
-2.196921280631248919e+03
4.004599900640795568e+03
1.560026334186649183e+04
2.432629450161320710e+04
2.485089124618011556e+04
2.014519466716921306e+04
1.423142384607076929e+04
4.492880081332841655e+03
-6.788339428775049782e+03
-1.449220779873818901e+04
-2.045852479195309570e+04
-2.634713012036018699e+04
-3.182779058658717986e+04
-3.798115472735278308e+04
-3.901489440727407055e+04
-3.571579966354474163e+04
-3.226358383609461816e+04
-2.111902192935595303e+04
-7.725847587634770207e+03
-1.136830985695615936e+03
4.244214297663986144e+03
2.291418231928156729e+03
1.984168634333972705e+03
7.287624122525521670e+03
1.319098207000104594e+04
1.664938156943038484e+04
2.028108799476244167e+04
1.984834949083448373e+04
1.588524758966673835e+04
1.618393915012819343e+04
2.101047564488109128e+04
2.082398936220694304e+04
1.584570281251155393e+04
9.159862077739209781e+03
4.166751524951898318e+03
5.564579207249604224e+03
7.972632372629957899e+03
6.786107979128511943e+03
-5.878764947046920497e+02
-6.108066438751278838e+03
-4.285289995631255806e+03
-3.289469020229099897e+03
-7.168427451534896136e+03
-1.010927151584920011e+03
8.905172915769320753e+03
8.649007103200334313e+03
7.984633542937907805e+03
1.251617752917447069e+04
1.945663199552616788e+04
2.126209221669380349e+04
1.450665112627357485e+04
1.154639975564024462e+04
1.326445797973707158e+04
1.163789964900117775e+04
1.069385502057667691e+04
9.319452793204893169e+03
7.862804150266403667e+03
1.120300843967967194e+04
1.221123568284766225e+04
1.022664255687765944e+04
1.372321990476024803e+04
1.654393870164908003e+04
1.494784317164195454e+04
1.001402863489756965e+04
2.187556171188359258e+03
3.252383337918335656e+03
6.157473551994183254e+03
7.506833013720554845e+03
9.681378581229866541e+03
8.716037937090206469e+03
4.789700244757716064e+03
3.227292963278316165e+03
4.031851631934270699e+03
2.460425441454538486e+03
5.129964129502050127e+03
3.559319425972383215e+03
-3.080446084386494931e+03
-1.050387239423634674e+04
-1.787816600491585268e+04
-1.533454449562328773e+04
-1.343999955428210160e+04
-2.323766121205776290e+04
-2.022467946960452900e+04
-1.099212771772051201e+04
5.608900074287916141e+03
1.411240758953859404e+04
1.263314158514508563e+04
6.418903639376694628e+03
2.642576390743699449e+03
4.420885021338863226e+03
5.936869915110614784e+02
-5.305167455914525817e+03
-9.264786157975539027e+03
-1.206428528903391998e+04
-1.085072400018133158e+04
-8.835220598431340477e+03
-6.736905590108032811e+03
-2.863926275259385420e+03
-1.842389329982199342e+03
-2.196413674310874740e+03
-2.783186816693679702e+03
-4.349896104932515300e+03
-3.838686621566573194e+03
-2.002657384296752298e+03
-7.910337634659146033e+02
-9.870802647412106126e+02
-3.162043781455698081e+03
-4.795152177693243175e+03
-7.218577275482660298e+03
-8.606559691663898775e+03
-8.555333689834465986e+03
-8.964135005602414822e+03
-8.554179854953110407e+03
-9.770615982631077713e+03
-6.363590188036140717e+03
-1.093126979370006484e+04
-1.254780511098797615e+04
-1.280331705233245521e+04
-8.356930611340705582e+03
-3.998801926442799868e+03
7.568603568996919648e+02
4.107803881452497080e+03
7.568064628467034254e+02
-3.451245270752544911e+03
-1.002448237776773203e+04
-1.454020488799066334e+04
-1.238558124942917311e+04
-5.818819927075462147e+03
2.916810719744357812e+03
3.848127187214766764e+03
1.443875858535772295e+03
-1.932212110558288941e+03
-4.517317961551428198e+03
-6.263608670701019946e+03
-6.004158191353095390e+03
-2.727076016638746296e+03
2.010489611218014488e+03
2.226364358723541955e+03
2.045219993260501042e+03
9.951128866572906873e+02
-4.222809175342892445e+02
-2.086825810712042767e+03
1.645425885018474332e+02
3.953788570739645365e+03
3.081723965564714945e+03
-2.888714648925894153e+02
-2.209854883481033539e+03
-1.673040573489117605e+03
-4.178605073124354590e+02
-1.220446392543447701e+03
-1.987414534915384138e+03
-4.017525669946428479e+03
-8.090501755182358465e+03
-7.991863478672477868e+03
-4.201951558764747460e+03
2.261884784467789871e+02
3.317322455669030660e+03
5.411920722949331321e+03
6.376356972000537098e+03
1.375603604002383145e+04
1.552987199626607435e+04
1.294064860978883371e+04
1.024476460919454075e+04
7.482014499755739962e+03
4.969768347872760387e+03
4.500030748805480471e+03
3.059749444492890234e+03
3.143341685327565301e+03
3.119822923240141336e+03
2.569722360628359183e+03
5.147722984387689394e+03
5.577936657124549129e+03
2.955291541774729922e+03
5.319307693700356140e+03
7.562531095849431040e+03
8.497651422019685924e+03
9.227403588428343937e+03
8.442981533314470653e+03
7.428426391270630120e+03
4.435846258191588277e+03
2.728530813054233477e+03
3.171388960599928851e+03
4.895267680289257441e+03
5.690201611659762420e+03
6.407250026515650461e+03
5.133386560553236450e+03
2.320633059661983680e+03
-3.210041730920824534e+02
-1.994584970226354017e+03
-2.055109592701836391e+03
-6.815487338685260283e+02
8.430414483013651079e+02
1.465700935898476700e+03
7.625647480041790232e+02
7.207048015892158901e+02
7.412485747886652234e+02
3.523644467321899469e+02
8.351360771641672045e+02
1.036722505704970217e+03
8.932141789230386166e+02
1.097746844186404132e+03
1.252402616929307442e+03
1.425194720219336205e+03
1.359270507703464773e+03
1.092717740249012650e+03
1.087665878412479742e+03
5.500944696077768867e+02
-3.759599548565255418e+02
-1.786449270987883438e+03
-2.804361947977270574e+03
-4.907552297432440355e+03
-9.241971197604221743e+03
-1.441862959394247446e+04
-1.338919721747832045e+04
-1.238210800147196278e+04
-1.110876040690470290e+04
-9.515013801748489641e+03
-9.784863852517715713e+03
-1.029013116486666513e+04
-9.374646575433545877e+03
-5.360322952781869390e+03
-4.064891325450676959e+03
-6.802029046769622255e+03
-6.836592999529335430e+03
-3.554627359194314522e+03
2.021875483017968236e+03
2.400917005556818822e+03
2.093459144460382049e+03
1.845419276377771496e+02
-1.757113054442589146e+03
-2.688616166424046241e+03
-2.814660164100555903e+03
-1.470138320356639269e+03
2.140066287718227329e+02
8.829806017611315383e+02
1.561977314788319063e+03
2.144126997637055865e+03
3.205771673095420738e+03
4.559052697993448419e+03
5.849948525226669517e+03
5.452473877430643370e+03
5.318977559966266199e+03
6.022518747063300907e+03
5.927033839856863779e+03
5.479604567213137670e+03
4.413462497894867738e+03
3.278671147560152349e+03
2.066843080181483856e+03
1.609145792427329127e+02
-6.716986316340535268e+02
-1.632589225594541858e+03
-1.817982659308025404e+03
-1.427705627276597397e+03
-4.346767302446542658e+02
5.066412853495768900e+02
1.432375046367755658e+03
2.165753120540678538e+03
2.103626756578561071e+03
2.268784774355579884e+03
2.323747498484653988e+03
2.204592791390554339e+03
1.521867946347717861e+03
9.100965053542495298e+02
2.396456211438859100e+03
2.884432628581150766e+03
1.447384873527999162e+03
3.112921499520935527e+02
-1.383819468537309604e+03
-3.810824866463515264e+03
-4.911592671795620845e+03
-4.851950985406274413e+03
-4.685217809898502310e+03
-4.089767454172209455e+03
-3.676588963040207091e+03
-2.450384152463806913e+03
-7.356146406548363075e+02
-3.198195890535294552e+02
-1.077985907742679046e+03
1.666731317561534524e+02
8.152360647376227689e+02
7.579225111179985106e+02
1.774863233416770925e+02
-1.828301750598149056e+02
3.980225924547273308e+01
7.906776838335788398e+02
1.577132419171972060e+03
1.007827880452362933e+03
-4.766346816832403306e+02
-2.009844015648176764e+03
-3.167415959331338854e+03
-3.793090447475494329e+03
-3.925840969607251736e+03
-3.405108908669026732e+03
-2.392971443218134482e+03
-1.692109034564978629e+03
-5.949485710051378646e+02
4.535154128635907682e+02
4.407881156160087812e+02
1.819880702966096919e+02
6.904470055778716642e+02
8.852845631982204395e+02
1.390035980319815963e+03
1.546383801913143770e+03
1.722328664719750350e+03
1.284377617417527745e+03
4.681860846618942560e+02
-4.029871938643261728e+02
-1.132398701176426357e+03
-1.853269593294678316e+03
-3.064937717062842239e+03
-3.688184899571617734e+03
-3.677074955872321880e+03
-4.019617841337303162e+03
-4.106784283292782675e+03
-3.206956667336337432e+03
-1.468956493697038013e+03
-1.665784749487825422e+02
1.707004492601230936e+02
4.058531882262220165e+02
7.802394448570202030e+02
1.486170901699853630e+03
1.661866120670393911e+03
2.094591330193497470e+03
2.587135944250902412e+03
2.425514347055285725e+03
1.890548630626006798e+03
9.624394309062853381e+02
-2.876028253583843934e+02
-1.774789212836371917e+03
-2.801332445332166571e+03
-3.751110328249090799e+03
-7.021498632322909543e+03
-9.811249788994295159e+03
-5.474985765056824675e+03
-2.365567659714593901e+03
-1.153825022444598289e+03
7.673767936184165137e+02
1.524159895908782346e+03
2.199421458990807878e+03
2.639142663441222339e+03
2.199564046180503283e+03
3.081556560873353192e+03
3.348575038387425138e+03
2.820378858272856633e+03
2.660362245848125440e+03
1.809575339159217947e+03
1.237889724247577306e+03
2.448715517335312484e+02
-1.005936433833117690e+03
-1.992854824337529180e+03
-2.148773868903252151e+03
-2.031435322430748784e+03
-1.651108138820331078e+03
-1.067135797430520597e+03
-1.642483776964982951e+02
8.415161053745039226e+02
1.899826695711412412e+03
2.527107894281571589e+03
3.092395697261701571e+03
4.065203653823009972e+03
4.327211391931415164e+03
3.839902352173746294e+03
3.848888243481429527e+03
3.473227136080040964e+03
3.408813162182999349e+03
2.972422423505651295e+03
2.398248646779168212e+03
1.450938369508422738e+03
3.624069678671596080e+02
-7.280040595102433372e+02
-1.014251500519396927e+03
-1.186204813945744945e+03
-1.450304673617353046e+03
-8.447781697335361741e+02
3.142564182897225464e+02
1.609209117019271616e+03
2.594959046941485212e+03
3.099722964230745220e+03
3.390436859999262651e+03
3.603291668435364954e+03
4.208036039442365109e+03
3.818481504402760493e+03
3.858356237284799136e+03
4.072993344417513981e+03
3.460822299645523799e+03
3.295906344724572136e+03
3.082477263397674960e+03
2.197704207776276689e+03
1.179667693581903450e+03
-7.577060597996221247e+01
-8.646576219689185336e+02
-1.061155849120934363e+03
-9.835411374705635126e+02
-7.659883300558764176e+02
-2.514165121265347352e+03
-4.956021160228873669e+03
-8.880446404198093660e+03
-9.364389867542931825e+03
-8.647820249171691103e+03
-7.124988087013231052e+03
-6.138082962874351324e+03
-6.077770681882987446e+03
-5.207852523802316682e+03
-4.743442481185755241e+03
-4.714796393561379773e+03
1.521079894748280310e+02
4.202473098460830442e+03
3.608257984491101070e+03
2.664623644137499468e+03
1.800757451123876308e+03
9.354194713838603548e+02
5.243657614467730355e+02
-7.505224669739874344e+02
-8.313217130243207066e+03
-1.089161487322694120e+04
-9.553557247355856816e+03
-7.810511127760811178e+03
-4.261056858747841034e+03
-1.014694570050911011e+03
-4.998290278360029333e+03
-5.386727711615905719e+03
-5.064951791250962742e+03
-4.891068319859237818e+03
-5.027939320058118028e+03
-4.984614401266810091e+03
1.379778034747745323e+02
4.587978805091000140e+03
3.642202236635366262e+03
7.988423602322052375e+02
-6.005745417911129152e+03
-6.065849878197530415e+03
-2.136433826262476487e+03
-8.853692347245946621e+02
-1.820552920413909533e+03
-2.618661518787530895e+03
-2.472416877476733589e+03
1.149489253913594666e+03
3.937103349219694337e+03
4.662416876427168972e+03
5.265448989690820781e+03
5.869333141517367949e+03
6.093141583168662692e+03
6.410138887157781028e+03
6.115627156714653211e+03
5.516737757768769370e+03
4.876486707793050300e+03
4.395871644343086700e+03
3.252826446367703738e+03
1.619419630467196157e+03
3.918201438781653678e+02
-9.547580625248322121e+02
-1.488236723589268195e+03
-1.147464233398583701e+03
-4.822910459369852560e+02
6.613781575800118162e+02
1.795756095099040976e+03
2.753012242589783000e+03
3.590192822764387074e+03
3.899298069847443912e+03
4.063473080511668741e+03
3.979177893341222443e+03
4.180706590078429144e+03
3.694189691080810007e+03
3.291694998758141082e+03
2.498306874563737438e+03
1.436233463100302743e+03
1.037520823193772458e+03
4.904015867871405590e+02
-9.047187059810651135e+02
-2.124592465907473070e+03
-2.592484782812968206e+03
-2.545469047374434467e+03
-2.233504880330950982e+03
-2.108011750607277008e+03
-2.765802077480623211e+03
-1.595134089923223200e+03
7.067597500008596967e+01
8.000912722149885212e+02
1.721074851687504179e+03
2.582490052155597823e+03
3.016571085217325617e+03
2.908347398094112577e+03
2.640695177466961923e+03
2.682036160736553484e+03
2.625456284137396324e+03
1.909933277579481683e+03
1.564242985739263531e+03
1.292368285236786960e+03
1.268763977544489485e+01
-1.167061855008362045e+03
-1.863945114290351739e+03
-1.958946701729500091e+03
-2.126041331539916882e+03
-1.715127992470868776e+03
-1.311153731669996432e+03
-2.290542127606276779e+02
6.252606695541581985e+02
1.164889946693463799e+03
1.636826609909466242e+03
1.864088519556218898e+03
2.078791241816606998e+03
2.310990665615124726e+03
2.551684395944709195e+03
2.195918598802131783e+03
1.604651045567892197e+03
1.058981166502707993e+03
8.278712197637458985e+02
8.530207509001660071e+01
-9.767741298137535750e+02
-2.494415489897616226e+03
-3.718696635876805431e+03
-3.829637973390162642e+03
-3.760257323495332912e+03
-4.082591669433161314e+03
-3.796573205201957535e+03
-2.547209382762100176e+03
-9.744616318890430193e+02
1.076870435835087818e+02
1.591312176628639463e+03
2.188427642087267941e+03
2.486798482242672435e+03
2.436412263274930410e+03
2.624364769267629526e+03
2.604572149311879457e+03
2.228018530002326770e+03
2.011737603765423955e+03
1.397586085814345552e+03
4.284343731849672849e+02
-1.268833630579435066e+03
-2.339324174123285502e+03
-3.290122337170298124e+03
-5.349380618672898891e+03
-6.397233471695840308e+03
-7.583665173261370001e+03
-5.863609979701236625e+03
-1.325281897401789593e+03
-1.146642016929483958e+02
-1.578185874659036472e+02
1.592047080003179417e+03
2.227234244301939725e+03
2.821724383791062792e+03
3.474422433378747883e+03
3.336932424055660704e+03
2.940215349930488173e+03
3.133333163497970872e+03
2.476156599863093561e+03
1.488555972555154995e+03
5.923872641289456169e+02
-4.194554790747263837e+02
-1.242150086879966011e+03
-1.631891722715585956e+03
-2.139760988209808602e+03
-2.532904614967181260e+03
-2.396413462705286292e+03
-8.692790167461481587e+02
1.374423202442145282e+02
5.206481412224394489e+02
1.109278285010760783e+03
1.908256617789717438e+03
2.534548168162859838e+03
2.836056058470971493e+03
2.853749953414017000e+03
2.309556081919138705e+03
2.191353822119339839e+03
1.905036385495611967e+03
2.026513154202076748e+03
1.901665341321998085e+03
1.543385408829636390e+03
4.665164024480360467e+02
-6.140321409839649505e+02
-1.436331937592746044e+03
-1.445537455487064108e+03
-1.552864982138236201e+03
-1.725415840124380111e+03
-1.674189406974057874e+03
-6.772316866790613403e+02
9.484368072558047515e+02
1.655761757356948692e+03
1.625695587541903251e+03
1.927173185343869136e+03
2.133117868746902332e+03
2.007467751528446115e+03
2.148149712463722153e+03
2.089121735424530016e+03
1.615366453266487497e+03
1.333821008947534210e+03
8.193805905503634222e+02
5.519176098895846962e+02
8.063054729319298986e+01
-1.066545937704965581e+03
-2.532243090605319594e+03
-3.023502209688542280e+03
-4.638246647243956431e+03
-3.838599400897053783e+03
-2.981575023472729299e+03
-1.963183813413951839e+03
-1.572362415850802336e+03
-4.146083454358888048e+03
-5.167669733355108292e+03
-4.647037482759105842e+03
-3.705544288795655575e+03
6.633296282414675034e+02
-3.098509199564713981e+03
-5.231128995738239610e+03
-2.661544622445424011e+03
-2.086722292603451024e+03
1.893254314809025573e+03
1.820272232693480419e+03
5.022482553401977725e+02
-4.266860737332369354e+03
-2.259084323253408911e+03
-1.489438484340149671e+03
-5.633042246960448210e+03
-3.939951475105543977e+03
