1.091024845935729445e+03
1.238724143763705570e+03
9.520040140148066712e+02
9.928706530076176477e+02
1.125281476587764928e+03
1.137203693000342128e+03
1.333554726087287690e+03
6.891972451400159798e+02
2.415965272952568199e+01
-3.704658480560519820e+02
-4.434859701645168002e+02
-6.265465799911353315e+02
-8.396304740502596360e+02
-1.125683336896946230e+03
-1.151656428932437393e+03
-1.566183681329244735e+02
3.214059098997233264e+02
5.273626806076936191e+02
6.961826954689963713e+02
8.498781520481368261e+02
1.441409517273008987e+03
1.581721354245342127e+03
1.374771217392007429e+03
1.138516524279161786e+03
-1.759866342971163249e+02
-3.891484745958299300e+03
-3.847777126823134040e+03
-1.601535296783926242e+03
3.279084880389175538e+01
-3.993959055431254797e+02
-3.199455810888034080e+02
-3.552281913534924342e+02
-5.358712821173310203e+02
6.192277248548658264e+01
3.249608045881603289e+02
7.416527269065328483e+02
9.573636549153856095e+02
1.385553991349106354e+03
1.609174302253359883e+03
1.782021223002637953e+03
2.273112622254303460e+03
2.667540557353799613e+03
2.797280826625092232e+03
3.096290441276879847e+03
3.345225605742661628e+03
3.192280442831837718e+03
2.906949398038948857e+03
2.423596987339989028e+03
1.878154892491878172e+03
1.448222713346187902e+03
1.051203303890263896e+03
9.306814568534250611e+02
9.556792952577778806e+02
1.361413385163458088e+03
1.586436938580891820e+03
2.131547823240972320e+03
2.627039461561105327e+03
2.561748110706082116e+03
2.743298259668415540e+03
3.350460322047734280e+03
3.606962601403573899e+03
3.947598407084743485e+03
4.034124125947501852e+03
3.978621941266148497e+03
3.992069113422453484e+03
3.662487388950825789e+03
3.094802006446221640e+03
2.983939758258577513e+03
2.582914594752885932e+03
2.022667959836311411e+03
1.426160866978776085e+03
1.412359522579713257e+03
1.691276269136501924e+03
1.787926561376836162e+03
1.907260434757147777e+03
1.964349016812495393e+03
2.587167896423870388e+03
2.506682300312194911e+03
-8.330985516907229567e+02
-5.777128634005823187e+03
-8.499430068330642825e+03
-8.397976355071587022e+03
-8.253778807344227971e+03
-7.281830436626256414e+03
-6.895099128547505643e+03
-6.955566972988634916e+03
-7.295254479405334678e+03
-6.943267926687686668e+03
-7.516223579143074858e+03
-8.646936619179741683e+03
-8.729886989520124189e+03
-8.995793537315816138e+03
-8.795716137871126193e+03
-4.419712379164539016e+03
-3.129093488194350812e+03
-7.253591636447181372e+03
-7.586835158435554149e+03
-6.806866782191012135e+03
-6.856102902878139503e+03
-6.245282888321680730e+03
-6.321319815202959944e+03
-5.855161486668481302e+03
-5.383761890225547177e+03
-5.858096015742248710e+03
-5.874108993206742525e+03
-5.556693302682903777e+03
-3.809777807425059564e+03
3.760657209191551374e+03
2.285634992734078423e+03
2.101267137214997547e+02
1.119210923283251077e+03
3.574932291058733881e+03
3.988337168778069099e+03
4.142472417109798698e+03
4.313432021190585147e+03
4.435277968280632194e+03
4.030076538822296243e+03
3.849893625917623922e+03
4.827798220276471511e+03
4.982876692021153758e+03
5.325259419012527360e+03
5.415957100695606641e+03
5.543050446956256565e+03
5.323640033090596262e+03
5.132765944413475154e+03
4.629482913575490784e+03
4.200834172376137758e+03
3.778917065646947776e+03
3.385786404481023965e+03
2.817491665625535461e+03
2.388070487963479081e+03
1.805567323375092201e+03
1.542096235148094820e+03
1.560717776996546490e+03
1.519530971323199992e+03
1.773602989335807933e+03
2.038978166306755838e+03
2.201780318036688186e+03
2.448051280436545312e+03
2.546911374861445438e+03
2.827437912252067235e+03
3.001542510195378782e+03
2.778230223406162168e+03
2.692493824496498291e+03
2.654785570894640841e+03
2.215407227462416358e+03
1.849407673366696145e+03
1.505821773075999545e+03
9.577651138521608800e+02
1.103022291231581420e+02
-3.372744230371619665e+02
-2.068766488653821852e+03
-2.250171427783971922e+03
-4.716948896516739183e+02
-1.726175223898436798e+03
-5.627688098191090830e+03
-3.360206201594807226e+03
-5.723478102220267374e+02
7.043271574674748763e+02
9.195030328118629086e+02
8.111935677694741571e+02
1.181466946026842834e+03
1.329608308882833171e+03
1.290669263847197044e+03
8.096534261628098648e+02
4.775699530741263175e+02
2.963697663181582698e+02
2.290963429702078429e+02
-3.033018917498621931e+02
-9.347703919480691184e+02
-1.254208152241461448e+03
-1.442606118058200309e+03
-1.720948694579142057e+03
-1.835197792571686250e+03
-1.518339530333957782e+03
-1.305445655173250543e+03
-1.123552881205327367e+03
-9.986235196083567871e+02
-8.176395260289044700e+02
-2.435944149629148399e+02
-9.350730591857087859e+01
-1.282966489170681541e+02
-6.606907406456571152e+01
1.901439790987656124e+02
4.540764623177263104e+01
-1.252546788663028963e+02
-1.377977068916420649e+02
-4.162424148444291063e+02
-1.140577472766493429e+03
-1.268821279175106383e+03
-1.396044121027987785e+03
-1.799402634946597573e+03
-1.929013104367263622e+03
-1.844929375674231324e+03
-1.538162409764562653e+03
-8.917189783784364181e+02
-1.007511027842789417e+03
-8.705684169793238425e+02
-4.660085061120835803e+02
-4.648626505072936084e+02
-4.651143586428219123e+02
5.420365982795627247e+01
2.050160114279551635e+02
1.992850021017875122e+02
2.119458077754020167e+02
2.979415190924919443e+02
1.672777161811098097e+02
-1.615104717613043931e+03
-5.007337406659786211e+03
-7.064460080159426980e+03
-2.164481275601699508e+03
-5.673483841268788638e+03
-3.766494762367037765e+03
-1.523667221256525863e+03
-1.287016465364408305e+03
-2.284746533679953700e+03
-2.410467975099046271e+03
1.797781448724312270e+02
5.377667830447971937e+02
2.685812961956767140e+02
8.612042648553116351e+02
1.195263680974506087e+03
1.213747524634119372e+03
1.585569446006559019e+03
1.449697959354987233e+03
1.403131291288991406e+03
1.381854122385530673e+03
1.466747243063686483e+03
1.017748590925111102e+03
5.407874164432896578e+02
1.557610397832042111e+02
2.860948337750019732e+01
3.231867537441978584e+02
-3.856546950615052083e+01
-1.246401475622590738e+02
4.319282215865025591e+02
1.001100970486072356e+03
1.369902305931107094e+03
1.569202862865127599e+03
1.726939944116708375e+03
2.046935903222321940e+03
2.410191262366756746e+03
2.558741290972528986e+03
2.916568468110107460e+03
2.976642853717346952e+03
2.783934241704815122e+03
2.644379609182203694e+03
2.700013187897392982e+03
1.993893661174754925e+03
1.315866189424454205e+03
1.060660543515197787e+03
8.733130365775498376e+02
6.769495593921895988e+02
6.306072669891426585e+02
9.061786898599166307e+02
1.113503515758317690e+03
1.408547825159334707e+03
1.572215369928854670e+03
1.827588484578587440e+03
2.561768711272284236e+03
3.146655688629332417e+03
3.438208812033764389e+03
3.579416626880706644e+03
3.559221379181749853e+03
3.308605065420865685e+03
2.988547819928081935e+03
2.912168914747583131e+03
2.405543306199138442e+03
2.673574612595940835e+03
2.142122540219237635e+03
1.830130395164313313e+03
1.509576939414421076e+03
1.573394596324395479e+03
1.485640882618278965e+03
1.184332054858499987e+03
1.358484327673287680e+03
1.911130063088632824e+03
2.435234337361043345e+03
2.585773637571194286e+03
2.821771636859471982e+03
2.200462577467373194e+03
-4.820372090141934223e+02
-5.448481901916756215e+03
-8.856234420980124924e+03
-8.078517768244333638e+03
-7.901276127317666578e+03
-7.812200585254128782e+03
-7.910274090426520161e+03
-8.153524355344025935e+03
-8.693003549742559699e+03
-8.655836833281771760e+03
-8.502955722174432594e+03
-8.802243812452665225e+03
-8.834656360668908746e+03
-8.409275899633663357e+03
-7.777125035246744119e+03
-3.754067856420464523e+03
-2.214050052949387009e+03
-7.077107924599924445e+03
-7.472136219984532545e+03
-6.595093301688811152e+03
-6.739076999957558655e+03
-6.289047010455713462e+03
-6.029807413726955019e+03
-6.127306209053560451e+03
-5.475425440630582671e+03
-5.638086609828930705e+03
-5.910316748776172062e+03
-6.090180797738211368e+03
-6.635571966946597058e+03
-6.427477129865229472e+03
-2.410913016005223653e+03
1.713109582045139632e+03
2.914703565577774043e+03
-1.442040908590076697e+03
5.278996853654755341e+02
2.284619747556270795e+03
4.060250324529465161e+03
4.726803548162642983e+03
5.284431299034216863e+03
5.229107132522534812e+03
5.689693521068391419e+03
5.815110889235960713e+03
5.822428816899709091e+03
6.000870815720828432e+03
5.744572711446564426e+03
5.359533779581360250e+03
4.936597986486499394e+03
4.251639473982088930e+03
3.959819597366524249e+03
3.127255789174398160e+03
2.813976528979756495e+03
2.630946190519813172e+03
2.388565923887688768e+03
2.307774054308827544e+03
2.488931325329437641e+03
2.909215252242362112e+03
3.322616949278591619e+03
3.505084687092870354e+03
3.504470351565344117e+03
3.812653017213629937e+03
4.317713022782520966e+03
4.109683253221816813e+03
2.344678927914866563e+03
3.805747661355407672e+03
4.269192370307537203e+03
2.972156896078496629e+03
2.724985763364730701e+03
3.072003025025343504e+03
2.484264415084102438e+03
1.865215765060664808e+03
1.534986730121852133e+03
1.296909708837004928e+03
1.349661543728502238e+03
1.303316605624065005e+03
1.587023197507129225e+03
2.162604919296971730e+03
2.282135273511854848e+03
2.105502670029481123e+03
2.142700970070333369e+03
2.058987301946044681e+03
2.282102180737096205e+03
2.572582549457325968e+03
2.842502386277708410e+03
3.203669054037900423e+03
2.895878424439520586e+03
2.376504469852290640e+03
2.037597264820703913e+03
1.706896625625882962e+03
1.414608723120755712e+03
1.237447346649905057e+03
8.483364494499247712e+02
5.512978821033939312e+02
3.113497710285104176e+02
3.454001668254437618e+02
3.953538357615782957e+02
1.284174150757840380e+03
1.676689006718592964e+03
1.736982785205235814e+03
2.018070245578981030e+03
2.209009430840114874e+03
2.495812068060855836e+03
2.558417548623081984e+03
2.916820615683994220e+03
2.866020142236182437e+03
2.628888838647525517e+03
2.311339044691767867e+03
1.989389961745289838e+03
1.728075257605213437e+03
1.360344696030397699e+03
9.732012283490861364e+02
6.136065065600230355e+02
2.394163098438479267e+02
2.425992506006477356e+02
4.913642771703140966e+01
2.130338915007828859e+02
4.492633703927204465e+02
-8.762060521005660121e+02
-4.313359246200154303e+03
-1.005921027252701970e+04
-1.230279851695773687e+04
-1.189209895941877221e+04
-1.195205681949456266e+04
-1.203576063484484439e+04
-1.125224999818262768e+04
-1.063452332205965649e+04
-9.719517506088846858e+03
-8.828397691361815305e+03
-9.021202660155280682e+03
-9.571583871559196268e+03
-9.325551355314804823e+03
-9.886084977319625978e+03
-1.006421876072898158e+04
-5.671446760597197681e+03
-6.692379324319124862e+03
-4.903179712216301596e+03
5.830542884292489134e+02
-7.096327696968999135e+02
1.373684330785174780e+03
2.904013718596866511e+03
3.436419948875794489e+03
3.634997603261575023e+03
3.344786708608834033e+03
3.390745053532457405e+03
2.513857728017392219e+03
1.447192701616581189e+03
1.396808137623550465e+03
1.146703171969624236e+03
1.203837893846995030e+03
1.290206802090880956e+03
1.474832439534507557e+03
1.273672332595427861e+03
1.233720861320938639e+03
1.378990649063131059e+03
1.454482176809954808e+03
1.387216191609857788e+03
1.316188367181288186e+03
1.816507068583204727e+03
1.476220371883236567e+03
3.983296879137468522e+02
-4.450859887208370083e+02
-4.799816400939594701e+02
7.466432108135045098e+01
2.208579850543085570e+02
1.175634381702328938e+03
2.633081145410880708e+03
3.904192424834868689e+03
4.274037191779713794e+03
3.346686472103339838e+03
2.317160890228319658e+03
1.054454778202594298e+03
3.558040661293345153e+01
4.825566060557711694e+02
1.104464938441505183e+03
1.094282683204788555e+03
9.230453069987419212e+02
1.325845878033538838e+03
2.067734271015517152e+03
2.467688104857360941e+03
2.814820059426684111e+03
2.651188490154826013e+03
2.298863628100969891e+03
2.282888864172872672e+03
2.428303840598603983e+03
1.950230136283212460e+03
1.051805639526696496e+03
9.589444124008883819e+02
8.965813359112016769e+02
3.286667643842761777e+02
-1.138945744148885296e+03
-3.127823112931417199e+03
-7.172646206047017586e+03
-6.850461095940125233e+03
-5.175393049909668662e+03
-3.837740899691092636e+03
-1.970303501257845483e+03
5.079946128930474742e+02
1.029161981451005204e+03
6.922513947479002354e+02
4.213354965749464327e+02
2.124332063207338308e+02
5.064761355638170670e+01
5.699918555675930065e+02
6.114497658980651522e+02
8.400372978938169126e+02
1.300830377365483173e+03
1.758851638945576724e+03
1.761127281261831286e+03
8.356711838062734614e+02
-3.355116668148472314e+01
-4.974407988673955288e+02
-5.969997095040964723e+02
-1.823331956329905665e+02
7.075731740838971291e+02
1.188758375575669561e+03
1.152242349513076988e+03
1.471112789803933936e+02
-4.637022654245372451e+02
-1.007201097079939586e+03
-1.157342982659210520e+03
-1.357099397045338492e+03
-1.699437657885427825e+03
-2.421293175751745366e+03
-2.177799599688292801e+03
-5.700110088853056141e+02
2.217195370510253483e+01
-1.471194328305166437e+03
-2.580144457970506210e+03
-2.274703292500768839e+03
-7.559054994948428430e+02
1.551825023073151897e+02
-2.274486636981560537e+02
-4.538020050813062198e+02
-1.470941339011248601e+03
-1.668890536745221425e+03
-6.236498374278982055e+02
-1.053011660057581764e+02
3.821135253417645004e+02
9.896011770522244433e+02
1.406157008381375817e+03
8.567637547114338759e+02
-1.935862091391431079e+02
5.110831427768304138e+02
2.980710362384616019e+03
4.741353179716244085e+03
4.984675948781082298e+03
4.399822826799018912e+03
3.643117623722482676e+03
3.013277788354291715e+03
2.669161528173097395e+03
2.213738931950937513e+03
1.803996127177715607e+03
1.679850675735579898e+03
1.488221481906146209e+03
3.189617064714463481e+02
-1.464125748682122321e+03
-6.511109217605577442e+02
4.084281965783889632e+02
1.653597636544503985e+03
1.434657091788810703e+03
4.738988919586516886e+02
-3.676514451065418712e+02
5.771510068981344830e+02
2.247164367825601403e+03
3.532365202644513374e+03
3.869007486766077363e+03
3.030703179964596075e+03
2.287426824715772909e+03
2.888194772029788965e+03
3.748937758398428741e+03
3.526521605176506910e+03
2.279008093098762856e+03
2.157578021683360930e+03
2.743229560450448389e+03
2.450033126548373275e+03
2.846066644320561863e+03
3.671477051302308610e+03
2.746350086521687899e+03
1.091455763868112399e+03
1.002150011474198323e+03
6.873532824574464257e+02
1.168495580965628506e+03
2.319986393943381245e+03
2.715253736762615972e+03
1.893033116309899242e+03
1.935114166884254246e+03
2.063858579903432656e+03
1.243540300302658579e+03
-1.387301402704788131e+02
-8.188193599399110099e+02
-1.609200925232997406e+03
-2.651401062975374771e+03
-2.669187205858034304e+03
-1.688864417105021403e+03
-6.970461265055748754e+02
1.981381822910590472e+03
4.312311883488345302e+03
4.800628797890495662e+03
3.239273072109585428e+03
1.247250950731668809e+03
1.810735538526950450e+03
3.589639058307509458e+03
5.040966194702922621e+03
3.900715543676154084e+03
6.308976398721624719e+02
-1.369467459031864792e+03
-2.899427567077497770e+03
-4.920873750280423337e+03
-8.639831135966151123e+03
-7.303317247133187266e+03
-7.695324144514244836e+03
-7.605844602253710946e+03
-8.390865990141875955e+03
-8.520359889626875884e+03
-6.918353749007193073e+03
-7.215832465829982539e+03
-8.528723467666448414e+03
-9.763992616801491749e+03
-1.158766649708943442e+04
-1.286180409272666839e+04
-1.321912927301127456e+04
-1.046647755799000151e+04
-5.761707525232731314e+03
-8.369848470846314740e+03
-7.264069298933677601e+03
-4.462397555646826731e+03
-3.465505522214833491e+03
-2.879394851732068219e+03
-3.784106818827409825e+03
-5.949568714005298716e+03
-6.187752308963596988e+03
-4.990614714020572137e+03
-5.013133414536354394e+03
-4.455303345668559814e+03
-4.463032297738537636e+03
-4.159212656220545796e+03
-7.587758952251723485e+02
6.143320091260985691e+02
-3.670822514537256666e+03
-5.856203123054695425e+03
-3.099729303765636359e+03
3.127697631438672488e+03
1.123163776047721967e+03
2.921776158508424942e+03
4.135575666594191716e+03
7.298589417150373265e+03
7.435901162412520534e+03
7.034590691270072057e+03
7.306742894809165591e+03
7.773426350265058318e+03
7.695768335083917918e+03
8.152794477554363766e+03
7.946512688807713857e+03
5.931919959868399928e+03
4.832102426776385983e+03
4.185137099755873351e+03
4.279061123185576434e+03
5.040987114158526310e+03
5.173945191016983699e+03
5.723042826863445043e+03
6.818338556806969791e+03
6.795908659503918898e+03
5.645862748759902388e+03
4.958258368526585400e+03
4.744170640246037692e+03
4.470621750850379613e+03
4.952683062597400749e+03
5.445438597296573789e+03
4.822960726340586916e+03
4.123297344595405775e+03
3.345477545201697012e+03
3.029537388046456272e+03
2.515493167940773674e+03
2.071349419629013937e+03
2.063291586679778447e+03
1.764551994518674746e+03
1.273426870698670427e+03
1.393614323474159846e+03
2.166932867742501458e+03
2.157568976545754140e+03
1.795955273510619236e+03
1.279035845196680384e+03
1.268800799820107613e+03
-6.577849259413050049e+02
-5.316680847512307992e+03
-4.527921666207267663e+03
-9.513747632809704555e+02
7.898884162517905452e+02
-1.084030017439729363e+03
-3.808134570396418894e+03
-7.689295049624178091e+01
1.369100359438803025e+03
9.099386163842387987e+02
6.861639898983737567e+02
-7.634236444871268645e+01
-1.112818811551258250e+03
-1.724162620423878252e+03
-1.752296521981870228e+03
-1.211342091061737847e+03
-1.115240513659030739e+03
-1.217047534498671439e+03
-1.090715712454669529e+03
-4.931982182289460184e+02
3.373798549224628687e+02
7.390006083811701956e+02
8.255933719607298826e+02
1.202122697173497727e+03
1.372529998213165982e+03
1.230808095246437006e+03
9.909082002509655922e+02
3.737676794387694486e+02
-3.326782170023001299e+02
-1.099459844012609892e+03
-1.250629350015212140e+03
-1.333346714114253245e+03
-1.727600100890541626e+03
-1.243322454750647239e+03
-8.505524042746071700e+02
-5.713950051683571019e+02
-4.519691599192793774e+02
-6.322584974905258832e+02
-7.543845259304772526e+02
-9.745358116586754704e+02
-8.217922733522992758e+02
-5.241632757145767982e+02
-1.586220766280380303e+02
-9.718178472363786113e+01
-1.008917921153417581e+02
1.151551250612677535e+02
2.008094758544133640e+02
-3.469808624759908753e+02
-7.752661585618275240e+02
-1.001136162837646680e+03
-1.210697187220529031e+03
-1.799042532408185934e+03
-1.891267781334944630e+03
-1.983454618831171956e+03
-1.721598495182006218e+03
-1.317768216378279021e+03
-1.138036940860854429e+03
-1.970473221247480524e+03
-4.321113783274900925e+03
-8.609972129391588169e+03
-7.386151821371357073e+03
-1.849735220823752798e+03
-6.244763164218269594e+03
-5.179224075367796104e+03
-1.632084803981578034e+03
1.667510027592626329e+02
9.137923410539648330e+02
4.028585461477764511e+02
2.711089957489538804e+01
-6.184002552139788804e+02
-8.479469670413442373e+02
-1.069658558653847194e+03
-1.129613331209165608e+03
-9.841342517552915297e+02
-3.218534237499263213e+02
3.283254110460356401e+02
4.954328163553208242e+02
6.420114699507954583e+02
8.688085917453404363e+02
9.334055615734569074e+02
1.012629496989644849e+03
1.198409213830088902e+03
1.122654811904640610e+03
1.428013032566390393e+03
1.777794323017760462e+03
1.243158970118309753e+03
7.196990944889205366e+02
3.160813434152612444e+02
-2.153448839479499952e+02
2.041970436024194839e+02
-1.328741557847620243e+02
-5.841922035500812171e+02
-8.195084740234400442e+02
-4.650744599519589997e+02
1.504369092483651684e+02
1.580406175984411448e+03
1.493579262282025184e+03
8.363925254974182053e+02
5.441781582984219767e+02
9.199022735795099379e+02
1.377621061038344351e+03
1.786507198136710031e+03
1.937886871674794293e+03
1.517335672476069476e+03
1.490526645474428960e+03
1.685542953515708859e+03
1.476563451528858423e+03
1.095628217423871547e+03
1.112539339658289464e+03
9.922014210291836207e+02
6.297996161589152280e+02
4.588375386191162875e+02
4.808551351045999809e+02
5.309361357835874742e+02
6.435543762842467004e+02
7.603019432593017655e+02
7.380194145504655125e+02
1.518412108674486262e+03
-1.020499425922422802e+03
-2.592598649665357243e+03
8.602439836241291005e+02
1.691066103017919659e+03
1.725866975451718645e+03
1.815649822669724699e+03
2.104478970789713458e+03
2.488376122611146457e+03
3.049352088947072843e+03
2.461437398153699178e+03
-8.303848562993167661e+02
-5.299800814745755815e+03
-5.237917101133419237e+03
-5.769859053665553802e+03
-5.688635058851160466e+03
4.890044203242084819e+01
-1.643140498839205520e+03
-1.399679007673473279e+03
-2.395793617422053103e+03
-3.412507152977793339e+03
-3.447626522439700238e+02
-1.686512028674734893e+03
-2.358586409093843940e+03
-1.967942456114953984e+03
-2.166659746612840536e+03
-3.299709997032242882e+03
-2.425949991015352225e+03
2.644745017110652952e+03
-1.116803010043861093e+02
-3.868248197581594468e+03
9.411694959832509255e+01
-2.232558927619905717e+03
-1.669275648239115299e+03
-4.640880336942471331e+03
-1.771227832870366683e+03
1.420616772553603369e+03
-2.514261990123543910e+03
7.114569957450625282e+01
-5.217188890734619235e+03
-7.671832116280197624e+02
2.603342580598318364e+03
-2.349602489993742438e+03
-3.338028773566443306e+03
2.606189360223687345e+03
-5.828551680831801605e+02
9.718327562338711232e+02
3.577315296709055929e+03
2.975673019693113474e+03
-1.607106685271459583e+03
-9.681066895175076752e+02
9.346817987617893095e+02
2.140117182851097823e+03
1.601179299759460491e+03
8.609970885088733894e+02
-1.642432906335538974e+02
1.051587472673346383e+03
1.636357041907542907e+03
1.998984429540310430e+03
2.217503640651780643e+03
2.474144145019322423e+03
2.588163099105856872e+03
2.254478444288623905e+03
2.527962763392303714e+03
2.796650102452098963e+03
2.793007100481703219e+03
2.569962600368096901e+03
2.285640002171089236e+03
2.145014751721427274e+03
2.439143089258663622e+03
2.187949498221605154e+03
1.522353861691247175e+03
1.120479528433419091e+03
1.042362948943964511e+03
3.980812827427176330e+02
-2.635314354479105532e+03
-5.186893790255009662e+03
-3.034663084781767793e+03
3.643687714262069903e+02
1.552655083142595913e+03
9.084440052892505264e+02
-3.341629183166517123e+02
1.061726392259319255e+03
1.899216185615807490e+03
1.816278722011180207e+03
2.034003043977346579e+03
2.253499476800563116e+03
2.252620627571487148e+03
2.171243868753022525e+03
1.754413877747784909e+03
1.279068591112755712e+03
1.003198556483064749e+03
9.658332258057034778e+02
6.369122225082747946e+02
6.169111031160001630e+02
3.211878852994400972e+02
2.110196683010301228e+02
7.390649610582505602e+02
9.403442462473359456e+02
1.415976430972490789e+03
1.716328535569818541e+03
1.414678879498466813e+03
1.205896353980961976e+03
1.170041179841808344e+03
1.044035298291586969e+03
8.927695617422083387e+02
1.565152003558119077e+03
2.115280097805994046e+03
1.998074681102286149e+03
1.930554917316464071e+03
1.762811537029545434e+03
1.393804997637902261e+03
7.955127120953955000e+02
6.818401084458118930e+02
1.996809592833845102e+02
2.052524969955945799e+00
7.089647526136181455e+01
-6.682509706081867762e+01
2.019790371884578519e+02
3.313723667526940062e+02
6.363395679276661667e+02
4.928583085321718613e+02
3.159375330301229496e+02
3.875530402692608618e+02
6.926234837053314095e+02
9.221727776889181314e+02
1.311239789787252676e+03
1.406875772728861875e+03
1.517992844219956169e+03
1.238594579064813843e+03
1.047690445031236095e+03
5.122163993326860236e+02
-3.708150759574265862e+02
-3.631407648800318384e+03
-8.219576790137169155e+03
-1.235337084935507119e+04
-1.179678601396110207e+04
-1.116876912617946255e+04
-1.080927798949160751e+04
-1.058242246619498292e+04
-9.700878327642894874e+03
-1.043130659806605036e+04
-1.013025937963290744e+04
-1.006686273386647190e+04
-9.547068326750535562e+03
-8.657632870058283515e+03
-8.526432564058704884e+03
-8.056975145003547368e+03
-2.646138330039584162e+03
3.120191791550365906e+03
1.876028120179748157e+03
9.284572252637784686e+02
1.342480537105245958e+03
2.431109100977425442e+03
2.049348722674752480e+03
2.150098102689836196e+03
2.144411264603895688e+03
2.023371259924127571e+03
2.456958196806493106e+03
2.624167088648349363e+03
2.792005214769128997e+03
2.813496326041973134e+03
2.928710535507378609e+03
2.952672504999615285e+03
3.047407948953658433e+03
3.244982742341291669e+03
3.482420081383031174e+03
3.492770726058482978e+03
3.627086892678736149e+03
3.765420654435483357e+03
3.084769470250735139e+03
2.231127891726840971e+03
1.868570460898565898e+03
1.651056764398491168e+03
1.485586049057234277e+03
1.164218374126969593e+03
1.537995111718845237e+03
2.257980895738410254e+03
2.298230950200381358e+03
2.322813381210681200e+03
2.388747569450123137e+03
2.264093780200898891e+03
2.482886900647179573e+03
2.432172492661078195e+03
1.959002573623143689e+03
1.777392894785811450e+03
2.188362691770651509e+03
2.406998016631410792e+03
2.219334926214245115e+03
2.171413692437326063e+03
2.368260248982368012e+03
2.063919780135575820e+03
1.580412115544384051e+03
1.522673207034362576e+03
1.196596065963074352e+03
1.082148546245248326e+03
1.183741000715620430e+03
1.060710253198266855e+03
1.062224109798093423e+03
1.363562622188946534e+03
1.601433692765597243e+03
1.675907747952138607e+03
1.644149900657424951e+03
2.014614695415353253e+03
1.695457928797745581e+03
-4.653313365996613697e+02
-3.056838005301896374e+03
-2.975945782118895750e+03
-4.866146431439672426e+01
2.070080258393683835e+03
2.066265330195728438e+03
8.629039009588652789e+02
-4.620996219883913000e+03
-5.486416591937240810e+03
-4.381430452861952290e+03
-8.470304635829824065e+02
-2.684155031755085474e+03
-7.812762139241266595e+03
-4.807844487812178158e+03
-2.619343460635377596e+03
-5.882650792857922397e+02
1.964150851635421589e+02
-3.565231394630889099e+03
-2.987224546944472422e+03
1.079390353519948576e+03
1.581701365787620489e+03
-1.383284069945977535e+03
1.904427273398832483e+02
-1.100131586969936507e+03
2.614902383836514673e+03
-1.264398625081183809e+03
-2.323015273983776297e+03
-6.711003370373437974e+03
-7.379384367476074658e+03
-2.567198806158535717e+03
-3.585766519770479590e+02
-4.507419076620557462e+03
-2.907683074726240193e+03
-1.957360203091675885e+03
-2.250500388412443499e+03
1.308565674156633634e+02
-5.099299649607876745e+03
-1.624968435308069729e+03
-2.204141651371438002e+03
-3.108868690494408838e+03
-1.553181992701024910e+03
-4.711148830953503364e+01
-2.846345609233089817e+02
-5.008365588571256808e+02
1.506255382980123841e+03
-3.229386845917359551e+03
-1.266796152047087844e+03
2.282964947880162981e+03
-2.218145564673566696e+03
-3.761962293785928750e+02
1.381736633380948888e+03
1.555680678855787846e+03
1.606489523376359102e+03
1.611420009291700126e+03
2.159410004767038117e+03
2.641021239246681944e+03
2.792351986583135385e+03
2.802449016443684286e+03
3.086249898533808846e+03
3.251691906939955516e+03
3.413684441488696393e+03
3.474127509672438919e+03
1.474081560528547925e+03
1.847555020627696194e+03
3.083560471718827102e+03
2.881932259125928795e+03
2.511012317365534727e+03
2.079714480156927948e+03
1.552431372192774006e+03
1.298692400365443063e+03
1.272221872625352944e+03
1.512058631639107489e+03
2.035247375625829591e+03
1.927317260316589454e+03
2.192656606722923243e+03
2.383154499684331768e+03
2.312645429336569123e+03
2.487193640025892364e+03
3.004076869571171756e+03
3.440643734440623575e+03
3.605156249078173914e+03
3.705512455192658308e+03
3.315831961188537662e+03
3.324461229890080176e+03
3.340796328655318121e+03
2.913560122937860342e+03
2.597974964151116637e+03
2.094506888633101426e+03
1.708024976397017326e+03
1.635996786343422855e+03
1.481905237033917274e+03
1.212362762922819002e+03
1.403550377343560285e+03
2.023715383341410188e+03
2.180075490443857689e+03
2.433084826766682909e+03
2.561507659171513751e+03
2.580174038712744732e+03
2.621943460968514955e+03
2.766753395605596324e+03
3.277072545198432636e+03
3.519327946488157522e+03
3.796008708465510153e+03
4.082799294372611257e+03
4.038725736336200953e+03
3.711822542148165667e+03
3.039027300766400458e+03
2.580377822473567903e+03
2.311670550034253665e+03
2.092862473106673860e+03
2.001928927737821823e+03
1.926879666784860092e+03
2.120682665145301598e+03
1.463338061272572759e+03
-1.604113555508577747e+03
-6.526730380403315394e+03
-9.177514466188569713e+03
-8.517484260343118876e+03
-7.941617575674837099e+03
-7.282926032931989539e+03
-6.911442023380745013e+03
-7.107225622163643493e+03
-6.484223464635779237e+03
-5.968408995814651462e+03
-6.278778360992521812e+03
-5.915372078205818980e+03
-5.868243603961779627e+03
-6.684280169674972058e+03
-7.006070725107209000e+03
-3.561067479549152267e+03
-3.715200289685607913e+03
-8.287381691026852423e+03
-8.638637946546317835e+03
-8.081886135956432554e+03
-7.242300644196188841e+03
-6.706870013407751685e+03
-6.352489490518350067e+03
-6.045105806639628099e+03
-5.809607952244943590e+03
-5.333027303700964694e+03
-5.075382905138319984e+03
-4.692612884942184792e+03
-4.670638500334137461e+03
-3.555404933672016341e+03
1.404094534764202763e+03
-1.225095431793593661e+03
-6.042972445251550198e+03
-6.513427682167237435e+03
-6.114423249048471916e+03
3.720044631474965513e+02
2.059904034862467142e+03
-4.427108548417256770e+02
5.142383309138447203e+02
3.040917918454637402e+03
4.555401581819402963e+03
5.031713967293517271e+03
5.116939873464336415e+03
4.525181581873246614e+03
4.946455098401635951e+03
5.312794874376418193e+03
5.663327360418256831e+03
5.360093890848617775e+03
5.283142488081166448e+03
5.434563523264512696e+03
5.332463115166690841e+03
4.850866414833948511e+03
4.201881108067606874e+03
3.371547881895480714e+03
2.885924788372200055e+03
2.741105470372995569e+03
2.266104875722270663e+03
1.918997949961007862e+03
1.784831436271625307e+03
1.833745432599084097e+03
2.668859574570630684e+03
2.933231844466452912e+03
2.535909582631426929e+03
2.501959860324182500e+03
3.095456964729913580e+03
3.123498061990037513e+03
3.041111747926152930e+03
3.182382791003215971e+03
3.015403396234253705e+03
2.751278792818632155e+03
2.146117703384846664e+03
1.896199653638535892e+03
1.845740002802659774e+03
1.132807463930980248e+03
5.880281762013206617e+02
2.324017936925115464e+02
-1.331018397769719968e+03
-1.063756259002203251e+03
1.651996736652655500e+02
-6.989298734217658193e+02
1.908563112421732342e+02
7.366444472852988383e+02
8.164377195110156435e+02
1.019291927594783147e+03
1.293242618152677096e+03
1.526299424323635776e+03
1.351405831377010372e+03
1.341228388006506520e+03
1.684716949699871293e+03
1.399410022438967644e+03
1.253001609293046158e+03
1.532497473451951691e+03
9.229349816191743230e+02
2.812314669696890519e+02
1.914268463866262380e+02
-2.273773260477796612e+02
-4.891902339705139298e+02
-5.550068775987582512e+02
-9.378211592173778399e+02
-1.051634490070595803e+03
-8.134277584785484123e+02
