5.719890639749576167e+02
8.699751330243760776e+02
1.793444793879468079e+03
1.703381047290390143e+03
1.269751348914413938e+03
1.195555661546340389e+03
1.164866494456910914e+03
1.360678735096728815e+03
1.476918230424072135e+03
1.493640473825094659e+03
4.748577767482751142e+02
8.125766066023780922e+02
1.306776817379139857e+03
8.734525364650190795e+02
4.906334976199182165e+02
5.693103474642334731e+02
4.214805519092329860e+02
5.818905725111989113e+01
-3.725919338703249082e+02
-4.069182656727621179e+02
1.322306328324366120e+02
8.619245402615372313e+02
1.196186482226462431e+03
1.534007973102733786e+03
1.481390872885270028e+03
9.944115072978460148e+02
-1.044057380886837564e+03
-4.128844403190530102e+03
-3.839757145457072625e+02
1.541653643487349427e+03
1.664818214266217183e+03
-4.563980493512776206e+02
-1.961950685730530950e+03
-2.368867939419274990e+03
-9.470903001528033656e+02
-1.749703449730861394e+03
-3.321705393545248171e+03
-1.181054835020150449e+03
-3.077780696522089784e+03
-1.037819424067609816e+03
-1.801145585028481946e+03
-1.189753196578357802e+03
-4.121649808454592858e+03
-1.476814774646225260e+03
6.198233140943785884e+02
5.902673265470343722e+02
-1.741471905760034360e+03
-3.754254525011217538e+02
-1.970593727601439696e+03
3.700302696099430477e+02
1.394437681483714414e+03
1.506611473361480648e+03
1.218584152644521737e+03
-2.667630428183578715e+03
-4.447026776332466397e+03
-4.846593129175867034e+03
-3.232320988385108194e+03
-2.910193927765814351e+03
-2.726209541156826162e+03
-3.397377233913629880e+03
-1.288656605981639132e+03
8.309623451381334007e+02
-3.644913980677583822e+02
-2.830023396646382480e+03
-2.167659250553001129e+03
8.525983569391136143e+02
1.470732954812037633e+03
1.948825806160801449e+03
2.460958822296115613e+03
2.206068798873669948e+03
1.605170659394310178e+03
1.505200400811062991e+03
1.318140925890978451e+03
8.042378958840771475e+02
-4.557238107085176182e+01
-2.794640953663022742e+02
-1.763428172990287806e+02
1.128240582038539799e+02
5.210146466745826501e+02
1.851238825134817034e+02
-1.859024137901598124e+02
-1.850003744607393514e+02
-4.611551228996697205e+01
7.268098453079061301e+02
1.251799203013400302e+03
2.157815455576088425e+03
2.725909414805926644e+03
2.471152736687859942e+03
1.876502585382407915e+03
1.435887084370114280e+03
-6.698350490994770325e+02
-1.114576093931279047e+03
1.173111763053590039e+03
1.155232739345320624e+03
5.805999886749403913e+02
3.869676212051136304e+02
2.094232938249490701e+02
3.618531552551391997e+02
8.866212176900730810e+02
8.906985539455102980e+02
4.585784112178646978e+02
4.416271516429459325e+02
6.447558059246598532e+02
8.259668937197741343e+02
9.133423661900999377e+02
1.346612466841748983e+03
1.893040070023427461e+03
2.086249870710851155e+03
1.319984690330158855e+03
9.725791434603523840e+02
9.537287817748407406e+02
6.016579620002005413e+02
7.306500910136056746e+02
1.083764977402853901e+03
9.126226968469763960e+02
5.894839079075568407e+02
6.595753632285812955e+02
5.754979074492870268e+02
5.321648721252506675e+02
3.618325431557796605e+02
1.254035258522949192e+02
7.970225513557962813e+02
1.013562610391276394e+03
1.081052974711473553e+03
1.471401814713515705e+03
1.361576532374210956e+03
1.826689866867148794e+03
1.735745182705344632e+03
1.499621527066140743e+03
1.995235532542326609e+03
1.226667228020942048e+03
7.968871109646869400e+02
8.837572748649466803e+02
8.153113788813299152e+02
6.705483063349263375e+02
2.145670932679269640e+02
5.284134887300916716e+02
9.590134450680969849e+02
9.473090901498894709e+02
4.412634548030890755e+02
4.529360144408909150e+02
5.043720850492562136e+02
1.049559875654364305e+03
1.178462430554252478e+03
1.502067901020759791e+03
1.695413122526020743e+03
1.448517897185207175e+03
-2.045888512396601016e+02
-2.711900378581588939e+03
-6.670434740022067672e+03
-7.936195710217022679e+03
-7.494240799984297155e+03
-7.542649825804812281e+03
-7.043408089099562858e+03
-6.679560433935343099e+03
-7.030067417612957797e+03
-7.300572638822055524e+03
-7.045317462606857589e+03
-7.169362423878939808e+03
-6.779723650553822154e+03
-7.112364661310308293e+03
-6.639277636295560114e+03
-1.707527737088775893e+03
1.622839791474381855e+03
-1.479049911729583073e+03
-1.241146642174695899e+03
1.024712765522973399e+02
9.238885720338057581e+02
2.251142562564535638e+03
1.978157192786518181e+03
1.597923419190751702e+03
1.197493988933541004e+03
1.166899404819560687e+03
1.659098662764778737e+03
1.288080942994216230e+03
1.443912304522269096e+03
1.410551462150495126e+03
1.080991692048835375e+03
9.952594466858962505e+02
8.033436221434433264e+02
8.382076104657634232e+02
1.456984503918476321e+03
2.095716227445839195e+03
1.799356678926390714e+03
1.508958978183744648e+03
1.732529699966163207e+03
1.865104339624058866e+03
1.687703395493395874e+03
1.722275042059073485e+03
1.973813097073663357e+03
1.555400623482662240e+03
7.260560117342231479e+02
5.258311130736072982e+02
1.179780332914034489e+03
1.193801413475172694e+03
7.919061616053579655e+02
6.621130733846302974e+02
6.315092118499765093e+02
5.301641096516508469e+02
5.459811330022699849e+02
4.319623327433878330e+02
3.461509983435582285e+02
7.485113038770292633e+02
9.640976809642373837e+02
1.362934425213530631e+03
1.213026298553408651e+03
1.616297560714471956e+03
1.607722943695769573e+03
1.438414494620799132e+03
1.180594307363715416e+03
1.170538800606861287e+03
1.001231454835394629e+03
3.005475995526679753e+02
-1.138118871480437662e+02
3.969667706635948434e+01
2.274291450141886912e+02
2.327537912592524378e+02
-8.135655981892524835e+01
-5.957557829928359752e+02
-2.376284007088586804e+03
-3.944326012467070996e+03
-3.562815167858120731e+03
-8.056543954090399211e+02
-8.610534952032083993e+02
2.941757871938318658e+02
9.279399703596473046e+02
9.712483929837276264e+02
1.053120851659949722e+03
9.825173018334562585e+02
8.244170143086287226e+02
6.298673698924689006e+02
4.550689171240072710e+02
4.701370172811994621e+02
-3.005386423708070964e+00
-3.224301431817071375e+02
-2.898384063955981560e+02
-5.912318501116753851e+02
-5.699515652533858656e+02
-5.194890841710180212e+02
-4.719065330110673244e+02
-4.128786443288522037e+02
-3.936586912363711122e+01
4.096442537049173325e+02
4.053920852500382921e+02
3.798826779731758734e+02
3.750465945169027577e+02
3.910469196636285005e+02
4.468871815439613329e+02
4.165255847288285622e+02
2.110728195348311260e+02
8.659659241652063599e+01
-8.136990345136570824e+00
-2.525312343692024228e+02
-5.076764867287030825e+02
-6.983050276944909456e+02
-7.859159643087456288e+02
-1.014517857120659301e+03
-7.841077363188254594e+02
-3.688330791673578801e+02
-1.501736109426125552e+02
-3.452662282452567979e+02
-4.891294629403308249e+02
-8.868583996005874326e+01
2.226187433659645762e+02
2.830576056955264335e+02
3.504743824082611923e+02
4.576364950603193620e+02
7.523791902886518983e+02
6.757954650435298163e+02
6.148875263800591711e+02
7.266831978395775877e+02
4.225354479101634411e+02
2.865659055865446589e+02
2.516230069083402725e+02
4.326096277879460672e+01
-4.787905275161257919e+02
-8.318214427394262884e+02
-8.241490641161159374e+02
-5.925664983232545637e+02
-2.355341265713409769e+02
-1.935231972164556282e+02
2.386599376815481151e+02
-1.307491868631926536e+03
-2.155997221480345445e+02
6.485997869477184850e+02
7.049238505544489044e+02
7.519869096978480911e+02
1.058538499610270947e+03
1.109023881657435368e+03
8.583660808761851513e+02
1.262546480988652775e+03
1.196407568666126735e+03
8.498500656257016317e+02
5.963022303776604076e+02
-2.080561597266250828e+01
-1.716360078421028277e+02
-8.033176824294069718e+01
-1.169658290025555836e+01
1.462421550095247937e+02
7.887656175549095394e+01
4.513828999486219118e+02
1.028380058087797806e+03
1.437326833469653820e+03
1.403816227720501047e+03
1.507339114409619924e+03
1.769694576901545361e+03
1.718899232757627715e+03
1.725262474371826784e+03
1.746312607836096959e+03
1.797547458852156979e+03
1.885894074098623832e+03
1.652440690509911974e+03
1.200567124677015499e+03
8.999476024109507080e+02
1.073500011728317986e+03
1.095409977120599706e+03
9.449461793075230389e+02
7.676934537787414001e+02
8.926843246773365763e+02
9.318170234510251930e+02
1.113480579658863917e+03
1.055793831174028128e+03
8.831436652504411313e+02
1.070609453607614341e+03
1.575136929430801729e+03
1.852627018874876967e+03
2.340094932878025702e+03
1.981236987414911937e+03
9.336602065829614503e+02
1.851182069264992151e+03
1.780544191548049184e+03
1.287319025481414883e+03
9.651671005452985810e+02
1.213191033574268658e+03
1.180475046101855241e+03
8.345608027257839012e+02
6.860144479357667251e+02
8.039386753562450849e+02
6.877633481855281161e+02
4.477923776772360611e+02
4.456352374070810356e+02
5.176289302072516421e+02
5.142013262605387354e+02
1.069576886931484069e+03
1.583399942096283667e+03
1.351608692619993235e+03
-4.701076336025487876e+02
-2.966202333257445389e+03
-2.846785869003906555e+03
-1.828086863208882960e+03
-7.545299107824781686e+02
-1.587791419102564078e+03
-1.925273574673227813e+03
-2.568953158775268093e+03
-3.837662077026263432e+03
-3.435337646074054192e+03
-3.368507914853650618e+03
-8.684024794046570150e+02
-6.410726113338709808e+01
1.857735061305295687e+02
-9.989022068064269888e+02
-2.653457114872561306e+03
-2.305010027259970684e+03
-4.624643300880787137e+03
-1.341177008147203424e+03
-2.169562389533712576e+03
3.548565523530518817e+02
-2.043876912093864121e+03
-1.201661089499825493e+03
-1.858167205144238096e+03
-1.405917076319991111e+03
-2.488730173121548432e+03
7.995770553978001516e+00
1.802476223512517208e+02
-1.311116302376218528e+02
-1.120003560146476730e+03
-4.467425827672273954e+03
-4.667936189243181616e+03
-3.318042472485782127e+03
-1.029343087416951448e+03
-6.431623749689625811e+02
-8.696660798631968419e+02
-7.573099283906318533e+02
-5.284323984910677154e+02
-3.106209523598506053e+02
-4.735894272888875776e+02
-4.526800044497791191e+02
-2.917517838176224245e+02
-5.179651995587836382e+02
-5.801743394792439403e+02
-1.090880813203108119e+03
-1.157232881386432837e+03
-1.078723520250612864e+03
-1.279634015522340860e+03
-1.627451558958561463e+03
-2.042829449303197862e+03
-2.119825568814553662e+03
-1.852735025120771525e+03
-1.825590539798632562e+03
-1.747916007687339288e+03
-1.595258815220423458e+03
-1.444940898604228551e+03
-1.480784225100737785e+03
-1.215208759419336729e+03
-7.834258424380570887e+02
-7.321669853517514639e+02
-7.038940678861773677e+02
-5.814805468176724617e+02
-6.008907546889504374e+02
-8.414735636418780587e+02
-2.219873499385817468e+03
-3.875702167156648557e+03
-2.437576075894662608e+03
-1.363231566228546399e+03
-1.408007894151532128e+03
-1.285092640221642114e+03
-1.461838290088233862e+03
-1.705576862059570203e+03
-1.637525555866756804e+03
-1.536557167109884176e+03
-1.290659216436610677e+03
-7.669883075606951479e+02
-5.639639594867441019e+02
-5.490794893905815854e+01
7.957441106659283037e+01
2.357906982572839070e+02
4.169530201217073682e+02
6.047012173457704876e+02
7.787860693568857187e+02
8.071814941261851573e+02
5.862142000097973096e+02
4.197918608684914261e+02
2.117221639512252409e+02
3.652457224863264855e+02
4.117963523374456258e+02
3.151675369433982610e+02
-8.433687369507426013e+01
3.214023829723170138e+02
5.873373013010742625e+02
5.623291898968151372e+02
6.801394120856818972e+02
6.544142161654862093e+02
8.293372801976342998e+02
1.340174062573117453e+03
1.315920581451793623e+03
1.211346332633050679e+03
1.090203071876281683e+03
6.806926515397844923e+02
1.216964700156298022e+03
2.074473443004678757e+03
2.344594855376786199e+03
2.802973997833596968e+03
2.854468755870112545e+03
2.999912642021510237e+03
4.028208900060245014e+03
3.966563278539917974e+03
4.099752593315761260e+03
4.663277074860990069e+03
5.099996874003135417e+03
5.409162324582023757e+03
5.841171578209242398e+03
6.099610991287590878e+03
5.441926018218621721e+03
3.886528644700689711e+03
1.802327495244314605e+03
-9.278500219995477210e+02
-2.752232807263982522e+03
-4.653997059346603237e+03
-6.286348428702495767e+03
-6.204177349760116158e+03
-1.578893768897020891e+03
9.372023584620347947e+02
-2.796873203387443937e+03
-4.745904608660281156e+03
2.726637101007465276e+02
5.595172442121893255e+03
6.006931087852595738e+03
4.983882691824943322e+03
4.985811279542013835e+03
6.164012306318330957e+03
7.633453207381532593e+03
5.861962016313814274e+03
5.722263902095326557e+03
5.674258908351831451e+03
4.071889759784503440e+03
1.893839531040834345e+03
2.628193368512520465e+02
4.439013352705026705e+02
1.975955825624604131e+03
3.263581990198174935e+03
3.484712999703158857e+03
8.142287772270557070e+03
1.464103571045221906e+04
1.756090235869804019e+04
1.400969707616979576e+04
8.479189582068984237e+03
6.044279791780648338e+03
3.795877782647041840e+03
9.898569424956050398e+02
1.266000777672063123e+03
7.871923655829909876e+02
-7.036717002735052802e+02
4.443543265594154832e+02
1.711261979167882828e+03
2.168861452906880913e+03
3.992037262561595526e+03
7.022696521503607983e+03
8.325920809901093889e+03
4.537800918133833875e+03
-2.117483502082840914e+03
-6.575886584858329115e+03
-4.906874975841889864e+03
-1.498276916946957044e+03
2.567996132527686314e+03
6.069585668060133685e+03
4.677047464036885685e+03
3.127057511107663856e+01
-6.562546647751733872e+03
-1.349720460956631905e+04
-1.414482044111394680e+04
-1.048744421716793477e+04
-7.869888474692095770e+03
-7.751027155787194715e+03
-1.111993073767466740e+04
-1.241074022101701303e+04
-1.348333644052603086e+04
-1.525153618820813608e+04
-1.209934061366353308e+04
-5.356683001468796647e+03
1.335734709560203783e+03
3.614838323198459420e+03
2.902424635285234217e+03
-1.410217344467090697e+03
-1.049794433700724767e+04
-1.842989099910502773e+04
-2.067800243729033900e+04
-1.527207327806772446e+04
-5.301826819891648483e+03
1.476662436596674297e+02
-3.522491201087992977e+03
-5.783174141613254506e+03
-2.847194771093355484e+03
-5.337267639312425672e+03
-1.346511835929000517e+04
-1.981164521867147050e+04
-2.856081333323520084e+04
-3.880845825843711646e+04
-3.700846029565618664e+04
-3.817261522466300812e+04
-3.413979550156590994e+04
-1.761190451279989429e+04
-2.419662642011227945e+03
5.809139543184093782e+03
2.444644469509476039e+03
-1.479486048681133434e+04
-3.522210666554897762e+04
-3.748886040014296304e+04
-1.580418757683010153e+04
3.028027294318207169e+03
1.941296416747780677e+04
2.352785472227050195e+04
2.349686605418644103e+04
2.938332768204488093e+04
2.685745736551842856e+04
1.667838055847323267e+04
1.118527208730257917e+04
-1.021694047021776214e+03
-1.333729343669050650e+04
-2.187430263539142470e+04
-1.993955849141046565e+04
-4.426893187198217674e+03
4.323890793543911968e+03
4.558935959175856624e+03
2.842393459141281710e+03
2.403478426649974608e+03
-2.744591829746930671e+03
-5.154561796131584742e+03
-1.751536173084380061e+04
-2.422585076688198387e+04
-4.035815834418850955e+03
2.195788604483270319e+04
2.554536803021522792e+04
1.538085641899599250e+04
1.241244683631289081e+04
1.845329595243283256e+04
2.393259835119868876e+04
2.721941943249772521e+04
2.501008068974959315e+04
1.801688389607295176e+04
1.106184936500396543e+04
3.683994839504584434e+03
2.404396194859732077e+03
8.300113899548274276e+03
1.738925319367434349e+04
6.369940824833152874e+03
-1.825572181909001665e+04
-2.598368350131489569e+04
-1.925948743828809711e+03
2.134359087245962655e+04
3.988608733286763163e+04
4.300952004147745174e+04
3.071789448419879045e+04
2.467919074843922135e+04
2.225451412525031628e+04
1.856721451746362800e+04
1.330037731875341160e+04
1.204599634867713030e+04
1.380574418623921883e+04
9.747655867707848302e+03
3.965012110034751913e+03
-1.602149111304991493e+03
-8.395154300137412065e+03
-1.187393949246795819e+04
-6.718325576049133815e+03
-2.021885047520092485e+03
9.094735989131193492e+03
5.564360296792791814e+03
-5.099985908985127935e+03
-6.794461585391914923e+03
3.503787068816346164e+03
3.132261979067631273e+03
7.854010255421226248e+02
6.329208538251632490e+03
1.309945682222034338e+04
6.752430420770873752e+03
-1.247215047292337294e+04
-1.698564031642048940e+04
-7.690830117656552829e+03
-3.417615916305589508e+03
6.894590700053204273e+02
1.700141983953101226e+04
2.307727170512812881e+04
1.448175201490101063e+04
8.053812128082512572e+03
6.373185200789203009e+03
-6.839302856823812363e+03
-3.090367677160715903e+04
-3.673316787760543957e+04
-2.409395342186614289e+04
9.107890021164945438e+02
7.581899949731296147e+03
3.713179580155682743e+03
7.516504397287620122e+03
1.130874523410812981e+04
1.236172473527729562e+04
1.473929430494861299e+04
8.540309288346901667e+03
-3.596396518789319998e+03
6.679727311867326307e+02
1.168265743822864124e+03
-6.897679300917806358e+03
-1.451098508216812843e+04
-2.777985103876248832e+04
-3.601446143180656509e+04
-1.943699789885867358e+04
-6.664602793593788192e+03
-1.004407645690391888e+02
2.471264937342417397e+03
6.947370432986112974e+03
4.665741087075217365e+03
-4.709821506828468955e+03
-1.595046357033005916e+04
-2.668529295483031456e+04
-2.305844066177909190e+04
-1.723708007525148423e+04
-1.649634089369556386e+04
-1.065437573975356281e+04
1.722701288377377978e+03
7.085086240770242512e+03
2.444364586493309162e+03
-8.723668613067302431e+03
-1.236507467972587983e+04
-7.537013129438668329e+03
-7.537546946590453445e+03
-1.028379154581931834e+04
-6.437884119626093707e+03
-2.170933788198349248e+03
-6.574040380859592915e+03
-1.533834004018652558e+04
-1.539286989692988936e+04
-1.000371926136885122e+04
-1.234091655296698809e+04
-1.387853953296931104e+04
-2.133264097718116318e+04
-1.991130072957957236e+04
-2.985569426455840130e+03
1.027156319484323467e+04
1.106303748535587147e+04
1.058479169667247697e+04
1.417684719827261688e+04
1.101915470295392151e+04
5.059720339658761986e+03
2.666503818092562142e+03
2.652554124604029312e+03
3.876807158821242865e+03
4.898272750948577595e+03
3.012996647661158477e+03
-3.368031896900244192e+03
-6.948735515490302532e+03
-6.247067444197092300e+03
-4.186077480453811404e+03
-3.030681978611902196e+03
-3.164773326407086643e+03
6.777205287306659329e+02
9.176905385248388484e+03
1.481179002197396949e+04
1.614638887839530253e+04
1.423980113036578223e+04
1.140116769861834473e+04
7.791621602215569510e+03
4.094211739609311735e+03
4.603904278631450325e+03
4.519888500883810593e+03
-6.816887294164074547e+02
-7.048769495185338201e+03
-8.542213414554547853e+03
-2.181868365190417990e+03
2.901373156442391519e+03
3.405647291272468919e+03
-1.251850801067391558e+03
-6.375957588646204385e+03
1.718525374680085179e+03
1.153094736367380028e+04
1.004472920215532213e+04
7.767118043397353176e+03
8.598261323183460263e+03
6.706170231382772727e+03
3.342609742146005829e+03
2.197862428151643599e+03
6.640570985148167892e+03
8.378889750694961549e+03
3.468392684189373085e+03
2.763235055438967265e+03
3.651883573520368373e+03
6.601551520746627830e+03
6.146238073849135617e+03
5.126983688721316867e+03
5.662923198806193795e+03
4.778504520516414232e+03
4.342797559781673044e+03
5.728996394903232613e+03
5.375467656303067997e+03
3.162472910871706517e+03
3.860176156526895738e+03
5.383658141662702292e+03
4.152925782447858182e+03
3.394196601113122142e+03
3.967750592128745211e+03
3.424369667540909177e+03
3.776939251126450927e+03
3.974838872030262337e+03
3.033758656251718548e+03
2.428153380331625158e+03
2.351002996439940034e+03
2.742535187678804959e+03
2.119014571849330878e+03
8.924217434334573227e+02
-5.870513724228144383e+02
-1.714171792401648645e+03
-1.789965179561432933e+03
-3.241207304809689049e+03
-5.637718281479622419e+03
-9.184522002342884662e+03
-1.148057989931202974e+04
-1.215765891266005019e+04
-9.722213093049458621e+03
-5.142799250445475991e+03
-5.330311602294448676e+03
-2.290024051167374637e+03
3.370928479571936350e+03
6.508539914137117194e+03
4.786891751905472120e+03
1.109426924441473830e+03
-1.007454490031321257e+03
-7.053836806639274073e+02
-1.385100325805594366e+03
-3.122939768272308811e+03
-3.073166316947012547e+03
-1.441728284183236610e+03
-7.043999758985123663e+02
-2.069784316976468290e+03
-3.103918400010920323e+03
-2.469762773321316217e+03
-2.276191154000850929e+03
-2.462595185364017198e+03
8.297190402165678051e+02
3.035674080770697856e+03
1.507549340043456141e+03
2.072586761949184620e+03
3.660088475519997246e+03
2.686569054181385127e+03
1.019075484965077180e+03
5.163203649185958284e+02
1.963682436229764789e+03
1.553541348297215336e+03
-1.762991504025761060e+03
-3.213259144390699475e+03
-4.326266856592912518e+03
-4.464214802568448249e+03
-2.766697808997651009e+03
-9.391859710582000389e+02
-5.786953397085586630e+02
-4.049339201635170298e+02
-3.733676678190996512e+01
5.109595094840204297e+02
2.136177872825955717e+02
-1.294989536256401834e+03
-2.293408767066484870e+03
-2.741109432499786180e+03
-3.654441498238079930e+03
-3.336321472251728665e+03
-1.575307395206022193e+03
1.152142551056361526e+03
1.489720716528352796e+03
1.200245754288174794e+03
5.994815907040512002e+02
-7.324645210416083785e+01
-1.191193714880858352e+03
-4.259906027716478434e+02
5.708012968840603207e+02
8.976727752713427435e+02
1.052337675232131005e+03
1.001554610211079194e+03
1.458836983246626914e+03
2.124270720325846014e+03
2.226635949608970805e+03
2.101966383128553389e+03
2.611990993694369536e+03
2.493032534800021040e+03
1.638651122373276849e+03
9.399000614135467231e+02
9.300805743139344486e+02
2.012363127827042035e+03
2.086721976887239634e+03
1.494033856608932183e+03
1.235922814998761169e+03
1.006011528209667176e+03
4.750299459540477756e+02
6.712690153681858192e+02
4.418614165683749206e+02
-6.946903821114349284e+02
-2.446319662787457673e+03
-3.600205829634901420e+03
-3.371422410501308150e+03
-1.114661536979929679e+03
3.594453475199977674e+02
1.441897555947651199e+03
2.027746703057892091e+03
1.695457312939982103e+03
1.483309757921895653e+03
1.982797333953174530e+03
2.557363488898027754e+03
2.655314127426507639e+03
1.827500214518615394e+03
1.405153902140514901e+03
2.074729363213062243e+03
2.513039524668695776e+03
2.519990062150623999e+03
7.486456981631228018e+02
-2.733304426045245691e+03
-4.025066110926996771e+03
-2.186612696095896354e+03
1.051216217939093667e+03
6.360378560293218015e+02
-1.626543708054606441e+03
-1.317379246621235289e+01
2.275314707854211520e+03
-3.531158098224998412e+02
-7.122926887482875600e+02
1.579515227238103307e+03
-2.015355471657868520e+02
1.862457234625882165e+03
2.134694726440949125e+03
1.863176312885329935e+03
-9.474911181611576012e+02
-3.721963901794898902e+03
-2.255261297325594569e+03
-9.448331216078727266e+02
-2.332552999546443061e+03
-2.122158260749662077e+03
-1.941021570669939138e+03
-9.191731606797773111e+02
-5.025442382234564320e+03
-4.473848523289860168e+03
-2.443615420004070074e+03
-1.785531361874725917e+03
-1.046763091496827656e+03
1.264519872263207617e+03
1.334904652766047320e+03
-6.745413089789931291e+02
-2.104888385928833031e+03
-2.483474492630249188e+03
4.406617790572574336e+02
1.240691054765769650e+03
1.216390880270142134e+03
1.203224094739894554e+03
1.319773488864403362e+03
9.100633659777978437e+02
4.869076335201951338e+02
6.056931595767722456e+02
7.392637344553129424e+02
6.937571553452212356e+02
1.092045663442937212e+03
1.018815931879591403e+03
8.096508509226177921e+02
9.543506361870314549e+02
8.991509664811542279e+02
1.253762565951484476e+03
1.064322823842789376e+03
8.943794375309266798e+02
8.867335170195499359e+02
9.953925999308404471e+02
1.214303876186996604e+03
7.357081229522391368e+02
4.178215281459349058e+02
1.743844470834583547e+02
-3.701525918991916910e+02
-6.570923643613157310e+02
-7.441262489944865592e+02
-6.051627557227027410e+02
-6.993457564680081759e+02
-7.765573138768106674e+02
-1.367073595395504753e+03
-3.375607266922198960e+03
-1.916235846623688076e+03
-7.057615938050759041e+02
-3.359851097832161031e+02
-9.508783169366583365e+01
-2.055697123042536134e+02
2.888296936605053133e+01
8.252493227384977104e+01
-1.731088092261852651e+01
-2.451508666226182527e+02
-4.240987521186069102e+02
-9.403374843236683773e+02
-1.210233803646178330e+03
-1.299930792614750317e+03
-1.133449260289469521e+03
-1.044322952343663701e+03
-7.607130056843782313e+02
-7.261627929789045766e+02
-6.982135568124758720e+02
-4.415722210737201436e+01
1.259248760473633695e+02
-1.311041808513799936e+02
8.789117690831480445e+01
3.045815732867861811e+02
7.494720984777050035e+02
6.349400530625214287e+02
7.698522822254343509e+02
8.170848176741596944e+02
7.635724835664241255e+02
7.762835485674554548e+02
4.224510939711462356e+02
4.725768651733355341e+02
9.095700907116759026e+02
5.661993657195993137e+02
5.237390627812514765e+01
8.083475756321588435e+00
1.944943528033186553e+01
1.571829581890368388e+02
4.598299325588812962e+02
4.484934376006614229e+02
1.065578832513488123e+02
6.983213494357622722e+02
1.591937454837609948e+03
2.087547149865289157e+03
1.818291229157878206e+03
1.467944676998734622e+03
1.648525061637046520e+03
1.496494404459717543e+03
1.461106778868187803e+03
1.638120280535889378e+03
1.647885021369834703e+03
1.446405348518190067e+03
7.569998320427380349e+02
-1.353840123530973187e+03
-4.655905777507819948e+03
-7.654275706000292303e+03
-7.417188007679547809e+03
-6.566844507446367970e+03
-5.985138435173048492e+03
-5.828215473545751593e+03
-5.699843422172819373e+03
-5.293826208813988160e+03
-5.279245475476362117e+03
-4.442571980079250352e+03
-3.839679024568288696e+03
-1.543760370340605277e+03
8.218341316716439451e+02
2.550071009593218150e+03
3.045734317327402550e+03
3.045014771962844861e+03
2.977978017212855775e+03
2.926548296882586328e+03
2.662886026048098756e+03
2.447995219213370092e+03
2.734722347598774377e+03
2.938243044339292283e+03
2.900745254561311413e+03
3.153112954775524940e+03
2.651146637261240812e+03
2.618086995568139628e+03
2.982055405264535239e+03
3.347932166277359102e+03
3.203783210728195627e+03
3.180588529053466118e+03
3.056431714258198099e+03
3.250380754324221016e+03
2.910432701215349880e+03
2.750592251211866369e+03
2.514794875425189730e+03
2.607070603371227207e+03
2.238508106729913834e+03
1.358277875598978426e+03
4.803770791297075107e+02
8.636833231299739282e+02
1.104293747964402655e+03
7.773238484779136570e+02
8.839440206526710426e+02
1.012179522185729866e+03
9.419482333488806489e+02
5.269815997400746710e+02
5.040302786921632219e+02
1.262442493382501425e+03
1.305944265543145320e+03
1.486295997223875474e+03
1.785584940337884973e+03
1.823144253653629903e+03
1.612170138323227093e+03
1.431628008471364865e+03
1.311390257382097388e+03
1.109514266119186914e+03
1.269083945597994898e+03
9.759963137277113674e+02
5.051111389004581724e+02
3.644656541938461487e+02
5.162347204170795294e+02
4.834213532567283096e+02
4.598421044707658325e+02
-2.741352138080069878e+01
-3.612829004573130476e+01
3.363621898027265615e+02
8.139963022178134224e+02
1.440044098922963030e+03
1.529462754247109160e+03
1.550138705963888924e+03
9.771901393442525432e+02
1.068741101564954079e+03
1.475743136507544705e+03
6.439220671290214568e+02
-1.427568098409282811e+03
-4.395126949779939423e+03
-7.328057841650246701e+03
-7.670224670358747062e+03
-7.882805569127404851e+03
-7.919034659333629861e+03
-7.726807145678962115e+03
-7.454042445303452951e+03
-2.428754686311237492e+03
9.690574223353515890e+02
-1.722608780925012297e+03
-6.871650332849482766e+03
-2.920962028108347113e+03
-2.375299599382018414e+02
-5.239304378714712584e+03
-7.226242023990255802e+03
-6.413480317526469662e+03
-5.388142690592112558e+03
-4.408278801410775486e+03
-3.270683131005368068e+03
-8.523003288895575906e+02
-3.713165499490864477e+03
-6.094273734943161799e+03
-6.581492089055220276e+03
-6.522928026033749120e+03
-7.049644927788418499e+03
-6.561542971795719495e+03
-5.038577661177572736e+03
-4.320736169643528228e+03
-4.286031969364902579e+03
-4.503487669166837804e+03
-6.135023765204905430e+03
-6.882559014620311245e+03
-5.333120750935931937e+03
-1.653632537864694541e+03
3.300986809046763028e+03
2.449757957631792124e+03
-4.893350487629100485e+02
-7.493434384803922512e+02
1.908307816978175993e+02
1.558265609447237694e+03
3.321950237790870233e+03
2.566898515563611454e+03
1.263165312333404472e+03
1.305707335818355887e+03
2.136610917322986097e+03
2.121992229113984195e+03
2.395933331536573860e+03
2.266458070616068198e+03
2.251497484517905832e+03
2.546859578909793527e+03
2.652621569136134440e+03
2.748821492914300961e+03
2.556491374586405527e+03
2.522747878159152151e+03
2.788607040515023982e+03
2.864053021369789349e+03
3.079094361135056261e+03
2.900735690538341260e+03
2.827982429457375474e+03
2.843768458290885064e+03
2.700157469801842126e+03
2.984466409773362557e+03
1.432884875516374905e+03
7.061251482749861452e+02
1.099555666153888751e+03
1.142175290923639068e+03
1.919773555956692235e+03
2.438246932625879253e+03
2.336821651705233762e+03
1.919724948807930787e+03
1.878977946558248959e+03
1.321286057060953908e+03
1.414815287956844031e+03
1.393369756108367028e+03
6.556103832783230700e+02
7.467074484359026201e+02
2.877656562208767355e+02
1.389660412209147466e+02
-9.548348420916423152e+01
-2.881338116843678563e+02
8.566982756270489290e+02
1.016430648266457979e+03
1.665914170868443080e+03
2.404476189301208706e+03
2.310285643249547320e+03
2.615385271958325120e+03
2.755697284453722204e+03
2.389613309572494018e+03
1.645801014646408930e+03
1.240234693911787872e+03
3.931682777056876716e+02
1.063261765867255662e+02
8.825420939787481984e+02
1.178815427382332928e+03
1.498257567070658297e+03
1.927868246494767845e+03
1.972562428635457081e+03
2.069032246185158783e+03
1.544388131788318333e+03
1.431679566129388604e+03
1.174889318956220450e+03
4.290121243085796436e+02
4.000310497590130581e+02
6.759424606481810542e+02
3.806782154876158870e+02
6.917777371414592835e+01
2.155010736811971697e+02
4.745899752724894824e+02
1.874553430443067157e+02
1.410886960013446583e+02
3.354471184648788835e+02
4.455421547150256742e+02
1.133307068146749543e+03
8.757902617019939271e+02
6.169890711721699290e+02
1.132872838240724150e+03
1.513398481689052687e+03
1.644514528010428194e+03
1.998233206538008289e+03
2.008525995823813901e+03
1.318345539238022411e+03
8.577187150444651706e+02
-3.633716629447865785e+02
-3.212985419056878072e+03
-8.238210486589337961e+03
-8.962033321235883705e+03
-3.977484260460747919e+03
-1.108620634952523005e+03
-3.034152982209404399e+03
-8.125334070400739620e+03
-8.635256997784403211e+03
-7.321949324722733763e+03
-6.761394121548049952e+03
-6.401595245876323133e+03
-7.162632227458439957e+03
-7.003493908357166220e+03
-7.039198245998565653e+03
-7.145778313690536379e+03
-5.467237928863677553e+03
-1.171572822640013101e+03
-3.998849852852727054e+03
-1.104110543963680129e+03
9.276189221793418938e+02
1.315309460808238327e+03
2.099259522731065886e+02
-1.105537505933166358e+02
7.888232886094899641e+02
8.090045497381089490e+02
