-5.190895085543577807e+03
-5.422839877549421544e+03
-5.831333585974332891e+03
-6.019439884686187725e+03
-5.017131938129776245e+03
-4.048572113825890028e+03
-4.050099995636615859e+03
-3.906900333807958759e+03
-3.558124643142934019e+03
-3.150965422056198804e+03
-3.348726685452219954e+03
-3.779460847437200755e+03
-3.297665444162057611e+03
-3.312615775447698070e+03
-3.818525497040243863e+03
-4.718550348377058071e+03
-5.295772871327212670e+03
-4.861473013663593520e+03
-4.566781757249088514e+03
-4.710927642430861852e+03
-4.981197087419755007e+03
-5.234660781816452982e+03
-5.015382528515237027e+03
-4.314640514312480263e+03
-3.809718784456260892e+03
-3.640744839805315223e+03
-3.476867893410369106e+03
-2.763092388640052377e+03
-1.842569642994913238e+03
-8.914437649632408238e+02
-4.738380009830771087e+02
-4.909734880592856143e+02
-6.828977405234354592e+02
-6.927834635221685176e+02
-8.577316770692692671e+02
-1.431976660855683804e+03
-3.334899791543116862e+03
-6.540514534960782839e+03
-9.002893327929934458e+03
-8.905142406109596777e+03
-9.002316013931347698e+03
-9.155668086801604659e+03
-8.272512855526389103e+03
-7.340796956870414760e+03
-6.187460840143523455e+03
-5.665619501694398423e+03
-4.966330762504292579e+03
-3.781540154669789899e+03
1.255754161515491433e+03
4.896404345261173148e+03
3.338414757159687269e+03
-1.261421468067193928e+03
-2.157970135771945024e+03
-2.282348052807847580e+03
4.544208214836608022e+02
-1.837242869841963113e+02
-3.267018487616744551e+03
-3.329427285296267200e+03
-3.093850923738170422e+03
-3.182339618780564706e+03
-3.307885523829108479e+03
-1.737328487549935062e+03
3.450274323319018549e+03
5.066001970894902115e+03
5.944892323497433608e+03
7.020032813228081977e+03
7.738461691281528147e+03
8.003208116731066184e+03
8.550348163353131895e+03
9.324069058889455846e+03
9.699479666977922534e+03
9.652534020567447442e+03
9.516488191063352133e+03
9.288420258097532496e+03
8.584285744001337662e+03
7.665195879862269067e+03
6.854248072776792469e+03
6.254428750086588479e+03
5.675777293871880829e+03
5.471494879886065064e+03
5.405725805268733893e+03
4.857555286804679781e+03
4.494021058323185571e+03
4.684265244335231728e+03
5.400470333507222676e+03
5.818669823685883784e+03
6.331035709405456146e+03
6.460704830443533865e+03
6.588793383571485720e+03
6.598519693996759997e+03
6.897042739318484564e+03
6.725500389983842069e+03
5.921826383967182664e+03
5.031018054043459415e+03
4.832220977184229014e+03
4.156500723004816791e+03
2.989100643867468079e+03
2.254145271491740004e+03
1.996708931244837913e+03
1.666769977146047495e+03
1.103434320233581730e+03
6.719358148870693412e+02
3.011679813869322402e+02
-1.030727296212550783e+02
4.183155612039120683e+02
5.678626976178545647e+02
2.689722329943301133e+02
2.596403080920165394e+02
1.299808746152566300e+03
1.563619030193249273e+03
1.104203935517094123e+03
1.036571681316079548e+03
1.214722357446547676e+03
1.149450549391759068e+03
4.608324897569286804e+02
-1.492041901774534267e+02
-3.465706841667265508e+02
1.876912829874835325e+02
-4.475408780646669697e+02
-1.308203990840429014e+03
-1.770262074739411219e+03
-2.125691838023602486e+03
-2.211418670536661011e+03
-2.015439927224284702e+03
-1.690798501479820743e+03
-1.948418954966280126e+03
-2.032295167018949769e+03
-1.760519744595688280e+03
2.259371489205725538e+02
1.672153639947293414e+03
1.870102764632612661e+03
1.326728860417055103e+03
1.140047675979063087e+02
-7.261141530192045366e+02
-9.736605376584218448e+02
-1.856712971639297621e+03
-1.286366421331092624e+03
-4.807171584819678856e+02
-5.727972749235367473e+02
-2.518698271263115203e+03
-4.484545326819308684e+03
-4.365375281319104033e+03
-3.523274185038240830e+03
-3.068306473948114672e+03
-3.207570130734670329e+03
-2.680156044645326801e+03
-5.051601741242999424e+02
2.803469997718726177e+02
1.296140050366203722e+00
-3.113552938219077078e+02
-3.596971023450563507e+02
3.331547200011842165e+02
1.123104716257691507e+03
1.257022444785543257e+03
5.388716866486128083e+02
-7.655999081796099972e+02
-2.976506237244615932e+03
-4.126975677696806088e+03
-3.416205114271043385e+03
-3.329350670857023488e+03
-3.088488957090941312e+03
-2.343730570147809885e+03
-1.538246993169772622e+03
-7.961653668511756905e+02
-1.020583028399844579e+03
-1.001698348739049720e+03
-6.145512323276666393e+02
7.681371504652094018e+01
7.142632206577691250e+02
1.620667599649962312e+03
2.026931387259816802e+03
1.167754753912150591e+03
-1.619316997419333291e+02
-4.591305530165295750e+02
9.493437938482094296e+01
6.141588295130964070e+02
-1.004611400057338528e+03
-3.264414782744802778e+03
-9.932753190025291588e+02
-8.313541294019785255e+02
-1.462915724922709160e+03
-1.889684926533749149e+03
-1.512937032879230628e+03
-9.446112909968649092e+02
-1.718638684196339170e+02
3.270438923782402867e+02
5.526048992317437580e+01
9.254921806077227586e+01
6.089882764903840098e+02
2.749366508548500406e+03
4.005588179543567094e+03
4.329730116300204827e+03
5.180872631732547234e+03
4.306770764094744663e+03
2.603017286756135036e+03
9.328507387715090999e+02
-7.336716406472826293e+02
-1.038618360715871631e+03
-1.108412869265814152e+03
-1.271757571113394533e+03
-1.588645294966092479e+03
-1.721190462786449416e+03
-1.805895179098219614e+03
-1.179482898980321124e+03
6.993888891873634748e+02
2.007003032611490198e+03
2.146979677016901860e+03
1.854754959248823297e+03
2.140170903774954695e+03
2.729099428015787453e+03
3.154305806705177474e+03
3.896354713065841679e+03
4.733791553726814527e+03
4.299803897648375823e+03
3.559578097703464209e+03
1.844586549011675515e+03
6.029014061736609165e+02
5.920984019244858700e+02
5.201149172256685915e+02
9.194525125015894673e+01
1.144619618658406068e+01
1.207339638806303128e+01
2.466146904233662553e+02
8.742160661858424646e+02
1.117274855502779019e+03
1.482914684487990371e+03
2.254907955807264898e+03
2.553019202259382837e+03
1.996363063382820201e+03
7.012188942763312980e+02
-1.672928529454735781e+03
-4.078971999413039157e+03
-4.584068279810657259e+03
-4.769284271331027412e+03
-4.808616829196276740e+03
-4.122921697074955773e+03
-4.771869943628826150e+03
-5.495211572013135992e+03
-5.642888271113372866e+03
-6.700513410025865596e+03
-5.693653796918692933e+03
-6.036045211999527965e+03
-6.137201371588365873e+03
-6.854189997721484360e+03
-6.056735796842226591e+03
-3.483883927217495511e+03
-5.726015652024409974e+03
-5.684072503686775235e+03
-2.770859170416950747e+03
-1.010068509352113551e+03
-5.573186802038395626e+02
-5.564103816657469679e+02
-7.580233519177563721e+02
-1.303673111632684595e+03
-2.299699790821518093e+02
3.815577218147433541e+03
1.045166763022411487e+03
-5.012015953310613440e+03
-6.050689746121530334e+03
-5.755453387619079876e+03
-4.751196929022321456e+03
-2.227969182060975982e+03
-1.059747567911615988e+03
-4.987827169722163489e+03
-6.041869431523266030e+03
-4.957600676280188054e+03
-1.837479323301232398e+03
4.231713974002041141e+03
6.144138497777793418e+03
6.515501933734136401e+03
6.740787478199361431e+03
6.735920677616983994e+03
6.644209492707055688e+03
6.417954807608820374e+03
6.124254892750353065e+03
5.461590564893262126e+03
4.483954452796381702e+03
3.514997877785640867e+03
3.437117599085407164e+03
2.946214812680822888e+03
2.686076415546108819e+03
2.625662969625234382e+03
2.016983729374975610e+03
2.185031729778768749e+03
2.467798231183764983e+03
3.150271324217109395e+03
3.633397207130831248e+03
4.428141296854987559e+03
5.252543468120929901e+03
5.252148193452539090e+03
5.630178939574713695e+03
6.281697779583839292e+03
5.873884542014613544e+03
5.075946493439791993e+03
4.243964900067664530e+03
3.634043384930546836e+03
3.788000551971334971e+03
2.920290268761802963e+03
1.027040587145309246e+03
1.927489415794209435e+02
-1.457815688021427647e+01
3.533580630870921482e+02
7.412335324184659839e+02
6.983755293310588286e+02
4.811396574142247573e+02
9.892534254967996503e+02
1.028819288592139628e+03
1.365658018813452600e+03
2.469915529680403324e+03
2.959414718951615214e+03
3.696454741596610347e+03
4.133040675471520444e+03
3.681928209375163533e+03
3.042821348137155837e+03
2.568692982037345701e+03
1.397793515001225842e+03
2.731932584707948877e+02
-1.285719725096249704e+02
-2.212381081331589030e+02
-4.989224783923231712e+02
-9.963662515330279348e+02
-1.409892965261725067e+03
-1.682974901340611723e+03
-1.684082663941400824e+03
-1.699327487834783824e+03
-1.576839158985660788e+03
-6.794537525891413452e+02
-4.401577164169864886e+02
5.328701428772359350e+01
7.868748775445046704e+02
1.271235325572715965e+03
1.215550288683517692e+03
1.019202836785171030e+03
2.565934447170304225e+02
-5.030947458568509205e+02
-1.083632243421855264e+03
-1.720404743174373380e+03
-2.456432225633989674e+03
-3.431994394414261478e+03
-3.671662226581208415e+03
-3.594932731372735816e+03
-4.168889910699665961e+03
-4.833585468308877353e+03
-5.406335603265729333e+03
-5.391994689590172129e+03
-4.484977691547433096e+03
-3.915221471264831962e+03
-3.120809922464361080e+03
-2.720070565892779086e+03
-2.713084369071417314e+03
-2.629902951335533544e+03
-2.788269086387107563e+03
-2.402137101686440474e+03
-2.457351581579337108e+03
-3.147805962257177271e+03
-4.488764861135166939e+03
-5.268768753295144961e+03
-5.722630737214958572e+03
-7.499499393588098428e+03
-1.041938219246194058e+04
-1.422870110573747661e+04
-1.505252813915607658e+04
-1.507269090430071083e+04
-1.422901914725722418e+04
-1.415773557306796283e+04
-1.421326803581362037e+04
-1.360390875941616105e+04
-1.284726274454421946e+04
-1.198700454471234116e+04
-9.549762477706606660e+03
-5.490415817586223056e+03
-3.833774836969807893e+03
-3.486397619687005772e+03
-3.359815615154151146e+03
-4.069663524473623511e+03
-5.045735503282651734e+03
-5.856120572866322618e+03
-6.397380726513402806e+03
-6.615075032839419691e+03
-7.113794985802829615e+03
-7.863146937566941233e+03
-7.774567650908344149e+03
-6.868635828667277565e+03
-6.876579301706455226e+03
-6.919219752004863949e+03
-6.168390692337539804e+03
-5.526570393925571807e+03
-4.945290761837359241e+03
-4.258150315434050754e+03
-3.778901840960964364e+03
-3.134264979862699875e+03
-2.700007154390641972e+03
-2.537782141356562079e+03
-2.793546756759298205e+03
-3.019045034626731194e+03
-3.146818831198414500e+03
-3.635675541563344723e+03
-3.919074281653736762e+03
-4.355892983514945627e+03
-4.378100234188370450e+03
-4.547351427175038225e+03
-4.796552852922477541e+03
-4.641076919489079046e+03
-4.480917741318007756e+03
-3.912084284449502320e+03
-3.352395360708434964e+03
-2.724440929504649375e+03
-1.696159642988501901e+03
-4.707735792790712708e+02
3.987057451982396401e+02
1.763272449621625128e+03
2.261781527106217254e+03
2.828012148018572589e+03
3.408919207248082330e+03
3.477324456894777086e+03
3.136966857110117417e+03
2.748974230386696490e+03
2.344174847431351736e+03
2.430979403781701421e+03
2.276141223672062551e+03
2.605533862691642298e+03
2.267744918095156663e+03
2.609473398129820907e+03
3.475536126548735865e+03
4.387710409638597412e+03
5.674835032287615832e+03
6.839525365398009853e+03
7.393168020515719945e+03
8.225217283765723550e+03
9.294233535199424296e+03
1.027174226495575567e+04
1.063926126251041751e+04
1.051228768833844333e+04
9.195413440309925136e+03
6.278277102413663670e+03
3.901046169410903985e+03
4.431170299094848815e+03
4.943112156472267088e+03
5.050288860168731844e+03
6.280127228655147519e+03
7.636978059909081821e+03
8.701129150774768277e+03
9.874860786798666595e+03
1.050560552516478674e+04
1.116966777091640142e+04
1.159039380420172711e+04
1.190797129229579514e+04
1.255179303315916695e+04
1.644118072786413541e+04
1.727528735816232074e+04
1.413847626311908789e+04
1.285410073756246675e+04
1.178347512868573540e+04
1.058782956375570029e+04
7.527324368717427205e+03
2.781194216133066675e+03
-1.264285108515004367e+03
-4.864863661645760658e+03
-3.303399564892825310e+03
-1.757133311237165572e+02
1.636923307289573160e+01
4.879747097235402862e+02
5.759271270977963468e+03
1.095561941280267456e+04
1.523232639853491673e+04
1.776158414184975481e+04
1.512557500950805843e+04
8.521581944836365437e+03
3.198875289337910090e+03
1.015801061041575963e+03
1.205714962344955666e+03
7.793904736116533059e+03
1.432277321451497482e+04
1.826864159802862923e+04
2.164782793422669783e+04
2.908266444196231532e+04
3.480646995111677097e+04
3.431759851242267177e+04
2.998344388809059456e+04
2.616639091112239839e+04
2.681479759889345587e+04
2.880114316038695688e+04
2.770490116890303034e+04
2.234354146212064370e+04
1.600065834992342025e+04
1.175187972098737191e+04
1.247583878617132723e+04
1.420627936828177553e+04
1.315290702106972640e+04
9.607274730548380830e+03
4.233942629204174409e+03
-1.187397369836449798e+03
-4.186032606244434646e+03
-5.288177118862877251e+03
-6.673006098401063355e+03
-3.352696561220086551e+03
6.603596481921385930e+03
2.256134583958475559e+04
3.615782729615899007e+04
3.878506314378857496e+04
3.070581838566669103e+04
1.899046950915762136e+04
1.209304802582712182e+04
3.332573894192521038e+03
-5.101817610159631840e+03
-1.300256174024119900e+04
-1.858632395545854524e+04
-2.396182882782918387e+04
-2.744280775231219741e+04
-2.501176297146076467e+04
-1.672968849710534414e+04
-1.391299213210926064e+04
-2.240276886821937660e+04
-3.145019151324017366e+04
-3.997450128058537666e+04
-4.609547682090985472e+04
-5.295152151635014161e+04
-6.180840666464820242e+04
-5.864968565434776974e+04
-4.569183608682912018e+04
-3.891155281578545691e+04
-4.093655291309985478e+04
-3.574303121447465674e+04
-1.183363300696488113e+04
6.469185703829259182e+03
-2.477552355148421157e+03
-1.482803873047707566e+04
-1.785244161512100982e+04
-1.788388095830934617e+04
-1.325846904048810575e+04
-1.933226330613587925e+04
-3.491134042131366732e+04
-5.583572797977286245e+04
-5.898143453734640207e+04
-4.253543230577675422e+04
-2.193475106584694004e+04
2.755648506757303949e+03
2.001176697105032144e+04
2.820463405114196576e+04
3.957938803487806581e+04
4.106102532914363837e+04
2.930968380583486578e+04
1.423146908114666985e+04
9.075530772433434322e+03
3.050947096938437426e+03
-1.130613881143946310e+04
-2.616850200945028337e+04
-2.975096407586440182e+04
-3.211032274836734359e+04
-3.380236143872272805e+04
-3.686086884804735018e+04
-3.909463313988931623e+04
-2.703649000263238486e+04
-3.413832965473999502e+04
-5.618293361307837768e+04
-7.618406334178127872e+04
-7.226658203317047446e+04
-6.220836024426665244e+04
-5.434928976603069896e+04
-3.877016271689133282e+04
-1.211994949258232191e+04
2.440039038775837616e+04
5.908921335347764398e+04
6.719362994566698035e+04
6.152363487060087209e+04
4.088620219400620408e+04
1.970246228044076997e+04
-3.833514602074466438e+03
-2.684169446216260258e+04
-2.029690380041840399e+04
5.548863450946863850e+03
1.371149576488641287e+04
-4.593921583499884036e+03
-5.948369264321067021e+03
1.296692528059487631e+04
1.125370782035329830e+04
-5.368121567106560178e+03
-3.181667487771009291e+03
7.433880680339755600e+03
-1.267784818918346900e+03
-1.539997102392477973e+04
-2.142991144818082103e+04
-1.264288994580602230e+04
-2.346296827762388602e+03
-1.738517503682106963e+03
-2.320927801206094045e+03
-9.992994181170557567e+03
-4.550198526288126232e+03
6.318052238550294533e+03
1.005420943382265432e+04
1.621775504344495312e+04
1.117908252431196161e+04
2.725756039004141712e+04
4.649451804669151898e+04
5.045522190250546555e+04
4.565791399941670534e+04
4.576971560690754268e+04
5.845078302076862019e+04
7.225830517790338490e+04
8.403837887127055728e+04
8.457502099640655797e+04
7.722919688396702986e+04
6.636181767573273100e+04
4.900781207464080217e+04
3.325605446535073861e+04
2.266850997491177259e+04
1.959898223069007145e+04
1.696617992423924443e+04
1.034290984550463145e+04
1.468684970295396124e+04
1.880265600732992971e+04
1.726808071268214553e+04
1.845178496361458383e+04
1.884826207579383845e+04
1.358503132223214743e+04
1.771769495269642357e+04
2.783873320849327865e+04
3.740358535837010277e+04
4.848149611224491673e+04
4.648494176233252074e+04
3.719422872793921124e+04
3.113674492775931503e+04
2.914974849842038020e+04
2.761247058093289888e+04
2.682708859679958914e+04
2.760979546416857920e+04
2.613881150066094051e+04
2.215595491441693594e+04
1.933025783714312638e+04
1.885283224857395544e+04
2.045574167205037884e+04
2.017212674033483563e+04
1.394704185256658639e+04
8.516440057929714385e+03
3.899274698540325062e+03
1.144773429022081075e+02
-2.686979420598907382e+03
-1.768185855971201590e+03
1.081714936099385795e+03
-2.275439463858840554e+03
-7.363698349044148927e+03
-1.296316863471627948e+04
-1.634607186937995903e+04
-1.865851308819958649e+04
-2.019166688506043283e+04
-2.301867851420845909e+04
-2.577268339180630937e+04
-2.861987190264010133e+04
-3.120142789567351429e+04
-3.526350903142987954e+04
-3.912418429592505709e+04
-4.099860466417505086e+04
-4.558196155775655643e+04
-4.654041089089924935e+04
-4.604015902189458575e+04
-4.591836956726729113e+04
-4.266825644664272841e+04
-3.920994374944091396e+04
-4.068459620592732244e+04
-4.129137248137706774e+04
-4.424036035588216328e+04
-4.721974403474968858e+04
-4.560161811379356368e+04
-4.251507743905790994e+04
-4.073628959662548004e+04
-3.788733139064135321e+04
-3.423322625332701864e+04
-3.175605187166540054e+04
-3.155973620462422696e+04
-3.204627464520735521e+04
-3.282170600036465476e+04
-3.355396733511171624e+04
-3.086589849325456453e+04
-2.703147884857707686e+04
-2.708260968911675081e+04
-2.726817749685440867e+04
-2.571301453587425203e+04
-2.703801180653168558e+04
-2.890997453994727039e+04
-2.924170888468486373e+04
-2.784304890665043422e+04
-2.335880253540154445e+04
-1.744465655128729122e+04
-1.366131103698312836e+04
-1.250334028687926548e+04
-1.225838302776697128e+04
-1.162411095083838700e+04
-1.024513342205951813e+04
-8.829864211225696636e+03
-8.453778181872365167e+03
-7.172419496281047032e+03
-4.871130217025175625e+03
-4.094128303876745122e+03
-3.801804401690862960e+03
-3.523588218803448854e+03
-2.049803521860185356e+03
-4.758019310436529850e+02
5.820485672467049199e+02
4.914732605509586847e+02
6.121997642564105035e+02
4.630571655279703123e+02
1.067871735858951297e+03
2.104568656678796742e+03
4.113012420234840647e+03
6.148167798034784028e+03
7.476814102633751645e+03
8.348845680928350703e+03
9.240382945867726448e+03
1.057064405604537023e+04
1.130473502885827838e+04
1.209178408059341018e+04
1.306809435492793637e+04
1.460196148558451205e+04
1.642360531930322759e+04
1.745221494977354450e+04
1.790059798143963417e+04
1.839385294627219264e+04
1.914565857481391868e+04
1.881281924183402953e+04
1.890577384845915731e+04
1.931003013089450906e+04
1.952915754577862026e+04
1.909774504755226735e+04
1.868536245385255825e+04
1.856853464547309341e+04
1.963391598435691776e+04
2.049182650632017248e+04
2.079762431948418453e+04
2.096435865986171120e+04
2.116439212447316459e+04
2.231204399231101343e+04
2.339768949928955044e+04
2.358741454153218001e+04
2.371073479504474017e+04
2.384968275607293253e+04
2.384113734096306871e+04
2.324469173877887442e+04
2.248660060559476187e+04
2.167025137959750282e+04
2.080946842405352436e+04
2.037732675070813639e+04
2.002065872920227775e+04
1.938802968256265376e+04
1.901570156231332294e+04
1.910315913868595453e+04
1.968521599591860650e+04
1.915976512491624089e+04
1.861773438081919812e+04
1.875384281680803906e+04
1.797764051114970061e+04
1.740168885813232191e+04
1.745756955341470893e+04
1.646543898609651660e+04
1.174128358995907365e+04
9.740548590567044812e+03
8.727546461849171465e+03
3.674366985368757923e+03
4.518488275877495653e+03
8.275987367002217070e+03
7.141261523958760336e+03
8.662229475170657679e+03
6.177744415482839941e+03
4.987588014023468531e+03
3.544279455560762017e+03
1.885501020182884986e+03
3.033722698247385324e+03
-1.760128651439208625e+02
1.576301008442161447e+03
1.387579829435969714e+03
-3.166048586886683935e+01
-2.015676905142500800e+03
-3.318894457267014332e+03
-1.914857638169479742e+03
-3.304835706882686736e+03
-4.317094229798227389e+03
-7.490137666709714722e+03
-7.653453674604802472e+03
-1.062629622647148972e+04
-1.004961344351661137e+04
-1.144258998940218407e+04
-1.124760618739833262e+04
-1.071227219967054771e+04
-1.118116119007985071e+04
-1.166737060531890165e+04
-1.200906371368360669e+04
-1.231109472656148318e+04
-1.220348319008179533e+04
-1.214794337338940204e+04
-1.218220411391653943e+04
-1.241518454173286045e+04
-1.235375367570999151e+04
-1.190432777636968058e+04
-1.163631480884907796e+04
-1.173313988583724677e+04
-1.209836789787628004e+04
-1.236146922237725630e+04
-1.325965411504013355e+04
-1.373190712182121024e+04
-1.391889019593074227e+04
-1.392586383967434631e+04
-1.432017834688094445e+04
-1.468533397780467203e+04
-1.504220562311585127e+04
-1.487527581855468452e+04
-1.379108162593735688e+04
-1.302751186947800124e+04
-1.226141622060770715e+04
-1.116758664608249273e+04
-1.003588276543714528e+04
-8.883527185354349058e+03
-8.164626503518907157e+03
-7.985471610087757654e+03
-7.548800763728385391e+03
-7.054226855596107271e+03
-6.587288091461697149e+03
-5.123936824798996895e+03
-5.462050260538114344e+03
-7.654841800826045073e+03
-6.320744620753954223e+03
-5.189250268612047876e+03
-4.980642263293565520e+03
-5.369693896722228601e+03
-5.574040006814611843e+03
-5.256025178425213198e+03
-5.179869708955989154e+03
-3.937480337632608553e+03
-2.717745898920887612e+03
-2.552283833749014320e+03
-1.586920021557963764e+03
5.594808045169233992e+02
1.856850862408827879e+03
1.704541206834023342e+03
1.782082719244799364e+03
2.385537174343537117e+03
3.157488885894115356e+03
2.918092492832080552e+03
2.017852002301710854e+03
1.491357966689302884e+03
1.347057607259441966e+03
1.454738712789813690e+03
7.980332484688008208e+02
7.545785965762812566e+02
7.154872091517989929e+02
3.853885469110737745e+02
8.343134131285037256e+02
1.074678801229552846e+03
1.430861047345188808e+03
1.736504964714529024e+03
2.387463538620517738e+03
3.207964853934703115e+03
3.803400221645748843e+03
4.098717604842288893e+03
3.980583435436851687e+03
4.081626596096016328e+03
4.349747717895814276e+03
4.573540479537340616e+03
4.339813238453884878e+03
3.991391620869055259e+03
3.834072730488644538e+03
3.413349023417729768e+03
3.031967877817972749e+03
3.864075593706098516e+03
4.326542522261842350e+03
3.950807072731603512e+03
4.095861349599876576e+03
4.510113848017568671e+03
4.383773084799247044e+03
5.119813320104360173e+03
5.966618645205003304e+03
6.394884905325648106e+03
7.057649568086555519e+03
7.728356735707103326e+03
6.953292277023190763e+03
4.178861277007586978e+03
1.190761903418743714e+03
-1.134933842390912702e+02
-9.550770788055350522e+02
-1.407308821679193215e+03
-2.226145759807719969e+03
-2.498904587279238967e+03
-2.910762546619594559e+03
-2.882873567016111338e+03
4.735610454999316516e+02
3.140720787907572685e+03
3.684952707719922273e+03
3.683201432040332293e+03
3.608244507186482679e+03
4.035753561589692254e+03
4.649803759725491545e+03
4.796964559373608608e+03
4.814302194089869772e+03
4.762708443525709299e+03
4.791010076930975629e+03
4.183094334458124649e+03
3.523576116164272662e+03
2.934145176691272809e+03
2.279165864730311114e+03
1.715759996899209000e+03
7.889598236487240683e+02
3.025790855920841977e+02
-5.024697830040375379e+02
-9.993873290104028229e+02
-1.250201383337501284e+03
-1.510021406191198366e+03
-2.081048566442834726e+03
-2.788325449245189247e+03
-2.619712062459990648e+03
-2.062300324789755905e+03
-1.509343870166548413e+03
-1.029720970741622068e+03
-8.058605111201785576e+02
-7.470394177732036951e+02
-1.031353233868834650e+03
-1.135255627920186271e+03
-1.675009462537125046e+03
-2.213454161899496739e+03
-2.243961875461161981e+03
-2.671469701786426413e+03
-2.887100706048119719e+03
-2.924420267292186509e+03
-3.559644140299003993e+03
-3.997928144456282098e+03
-4.289629518073194959e+03
-4.442976537652482875e+03
-4.084217042167683758e+03
-3.369465971062244989e+03
-3.158627936477597359e+03
-3.070819112734343435e+03
-2.021316388141468678e+03
-1.740516406243939855e+03
-1.593626903681761178e+03
-1.068542679202481850e+03
-3.884346885897614925e+02
1.533658965761111119e+02
7.675622842435335258e+01
3.694220941376510154e+02
3.602443919402666097e+02
-5.080014329429250779e+02
-6.597941223297337956e+02
-1.015576196560662652e+03
-8.584671365439014608e+02
-4.224485684212437491e+02
-4.945433649496406474e+02
-1.085957934304545233e+03
-5.889250593890197933e+02
-3.447558886494235253e+01
-1.911718418547164447e+03
-5.293809679171976313e+03
-6.923911484558449956e+03
-5.996081765020570856e+03
-5.664339450221581501e+03
-5.477877771439992102e+03
-4.451953742512160716e+03
-3.959554680026647929e+03
-3.722779567818962732e+03
-3.782758206826582864e+03
-3.977484487164066650e+03
-4.233060147191325086e+03
-3.878765774375164256e+03
-3.937557856833713231e+03
-2.934630076250887669e+03
2.048298939863648513e+02
1.948220141798701945e+02
-3.107568045810749936e+03
-3.265366056089034373e+03
-2.936644921255243389e+03
-2.391395217544129991e+03
-1.637600870055175164e+03
-1.395286457890216070e+03
-6.646276081299860152e+02
-1.857428515827594424e+02
2.845077060435409635e+02
1.597225018364910738e+03
6.877336644642895408e+03
7.376782907530799093e+03
1.879643926872194470e+03
-8.780706079967010282e+02
-6.383896177791289119e+02
2.114693576424875573e+03
2.587266782170627721e+03
-8.466408395699918401e+02
-2.053955100911362479e+03
-2.717725223272148469e+03
-2.376990838021270065e+03
4.393329521007582343e+02
4.408450770080877192e+03
5.690450081432560182e+03
5.909315715620349692e+03
6.081063462779866313e+03
6.030835674778239991e+03
6.734701026375173569e+03
7.176741378016808994e+03
7.438095516603176293e+03
7.637916146905631649e+03
6.869213996996177229e+03
5.811081646202907905e+03
5.496650754365910871e+03
5.475003582740790989e+03
5.549073326106785316e+03
5.598872968572002719e+03
5.190477789972822393e+03
4.347336090489642629e+03
3.598529238981867366e+03
3.582156044541299252e+03
3.205360832004321765e+03
3.086197222276315642e+03
3.541778246290966763e+03
2.799250337156126079e+03
6.207987863531661787e+02
-2.025397244602580258e+03
2.645053666072323267e+03
5.745164541130342513e+03
6.320985374954264444e+03
6.382910374275556933e+03
5.897664260459648176e+03
4.686636403683901335e+03
3.137418920853819600e+03
2.602811139804104187e+03
2.858117568854167985e+03
2.905421915762368371e+03
3.209812986037366954e+03
3.123493202043242036e+03
2.152284252864469636e+03
1.311631465616818559e+03
1.194486027959166449e+03
1.745764342591283594e+03
2.486205348231829248e+03
2.443139888807352690e+03
2.436788872686012837e+03
3.404017836323469510e+03
4.043164868965537153e+03
3.789247066013454969e+03
3.526105106291481661e+03
3.747733195845358296e+03
3.930539801209472898e+03
4.113307249682668044e+03
3.876143439520119955e+03
3.283155013513478025e+03
2.491122735599481530e+03
1.841831954271595350e+03
1.391230968949243334e+03
5.493123247482919851e+02
-1.890591098627408684e+01
6.386203612625878350e+02
1.189873978177025037e+03
1.606769691529895226e+03
1.805322660346711473e+03
1.586513953331948187e+03
1.643330165970894086e+03
2.970699377162774454e+03
4.881576873504031937e+03
4.572003152511878397e+03
3.662017530158802401e+03
4.095635122006507572e+03
3.813717020025677357e+03
2.833149435757179162e+03
1.296869669835674813e+03
7.637692379096771447e+02
9.988041933176319844e+02
1.151921593844636845e+03
1.041069151600335772e+03
6.930699310781536724e+02
4.188781759463137178e+02
-1.206572950933795710e+03
-3.012387755740395278e+03
-7.321663881245963239e+03
-7.959418501954071871e+03
-6.705744382720348767e+03
-6.533657757776622930e+03
-6.124188610478362534e+03
-5.261439906758650068e+03
-4.082518711710768002e+03
-3.889596055554852683e+03
-3.271592251990590739e+03
-3.678429010767499676e+03
-3.942378201392486062e+03
-4.343541269867648225e+03
-3.601036166430519188e+03
-4.958907236122809991e+03
-5.113258588066570155e+03
-4.130219062889883389e+03
-8.530815582354282014e+03
-1.110020609707519725e+04
-1.161448775840951384e+04
-1.054861211690051277e+04
-1.001768091760462812e+04
-8.915875148750450535e+03
-6.108203367095634349e+03
-1.151532949300318251e+03
9.220627545924779724e+02
2.124454047469121633e+03
2.888551354359829475e+03
4.270328400571568636e+03
5.255786999045907578e+03
4.929925571316545756e+03
4.432629673006823396e+03
3.355772802962205333e+03
2.228386321625668188e+03
1.395400787915574938e+03
5.857360120200125948e+02
3.733285877244950370e+02
6.201073505284767862e+02
9.060329227559385572e+02
6.770825698841213125e+02
6.252623039679855310e+02
6.675049602418024506e+02
9.827583622447705238e+02
1.511045996701040622e+03
1.960337508519238554e+03
2.122663517601735748e+03
2.605086932431474452e+03
2.594597720484225192e+03
1.238128200447856671e+03
4.636574986346878973e+02
9.682075662535718266e+02
1.974774730800623729e+03
2.582320261747780023e+03
2.488782689552825104e+03
2.672036370518421336e+03
1.566160960101786713e+03
8.823617725343977725e+01
-1.305753135182653978e+03
-2.025864980911253951e+03
-1.781021279697467435e+03
-1.347234263748939156e+03
-1.641552988076239217e+03
-1.547006996065905241e+03
-1.484521217131282583e+03
-6.586951314496400300e+02
1.353317497129263074e+03
2.506372102428449580e+03
2.265008945916740231e+03
1.069284185374153594e+03
2.519952349541920356e+01
1.324776304652451927e+03
2.516010294507965682e+03
2.207924474288097372e+03
8.605608104054961132e+02
-1.226217693344367262e+03
-3.128523943102201883e+03
-3.298131304015845672e+03
-3.090094146651825668e+03
-2.899338059648517628e+03
-3.893933902750387915e+03
-4.973973448406087300e+03
-4.666428942017943882e+03
-2.944264123523170838e+03
-1.596339657684552549e+03
-1.336413288491367666e+03
-1.071512106591030260e+03
-9.015935486653801263e+02
-9.086441717752545628e+02
-1.149587989570070022e+03
-1.281334506627289102e+03
-1.452843673802730109e+03
-1.427038356987213774e+03
-4.269000303646009797e+02
1.845795489560232738e+02
4.433641213281537716e+02
4.855229409976535067e+02
-1.247857404494342063e+03
-2.456750565713901324e+03
-2.419160121208718010e+03
-2.381002625035790970e+03
-2.281259157957024399e+03
-1.998916329032407020e+03
-2.134870253677874643e+03
-2.242120432452521982e+03
-1.546652491911128891e+03
-6.243734898507419757e+02
5.748118634592680110e+02
1.776054977150137347e+03
1.179353983779336431e+03
7.846788303357151335e+02
2.320737651284724450e+02
-1.027503408858656258e+03
-7.150919003714375322e+02
-6.526105159221785925e+02
-1.212041069512075410e+03
-7.162816142891485924e+02
-1.504357254440218185e+03
-3.829383926478145440e+03
-3.678449934420545105e+03
-3.134414952475798145e+03
-4.118191983067914407e+03
-4.468913176653600203e+03
-3.155541966390476318e+03
-1.284001978627940161e+03
9.206488103857321903e+02
3.583355902753796272e+03
4.714215143852934489e+03
2.864381454695203956e+03
2.544807967299017037e+03
3.341422970148340482e+03
4.077172129670456798e+03
3.979984702087835558e+03
3.284962886834626715e+03
2.475122226346510161e+03
2.271376050782126185e+03
1.501648944837544605e+03
