9.787852470155665969e+02
8.804705806574553435e+02
9.237341628576582480e+02
6.965896585654433011e+02
2.110661182573554981e+02
3.432231153541502522e+02
4.461603895476462753e+02
2.499897592833881390e+02
9.798120807738770282e+02
2.593698407439923358e+03
3.672609449043571203e+03
3.840537650203342764e+03
4.399609611603511439e+03
5.341875902584220057e+03
5.329398198622134259e+03
4.415212957379775617e+03
3.187202816005137265e+03
2.001548821678059539e+03
6.203536057988969787e+02
-3.330659793359939727e+02
-8.487636375922679690e+02
-1.268891107443834699e+03
-1.902505990724556113e+03
-1.878824871709990248e+03
-2.189909047334150728e+03
-1.911598386508500653e+03
-6.678486669919103633e+02
9.848201469403807096e+01
1.124983658260099162e+02
2.719595677129315732e+02
1.629854764449178674e+03
2.155778538073395339e+03
2.602522345001357735e+03
2.997770666670567152e+03
3.095941990282031384e+03
3.085396564001916886e+03
2.576286949941234980e+03
2.103086415941738323e+03
1.330602205197049216e+03
2.136894097913286998e+02
-7.338730283522062336e+02
-1.428186252732540879e+03
-1.929288843448327043e+03
-2.154146748948930508e+03
-1.919709690993979166e+03
-1.498958715184609446e+03
-1.370824345086279436e+03
-8.943099811677450361e+02
-6.784172948156209486e+02
-2.080524925545368262e+02
8.018084273826653998e+02
2.069172294446817887e+03
2.540084929754837049e+03
2.545526320338701680e+03
2.216636192394730188e+03
2.105444382726622734e+03
1.875749220696266320e+03
7.515942232839370263e+02
-9.829969818913870085e+02
-1.862129411595062720e+03
-2.596892126262518559e+03
-3.449026549244702437e+03
-3.389627430846352127e+03
-3.690830229559138388e+03
-4.067518497373896025e+03
-2.541638563095931204e+03
-1.097216824005488206e+03
-6.193547905529713944e+02
-1.473478502619242647e+02
7.796759676961931973e+02
1.224752371053129991e+03
1.659916748694503895e+03
2.165132489062248169e+03
2.522471777658309293e+03
2.921006186457490912e+03
2.915783112568136858e+03
1.866719676477178382e+03
2.607469847924756436e+02
-8.341928838309130469e+02
-1.864183616871328468e+03
-2.758315767211860475e+03
-2.803546494449383317e+03
-3.594941342688048280e+03
-6.180616601100392472e+03
-9.197585601206646970e+03
-1.086684371790188743e+04
-1.005842261743578456e+04
-9.089297744039049576e+03
-8.492451455116572106e+03
-7.972883090581941360e+03
-2.631559361685685872e+03
2.156549684424937368e+03
2.284481434684950273e+03
2.753258249912677002e+03
3.132796301265179864e+03
2.990107804411152756e+03
2.029166841134224796e+03
8.698217204003069583e+02
1.550341963860435044e+02
-1.019178567541926441e+03
-1.905826711224828159e+03
-1.769073791675452185e+03
-2.322032602301048428e+03
-2.501683119936754338e+03
-2.215058253877438347e+03
-2.201098385283757125e+03
-2.021787830654799336e+03
-8.240956464037066098e+02
-4.180593607663930698e+02
-1.236717319148837362e+02
1.117063262624704976e+03
2.685190795495919701e+03
4.026726540854649102e+03
4.135701042500195399e+03
4.106130547828062845e+03
4.177044065672052966e+03
3.269423129800537936e+03
2.234230157349876663e+03
1.464406435740819234e+03
8.819262003385017579e+02
2.526953660518871345e+02
-2.573244299885278679e+02
-1.297188208931269401e+03
-1.359873003029489837e+03
-9.633922977495634541e+02
-6.237035836447976180e+02
-6.727418965919925995e+02
-4.665470849049693811e+02
4.969405154358780123e+02
1.076812659729750521e+03
1.566092735654928902e+03
2.663781000081972252e+03
3.460897219326470349e+03
4.282476167061232445e+03
4.151557562547378438e+03
3.651268735733404810e+03
2.980705203747596443e+03
2.017741550842762763e+03
4.673310542832659849e+02
-4.454672889868376160e+02
-8.566701654760209976e+02
-1.376330918346748604e+03
-1.752593261523021511e+03
-1.526379747156448957e+03
-1.708573458754760395e+03
-2.037333748915897104e+03
-9.047013210548161624e+02
-1.866755969574945482e+02
4.657481902767377733e+02
1.088656204442405624e+03
1.804103235733923384e+03
2.986136637310172773e+03
3.953887556130284793e+03
3.892491737244698925e+03
3.559071957193958951e+03
3.076505299402953369e+03
1.260635204762709691e+03
-2.899554986852208913e+03
-3.015765772881489283e+03
-1.806272007352938090e+03
-4.522107430632184332e+03
-2.285179045834626777e+03
-3.903378004350089213e+03
-4.753621414957784509e+03
-3.047881153285833534e+03
-5.164199438879390073e+03
-5.359568850761167596e+03
-5.127133736194371522e+03
-3.567881792165480306e+02
-1.645243703758479342e+03
-4.285619567942846402e+02
-4.507540788337541926e+02
2.385120479766154403e+03
1.393302562406986453e+03
1.427693190788607808e+03
3.900289718218545545e+02
1.494239448379880514e+03
1.943641873190265414e+02
-2.371567510532894175e+03
-2.836620102638413755e+03
-2.004750932801518275e+03
-4.881041813120460574e+03
-2.188381676023499494e+03
-1.976783751530958625e+03
-2.253242436246444413e+03
-4.496727492039992285e+03
-4.527178825524518288e+03
-3.790767176004889734e+03
-3.279633732267414416e+03
-7.964125587984366916e+01
2.642334481691723909e+02
1.460312554218320429e+02
3.340830912996022107e+03
1.658679220922381091e+03
1.825713639903225157e+03
3.902020919811708609e+03
3.673669975253464600e+03
2.362606579536652134e+03
1.351552122924354080e+03
6.175524433551179300e+02
-1.253599740596137622e+02
-1.226272182617062754e+03
-1.627180025796512837e+03
-1.462054249584213949e+03
-6.500270175169854383e+02
-3.382711023701747308e+02
-2.977706190269935291e+02
1.355944528882614293e+02
5.990708906750495544e+02
1.209769076847004271e+03
1.934729941451095556e+03
2.640618632248990252e+03
3.530775973293016705e+03
4.108557816335414827e+03
3.846988236944283926e+03
3.473920401947053506e+03
3.052414968909668914e+03
2.524375383425363452e+03
1.455883436789930329e+03
5.394062019441751090e+02
-9.422546521437669753e+02
-1.472837935707066208e+03
-1.620249836099992535e+03
-1.752310777423066838e+03
-1.644232094914390473e+03
-8.711247464333590642e+02
-4.349446984091250670e+02
-2.319158216651467797e+02
6.201677361313621759e+02
1.296467181404530265e+03
2.430524225781930909e+03
3.401589217744508915e+03
4.130888218052459706e+03
4.351449201945150890e+03
4.206886960206661570e+03
3.885967688627248663e+03
3.874516262855199784e+03
3.468286392943939063e+03
1.925245732930832219e+03
9.343862736028248719e+02
3.286265082975165228e+02
-8.377311986862713411e+01
-4.174175331137711282e+02
-8.833846036359507252e+02
-1.348989878148428261e+03
-1.605578643519798334e+03
-1.428122919251565008e+03
-6.804571058101327026e+02
-1.265072267832594406e+02
6.763537635058686419e+02
2.304900515865172565e+03
4.459202570226596436e+03
5.729384052900650204e+03
5.751477565437709927e+03
5.254587938340197979e+03
5.170702994420013056e+03
4.897620342367620651e+03
3.476415734535682986e+03
2.307065568261406952e+03
1.282394023204954465e+03
-2.345207605103851165e+02
-1.646795336462844716e+03
-2.181610621828946933e+03
-1.972010601228037558e+03
-1.323815720652958134e+03
-2.280920549557907009e+02
7.200469937015587618e+01
3.765605908856193196e+01
2.789350885777320173e+02
6.629490070422812096e+02
1.074710803217018338e+03
1.543164941173053421e+03
4.486347568413257818e+02
-1.298734606015635109e+03
-4.130962197069105059e+03
-4.132210014140076964e+03
-2.995708894132019850e+03
-2.343357002272604404e+03
-3.408057675638897763e+03
-5.842816498261329798e+03
-7.822762009338718599e+03
-8.177831553373451243e+03
-9.405879874558258962e+03
-9.920797593501902156e+03
-9.374703924197396191e+03
-8.787701102516102765e+03
-5.708560509692263622e+03
1.102490256935123170e+03
1.136384056432680836e+03
-1.506719486661353812e+03
1.329428589515712929e+03
-9.961441384377936856e+02
-1.871467423021207878e+03
-1.216415692481612041e+03
-6.938217779946118071e+02
2.573443544540245966e+03
5.203332322581469271e+03
4.254897982355259956e+03
2.558270775854300609e+03
9.147020192878600255e+02
-4.189472524120753860e+02
-1.615032247722267130e+03
-2.848679926585432895e+03
-3.946759178924752632e+03
-4.340273017578862891e+03
-4.239958350964225247e+03
-3.866458972990020357e+03
-3.973806954106273679e+03
-3.995212523864996001e+03
-4.411623020498795086e+03
-3.627988999789535683e+03
-2.046376838119893591e+03
-2.091528730961841120e+03
-2.376218455944865127e+03
-2.844492375128233107e+03
-4.565365017740013172e+03
-5.863565705556999092e+03
-5.101927375063667569e+03
-5.228468245189833397e+03
-6.112266322690039487e+03
-4.693947730574194793e+03
-1.707421094826851458e+03
2.232696417645939164e+03
6.019336213880940704e+03
6.842890770359364979e+03
5.687261090702161709e+03
4.593257109523578038e+03
3.707953056571872366e+03
3.137545958007216541e+03
2.797169434090113555e+03
2.814921710512810023e+03
3.746873916277176704e+03
4.420323323401567905e+03
5.159450428779563481e+03
6.015033623961521698e+03
5.862554297319734360e+03
5.262124695949057241e+03
5.503107174020149614e+03
4.966197933516806188e+03
2.809765719968492249e+03
1.161207575868179902e+03
3.833078853613047841e+02
1.706159121499385201e+00
-4.584783935076254124e+02
-8.010222243943217109e+02
-1.170923237666285786e+03
-1.328766459807609181e+03
-7.821754063627487312e+02
1.212333888360767844e+02
1.591649709730361337e+03
2.396194341981931757e+03
3.060280344812088970e+03
3.958119763219025117e+03
4.113740107174712648e+03
4.091110883875925992e+03
4.491314487822927731e+03
4.862313123131769316e+03
3.966779566288506430e+03
2.754688859423859867e+03
1.394591469016594147e+03
2.164629848881968996e+02
-4.863079864868452091e+02
-1.002643563349137594e+03
-5.831936772157722544e+02
-7.087843863240539122e+02
-8.572164677524419858e+02
-9.969097573100518730e+02
-6.929001681769067318e+02
-2.022218919768486671e+02
2.762192503345389696e+02
8.370649646391912029e+02
1.890938660291508313e+03
2.592742036186267796e+03
3.137616158249203181e+03
3.437715454150850292e+03
3.468149285131195029e+03
3.362878793815923473e+03
2.843914933734894021e+03
1.334097890351094975e+03
-2.446189059702960265e+02
-2.039285229867823318e+03
-2.929117192602108844e+03
-3.266075137940490549e+03
-3.923042199623219858e+03
-4.284461628643713993e+03
-4.213091137904388233e+03
-4.171971345602057227e+03
-3.922532538515813030e+03
-4.204746839281714529e+03
-4.719563755392223356e+03
-5.065380796395446851e+03
-4.236232687087156592e+03
-2.525730668603789582e+03
-1.686773379215718251e+03
-9.856268849484821430e+02
5.117823400727843932e+02
1.594116240302650795e+03
1.228589285311698404e+03
5.450616854176930701e+02
1.375418043756697671e+03
2.577186108937096833e+03
2.221226575450482414e+03
1.442914929379113346e+03
6.862814734959414409e+02
-5.062706819458053360e+02
-1.182991145727884941e+03
-1.717932961733965612e+03
-2.212804218624436544e+03
-2.278555089866728395e+03
-1.111433291439137065e+03
1.994789352408098239e+03
3.671035006093258289e+03
3.005023138288119299e+03
1.415480007591883691e+02
-6.377849732158717870e+02
-6.408396421945898283e+02
-2.407111229990744960e+03
-4.522391462444538774e+03
-5.520486143753189936e+03
-5.248251453816903449e+03
-4.285497549618388803e+03
-4.293234430870852520e+03
-4.092027961897760179e+03
-5.388642345668897178e+03
-5.938015320822403737e+03
-3.316559260680950956e+03
-1.075836877430694585e+03
2.584736779730721992e+02
1.582843171737777311e+03
6.025489483052320793e+03
9.920664582111938216e+03
1.038366041739949833e+04
9.703841911033434371e+03
9.363363144749768253e+03
9.281224388913306029e+03
8.783969864723321734e+03
7.962409468433818802e+03
6.424486274164271890e+03
5.623487526700288981e+03
5.485090606999299780e+03
5.655464376314431320e+03
5.982868688635121543e+03
7.156998545636540257e+03
6.494418956414098830e+03
4.805996027079299893e+03
3.758894318643835959e+03
2.462022219258821679e+03
1.458681385227971077e+03
7.299222267838104017e+02
-1.786434409034163195e+02
1.323588977235271216e+02
1.098167977250347349e+03
3.024682706696973128e+03
5.210067664055524801e+03
4.801285025214048801e+03
4.252090883541545736e+03
4.150602353196171862e+03
3.718740229479205027e+03
2.834679576824741162e+03
2.422405961109273449e+03
9.257170511334778666e+02
-2.366481759507518291e+03
-6.240100862304125258e+03
-9.341125283702238448e+03
-1.026759197508252873e+04
-1.029028761401502925e+04
-1.124204342662972158e+04
-1.455978196655725515e+04
-1.467864882845519060e+04
-1.133761081025926251e+04
-1.285351688402078071e+04
-1.609727778425739598e+04
-1.628355529087377727e+04
-1.713428127402812606e+04
-1.703647099502787751e+04
-9.882176149872173482e+03
-3.191328926283592864e+03
-3.671525818076993801e+03
-4.168955987455195100e+03
-1.660813784298936753e+03
-2.200456385482413282e+02
1.167355408886360237e+03
4.048503750816538741e+03
4.567494932809872807e+03
-1.840734488690766057e+03
-7.336151895591022367e+03
-1.298859708957239854e+04
-1.396605971186479474e+04
-1.139350977343275736e+04
-7.241743678366607128e+03
-6.136573067179930149e+03
-2.939904106862417393e+03
6.576356922158676753e+03
1.193516355510257563e+04
8.137526548045522759e+03
3.327660381914527534e+03
-2.677366890311192947e+03
-6.103443190335604413e+03
-4.848612030223074726e+03
-2.298741142630786271e+03
2.772143753533430868e+02
1.273287230534042919e+03
1.591499965262373735e+03
4.374871846570375965e+03
9.427409295047347769e+03
1.043223801497662134e+04
8.996429860592879777e+03
7.401951191077654585e+03
7.126851750489138794e+03
7.147184641949029356e+03
8.880149834781301251e+03
1.037882087009200040e+04
9.803222217895743597e+03
1.116345073519871767e+04
1.292172096618156866e+04
1.306212290646880138e+04
1.434569538838194603e+04
1.415556232204201660e+04
1.213070033114003490e+04
9.046083487790925574e+03
7.484691354676439005e+03
5.738472068202628179e+03
2.604471009351056182e+03
1.018768799740739951e+03
-8.555807776423372388e+02
-1.218518986384906384e+03
-9.290822504673952835e+02
-2.463296731556786199e+03
-1.012120827592505520e+03
2.180583093282053142e+03
5.592896798717491038e+03
6.888255946016301095e+03
5.150599880784598099e+03
4.504824842638378868e+03
4.869927323505879031e+03
4.646090012572950400e+03
2.880450870126931477e+03
8.080813709388365851e+02
6.278276797450720323e+02
3.029762687744872892e+03
3.807854873242478789e+03
2.191021838285252215e+03
3.265248601548295028e+03
2.484394560301657293e+03
-6.619147779821539643e+02
-2.853704500227348490e+03
-2.503570628964226216e+03
-2.478790890094134284e+03
-3.592935573733197543e+03
-4.457984362932444128e+03
-3.855789796691903121e+03
-2.335781850020020102e+03
-2.394480898344483649e+03
-2.448494273693797822e+03
-1.200738237056655180e+03
3.545778999252400808e+03
7.265067527924878959e+03
6.777114544200700948e+03
3.949925802867871880e+03
1.291528475481586838e+03
-2.425241302863581950e+03
-4.307539725241232190e+03
-1.846392242203053229e+03
9.801609120048108252e+02
1.444128346609329583e+03
1.415475975342312267e+03
8.742762591914749919e+02
-2.036664123371305095e+03
-2.636403377332893342e+03
-1.066740629093287907e+03
-1.746664257430133830e+03
-4.789158420065850805e+03
-4.964051198694513005e+03
-3.591471463027122809e+03
-3.224646085161390602e+03
-3.734522503444950871e+03
-6.112822117470069827e+01
5.182367210522897039e+03
4.571782950304883343e+03
2.442814415840781294e+03
3.973318880882274698e+03
3.962471772676683941e+03
1.193406117495206217e+03
-2.357885481240214631e+03
-4.660490420201608686e+03
-6.182365635204608225e+03
-7.475562111130011544e+03
-8.668108297049828252e+03
-6.935994047398458861e+03
-4.044141467779162213e+03
-5.236534682653539676e+03
-7.629119624656405563e+01
7.545593315343787253e+03
7.457099124297522394e+03
3.260194182323339646e+03
1.847959071910230705e+03
2.913522905979922143e+03
-5.931262265998243493e+02
-1.000506187136532935e+04
-1.815430568362457052e+04
-2.541788192193279974e+04
-2.064982432194868670e+04
-8.548138204941056756e+03
4.216160739643697525e+03
1.249994875230767320e+04
6.588101790721420912e+03
1.046971555939853260e+03
-1.525026208110613481e+02
7.545358664745930355e+02
1.165159978556717533e+03
6.684316553767404230e+02
1.478386052985517836e+03
1.210042872864867832e+03
-3.887581585200334302e+03
-9.756376328653537712e+03
-1.003027758843190895e+04
-1.031930270739350999e+04
-4.226385666712561033e+03
4.847466494715076806e+03
7.608203212659650490e+03
7.317423483108999562e+02
-5.593899244819503110e+03
-4.924699909991636559e+03
-2.886617379459121821e+03
4.843434307235651204e+02
6.924199552111064804e+03
9.343901433249393449e+03
7.343545933992088067e+03
3.984115687546277513e+03
1.023681234701857193e+03
-3.957185779495400197e+02
2.596811785243650306e+01
6.678167640824038926e+02
2.125850854129740583e+03
2.361198135387379352e+03
1.903010457321203148e+03
2.327368110704755964e+03
1.085280342714008157e+03
9.406978764183299973e+02
2.942613467276810752e+03
1.930992277663636401e+02
2.146127668382187494e+03
4.807670964042080413e+03
2.910730262677161136e+03
2.745315742063845391e+03
4.179509493732931332e+03
1.403406849282820303e+03
-2.768908860944410208e+03
-2.029473465718664102e+03
1.024617515864214283e+03
1.477492703261609222e+03
3.123135996093016729e+03
1.671512004145701439e+03
4.398741943816699859e+03
6.711873127314775047e+03
9.170947755348310238e+03
7.192896978221418976e+03
3.211735681129754994e+03
4.442575266075586114e+03
9.419424144480408359e+03
8.003326731654495234e+03
3.703342026820037518e+03
-1.464591208052915363e+03
-2.550519697868945059e+03
-1.407372043936673890e+03
-2.526123518475603305e+03
-6.898939740551677460e+02
1.140199603763742061e+03
3.722355438370888692e+01
-5.393731026067600396e+03
-6.203305460823250542e+03
-3.085988782089845586e+02
2.689311616982381111e+03
5.898611861493128345e+03
4.753336949586413539e+03
1.986448342584303418e+03
2.612848457454649179e+03
7.261488506029157179e+03
1.366416571889561965e+03
-1.184243303223653072e+02
1.799758579731963550e+02
1.231496628202098236e+03
3.372858446989097502e+03
-2.909911482752809206e+02
1.328974245260420957e+03
-3.798295632813347765e+03
-1.033610584980083877e+04
-1.303140594894358765e+04
-1.210501865533073214e+04
-5.724915454908190441e+03
2.258814361365386674e+02
-3.716309641337855396e+02
-1.580423297392497489e+03
-2.057500128364078137e+03
-2.651774007052079014e+03
-1.488335125615665675e+03
4.107325863385413527e+02
6.444394312764760798e+03
7.428602811574217412e+03
4.738170462817424777e+03
4.491735594423314524e+02
-2.636351138687672119e+03
-4.285470085869091236e+03
-4.716184793877328048e+03
-5.075521961948986245e+03
-7.103553762685805850e+03
-9.747293986394030071e+03
-7.962900422185833122e+03
-4.820435473490872937e+03
-9.049791846557011468e+02
1.906321399687701842e+03
1.691687663618804436e+03
2.919094050462393625e+03
2.807387212402254590e+03
4.234572300002349039e+03
6.116738401406441881e+03
5.827825907141119387e+03
4.544903379494022374e+03
3.348014474154250365e+03
1.256167974238722081e+03
-2.040720413874235646e+03
-3.611960030134861881e+03
-3.476741044738394976e+03
-2.500033298105157428e+03
-3.899465847266270885e+03
-5.532064184533322077e+03
-6.360219187602017882e+03
-7.874774251074087260e+03
-5.929856987465620477e+03
-3.432531288167126149e+03
-1.538685396576941230e+03
-1.572514270451716357e+03
-1.621480148988347310e+03
2.392024406841417203e+03
4.748408113373414380e+03
4.421739843320032378e+03
3.891695108876640461e+03
2.684228995345581097e+03
2.790389109443802226e+03
3.207760513903452193e+03
1.692096806439315060e+03
1.361554091875503616e+02
-4.870517329811290779e+02
-1.363499686953198761e+03
-2.974592320465081229e+03
-3.148713611846971162e+03
-2.108095686041867793e+03
-8.485275746012077889e+02
8.397814629823230916e+02
1.601429187360651213e+03
1.184412153924514769e+03
1.165876074907795100e+03
1.366937621722081758e+03
2.473089704608185912e+03
2.337186839431726185e+03
3.105896620612610150e+03
3.522749389618210898e+03
3.447419010512335717e+03
2.864273894550625300e+03
1.934455144306093189e+03
6.723537413448619873e+02
-8.150694286501357055e+01
-4.499536342235672919e+02
-1.047837186100915460e+03
-8.511752702598951146e+02
-1.249077640855071195e+03
-9.866477558264992922e+02
-1.150083594281783917e+03
-1.519374401819945888e+03
-1.726433271591394259e+03
-1.264497793666196003e+03
-2.646473061979425552e+02
6.552099844113478184e+02
1.984972922549178520e+03
2.339706254299574994e+03
2.463447691871682309e+03
2.491252559491579177e+03
1.778091660833384822e+03
1.699935771391479193e+03
1.502836296805934580e+03
1.131661633043844631e+03
1.323397580774598282e+03
7.729006957718968351e+02
-6.829821652509991736e+02
-2.258148911413585665e+03
-4.651870701575160638e+03
-8.216294023381842635e+03
-8.805511281656912615e+03
-8.048462203397975827e+03
-7.481963549155740111e+03
-7.420104624018445065e+03
-6.984897892646363289e+03
-6.754323668997068125e+03
-5.760320134260520717e+03
-5.391853427379824097e+03
-5.202083901190439974e+03
-4.949285244405480626e+03
-4.660395524673146610e+03
-4.303269784089111454e+03
-2.483164654576079556e+03
1.711135727995307434e+02
-3.487365912408547501e+03
-5.741715094174868682e+03
-6.426171733616120036e+03
-6.782761507176638588e+03
-5.692342511086105333e+03
-2.379486385995042212e+02
7.013155905726129049e+02
-1.855710869009895077e+03
9.700795490357139670e+02
2.222709693214983872e+03
2.694049063528548231e+03
3.268727357608566763e+03
4.024818436585188920e+03
5.196696416782342567e+03
7.077672050877788024e+03
7.302763694586104066e+03
6.288103041154827224e+03
5.541598520856031428e+03
4.790662489712261049e+03
3.858061368710863462e+03
2.649985949000536039e+03
2.060374087163939748e+03
3.001839395975615048e+02
-1.155406224098687744e+03
-1.309561696137277067e+03
-1.256463650124430842e+03
-8.628088822425102080e+02
8.515989583824206193e+02
1.660525544843209218e+03
2.117836944270459298e+03
3.042610988135086245e+03
3.296972905271465152e+03
4.336556220830821985e+03
5.971139308006057945e+03
6.206167788163897967e+03
5.823868798365208022e+03
5.597972087872240081e+03
5.306517146894981124e+03
4.900726511059546283e+03
3.362712534164928456e+03
2.467469244364212955e+03
9.849280110996105577e+02
-7.149430806868516584e+02
-1.318190394317721484e+03
-7.630521473166495525e+02
7.123949561531650261e+02
1.487480739022550097e+03
1.706706050147814040e+03
1.252782861988145669e+03
1.269186013499543378e+03
1.696393779064190767e+03
2.034691855059181535e+03
2.448765437457797361e+03
2.675525010560427745e+03
3.066822462685108803e+03
3.124112207530972228e+03
2.822504776379611940e+03
2.300010406197434804e+03
1.617940107897466987e+03
-1.919473506252854804e+02
-3.754620428591872951e+03
-2.213781484197156715e+03
-1.586511989076261898e+03
-2.918181913714157417e+03
-3.185923226490503566e+03
-3.459670038568750442e+03
-3.651267082839091017e+03
-3.254768253908424867e+03
-2.620032183344758778e+03
-1.907499402951278398e+03
-9.449020533002316142e+02
-7.366702583798785327e+02
1.062907827712459721e+02
1.131579915714982462e+03
1.514846215046553652e+03
1.619519167832024550e+03
1.166433899714415702e+03
5.537198973532661057e+02
5.287763505541228426e+01
-4.491298073678337914e+02
-8.474628443242421554e+02
-2.322405546656988463e+03
-2.937696605613437896e+03
-3.585870058178157706e+03
-3.949723871465536831e+03
-4.285149322208175363e+03
-4.570075167601113208e+03
-4.560543573912128522e+03
-4.853517989243134252e+03
-4.406914332569793260e+03
-3.514556860484771278e+03
-2.186261540007271833e+03
-1.536021224654185062e+03
-1.224620693538980504e+03
-9.070615592871936315e+02
-3.704501066909720066e+02
-3.102548792570228784e+02
-6.047930527306633621e+02
-1.407069706684651692e+03
-2.440592624585705380e+03
-3.619509520578778393e+03
-4.567905814972802546e+03
-4.938348784643640101e+03
-4.952515247961845489e+03
-5.413715248384347433e+03
-5.162087476523683108e+03
-5.433303215151446238e+03
-5.496361371437166781e+03
-4.305079249839935073e+03
-4.038285090074318305e+03
-4.005923210170277798e+03
-3.617053033029097151e+03
-2.540254619000407274e+03
-1.526168605760140963e+03
-1.093056814737725745e+03
-4.101561863597465276e+02
2.520540560598895468e+02
2.429678417935220125e+02
-7.361200624168166087e+02
-1.305373099456046475e+03
-1.495884338288890376e+03
-2.140496721065702332e+03
-2.034343659187943331e+03
-2.039363550782909670e+03
-3.444487543539524722e+03
-3.216726204627185780e+03
-2.689394128876294417e+03
-2.482943188096471204e+03
-1.845096578716750628e+03
-1.530716611295137454e+03
-8.784512536237392624e+02
-8.206734901693798179e+01
1.286116046845642813e+03
2.909001304388793869e+03
4.587568491791305860e+03
5.205761902865196134e+03
5.014361217421953370e+03
4.824222832226128958e+03
4.337815811132192721e+03
3.833472787668529691e+03
3.066500707279929429e+03
2.260693432540006597e+03
2.825384357793348045e+03
3.120568408657612963e+03
2.814013822392661950e+03
2.577262777824762907e+03
2.736206467556818552e+03
3.115510089746999256e+03
3.299567312447612494e+03
4.013212238611129578e+03
4.499493225316669850e+03
4.942496238109723890e+03
5.823953411452740511e+03
7.015896501008342057e+03
7.505566035962847309e+03
7.766155541514729521e+03
7.665760623575560203e+03
7.458010148657276659e+03
7.132548729806766460e+03
6.939377136034337127e+03
6.334516736439910346e+03
5.570336620485017193e+03
4.251572926041731989e+03
3.264045639236795068e+03
3.047749668891191504e+03
2.219681846692110867e+03
2.407782672216717401e+03
2.689305816620999394e+03
1.943131585274069721e+03
1.339393530229499220e+03
1.921087710530063760e+03
2.938183001474148114e+03
4.565910242230570475e+03
5.402422077026742954e+03
5.773749217281101664e+03
5.795927460496078311e+03
4.128089198634206696e+03
1.035209608724222562e+03
-2.776822299328773624e+03
-4.639100272764090732e+03
-3.272450140037823530e+03
-1.770839875050411820e+03
-1.769293297073282474e+03
-5.318802285131159806e+03
-6.830701693559552950e+03
-7.000098890831446624e+03
-8.049979876631343359e+03
-5.953191154346573057e+03
-6.410601064932960071e+03
-7.260576922826711780e+03
-6.517058348332969217e+03
-5.576845835612779410e+03
-4.638858106826889525e+03
-1.335057636758652279e+03
2.104397624909377953e+02
-2.627419224171174392e+03
-2.996530054465229568e+03
-3.039863491266605251e+03
-3.536545658791236292e+03
-4.685590269601452746e+03
-6.431981206713009669e+03
-8.228910700832448128e+03
-9.121435502427659230e+03
-9.312662456579704667e+03
-5.326762569956246807e+03
-1.766670094846264647e+03
-4.365337989425474007e+03
-7.596843116209898653e+03
-6.610158640601397565e+03
-4.977330785994589860e+03
-1.705321225281026955e+03
-1.309259419785713135e+03
-3.822234540013168498e+03
-1.961182408023775224e+03
2.929910688755602223e+03
4.567041983031020209e+03
4.398173525989162044e+03
3.909240726640785851e+03
3.480204622359008226e+03
2.881999631154286817e+03
2.572422556967513174e+03
1.786442586893831731e+03
8.959367977947215422e+02
9.138956887855554214e+02
7.492368445267499055e+02
1.209184599471549575e+02
-2.102054653257817165e+02
-1.541758146652231005e+02
6.389494767793195251e+02
1.772078401557123243e+03
2.024216674965349966e+03
1.845334960018305992e+03
2.909448275476669096e+03
3.841553296109413168e+03
4.182516794656365164e+03
4.462287539394968917e+03
4.484810460400204647e+03
4.519966368059322122e+03
3.760785686696769972e+03
2.701169962521764319e+03
1.422998920464994399e+03
9.642563260950538506e+02
8.812237761957194380e+02
5.297202458797261215e+02
-2.154738819148471123e+02
-1.065361179501572906e+03
-6.969494042132454297e+02
-5.232695917672489117e+01
1.504656843871759122e+02
5.082920505620300560e+02
9.721576063771909730e+02
1.365065710422988559e+03
1.916895059504518940e+03
2.392552004660953571e+03
2.721069988454601571e+03
4.411395576874110702e+03
4.807051674080702469e+03
4.453691061633234312e+03
3.621731305898556457e+03
2.324863705660938649e+03
1.724375188144038248e+03
8.800999717633889077e+02
3.235015021725685074e+02
-9.862228293725389676e+02
-2.304840426243342336e+03
-3.330655271129382527e+03
-4.575646962043007079e+03
-6.434082218157337593e+03
-7.408029146044102163e+03
-7.287590553261734385e+03
-5.532863180732486398e+03
-3.398965752716168936e+03
-6.088118236524608164e+02
3.220652759855018303e+03
4.914324136759493740e+03
5.189304995773507471e+03
6.425528663190068073e+03
6.871919593000218811e+03
6.399411235420469893e+03
5.398028717884076286e+03
3.992661799602182782e+03
2.321134825471334352e+03
2.342443702606858551e+03
2.142504196782556392e+03
1.374070686912255496e+03
4.850911839933324359e+02
-3.133868852229963409e+02
-4.554528582058082975e+02
-7.160099446688607259e+02
-1.166210841630138702e+03
-1.238142889381784244e+03
-2.017242322388737534e+02
1.201048203289645244e+03
1.987169710602814803e+03
2.612631572702443009e+03
3.138432812687181922e+03
4.204655166152398124e+03
4.825136438956380516e+03
4.924956853135194251e+03
4.025142635062400586e+03
2.671521211364964529e+03
1.664928273532421599e+03
6.002460354620260432e+02
-4.895346978646044818e+02
-1.693415847454804407e+03
-4.347381884646423714e+03
-6.541457407293442884e+03
-3.256642299577686572e+03
-1.266961745578802265e+03
-6.084400259483535592e+03
-8.981975767420657576e+03
-7.683683879826531665e+03
-6.055521737338704042e+03
-5.449431041016819108e+03
-4.223366948774677439e+03
-2.122396480104078819e+03
-1.455379127819755922e+03
1.993804677388193113e+03
3.334818654616328331e+03
2.970694932926586262e+03
2.303491285504760071e+03
1.384128735561399708e+03
7.375565750089579069e+02
-7.120658805800344737e+01
-9.462535541160900721e+02
-9.566613545726726215e+02
-3.244352802921028456e+02
-1.106528886367047335e+03
-1.582861020128269502e+03
-6.995009054226286480e+02
1.464880847781817295e+02
1.212139460362471709e+03
2.279515619491019152e+03
3.273772411342617033e+03
3.453894924632822494e+03
4.202867037870772037e+03
4.197790621027822453e+03
3.992636155194581079e+03
3.223434356735475831e+03
2.953149163422709989e+03
2.051747954157872755e+03
8.182115338250033574e+02
1.995284162109137753e+02
-4.523542536936569718e+02
-1.562482139046016982e+03
-1.754792400488316616e+03
-1.834340252511674862e+03
-1.348073553879570227e+03
-9.139473932064375958e+02
-5.349873869958513524e+02
-3.512084395362015243e+02
-2.855565753310181094e+02
7.110057408224832898e+02
1.231578722557848778e+03
1.958216796223573738e+03
3.644961378100467300e+03
3.919914959113757050e+03
3.622067702073736200e+03
3.143454544167182121e+03
3.197073165090591374e+03
2.377853754551969359e+03
1.048815850566963036e+03
2.348542127771796402e+02
-6.319913637504474764e+02
-4.137724808218003091e+03
-2.723405257419878126e+03
-1.346943289283314925e+03
-1.138352395692244954e+03
-1.301613976996321298e+03
-1.016675797624839447e+03
-5.284614661713409305e+02
2.630315064938212686e+02
5.688065109273856024e+02
9.988852199099096651e+02
1.910360206750061707e+03
2.898368755837771005e+03
3.878911180975806019e+03
3.382977494777928769e+03
2.776632328069254527e+03
1.941832250905853016e+03
-2.923494789568867418e+03
-2.126176733913022417e+03
-2.872334075419923920e+03
-3.529997036097533055e+03
-3.786136541194765869e+03
-2.427799574264716284e+03
-1.680986675166045870e+03
-1.231685486547684377e+03
-3.276815725283874599e+03
-3.443396438191448851e+03
-2.972396345515064240e+03
-6.737919491072083247e+02
-4.664980421564731614e+02
-2.633419655563775905e+03
1.855510996825434177e+03
4.378358495441611012e+03
1.883158307301533114e+03
8.029506540092717159e+02
-3.032661415562939737e+02
