5.119671558689292397e+03
5.041573198381380280e+03
4.954869392162914664e+03
5.020695411848478216e+03
5.195097528856696044e+03
5.436118426851493496e+03
5.429819015441930787e+03
5.397287218449654574e+03
4.989598323746115057e+03
4.743818201605245122e+03
4.398001111383954594e+03
3.931177499451826407e+03
3.497374419104060962e+03
2.978664632769811305e+03
2.447089887868386086e+03
2.202729792686791825e+03
1.746626531998725341e+03
1.559752723435010239e+03
1.713052964933160638e+03
2.116549017977275980e+03
2.274451540470068721e+03
2.419196648178278338e+03
2.794825864186380386e+03
2.898415106278822805e+03
2.736117184600961082e+03
2.782966432247508237e+03
2.734162422893109124e+03
2.536008152153735864e+03
1.308670624172001908e+03
-2.408230584601658393e+03
-2.552589875377569570e+03
-3.505396369963032612e+03
-9.462378859549644972e+01
2.540737969769588176e+02
-3.266950393830991857e+02
1.297428240216758297e+02
-8.524808829393859355e+01
-4.563050361723168180e+01
7.263707366664732490e+01
5.716070075799651704e+02
9.232478171212527513e+02
1.061286616695791963e+03
8.409745738202101393e+02
1.188021204447615446e+03
1.436628738734759281e+03
1.416915389896557372e+03
1.755684909960734558e+03
1.945850933704285126e+03
1.596489507578437497e+03
1.516571018558234528e+03
1.330110348154868234e+03
8.480660820380600171e+02
4.774555237435939148e+02
-7.079209447515987108e+01
-4.367163336743089417e+02
-5.463362645967117714e+02
-9.716287098303417906e+02
-1.148608880090661160e+03
-1.217278361874577968e+03
-8.876342190186992411e+02
-4.246506165742048893e+02
-2.553247769283868251e+02
-1.227265104617804781e+02
2.411491008405461685e+02
5.723312029300491304e+02
9.308019182038070767e+02
1.103546374053567888e+03
1.129523763719924318e+03
1.051695982086119557e+03
1.130105219619694708e+03
1.011775773576132792e+03
6.395946816833853745e+02
-1.846675380213934758e+01
-7.474654872750593313e+02
-1.316438125741397471e+03
-1.770431882752252932e+03
-1.741463029897989827e+03
-1.781545536213562400e+03
-1.514738587712876779e+03
-7.811050547651876741e+02
-4.206731278266021832e+02
-4.174625822323665716e+02
-3.334104779319511636e+02
5.943676889612230241e+01
3.010767360910370485e+02
5.945171801746726032e+02
-1.277338891861422326e+03
-4.788579380642868273e+03
-1.076824440426029832e+04
-1.149543412796628763e+04
-1.101995931161850967e+04
-1.041401324877718071e+04
-4.246780548619528417e+03
-7.719052959252486517e+02
-7.704402419047194599e+03
-6.925900931200018022e+03
-3.099183019637805501e+03
-5.521764542452843898e+02
-1.599668757540081572e+02
8.231395131064630277e+01
6.506617210566005269e+02
8.130789858795459395e+02
1.110500700918728626e+03
1.494954503111386430e+03
1.806412115219513680e+03
2.039846523618639822e+03
2.335230506624830468e+03
2.111578553440185260e+03
2.001849128081207937e+03
1.905015681746377140e+03
1.666973763567619017e+03
1.456684702980514203e+03
9.621269156737236017e+02
4.382351876859806907e+02
4.449750364258511013e+02
2.083699718807696115e+02
3.237288185128895179e+01
-5.707751992639886396e+01
5.399319593958831121e+01
2.375987851159194406e+02
5.857258575152827689e+02
7.763089871624007401e+02
8.623655019692367887e+02
1.112979912928209160e+03
1.813181823173255225e+03
1.903966148427195321e+03
2.052291154774385632e+03
2.111144732737531740e+03
2.189507140769500438e+03
2.066449469095524364e+03
1.742920475371999373e+03
2.004836473086463911e+03
1.600224655696829132e+03
9.830393533193823714e+02
4.982883281727084750e+02
1.188712238164705681e+01
-3.462169825013396576e+02
-1.919854990352069990e+02
2.646540860630604470e+02
8.617025784932467332e+02
1.271159630058503353e+03
1.322047342850705036e+03
1.466366618038224487e+03
1.675106547913026816e+03
1.564311332269204286e+03
1.763091351703685632e+03
2.011495181282535441e+03
1.821514084670890952e+03
1.194114006252427998e+03
4.103321464910030159e+02
1.987186885263150089e+03
2.092659221409121983e+03
1.630701233228728370e+03
1.086319294633483423e+03
6.925208100001950697e+02
2.922656849808037691e+02
-2.033432432423123828e+03
-5.655435212123195925e+03
-5.790922980458665734e+03
-3.090523772625936090e+03
-5.343039654232526118e+03
-4.296745854970066830e+03
-3.663884386613842253e+03
-1.548337323834595963e+03
-1.786930332410416440e+03
1.265364998215412925e+03
-2.429444140994177815e+03
1.181590535258980935e+03
-1.955421391619346878e+03
8.235813763638062710e+02
4.635916062337675498e+02
-3.860357769470712810e+03
-2.236240951938683338e+03
5.199656428355459639e+02
-4.004739781119517829e+03
-5.503321590227313891e+02
-1.308816659113986134e+03
-4.047263638850671214e+03
-3.988615159914931155e+03
-6.083871246612442519e+03
-3.209624742738404848e+02
-1.253803622975485723e+03
-7.063012599097903603e+02
1.032632994078498996e+03
-3.359031039536998833e+03
-2.066269445449634532e+03
-1.312026798799872296e+01
-1.163578986691935370e+03
-8.376451770853467451e+02
1.940598679279994485e+03
-1.476817828597303333e+03
-1.557715160665472240e+03
1.098339399449833031e+01
4.181781708348383404e+02
-3.383300296610334044e+03
2.914517994796171365e+02
9.104376336991923608e+02
4.267283174736865021e+02
-3.513656092635849745e+03
-2.118691733196711539e+03
4.186414957493772135e+02
1.913413376576106430e+03
1.996718584132721162e+03
1.967501603668207281e+03
1.218756409841552568e+03
-2.848505366249755298e+03
1.202668652135957700e+03
1.304345090403349559e+03
2.985582180323030116e+03
3.250231738392657007e+03
2.660140545830778137e+03
2.515334282874816836e+03
2.426354249593602617e+03
1.998328610886909246e+03
1.528516873643461849e+03
1.386842774743780183e+03
1.240915809009401301e+03
9.047842258564764961e+02
9.995040043092839142e+02
1.171976954848125388e+03
-5.296720407423097186e+02
1.313069820444615289e+03
1.967395673832360217e+03
1.585526798642198855e+03
2.951517453060878779e+03
3.225390565881477414e+03
3.053404433722765134e+03
3.249690919640074299e+03
3.311228177837653675e+03
3.144057903804110538e+03
2.661635837644423646e+03
2.377760863243093809e+03
2.312494950411763057e+03
2.080720719329452095e+03
1.373327344693664827e+03
1.327064161140093120e+03
1.129848874443265004e+03
6.158538055336812249e+02
6.770339293307066555e+02
9.445015569754473290e+02
1.145116224831412637e+03
1.283162832986633020e+03
1.830823802773871648e+03
1.964851986002632430e+03
2.194707817407541825e+03
2.462726045771845747e+03
2.798554920910519286e+03
2.952199028881241702e+03
3.216427090167001097e+03
2.988821875526383792e+03
2.713805900834124714e+03
2.627215542413413004e+03
2.112116387768872301e+03
1.404102991712612038e+03
1.104054973359967789e+03
9.417888767252883326e+02
8.402932554593850227e+02
4.535227564061942189e+02
5.634824369686600676e+02
1.039188059426089012e+03
1.321608142488170188e+03
1.869799459446032870e+03
2.258736024024400194e+03
2.508435983551617028e+03
2.502957711503727296e+03
2.740337767117850944e+03
2.945516044010444602e+03
3.187432219829935093e+03
3.135068577748626012e+03
2.947326770472067437e+03
2.732205768432408149e+03
2.562737902098311224e+03
2.344942855979645628e+03
9.118786487929227178e+02
-2.648579625261363617e+03
-7.826469410934291773e+03
-1.171183275966561450e+04
-1.129667241088671835e+04
-1.101404699986474589e+04
-1.060095882055345464e+04
-9.525322690317299930e+03
-9.248017080226349208e+03
-9.249999606916362609e+03
-8.551296413548807323e+03
-7.391935513568247188e+03
-7.198955951563055351e+03
-7.004743246249619915e+03
-6.954704567678904823e+03
-6.872913878710305653e+03
-2.551760455883173563e+03
-2.314513470319127009e+03
-7.048212422763404902e+03
-7.799163635850829451e+03
-8.430247742693729379e+03
-8.937316061960756997e+03
-9.328414271705320061e+03
-9.481625468167872896e+03
-8.301908932495251065e+03
-1.569288024986538403e+03
-4.370769996802746391e+03
-1.965341577535336000e+03
2.132084169433385796e+03
3.689620420446320622e+03
3.826333029352512767e+03
4.208296803139018266e+03
4.306623226690308911e+03
4.854355229783644063e+03
4.941482933259047968e+03
5.165029587851077849e+03
4.837000013458900867e+03
4.158468138353271570e+03
3.701567412776989840e+03
3.479359397132516278e+03
2.875908375009234078e+03
2.101179119738515965e+03
1.523275019948387126e+03
1.368286098856493481e+03
1.666202210236647716e+03
1.530044095619210566e+03
1.489917432695136313e+03
1.717818212136655802e+03
2.133703067149142498e+03
2.134594167632412336e+03
1.924649481296877184e+03
1.611927487943699361e+03
1.752511976573127185e+03
2.282442102496469488e+03
2.259667150183950525e+03
2.108425442230501176e+03
1.954915611070730620e+03
1.807230393706034420e+03
1.417382833587595997e+03
1.237458179696186789e+03
1.166389144811315873e+03
8.042261720974296395e+02
1.540153330145884922e+02
-7.012307008305781437e+02
-1.278546677121457833e+03
-8.390203647852026734e+02
-9.484791825093151374e+02
-2.788661801885795057e+02
9.646098884309482173e+02
1.749948264470062213e+03
1.665391551947834614e+03
1.256591770197471988e+03
-1.729496267464404013e+02
1.443471252260335405e+03
1.637778729565228559e+03
-4.058340184850050036e+02
3.048916519170541051e+02
1.422233454881433545e+03
-5.267681283749325303e+02
-3.456738126938486175e+02
2.879373114055354677e+02
2.670387424473377678e+02
-3.884449139332705840e+02
-7.724560591330699708e+02
-9.349544904705600175e+02
-1.267937942070213921e+03
-8.083225016580139481e+02
-7.040379548703881483e+02
-5.320225924990884323e+02
-1.023073942580606115e+02
6.309973111925683043e+02
9.079854799760342985e+02
1.359645592593614083e+03
1.375933060874848252e+03
1.238950295124712738e+03
1.222788411248250441e+03
1.001438237367894430e+03
8.608232183119389447e+02
8.828339282948327309e+02
5.394394709438777227e+02
8.969056305072690805e+01
-9.164268367163807625e+02
-1.688897881228182769e+03
-2.103694529418265574e+03
-2.809814249494024352e+03
-3.521220935652595017e+03
-3.467074055190660602e+03
-2.838560863878557939e+03
-1.848745482478784652e+03
-1.290593212910146576e+03
-6.451710315991857669e+02
-5.864019552375166313e+02
7.178922356822403117e+01
7.623085556444905251e+02
1.078039623733133340e+03
1.457960213006561389e+03
1.395992756902274778e+03
1.483954732378224435e+03
1.062770795381100925e+03
3.054315442157605958e+02
-2.610358138369965673e+02
-6.047906559106922941e+02
-6.869271847663248991e+02
-9.124998940380777412e+02
-9.214979292640529138e+02
-1.177921946044909419e+03
-1.333080742143604766e+03
-1.378926639978725461e+03
-1.051474650886281324e+03
-1.321836524378346212e+03
-3.220438114772361473e+02
4.779347565036692345e+02
1.416195888535428821e+03
2.574651377220903669e+03
3.064915437549618673e+03
3.001947253077919868e+03
2.834709660281067499e+03
2.855144759049171171e+03
2.338157843107418557e+03
1.605577830773972664e+03
-1.975589922222834502e+02
-1.907812424639540495e+03
3.605726912178680550e+02
4.750141816990509938e+02
3.820650080902785817e+02
1.054878984024496731e+02
1.912949861329227588e+02
6.486609478232919628e+02
1.282108185280115094e+03
1.583329677725452029e+03
8.733432404186356734e+02
7.820880567556607730e+02
8.797281053024821631e+02
9.066038701947715026e+02
9.943581271291602661e+02
1.066576587647155293e+03
1.279094252819196527e+03
1.117650331992192832e+03
1.106800891179155087e+03
1.316917378254585401e+03
6.453446155987203383e+02
-5.386879206198836982e+02
-2.082562549701511671e+03
-3.087573418672315256e+03
-3.475818618214964772e+03
-2.879101617417618854e+03
-1.270885515644517000e+03
-1.380855890628502536e+01
9.930064562844966076e+02
2.066415490011633665e+03
3.150731169365637470e+03
3.734454721307737145e+03
2.769906341883366622e+03
1.682506403272666375e+03
2.647711253432303238e+03
5.383799921307585464e+03
7.226250923641853660e+03
7.448975286856769344e+03
6.447525517135277369e+03
5.186547262756820601e+03
3.910012047440407514e+03
2.945819130902994402e+03
1.977985734549509971e+03
7.832664950805570925e+02
1.807631615319733100e+02
9.595244384320200197e+02
1.500455633736374011e+03
1.805577750722417250e+03
1.894972361643316844e+03
1.188969233619733586e+03
1.316967141881978478e+03
2.315250821553111564e+03
7.927337211636827305e+02
-3.402509631410835937e+03
-8.259404117992942702e+03
-7.633958552446202702e+03
-7.529161398769966581e+03
-7.192923889469867390e+03
-6.871196797660912125e+03
-7.619949121715676483e+03
-7.863141942514766924e+03
-7.372675507863448729e+03
-7.418534355734555902e+03
-5.448919141171403680e+03
-6.669543928790551945e+03
-7.895288048326856369e+03
-7.303344186831532170e+03
-4.055267526117501802e+03
6.566779513944973132e+02
-3.491813906138881521e+03
-6.592116150343165828e+03
-6.666565056433567406e+03
-6.998520444421349566e+03
-7.867926568155912719e+03
-7.496938037010238986e+03
-5.875461684054858779e+03
-4.393398530276573183e+03
-3.291723521723059093e+03
-4.252322138444644224e+03
-5.616120155598594465e+03
-5.258051522044636840e+03
-4.567973268732796896e+03
-1.015858310733673306e+03
2.359308390972812958e+03
-3.007369536746988160e+03
-6.101821983839396125e+03
-6.889996594040492710e+03
-7.617768018738707724e+03
-7.440051761137531685e+03
-6.511739206097022361e+03
-2.562764382278187441e+03
-3.930339938810504918e+02
-9.724300781680287855e+02
3.640187982782423660e+03
6.228918621239099593e+03
1.127278082371436722e+04
1.202691979742940566e+04
1.241149310099651848e+04
1.119056543096100722e+04
1.029216287934769025e+04
8.992377926753093561e+03
7.424335589540860383e+03
6.071116545462344220e+03
4.476763156646249627e+03
3.835360656832630866e+03
3.162926953471448087e+03
2.689535956827167865e+03
3.263284038757546568e+03
4.402303433447651514e+03
5.423653153173670034e+03
5.985444965610084182e+03
6.507749627651801347e+03
5.931698750645774453e+03
5.198371361741796136e+03
4.797830033004916004e+03
5.009122565641849178e+03
6.004370230237328542e+03
5.858732446449373128e+03
5.672484801533722020e+03
5.322917554441492030e+03
4.740102979298649188e+03
3.217770899472733618e+03
1.578917138183750467e+03
4.566003014421271473e+02
4.357721428257178786e+02
1.191367092149741438e+03
1.588374428182522706e+03
1.367018579370727139e+03
-1.046437658746889156e+03
1.123118687392502579e+03
1.286741140121132958e+03
-8.725223512548095641e+02
-4.275549086732578871e+03
-1.119750040744368789e+03
1.011189287874066281e+03
1.257258157095376419e+02
-3.294012471137195917e+02
1.188838143316456808e+03
2.233506343597111027e+03
2.505542444857996088e+03
3.007078601632852497e+03
2.702066827236584231e+03
1.299695681699496390e+03
-1.640285708063840389e+02
-1.350164032698192841e+03
-2.070450406620465401e+03
-2.175759433066909423e+03
-1.922204957070185401e+03
-1.230842305048706976e+03
-1.046471224731908620e+02
3.883722763865297338e+02
2.552100647147053110e+02
-5.421354133552363237e+02
-1.543619000684584989e+03
-1.531273361337864799e+03
-1.121144040113584424e+03
-8.282528895803978912e+02
-1.531562234109783276e+03
-1.600059663831985290e+03
-6.367901254205439727e+02
-4.181791551963978293e+01
6.807367608578496210e+00
8.400468086677404926e+02
1.406869337187157498e+03
7.632163728385106651e+02
-4.329818486807333784e+02
-6.217559816573703984e+02
-9.841119820665468296e+02
-1.191084131437738961e+03
-1.551731013294772310e+03
-3.863144018655071250e+03
-4.581284908252612695e+03
-3.927199371875989073e+03
-2.843910559563345487e+03
-2.081494554526145293e+03
-6.569968347065241687e+02
-9.245696474327905889e+01
5.380304939455126032e+02
1.675445768697464700e+03
3.299797610809098842e+03
3.921058065657595307e+03
2.367134762137624875e+03
2.300876122390890941e+03
2.795264379304113390e+03
-4.127899116905749679e+02
-5.160468556304464073e+03
-1.120783524330845466e+04
-1.286286352339664518e+04
-1.256157493330368197e+04
-1.213991149028886139e+04
-1.193313102620253630e+04
-9.020338006988627967e+03
-9.268489890060493053e+03
-7.616504916241599858e+03
-3.040547011694435241e+03
2.185848408528686832e+03
4.323256137802056401e+03
5.926472557146003965e+03
4.593414936034493621e+03
3.374048289268319877e+03
2.636425417645291873e+03
1.126424703160372246e+03
4.179644653001065535e+02
5.529247998251605622e+02
1.509245975069662563e+03
2.169862559988363046e+03
1.460711208239117013e+03
1.279686193687209425e+03
9.227658599083061972e+02
-2.211273802757038993e+02
-3.829433023516891126e+02
7.812818317716075853e+02
1.834506407872707541e+03
2.035685095635783682e+03
1.398782451297436637e+03
1.368550943098792594e+01
-7.896307454137961486e+02
-1.713143138428482644e+03
-2.161828495717889837e+03
-1.870737297309091900e+03
-8.149564491191168827e+02
1.407522868174478845e+03
2.321673988122191986e+03
1.474368868514411361e+03
6.005063856778525633e+02
-6.794835446094653264e+01
-1.268052392317673366e+03
-1.179811426199877133e+03
7.097443001522673285e+02
2.202560410479990878e+03
2.826624751468778868e+03
4.715926736342334152e+03
6.020434938535213405e+03
5.433146336705998692e+03
4.378026124843475372e+03
3.576099122698550673e+03
3.838370483457855698e+03
3.288841225065944400e+03
2.545480157817374675e+03
2.030261616690377650e+03
2.408164277370457512e+03
3.519136295511498702e+03
1.520223304664491707e+03
7.423977885229649019e+02
1.536349108130886236e+02
-8.900804767216897062e+02
-1.578714185992626426e+03
-1.488393129640060579e+03
4.718827390262448489e+02
2.394085650663712840e+03
3.119203499060878585e+03
3.121255320129640950e+03
2.969285808830487440e+03
2.775342005867663374e+03
2.265391597024266503e+03
5.135968616870406578e+01
-3.829466750287183913e+03
-3.669008382303346934e+03
-2.521335709030751332e+03
-4.866743619699345800e+03
-4.267090312796810395e+03
-2.272352257359953910e+03
1.411504584914869156e+03
-2.762529509609459183e+03
-1.805490132478425949e+03
1.875759674603483518e+02
-3.763333929611731946e+03
-3.710847705029231633e+02
-1.866968955056356947e+02
-1.930146366397578731e+03
3.072579103184820724e+03
-8.175051348223881860e+02
-9.023617271333129111e+02
-1.946959753176194681e+03
-2.808294337569890104e+03
-3.309353075415615422e+03
-2.426157117555780587e+03
1.703739080689583432e+02
1.573301525473508718e+03
-2.896271533886315865e+03
2.426589049133096410e+02
1.037063729630613125e+03
-2.408141363463051221e+03
8.659452382203571688e+02
-3.494667498277797677e+03
-4.617933180390207781e+03
5.180955888336783346e+02
-3.169600669775938513e+03
-1.143961899379429269e+03
-3.313822718106087905e+03
-6.200141327171348166e+03
-2.135043765095164872e+03
-2.063686716270554825e+03
-4.000972738219409621e+03
-3.427827226392998909e+03
9.278625427340538181e+02
3.560149744132447267e+03
4.463067866099167077e+03
1.420654655479067742e+03
-2.820797512827672904e+02
1.004934283730261654e+03
2.851652360367751498e+03
2.460848690289295519e+03
2.084753789984347804e+03
1.754337226547043429e+03
1.516545202557299490e+03
1.486456611653576374e+03
1.528010275578717483e+03
2.120140694465386787e+03
2.342059067232839425e+03
2.348045329550456245e+03
2.225261346555005275e+03
1.821342867496664212e+03
1.654340508778421736e+03
1.455203851756549284e+03
1.375933043356824783e+03
1.198593450314889878e+03
1.513151232760755192e+03
1.938505482946123266e+03
-1.063447611135790339e+03
-3.903898315884392559e+03
-2.529312452681069772e+03
-5.437551193458689340e+03
-4.701147405069362321e+03
-6.432881168986075863e+03
-3.991637541829822453e+02
4.642274715325510215e+02
-3.969200057304873098e+03
-1.434555777552433256e+03
1.349613450309415839e+03
1.152975248404054810e+03
1.293929250088684284e+03
2.027467923947026293e+03
1.984833601850553350e+03
1.781555408349174968e+03
2.093165744858950802e+03
2.080423994994494024e+03
2.506414065659491825e+03
2.843035083162419141e+03
2.564191731974196500e+03
2.483149041236788889e+03
2.134277390351095619e+03
1.752434453617993540e+03
1.441701565040482819e+03
1.142962008314203558e+03
1.157872175885148863e+03
9.900894725869630975e+02
6.734158068473641379e+02
8.471620910526365833e+02
1.241365898642435241e+03
1.729439989328420779e+03
1.460320848911148687e+03
1.327711572828704448e+03
1.740242264614725173e+03
2.225114059909223215e+03
2.015094092861323361e+03
1.830853494907573122e+03
1.738001117678144510e+03
2.051316203726858475e+03
2.318968037618611561e+03
2.554835306450535882e+03
2.301793404824789832e+03
1.774873593559591200e+03
1.208055454805884438e+03
9.362262123973281405e+02
5.493137050196346536e+02
5.233076690533360988e+02
4.572204999718979934e+02
8.390317031493842705e+02
1.167822635816998854e+03
1.309643997299583134e+03
1.101483620707968839e+03
1.442304227113238539e+03
1.558043609506444000e+03
1.582797260016540577e+03
1.781548753740866687e+03
2.352295991683387456e+03
2.716053792199248164e+03
2.316927747281260054e+03
2.183971178907590911e+03
1.575134637097362656e+03
-1.597664543246232824e+03
-6.864500494413888191e+03
-1.018954051266454189e+04
-1.050645575839199046e+04
-1.081699649677449815e+04
-1.100072508872489561e+04
-1.125455908074394029e+04
-1.026706581723730233e+04
-1.003118544736767035e+04
-9.574410945304804045e+03
-9.078737803477823036e+03
-8.930931826863390597e+03
-8.697993590223988576e+03
-7.784064585833294586e+03
-7.730124341235343309e+03
-5.693159677398149142e+03
-2.180163282175595668e+03
-2.098079355774320902e+03
2.471189729298427665e+03
-1.315353210045128890e+03
5.463067848590195581e+02
2.829164632292607166e+03
2.793166186103386735e+03
2.371287130013835849e+03
2.038480561540263807e+03
2.235716914579174500e+03
2.140032687653237645e+03
2.392499749544083443e+03
2.969182888107487997e+03
2.946146500858393210e+03
2.624362146641303752e+03
2.379840654338703644e+03
2.416608660957078882e+03
2.637736047620390764e+03
2.713192302391581052e+03
2.699893650900222838e+03
2.985853618404140889e+03
2.828126069001573796e+03
2.792646446591715176e+03
2.787439443456049503e+03
2.655594656720832972e+03
2.228192978755728291e+03
1.940148860941354087e+03
1.511511331198627659e+03
1.253301287300466811e+03
8.025285759807337627e+02
9.254054863471835688e+02
9.558387898675223369e+02
1.344772567162155156e+03
1.447183681186653303e+03
1.326106247607189061e+03
1.534500543726297110e+03
1.306449230385436294e+03
1.141970039427455276e+03
1.413018348221717815e+03
1.747483742311337664e+03
1.797457444774561509e+03
1.661983151452544462e+03
1.540921206398407776e+03
1.948212077799787949e+03
1.649664816895125114e+03
1.003507490698635934e+03
5.559588509403337184e+02
1.007977464595117425e+02
-1.911320641877292985e+02
5.019050423373657566e+01
-1.649210351820923051e+03
-5.215601660510651527e+03
-4.815756863262308798e+03
-5.112682826835329251e+03
-1.413234336152598189e+03
1.866484714312924211e+02
8.054192819612330823e+02
6.260525821672265465e+02
-6.713973690281390816e+01
8.536727853156859283e+02
1.313438754307043610e+03
1.317248171104758057e+03
1.357103102716770536e+03
1.066956746043579642e+03
6.907093448190717027e+02
4.853705303201969059e+02
-4.939656034767500259e+00
-5.422456273712941766e+02
-1.307535905207533006e+03
-1.240730786099363513e+03
-1.150845429518793935e+03
-8.130225077864835157e+02
-6.082270249858944453e+02
-1.323932618629855540e+02
-3.334510045249405152e+02
-7.712879448449926940e+02
-5.948387864970711689e+02
-2.490586419245654213e+02
7.894968119209491419e+01
6.712177427568148858e+01
2.793804154028886728e+02
5.306333841676245129e+02
3.219346793067851991e+02
-1.245584852219333953e+02
-2.983502276993744573e+01
-5.099319189807540056e+02
-4.617747310077544967e+02
-9.674399718032987039e+02
-1.211131381644207977e+03
-1.071854132386277797e+03
-9.565160125453604678e+02
-7.462374468869230668e+02
-6.540126805187347827e+02
-5.696922298095608994e+02
-4.461915004821253206e+02
-5.094855761394967431e+02
-3.076573059337849259e+02
-1.515980371949627283e+02
1.296968282716325973e+02
1.732198199439651773e+02
-1.381148513909272708e+02
-2.735155005490178937e+01
-8.729327354179574172e+01
-3.070009243013394098e+02
-2.334799088472758797e+02
-2.186966936740476797e+02
-4.316616654783165927e+02
-6.164563560424174966e+02
-8.233238830333569922e+02
-7.041526882469349857e+02
-8.149438354473725212e+02
-9.206599041924423545e+02
-5.842990035648721232e+02
-5.108246708176377524e+02
-2.316141964534782346e+03
-9.710733171019110159e+02
2.264505301767128458e+02
2.110734008414954417e+02
3.852816550280440424e+02
4.700911726605932586e+02
5.531348239969380529e+02
7.482633148515510584e+02
1.090236577311160318e+03
1.356704525685351882e+03
1.205269636897803139e+03
5.368173833624075542e+02
2.348125893879955299e+02
-8.131864984865343615e+01
-1.393618439433041942e+02
-3.211710285035669017e+02
-4.773167719324790141e+02
-3.600907912223639755e+02
2.132762656674429138e+02
3.668934324559796778e+02
6.537525864288541015e+02
7.548564443164417526e+02
7.450885453399340577e+02
5.272584449299793050e+02
7.004518778448473313e+02
1.000139493427987304e+03
1.248708204336959170e+03
1.287331440040953794e+03
1.176356864128327061e+03
9.802448613426607835e+02
1.243592025799977137e+03
9.701809917780532260e+02
4.254678556891914809e+02
3.312137447897605114e+01
-1.232559218890491053e+02
-4.063457123953726295e+02
-5.330423067462996869e+02
-6.568973525374647124e+02
3.938708251415509665e+01
2.420001605649451335e+02
3.917418525581013569e+02
4.892980954004431169e+02
4.837736797558889634e+02
8.482645318341018310e+02
9.880733120680755519e+02
1.443158847371338425e+03
1.639358894193337619e+03
3.161033835998586028e+01
1.140000982400316161e+03
1.864547100851301366e+03
1.708253825988889730e+03
1.556120289151432871e+03
1.229163377938772783e+03
9.173705970049294365e+02
5.707142856665246882e+02
2.512049330937202569e+02
6.783537422093672831e+01
1.226495562629608713e+02
4.927198640251206143e+02
6.120658403953480047e+02
9.147101308952068166e+02
1.053678114791485314e+03
1.255979781433299422e+03
1.012601678063847430e+03
-1.284551297732121611e+03
-4.385939728981722510e+03
-3.995548370701373187e+03
-1.707746229576403493e+03
-4.494193412826662097e+03
-1.099151052631373204e+03
2.615663462816479523e+02
-4.674686641910025173e+03
-3.371624270432191679e+03
-1.318189735803119618e+02
-4.182623335646190753e+03
-1.891371328141120500e+02
-2.310203770193616492e+03
-3.233867691591783114e+03
-3.321249285095183836e+02
-3.361886805961195932e+03
-1.582103818093621385e+03
-3.433820283579138504e+03
-2.555993102667735457e+03
-2.136604068073673261e+03
1.173365974020411386e+03
-4.330026339385595747e+03
-1.392830545957438062e+03
1.889004164034745145e+03
-5.107517700504166896e+03
-1.049389209645818255e+03
3.924134041668951340e+02
-1.478144305422859361e+03
-2.357064264811308931e+03
2.306861266641392660e+02
1.480073467261355745e+03
1.248083029288957050e+03
-1.021330987771939249e+03
-4.231075179692145866e+03
-3.037101510441307255e+03
1.343528481600615805e+03
1.743817677721313885e+03
-2.442144366733907646e+03
4.246704538116017034e+02
2.642673633321402349e+02
2.497604439062697566e+03
3.037680001864878705e+03
2.816487384322177149e+03
2.920044074545047351e+03
2.972386289549183402e+03
2.753527579599321143e+03
2.461422963614379114e+03
2.255082199998302713e+03
1.997481590407594467e+03
1.578582272372995703e+03
1.051336050314962677e+03
8.137610974817325769e+02
6.098897972021428586e+02
5.377084528907297454e+02
6.692062365693615220e+02
1.119365157241533552e+03
1.409197944427506172e+03
1.525704235865270675e+03
1.521843881679666765e+03
1.712625004649045877e+03
2.176088251555670467e+03
2.271194730415856156e+03
2.317055597386183308e+03
2.330789541177906813e+03
-3.384020600059953949e+02
3.722684818807932743e+02
2.077456381484366375e+03
1.228484268363930369e+03
-6.174255297686526092e+02
3.827050449667851808e+02
2.826869881177270258e+02
3.675683889967663731e+02
1.483154493697231828e+02
8.783722819170192153e-01
3.928341656871030096e+01
3.704922782845853817e+02
8.783876374940762162e+02
9.610588986391371691e+02
1.463290193517959324e+03
1.941945733602721702e+03
2.384502594432293336e+03
2.395365632714766889e+03
2.452733923986023456e+03
2.606038996338344987e+03
2.493485044301621656e+03
2.323021657871946900e+03
1.943620010601827062e+03
1.662234233320047451e+03
1.208793469655234048e+03
8.562820647788464612e+02
2.806484480593190369e+02
-1.991936829582106157e+02
-4.062214743182473171e+02
-1.764514755543505657e+02
3.001048498246780127e+02
5.534568153245868416e+02
8.525564165433241897e+02
1.130384492717493686e+03
1.300938008612084104e+03
1.576155059865054682e+03
1.797067024778322093e+03
2.128601349625625971e+03
2.246745744289554295e+03
2.447509998495771470e+03
2.159869231684770966e+03
1.992814195180638308e+03
1.939307907932918397e+03
1.511287727602942596e+03
1.202775969325825827e+03
5.597137627679393290e+02
2.300621934070877046e+02
-2.624801354327695790e+01
-1.982237934852878425e+02
-1.808405684037193453e+02
1.018189963303760521e+02
7.088409106806432192e+02
1.407221369860384357e+03
1.370896632588862758e+03
1.555852054542004907e+03
-5.178817086413264406e+02
-4.150290967455495775e+03
-9.414380852166528712e+03
-9.356255186455695366e+03
-9.250873816607527260e+03
-9.332195272495639074e+03
-9.096236841909112627e+03
-9.297014828467881671e+03
-9.230559741784905782e+03
-9.164015981598582584e+03
-9.665223251128812990e+03
-1.043263720953092161e+04
-9.367759230525907697e+03
-1.733595495594817521e+03
-3.678526091202246334e+03
-2.175425817560403175e+03
-8.942303124219582742e+02
1.808166759306630411e+03
2.341831781977704850e+03
2.331644269365641321e+03
2.230621330422141000e+03
2.540811429525921085e+03
2.975212035700222714e+03
3.021856838912293370e+03
2.975753822362878509e+03
2.953911838051833911e+03
2.889358609787001569e+03
2.550100761037117536e+03
2.019168897101357061e+03
1.909517101754731357e+03
1.212120226438016061e+03
9.039617424008044964e+02
5.530661941027733519e+02
-2.756549825452772140e+01
-4.148442187077397421e+02
2.752688587677406531e+02
1.349757973602921311e+03
1.497685374443157798e+03
1.509023309653994147e+03
1.414817181485639821e+03
1.715087984301468168e+03
1.815874619987105234e+03
2.196239784662041984e+03
2.515219440746383043e+03
2.350780877835252340e+03
2.319957642880697222e+03
2.451785929381027927e+03
1.976308076695880118e+03
1.321525253075447608e+03
1.127406647560669171e+03
8.959675227949536520e+02
4.462604776163554448e+02
-5.071251055079129344e+01
-2.869264880215654330e+02
-2.593412020972157279e+02
-3.399014755124033513e+02
1.584064841790513753e+02
4.396593071718024817e+02
7.628443176310255467e+02
9.270202103452572828e+02
1.564298533579241621e+03
1.608665282122426106e+03
1.775067450763359602e+03
1.961428899303116168e+03
1.978865120938663040e+03
2.054989072302474142e+03
1.822232532152179147e+03
4.499131118888132050e+02
9.090572103931858692e+02
5.515742470287124206e+02
-5.557603217169413057e+01
-9.984011576965991708e+02
-1.772886058151303132e+03
-1.834110921868148125e+03
-1.640686399773315316e+03
-3.172872863595821400e+03
-6.308738935661954201e+03
-1.809031595908225199e+03
1.581906802607730356e+02
5.099852535209471398e+02
8.613741249071676975e+02
6.603308306721415875e+02
9.688781102603454656e+02
9.870399908621658369e+02
1.038838456705200315e+03
9.213679435991805349e+02
7.235970059972112267e+02
5.605902519463670615e+02
1.113122351476188499e+02
-6.062367801094746937e+02
-1.097069964252586942e+03
-1.344170266076576127e+03
-1.293595982485350987e+03
