-3.582496546284286978e+03
-5.297880713248688153e+03
-5.691154612941139931e+03
-5.969312249555771814e+03
-5.981314204759957647e+03
-5.376142590384476534e+03
-5.588727705529541709e+03
-6.139050565033969178e+03
-6.697044641526785199e+03
-5.774733762826573184e+03
-3.828065237159934895e+03
-2.351007473239976207e+03
-2.927507641862862329e+03
-1.992490266636795468e+03
1.765056441506122837e+03
1.969191049206493972e+03
-1.117992351366094454e+03
-1.381480644070919652e+03
2.020666891684430084e+03
4.252536648980285463e+03
3.693157576516092831e+03
2.901500950617909893e+03
3.139622004082946205e+03
2.559609167753838847e+03
1.529481935941055781e+03
7.582922313400187022e+02
5.660283223138585527e+02
3.147823194016890511e+02
1.032581595063887335e+03
2.444445110779599872e+03
2.366481117036819342e+03
2.573752396304691956e+03
3.172342549652847538e+03
4.167333824590354197e+03
4.533809148964969609e+03
4.394858666089500730e+03
4.670498526373155983e+03
5.204815693579554136e+03
4.791991168412311708e+03
4.296112504213582724e+03
2.909148696955857758e+03
1.271132517709643480e+03
-4.949508126025635875e+02
-1.430993007090022729e+03
-1.076792437603842245e+03
-1.068316476173283945e+03
-6.356435582299192220e+02
-4.277545048977395226e+01
7.633913930431614290e+02
1.257821620329402322e+03
9.955534160964492685e+02
7.275849031240799150e+02
1.437404775065203467e+03
3.097098387582847408e+03
4.126641504188921317e+03
3.766148435861171492e+03
2.477681726298739250e+03
2.280090262573724885e+03
1.808362680748653702e+03
1.765596649693677819e+03
1.583754658567874230e+03
6.990452282339210797e+02
-3.755966067065350558e+02
-1.123208871840584607e+03
-1.708646321219770243e+03
-1.521695441188514451e+03
-1.300752688485958743e+03
-1.468872615638261323e+03
-1.368570434144202636e+03
-8.650351124225239801e+02
-6.245629339374305573e+02
1.016598835239308869e+02
9.448330615843489113e+02
1.721013415350738114e+03
2.280249232529060009e+03
2.362776221072580483e+03
2.588602617507900050e+03
3.168585205511505137e+03
2.609693167468073170e+03
1.218934745551310016e+03
2.942144401839420311e+02
1.935157815894187934e+02
-1.169223820141352462e+03
-2.687950972831481977e+03
-3.305652370592512398e+03
-3.510328673405028894e+03
-3.421898551153261906e+03
-2.744388484877744304e+03
-1.588870994474169720e+03
-7.923600830193195179e+02
-6.309758001506390883e+02
-5.076855067546318310e+02
2.357159214813539450e+02
1.045263428981188099e+03
1.812799954400456045e+03
2.526369987284943363e+03
2.193114706031583410e+03
2.088054099673075143e+03
2.052120314499198685e+03
1.924257487312930834e+03
1.118447679667959392e+03
-6.334015547303414451e+02
-1.606237723287717927e+03
-1.747172848205906348e+03
-2.437483654941460372e+03
-2.632116517414283862e+03
-2.685952138134369306e+03
-2.817055681396029286e+03
-2.176713655014735650e+03
-1.642959637586217013e+03
-5.896874741708960528e+02
1.511185997395261040e+02
9.944758795495077948e+02
1.692436192243945698e+03
1.079131655199943452e+03
-7.414840034417943571e+02
-2.460656464819764096e+03
-4.193423281049467732e+03
-4.978699947314176825e+03
-5.066478733147278945e+03
-5.248812984796389173e+03
-3.524961305035120859e+03
-2.003984714085074529e+03
-1.866658323785640960e+03
-1.165982151659342890e+03
-1.285922126086695926e+03
-1.456660920690133025e+03
-2.169503774573182454e+03
-2.175507749739137125e+03
-1.716576427019926541e+03
-5.316130365821636587e+02
5.975111863813951913e+02
1.599752458692463961e+03
2.194860187475226212e+03
2.771900414106479275e+03
3.404982110941633437e+03
3.279064608768319886e+03
2.844131052230367914e+03
2.288212934930549181e+03
1.949287365102288277e+03
1.417237948699904791e+03
2.009683010001531045e+02
-7.825595839147397328e+02
-1.057334711308963506e+03
-1.218206788268996661e+03
-1.229062860935000117e+03
-1.337828648843750670e+03
-1.382379471330926890e+03
-2.017785609673795307e+03
-1.543244008575563612e+03
-7.289628477376693354e+02
-7.705854571947061515e+01
8.404744482377872146e+02
1.814581898396577344e+03
2.418277069289819792e+03
2.461728703923110061e+03
2.151898934913918310e+03
1.884816836762842968e+03
2.212644979431514457e+03
2.007450956155129461e+03
8.121611819737061069e+02
1.752688491274987825e+00
-8.738190647166642293e+02
-1.597754376695518658e+03
-1.992156799220471612e+03
-1.768992070910816665e+03
-1.683963074926228956e+03
-2.412104620854002405e+03
-2.331682457147490368e+03
-1.470650957776125551e+03
-8.298604634511767699e+02
2.947698405676537732e+02
1.238479606902513524e+03
1.968368965155206979e+03
1.628311508453956776e+03
1.362250973883268216e+03
2.191191042905054928e+03
3.224202696191796804e+03
2.847133345096272933e+03
1.864047232201265160e+03
1.024887498583846991e+03
1.464531545680185900e+02
-8.053251167560207477e+02
-1.275297072210125862e+03
-1.287292642561550792e+03
-2.065504494056791827e+03
-3.243988594513340104e+03
-5.152647520209724462e+03
-4.551296296017611894e+03
-2.707915122276200236e+03
-3.537491682601907996e+03
-1.241961796492298845e+03
-2.366135824543986473e+03
8.171207506532464322e+02
2.025711899975845654e+03
6.706379317177725170e+02
1.268807865040307206e+03
-7.419516508109775259e+02
-1.661638623538520960e+03
-1.205326167758510792e+03
-1.550991133617041896e+03
-7.225241233606429887e+02
-7.089040760681981510e+02
-3.798142891577277624e+03
-4.179251901604672639e+03
-3.290193859414415329e+03
-4.387019233639927734e+03
-6.114712763259556596e+03
-4.895131866139382510e+03
-1.026185609679678464e+03
-1.950854236907850009e+03
-1.338038446595637652e+03
-1.030480460725672629e+03
8.458937333085417549e+02
6.959772715343473237e+02
3.372496601305806507e+03
3.635170703646566380e+03
2.312067669293495328e+03
1.175447206748791814e+03
2.640278734032166540e+03
-2.045070703781713632e+02
-2.677868626505329303e+03
-6.737508415121739063e+02
-2.406197507157291511e+03
-2.407309118303499417e+03
-3.349206919825870955e+03
-2.048874139798273973e+03
-4.512844725168689024e+02
-2.015230798907733458e+02
3.342846901685213652e+02
5.851393917572912642e+02
1.032169251828719325e+03
1.678616637432755624e+03
2.587498879002250305e+03
3.491820701366896174e+03
3.922627910291778335e+03
4.260956198408621276e+03
4.545658343034171594e+03
3.995610877234023974e+03
3.116777695677917109e+03
2.525198403375017733e+03
1.710920533066341022e+03
1.092124235809259744e+03
7.248276301089482558e+02
6.798688946378058517e+01
-4.624429288223172989e+02
-9.944205689141896300e+02
-1.066009712640788621e+03
-1.132446998177922978e+03
-7.616415536161619002e+02
-5.936559496385940520e+02
1.343013430929953529e+02
1.511401224538816678e+03
2.385945571035823377e+03
2.973816985326872327e+03
4.004994002187541355e+03
4.947904587318921585e+03
4.812745161568404910e+03
4.128473823859631011e+03
3.091178495631675105e+03
1.945155693830353130e+03
8.282864136059935163e+02
2.354869516626602035e+02
-1.918244030398695088e+01
7.915879001243246194e+01
-1.586909721480688233e+02
4.459022039569016442e+02
7.149431318144758052e+02
1.063403938338108901e+03
2.034376324545644593e+03
2.618951265547289040e+03
3.333450234591640310e+03
4.436885361118970650e+03
5.035739470279784655e+03
4.955887752691585774e+03
5.147140082023406649e+03
5.131492739221807824e+03
4.562885826037078004e+03
3.992308923672369929e+03
3.672637454034476832e+03
3.085878883256193149e+03
2.537883865278407939e+03
1.738590568639348021e+03
1.569145173242825877e+03
1.181535598346763436e+03
2.805084363446931093e+02
-1.490507363883511118e+02
-3.231020426700512189e+02
-6.317720895301133623e+02
-8.201661222671215228e+02
-1.091238003954465512e+03
-1.424797363975047347e+03
-2.569929602349311153e+03
-3.289778979214989249e+03
-2.904318050928066896e+03
-2.178473990260677965e+03
-2.099147481907747078e+03
-2.778385891450023337e+03
-4.474359185274095580e+03
-5.634923343730221859e+03
-4.328013815713113217e+03
-2.451834523857686690e+03
-2.163362729301194577e+03
-2.320645890270795462e+03
-1.596820520166812230e+03
-1.854919857155684440e+03
-3.088908593475830003e+03
-7.028603413886385169e+03
-8.058934908832341534e+03
-7.443043853087287061e+03
-7.180011567875935725e+03
-5.621762583182501658e+03
-3.748134442025926546e+03
-3.880104355585756821e+03
-3.591851119634491170e+03
-4.124286229422306860e+03
-6.123286942365135474e+03
-6.207591309753681344e+03
-6.650955638733427804e+03
-8.550500039467269744e+03
-8.901404407235973849e+03
-6.423631650703113337e+03
-5.569317457516754075e+03
-7.207449984779876104e+03
-4.739910755374938162e+03
1.396342231383920762e+03
2.390031570412890233e+03
-3.495161963561366036e+01
-6.994615794644830657e+02
-7.404576466416416451e+02
-1.101884954682445368e+03
4.864483443700009389e+02
2.511771309831802682e+03
3.723172863183503068e+03
4.921375103143713204e+03
6.311475396857129454e+03
6.262842134729003192e+03
5.691479039124544215e+03
4.189281415233481312e+03
3.158391638335866446e+03
2.619671305056194342e+03
2.528804845629661941e+03
3.309044449401802012e+03
3.878501255845317246e+03
3.757415450413589042e+03
2.968324342367345253e+03
5.963939622097534539e+02
-2.170609479550331798e+03
-2.944794575329055988e+03
-2.005189621070655448e+03
-3.053984214300747681e+03
-4.472315851562702846e+03
-3.690185753574332011e+03
-2.402715441150463903e+03
-1.206696395669553567e+03
2.530977261270846839e+02
1.927691123603351116e+03
2.654300829965573030e+03
4.610030106914767202e+03
6.069833905411036540e+03
4.545893526391547312e+03
3.494448762009050824e+03
4.572592901556452489e+03
5.658240896663454805e+03
4.262260685036460018e+03
1.893587631144736633e+03
1.155202027458631846e+03
4.162771572474539425e+02
-3.368868085264497267e+02
-6.844683832288337726e+02
8.763109443417439479e+02
3.076949625893056691e+03
3.160601050092575861e+03
2.372346239370618605e+03
2.934568645062837732e+03
4.490253797139088419e+03
5.100503820145555437e+03
2.736268825182971341e+03
1.816617928867489979e+02
7.033970736785165627e+02
2.353033544757149230e+03
4.621285548846231904e+03
5.633273155058392149e+03
3.363194003778407478e+03
4.771874183983567832e+02
-9.937375599927377152e+02
-1.052485544599837567e+03
7.739585718852330274e+02
2.348517370486077652e+03
8.631938789284448603e+02
-8.191437825788528926e+01
2.422052311527014581e+02
3.125025373789497394e+02
8.539864304611546686e+02
2.237902858019730957e+03
2.997505745375452534e+03
2.612674307173874695e+03
1.111211483100772284e+03
-1.730833793752469546e+03
-5.327272230977314393e+03
-7.750177165418250297e+03
-8.475496008053092737e+03
-7.612075259109183207e+03
-5.368912811242205862e+03
-3.361124373134709913e+03
-1.162678127554693901e+03
8.164551208996950891e+02
1.511096884249676805e+03
1.238075565076062048e+03
-2.287676080642750378e+02
-2.133385828759151991e+03
-2.739740952726586784e+03
-3.951701295092242617e+03
-4.801256956424262171e+03
-3.416382368373464033e+03
-1.636056602653704203e+03
-4.991639972257593172e+02
1.030591584759075658e+03
2.491147600952306675e+03
1.687202829581089190e+03
-1.001516915238943398e+03
-3.742195032648517099e+03
-3.150926905968838128e+03
-2.509401247712169607e+03
-4.789456776333770904e+03
-7.515219548561506599e+03
-8.816620057909962270e+03
-8.931822931781272928e+03
-7.044058239387582944e+03
-3.514425998838662963e+03
-1.411998959432574111e+03
-1.096822989438268223e+02
1.265588656736822713e+03
4.140839220447158368e+03
5.329223344669585458e+03
7.192914529590585516e+03
8.521949473690452578e+03
7.061186866840866969e+03
4.412529157157091504e+03
3.251639164256901040e+03
3.769172018900305829e+03
1.952144163982203736e+03
-1.236191912764425069e+03
-3.014757062420545026e+03
-3.798669746531859801e+03
-4.246937158742361135e+03
-5.039967030432203501e+03
-5.712360742164428302e+03
-4.144355444516449097e+03
-6.629500220811174813e+02
2.686719019325565569e+03
5.908636921658236133e+03
8.657746415896843246e+03
9.161825614171539200e+03
8.994218266127410971e+03
7.873159890955758783e+03
6.221346253690824597e+03
5.022083510273865613e+03
4.093087084686416802e+03
3.003446628828008670e+03
1.272932714006983133e+03
-5.916718368035500362e+02
-2.696275904862851803e+03
-4.886723183811996023e+03
-6.201062174886918001e+03
-6.890584859854929164e+03
-7.784644087189699349e+03
-7.941763649957774760e+03
-4.863153713441979562e+03
2.212350082092013963e+02
5.571903005958813083e+03
8.179298935959697701e+03
6.294417672845830566e+03
4.214352501890079111e+03
4.377183789598719159e+03
3.972570779420993858e+03
2.962517356637758439e+03
2.972013945044439879e+03
3.233154452225791829e+03
3.477272756642521927e+03
2.932884100592164941e+03
2.285788322954073010e+03
3.078078661903804004e+03
3.927792119940747853e+03
3.496828421279772101e+03
9.652204091826329204e+02
-2.124995006929117608e+03
-3.694515637984533896e+03
-3.177435324175894493e+03
-2.485189332563093558e+03
-1.471057673870059716e+03
6.629411895425778312e+02
3.155911280292893935e+03
4.541972384835714365e+03
4.016079803800296759e+03
2.563236186452862512e+03
5.285426401017767830e+02
-3.227964477235140293e+03
-5.962121700712928032e+03
-6.463782483382733517e+03
-6.877104291903471676e+03
-7.455079272462286099e+03
-6.209679757767753472e+03
-4.874045489577467379e+03
-5.948324819566686529e+03
-6.520283711406750626e+03
-7.437939105179958460e+03
-8.983514517284542308e+03
-9.621024008136559132e+03
-6.962529191394649388e+03
-4.163953604872030155e+03
-4.362174330457928022e+02
-2.123423605332077841e+03
-5.444582440331345424e+03
-9.473546720533106054e+03
-1.174122289716423438e+04
-9.789463599786316991e+03
-8.235265181496331934e+03
-6.112709524789418538e+03
-2.773886968887625699e+03
-9.964601514680705918e+01
8.490285173832119199e+02
-9.377337488975888391e+02
-9.519947311965935342e+02
-7.888351183868916223e+02
-8.393938483735489626e+02
2.852242296075880404e+03
2.202212650171436053e+03
-1.363442663325004787e+03
-2.525745925269353847e+03
-2.579662027606777883e+03
-1.960455934432494018e+02
2.930107281347168282e+03
3.719799800099609001e+03
4.686114315703475768e+03
5.771079524934383699e+03
6.870723892504889591e+03
5.896066710958812109e+03
4.290180717816856486e+03
5.426168367201003093e+03
7.134974298715714212e+03
7.336599130581207646e+03
7.552184595697268378e+03
7.411618845768181018e+03
6.179823156839853254e+03
4.036745808799211318e+03
3.036462764740574130e+03
4.417044230917837922e+03
4.770497000357824618e+03
3.940993751748009799e+03
4.009639753709988327e+03
4.404379044951377182e+03
6.442178376467715680e+03
7.367084530145837562e+03
5.580074234822064682e+03
4.974285246771015409e+03
5.929805148256834400e+03
5.785512602297430931e+03
5.801160852428468388e+03
5.859748780757547138e+03
4.410258701552974344e+03
2.601857478936419739e+03
6.756292259494273367e+02
7.169785318930941287e+01
2.253182715839254513e+02
-4.916303013166889855e+02
-1.237217336152742973e+03
-1.510495011551716743e+03
-1.096591109401447284e+03
-1.698500872366383646e+03
-4.285027537731568373e+03
-6.987297922571760864e+03
-8.540199095390651564e+03
-7.171558702099587208e+03
-3.047339975246730319e+03
-2.505727217020734088e+02
5.536941230569152594e+02
1.853058989052487277e+03
2.073258205092096887e+03
2.325731909507488581e+03
3.639701464698500331e+03
5.932811782265080183e+03
5.016732147748794887e+03
1.632745398509209508e+03
-3.476881216331468636e+02
-2.433993870185367086e+03
-4.697334080958663435e+03
-5.419702309257525485e+03
-4.013211979942705057e+03
-1.250989274917760213e+03
-1.841009537782802227e+03
-3.104216055935976328e+03
-1.192669589682010837e+03
9.027129081942507582e+02
2.248985121422435441e+03
3.811251700137543594e+03
2.556486139303854998e+03
-3.684342904023301799e+03
-8.427257237248131787e+03
-1.338735938723025538e+04
-1.628963107872619366e+04
-1.209608987242344665e+04
-5.076740247687550436e+03
-7.254183291892733223e+02
2.616979910790141730e+03
6.702217681021966200e+03
8.850179706048009393e+03
9.126069696530730653e+03
8.940934335773368730e+03
5.040586953480630655e+03
2.497934485955627224e+03
1.828953476152438043e+03
4.076256458134907916e+02
6.088685249792961685e+01
-1.125199761832728427e+03
-3.639688110418348515e+03
-4.231596036152747729e+03
-2.993728069406748546e+03
-3.241158104722324538e+02
1.285034723430720078e+03
5.906940950785532323e+02
-1.022941633366329711e+03
-4.091782627618677452e+03
-5.432949531418049446e+03
-3.573388548362551319e+03
-4.175084727586630834e+03
-8.921152500954114657e+03
-9.990777079129431513e+03
-1.163798414461813627e+04
-1.375559234476518395e+04
-1.210244677547019455e+04
-1.013560169083243454e+04
-6.022157013393139096e+03
-2.128142995155102653e+03
6.534605557989415502e+03
1.341122666218580162e+04
1.410653438628273943e+04
1.117946390755930588e+04
7.895938334144751934e+03
6.042013059239811810e+03
4.534885560492986770e+03
3.022578500303307464e+03
2.691029345269700570e+03
3.204158025051958703e+03
2.660830576955017477e+03
1.828008542725169946e+03
1.619981702210891171e+03
1.363745981698082460e+03
2.161646997086751298e+02
-2.259747335382563961e+03
-2.593959176013228443e+03
1.594990017627135614e+02
1.835651776224574860e+03
5.435873482351847770e+02
-1.655552085655776636e+03
-1.952589680085421605e+03
-2.943389777736515498e+03
-3.512975232200232767e+03
-1.932377826899252341e+03
-3.281705353869382691e+01
7.565920643651743376e+02
1.481809496215449826e+03
4.158766184204942874e+03
5.675462865745919771e+03
5.255972057529982521e+03
3.020370475399488441e+03
1.267735147840009631e+03
-5.258318485053391669e+02
-1.345368819895769320e+03
-2.588755217218687449e+03
-3.730992454458443717e+03
-4.063214742424148881e+03
-3.207436486683537169e+03
1.148357069030583943e+03
6.308137848853840296e+03
8.573939169355919148e+03
7.770942619578437188e+03
4.604348515687225699e+03
1.282783287163479997e+02
-8.425007207165201635e+02
-3.800690913592274569e+02
-4.162043625885483493e+02
2.025140075101889579e+03
3.184989755764060646e+03
2.570304335144562174e+03
8.468426931816763954e+02
-2.028523917122859302e+03
-5.121725637647254189e+03
-7.791721509037665783e+03
-9.146483530412442633e+03
-7.710188715280372890e+03
-4.369709421353969446e+03
8.695926812807053352e+01
4.207825512376833103e+03
8.395157845656929567e+03
9.105153289504742133e+03
5.882707954810907722e+03
2.986776418568866575e+03
2.542593790589012315e+03
2.976251157897370376e+03
1.086730164396676628e+03
1.826017933594522674e+03
-8.339553949874712089e+02
-7.291822907649572016e+02
3.083611971434903012e+02
-1.499469304734390789e+03
-2.883749030078157460e+01
6.271694054949085739e+02
-1.790498878106891198e+03
-5.562762431950448445e+03
-8.105481762888290177e+03
-6.623565766891078965e+03
-7.176844023973069852e+03
-3.760261644153259112e+03
-1.567866911371451124e+03
2.350383105265013455e+03
5.765578211648315801e+02
-1.803298311198896272e+03
-1.472140126674484009e+03
-5.088933499235870954e+02
-5.884872273810645993e+02
-1.160012820795115886e+03
-2.790518862208346491e+03
-2.460013006817282076e+03
-2.957546410820493293e+03
-2.641380659670153818e+03
-7.067769253315218521e+03
-7.888864306218640195e+03
-5.040472720402145569e+03
-1.928246150228242641e+03
1.691871033356240332e+03
1.580730089809337642e+03
4.918404439112545333e+03
4.331974790302983820e+03
4.957365331838976090e+03
1.366524986775502157e+03
3.904699613265391349e+02
-1.803733408725180198e+03
-4.225086329117459172e+03
-3.936731034394862945e+03
-4.025713869310553036e+03
-4.715982909157566610e+03
-4.431386840021295029e+03
3.891721675967649503e+02
5.816624258483471749e+03
7.057792819198035431e+03
5.269582742498360858e+03
3.099985506993511535e+03
1.592823473189050901e+03
1.502991846976757643e+03
8.235554849263581900e+02
-9.834236441326836484e+02
-2.421890763313957450e+03
-3.656854737103224124e+03
-3.336905045071158838e+03
-7.649643867834545290e+02
3.798190213429516575e+02
1.485454825624834712e+03
3.289992048070336750e+03
3.399130609727989849e+03
1.761708359942771949e+03
3.040916077669361130e+03
4.965609239636829443e+03
3.964863215542615762e+03
3.165698856188191712e+03
2.184976180230880800e+03
1.678463977938453581e+03
1.945103642943764044e+03
1.358815604222556658e+03
4.506701726428130996e+02
1.148678097702773044e+02
7.861016407900233105e+01
1.315862866579997672e+03
2.302272239962974254e+03
1.847807475893810533e+03
3.931677139726114945e+01
-4.741048473438841881e+01
2.076099809929967250e+02
1.811463589041833302e+03
3.779309140334573840e+03
4.668970816544632726e+03
3.725360753270063014e+03
1.879630503076834657e+03
1.056409231762427908e+03
6.356708956509736481e+02
1.785224911422845366e+02
-5.393848051919987938e+02
-3.559610610290550881e+02
-6.325731395949514280e+01
-1.802115638862514970e+02
-1.738115107545056048e+02
-2.483227457351935925e+02
-9.779136169195119521e+01
-3.843258455625599481e+02
-1.257504105946193249e+02
9.280200356764426033e+02
1.768700839335122055e+03
2.259189980759757418e+03
3.946575682187180064e+03
4.586829824005345472e+03
4.226947355490123300e+03
2.533972425206444314e+03
1.280931916191925438e+03
2.847532905160437053e+02
-1.316767365669113815e+03
-2.246610280271801912e+03
-1.923691111078457880e+03
-1.324102315013152293e+03
-6.768565254154776767e+02
4.390718242239418601e+01
-5.087196630003628570e+02
-8.915141490021730988e+02
-6.157600038622709349e+01
1.962003851361286934e+03
1.973286313913838967e+03
3.552649322126275706e+02
-2.637073063929910404e+03
-3.102635915049031610e+03
-3.661417790134889401e+03
-4.035344385237904589e+03
-4.761410164435127626e+03
-4.981682830120555082e+03
-4.521143752019839667e+03
-5.010711693764144911e+03
-5.813237080437232180e+03
-5.948780875371875482e+03
-5.302363263393999659e+03
-5.865972315917057131e+03
-5.937361144100633283e+03
-5.562705420848409631e+03
-2.621330476471804559e+03
3.355622257632396668e+02
1.527077614924838599e+03
-1.305643129542231918e+03
-5.211646585014027551e+03
-5.062775550265360835e+03
-4.494103091292176941e+03
-4.053762389836899729e+03
-2.743844409239917695e+03
-1.605063286801268987e+03
2.633868114936150505e+03
3.549889063725654523e+03
3.107984272862407124e+03
2.357221980772533243e+03
2.290496371493253264e+03
1.537648820158970238e+03
6.086000461650401121e+02
7.076176769224138070e+02
6.617950043663987572e+02
4.809389694034253466e+02
4.450471953902321047e+02
6.692134993720877674e+02
8.483903358010874172e+02
1.080842617673777568e+03
1.626129027130896702e+03
2.077338072396925327e+03
3.050596547865981847e+03
3.485788718914154288e+03
3.234415088038714657e+03
3.191175426104769940e+03
3.618207561827891823e+03
2.623537832068228454e+03
1.819004857096157593e+03
1.673715569053195622e+03
1.571802351034212506e+03
1.315315609366400849e+03
6.966837412114933841e+02
-4.096698790460379769e+00
-3.180799100833514785e+02
-8.091033263037063534e+02
-1.116185381302018641e+03
-3.811836671477910272e+02
3.581028276946245228e+02
8.586851715030429659e+02
1.288410414246445498e+03
1.350143051742233865e+03
1.417986969480481775e+03
1.579137934710051923e+03
1.503765493858986019e+03
1.109098243219223832e+03
1.252019841261378360e+03
1.502264582661545319e+03
5.180005400217712577e+02
-1.054176500957939425e+03
-2.133281768292121342e+03
-2.934517363880764606e+03
-2.801804561311699672e+03
-1.920471478561124286e+03
-7.987655900888572660e+02
-5.684734434586986254e+02
-1.549506455600731897e+03
-1.786333488034074662e+03
-1.641701674863874132e+03
-8.152571500113022012e+02
3.872176661673763647e+02
1.767771573483338216e+03
2.455446952930783937e+03
2.137264691471249080e+03
1.717263132087544363e+03
1.332402438144883945e+03
1.230659066460667418e+03
6.770889240207154671e+02
6.367219040532245344e+02
6.725247546102413025e+02
-4.445518667827442272e+01
-1.113048847242167994e+03
-1.550092580349122045e+03
-1.458754462934814910e+03
-1.542333838321388384e+03
-1.794760753804672277e+03
-1.785765715327664111e+03
-1.549166210988084003e+03
-1.252069442265679754e+03
-9.153521679776940800e+02
4.009838269724244242e+02
5.977673461324880009e+02
1.084981458603082501e+03
1.356710379789698436e+03
1.378909026203187295e+03
1.608443709026309534e+03
1.694318624407962034e+03
1.663669346088354814e+03
8.896560264221228636e+02
1.382422794797171832e+02
-5.315472971928426205e+02
-8.318245996889979779e+02
-1.378559259189089971e+03
-1.665700579308458146e+03
-1.572262418762490597e+03
-1.803326083917924279e+03
-1.954246410566661325e+03
-1.591238494415581272e+03
-1.256095726823035648e+03
-8.685751665034010784e+02
2.575500064166693619e+02
1.521458730908653706e+03
1.963024977945045293e+03
1.959088315603727779e+03
1.121622278700021980e+03
1.203397617907000040e+03
1.643405531809431068e+03
1.004657156529638087e+03
7.452563795999906233e+02
3.922910399818956080e+02
-1.502069459893090766e+02
-2.531324870019194293e+02
-9.537208957420172055e+02
-1.645287767844946075e+03
-1.595052531373572720e+03
-1.917152580900937210e+03
-1.980625635797217228e+03
-1.515588631821695344e+03
-1.667857186077569168e+03
-1.042119298065646717e+03
4.257404222591175369e+01
1.619025793233439572e+02
6.421376530235145310e+02
1.589431454551412571e+03
1.765588928932253566e+03
1.311566458055949397e+03
7.913941004069745304e+02
4.996136108545614434e+02
4.696501649123593438e+02
-1.910371861933795685e+02
-1.187240271725911271e+03
-1.206922579470436858e+03
-1.541021883583292492e+03
-1.635762813854324349e+03
-8.053115347285075813e+02
-1.955243061687874331e+02
-2.557480626123622187e+02
8.412369793189948552e+01
8.806596234052418595e+02
1.255147251883609897e+03
1.586081041435893212e+03
2.143882621185386597e+03
3.109620755356938389e+03
3.476348875458254952e+03
3.657906735139794364e+03
3.338436948095062689e+03
2.904567723707009463e+03
2.697499755137339434e+03
2.275145546969642965e+03
1.385750995648975959e+03
1.122170392146972063e+03
8.456749432664103097e+02
4.704736333076952519e+02
8.234173420015557099e+01
4.518927169310583136e-01
2.194341466559036746e+02
4.683279905765953117e+02
4.482502120457307910e+02
8.146070456861522189e+02
1.430959976018116322e+03
2.049603865606033196e+03
2.583689277605798907e+03
3.076991462760159720e+03
3.256397426120915952e+03
3.057904479755204193e+03
2.976407890934650368e+03
3.140448021593125759e+03
3.271805032543396919e+03
2.723698129369221078e+03
2.822310009273944615e+03
2.399660780112043994e+03
1.716687199392202956e+03
1.392266757950169449e+03
1.004376713316494119e+02
-1.854668843395412523e+03
-5.446056766903360767e+03
-6.614714346048139305e+03
-6.475744603925358206e+03
-6.047243551043315165e+03
-4.992182686766708684e+03
-2.811668174620628633e+03
-1.762733496070485216e+03
-1.838245764211816095e+03
-1.379090275878780858e+03
-2.110493653453715979e+03
-2.076513051611441824e+03
-2.307875957899149398e+03
-3.438702567309178903e+03
-3.698002468092930940e+03
-3.386810487919402931e+03
-1.583191582659509777e+03
-3.614044706870830851e+03
-5.433352012336699772e+03
-6.230145264915191547e+03
-6.154400456869292611e+03
-5.906181952844934131e+03
-5.386450929327646008e+03
-5.172079819611497442e+03
-5.221958281312647159e+03
-4.834155492815162688e+03
-3.979582942269627893e+03
-3.272330093199347175e+03
-2.654485298683736801e+03
-2.383919628366614234e+03
5.305424881321545172e+02
4.263013255001166726e+03
4.767433230377753716e+03
3.572804285175365749e+03
-5.388767803013917046e+02
-2.932561039183913635e+03
-3.128288893305224974e+03
-2.731066085810252844e+02
2.025004339806853977e+03
2.042092731367413762e+03
2.300262766842506153e+03
1.829532833363894269e+03
1.879987748306150024e+03
2.511622223623900481e+03
2.630429068414860467e+03
2.775514955285052110e+03
3.211901052707000417e+03
3.814510919405820005e+03
4.486482263855346901e+03
4.902960958107593797e+03
4.630130437810660624e+03
4.385033730205097527e+03
4.181691128084205047e+03
3.602188345079849114e+03
2.948556142576513594e+03
1.913679236987770082e+03
1.067530891235078798e+03
3.821049257321361665e+02
1.934029665918112357e+02
1.495256199949989195e+02
-2.434605182526840110e+02
-1.205527012547080261e+02
-9.179676779242832652e+01
1.069956196999773681e+02
3.139273689010202020e+02
5.534444377870351417e+01
-1.055014798166708260e+03
-2.066918667668880062e+03
-2.136344178756128258e+03
-2.407969943250954657e+03
-3.575713986751075481e+03
-4.171025026676868038e+03
-2.373658337507330998e+03
-1.516990148688178408e+02
1.216079201963852938e+03
3.705412813586431184e+02
1.955790879391204726e+03
2.077843796633388592e+03
7.306664370341724180e+02
-5.994126013178831869e+01
-1.229703756108465740e+02
-1.312179026416719196e+01
1.508956462355965584e+02
1.479123348545971112e+03
2.020217318973941474e+03
1.978495213631631714e+03
1.988681371952712198e+03
2.453852961505870553e+03
3.512224649745342504e+03
4.499708855116904488e+03
4.535182621252060017e+03
4.443671414332281529e+03
3.793219038787282443e+03
2.851773103226139938e+03
2.313381934854549854e+03
1.675049159165271703e+03
7.757057451007019608e+02
9.038659331408607045e+01
-4.569295345843210612e+02
-5.952838672047660111e+02
-1.294650432780731535e+03
-2.014962084228829099e+03
-2.102207321980436518e+03
-1.360402101692873430e+03
-7.125363689655516737e+02
-8.446271459915416244e+02
-4.706312658705907097e+02
7.451264716986571557e+01
9.728088723865168959e+02
1.988228453170791227e+03
2.317901253757262566e+03
2.419832447085796957e+03
2.065940543287146738e+03
1.153201324068670374e+03
7.165736312235078458e+02
-9.525106800337646007e-01
-7.423253482554023321e+02
-1.159611739563721130e+03
-1.681830879479472060e+03
-2.128978533601573872e+03
-2.499177729867478320e+03
-1.733470281684193424e+03
-1.442788718805984672e+03
-1.482141181603326004e+03
-1.237525764081928628e+03
-1.215894724072717509e+03
-7.642414029440224112e+02
1.644185455321519669e+02
3.430977172899464449e+02
-2.072643874591223323e+02
-1.699704003771270209e+03
-1.023111714374683515e+03
2.411544593058721603e+03
2.288176556915613219e+03
1.673753634612284714e+03
-2.068307467447830845e+02
-5.924690254115854259e+03
-7.375881120532127170e+03
-7.580369459749437738e+03
-8.012101478065986157e+03
-5.195163824031268632e+03
-2.946641708677170755e+03
-1.988587510753535298e+03
-2.021039767659863628e+03
-1.181073588284557445e+03
-4.636766342672435712e+02
3.124257124853386358e+01
6.526998731948945078e+02
1.625679877337254766e+03
2.032150212473232386e+03
2.015103522568384051e+03
1.635471954701732102e+03
1.306206801506643387e+03
1.751300780116449005e+03
2.315769510886162152e+03
2.280528808166324779e+03
1.424469452397031318e+03
4.735742520012786372e+02
-4.391704851705209194e+02
-7.858269033919392541e+02
-1.267468797358937081e+03
-1.292088323505387280e+03
-1.301722025223831452e+03
-1.393467131128179744e+03
-1.027300383388736236e+03
-3.201989980265158806e+02
-3.918315749980294527e+01
1.000759519894258801e+03
1.619613078681287334e+03
2.285329351908301760e+03
2.972924211858114631e+03
3.264492901354718015e+03
3.446969681360477352e+03
2.812302775789940824e+03
1.719398028448834793e+03
9.102290539346263358e+02
4.957556572516344886e+02
3.589188944272239041e+02
-8.028581643157809822e+01
-1.308903846797607002e+03
-1.922976328572699458e+03
-2.311519104402169887e+03
-2.637552365620965702e+03
-2.893144026336669413e+03
-1.640345926449217359e+03
-5.220877226316762290e+02
3.526827833850977640e+02
1.661014139439451355e+03
2.667842986207600461e+03
2.560154951395896205e+03
2.724990685216884231e+03
2.647281667887868025e+03
