-4.547634196372444421e+03
-6.190629778936991897e+03
-6.548077598973334716e+03
-3.022120577260795926e+03
-2.103952092446316328e+03
-4.961626914098265843e+03
-8.254081914386872086e+03
-7.405259121531823439e+03
-4.994137737605109578e+03
-3.187744934889777596e+03
-2.008071601925561026e+03
-1.937982546791233517e+03
-1.931447269443888445e+03
-1.514428046045888323e+03
-1.360980454819284205e+03
-7.381787108985175792e+02
9.080638913452618226e+02
-1.881590823710410518e+02
1.869081872003117951e+03
2.810670565043305032e+03
1.090525146545266352e+03
-9.832834464931456750e+02
-1.788775818059859830e+03
-8.760132937020908912e+02
-4.061036982588514661e+02
-1.037163419694155891e+03
-4.530747531535298549e+02
1.169318736898472253e+03
3.078108972375529447e+03
3.508283710403539772e+03
2.645883553635540920e+03
4.445051990844927786e+03
5.345829803734488451e+03
4.958235288060574931e+03
4.912320276184044815e+03
4.866087461368404547e+03
5.187721929798931342e+03
4.559302877516633998e+03
4.267834579262860643e+03
4.140300782816265382e+03
2.794657485845311840e+03
1.084979031192463253e+03
-3.272551597015992542e+01
-1.133466827019201219e+03
-1.638285862502840246e+03
-2.089165870022594845e+03
-2.024984902000760940e+03
-1.124501240106161958e+03
-3.896099524104189982e+02
1.950805722335851442e+03
4.521846732108869219e+03
4.951648754565194395e+03
4.519243208686347316e+03
5.112658776017835407e+03
4.892817520289038839e+03
4.413489829257887322e+03
3.853036187820129726e+03
3.434778511407328551e+03
3.904877710418645165e+03
2.569304493899888712e+03
-1.511642559146717417e+02
-1.201855149200153619e+03
-1.331520441281198146e+03
-1.580915762637170246e+03
-1.557162321640942082e+03
-1.068262848220787646e+03
-1.571256556906759556e+02
1.008432873006921454e+03
1.825434711422241435e+03
1.976985611042035771e+03
2.525377097370356751e+03
2.612274560466821640e+03
1.955512922647448249e+03
1.132318641589484059e+03
9.679386036024709483e+02
1.998282153919791426e+03
2.665403705050618100e+03
3.012306925063625840e+03
2.787056518704733207e+03
1.667701385891826931e+03
-5.058480482428232108e+02
-2.150608445417436087e+03
-2.458625723489574739e+03
-3.057882531558954270e+03
-3.292432940536970818e+03
-3.066262480493958265e+03
-1.768284887206127223e+03
-2.044373377825042724e+02
6.003765704551717590e+02
1.899261237322571105e+03
2.552251714903229640e+03
3.241411488415545136e+03
3.863779691522021949e+03
3.965423518229926685e+03
3.481329884271902756e+03
2.893440226117990278e+03
2.628844967926536810e+03
2.389667651617862248e+03
2.070879287555453175e+03
1.599424104542877558e+03
2.732524749946804832e+02
-1.255709061646767395e+03
-2.034598045769347436e+03
-2.747391574933980337e+03
-3.704147216636186840e+03
-4.098976070084054300e+03
-5.157791143395294057e+03
-5.410521554693623330e+03
-5.061120474024684881e+03
-4.164570077703969218e+03
-3.815883023954223063e+03
-3.091026887425651239e+03
-2.749970112263108604e+03
-2.901724276585498046e+03
-3.272360211364086354e+03
-3.025901445722710832e+03
-2.978253724301489001e+03
-2.976435702069114086e+03
-2.409507454263598902e+03
-4.377575871229552831e+03
-5.986610999847730454e+03
-4.843529253904009238e+03
-2.848557119124932342e+03
-2.928890297432090847e+03
-3.543565564703352720e+03
-3.258705107589096770e+03
-2.437307336293130447e+03
-9.252838505440507788e+02
5.704112113188318745e+02
2.510785850988974289e+03
3.460808616907864689e+03
3.734451034489668018e+03
3.867664094984159419e+03
3.738447897592548998e+03
3.629784231020089919e+03
3.677609187583623680e+03
3.337850049682763256e+03
3.785520110902605666e+03
2.504622594560090874e+03
1.605112227282984350e+03
2.819848764305689315e+02
-1.564907695680863071e+03
-2.370660782776621545e+03
-2.380322812393819277e+03
-2.304025304626863999e+03
-2.357924030074008897e+03
-1.753966336528683087e+03
2.999845851434135966e+02
1.744895328836303861e+03
2.030689623475277585e+03
1.823345633337598201e+03
4.499291638036920631e+02
1.365476223828405637e+03
3.327967252865980754e+03
5.129384504616909908e+03
5.914677833030749753e+03
5.296884804552588321e+03
4.435024889366489333e+03
3.773975122648255365e+03
2.824639653551913852e+03
1.629871259125556662e+03
-1.694560297152070802e+02
-1.948382716089454561e+03
-2.321911483385577867e+03
-2.421079342356760662e+03
-2.122975253868074560e+03
-1.767608159894673463e+03
-3.779279800224398969e+02
1.298141571070474356e+03
2.806584461945180465e+03
3.782469095300067693e+03
4.230931714902746535e+03
4.367951345038121872e+03
3.906573440756649234e+03
3.414716338835835359e+03
3.610442069547937990e+03
3.571861945210314389e+03
3.182962034602612675e+03
2.806722068791361835e+03
1.971051370156688790e+03
6.688441007462099606e+02
-6.279623972321829797e+02
-3.340338805637531095e+03
-5.047280793882739999e+03
-4.593940294080859530e+03
-6.741353315541781740e+03
-8.275406584316369845e+03
-5.885155293658156552e+03
-4.699574348217774059e+03
-3.274513794364776004e+03
2.122026335805996951e+02
3.473546770372310675e+03
2.659593794110907766e+03
-1.060482404202616863e+03
-1.038668132460204106e+03
-1.254913091772231382e+03
-1.845054831020151369e+03
-3.052045042380150790e+03
-2.762987087640728987e+03
-2.811930901212910157e+03
-3.724948310499879881e+03
-3.070987514165190078e+03
-2.978927959631133490e+03
-6.075817636337455951e+03
-7.021742249543111939e+03
-7.415738655163723706e+03
-7.105871784083063176e+03
-6.344079471128976365e+03
-4.485129709125511908e+03
-2.826007931217563964e+03
-2.448765853526634601e+03
-2.220230191909229234e+03
-7.322629650610471117e+02
-1.508893725207454679e+02
-4.890065888472163351e+02
-9.533392741838625852e+02
6.474129212602330199e+02
1.755252443256074230e+03
-3.358022776332113040e+02
-1.762770842938952228e+03
-3.057807828206804061e+03
-4.949902390580911742e+03
-6.188884018541817568e+03
-4.886802914924132892e+03
-2.180974779160868820e+03
-1.182638469009911660e+03
-1.814763266109850122e+02
8.698895668968358450e+02
2.098591402434151860e+03
3.493079959680387674e+03
3.766811153742405168e+03
4.625686456689938495e+03
5.242407309497858478e+03
5.431658600842432861e+03
5.579512621011373994e+03
5.239233500494576219e+03
4.243664770072428837e+03
3.430792563700721985e+03
3.872694027854602609e+03
4.220384445714588765e+03
3.561910721715569252e+03
2.224303091157694780e+03
8.475725893721829607e+02
-3.562614360382438576e+02
-8.335370684972037907e+02
-7.878783378367186288e+02
-6.731293708909670386e+02
2.449574803229783981e+02
1.454386438873515772e+03
2.361946444022979449e+03
3.079456536135647639e+03
4.336175575139537614e+03
5.136090408823135476e+03
5.502448728706121074e+03
5.744618146896119470e+03
5.572968392440692696e+03
5.008213875075869510e+03
4.054557037331897845e+03
4.447721344792404125e+03
4.518526604810834215e+03
3.210841897196625268e+03
1.566651007404451548e+03
1.604286341925032673e+02
-5.559099029993942622e+02
-5.442988579855194757e+02
-7.155234091360093771e+02
-1.113638833484199949e+03
-2.214184347824276813e+02
1.040417126885020252e+03
2.698306999904863005e+03
3.749245009904660037e+03
4.094443717371673301e+03
4.743108968233471387e+03
5.278737995996845711e+03
5.215706978187276945e+03
5.132912036065666143e+03
4.351391661236139953e+03
3.910175660060737300e+03
3.643537815344389855e+03
3.662506701237708512e+03
2.814484702311654019e+03
1.015228398347426491e+03
-1.659478230123633296e+02
-5.141072620905539452e+02
-4.402788817160638928e+02
-3.723634045472434195e+02
-2.182522233790000712e+02
5.268093563721294004e+02
1.639724059277272318e+03
2.620921614137218512e+03
3.479727656375921470e+03
3.766912804195064837e+03
4.201946099953242992e+03
4.697353728742787098e+03
4.877680048975099453e+03
4.286471089441088225e+03
3.577657609997162126e+03
3.931270402880405982e+03
4.186267957482421480e+03
3.174148828904671063e+03
2.547408025444610189e+02
-4.331547072727464183e+03
-6.847825701085856963e+03
-7.826444630095050343e+03
-7.915554587501778769e+03
-7.826830314211894802e+03
-7.556272617638313932e+03
-6.591189329768170865e+03
-5.151225342275535695e+03
-3.643165454833882450e+03
-2.124262630377759251e+03
-1.874470476866555373e+03
-1.494610357168509609e+03
-1.437792563512907009e+03
-1.041287814891296648e+03
1.147820419410071963e+03
1.092664455725928974e+03
-1.669706254089781851e+03
-2.438997039985228639e+03
-3.523287445259200013e+03
-4.631215442846963015e+03
-5.633368550723323096e+03
-6.730925335197707682e+03
-6.934325720446297964e+03
-6.952962495243235935e+03
-6.892833004437383352e+03
-3.671335235935204764e+03
-2.544697567256486764e+03
-1.235854588077591188e+03
-6.025863671444817555e+02
2.355532393075428899e+03
3.688852340680411089e+03
4.472629068277076840e+03
4.368744074133617687e+03
4.159176962274105790e+03
5.036937985085640321e+03
4.781173259663629324e+03
3.954797958354624825e+03
2.679823311392736287e+03
1.940561824034247820e+03
6.014559174427064363e+02
-5.867062270323259554e+02
-1.641383492434341861e+03
-2.749542011447283585e+03
-3.483565950326215443e+03
-3.740978893995621092e+03
-3.750836899977056873e+03
-3.182780599313893163e+03
-2.320346523776238882e+03
-1.402329113432358326e+03
-4.340330013785443839e+02
1.004905845319223374e+02
-9.977583968444112372e+01
4.301672524522481353e+02
8.965884408225047082e+02
9.522725744268825565e+02
7.345236650823248965e+02
3.160525216721468951e+02
-9.237323018612302121e+02
-1.607882296831626263e+03
-2.485020998218938985e+03
-4.490884057674675205e+03
-5.661973553877853192e+03
-6.729762379401617181e+03
-6.662240423282551092e+03
-6.531346005734907521e+03
-6.742744709183945815e+03
-6.397029365078171395e+03
-5.387896180590377298e+03
-4.143866757571060589e+03
-3.665088644153057430e+03
-3.411939140997444156e+03
-2.863977571354718293e+03
-3.024003077496576680e+03
-3.897969223372509987e+03
-5.607283555848723154e+03
-6.073198674748588019e+03
-4.467343838751764451e+03
-4.711658090174359131e+03
-5.767305500059114820e+03
-6.282905858489855746e+03
-7.745493131157557400e+03
-9.462143204943375167e+03
-1.020186016077084605e+04
-1.031841478735380588e+04
-9.948561358964570900e+03
-9.197097315680819520e+03
-8.283448123103396938e+03
-7.510981785070277510e+03
-6.528034034265511764e+03
-5.193046673470318638e+03
-4.410590930469568775e+03
-4.930549789247892477e+03
-5.457866135045955161e+03
-5.820387700421306363e+03
-6.429514680510712424e+03
-6.074963346480001746e+03
-6.187586508769386455e+03
-6.482418459288262056e+03
-6.670017887611204969e+03
-7.673944004771920845e+03
-9.450037806526941495e+03
-1.054271038446129023e+04
-1.079342565851971267e+04
-1.059300228122251247e+04
-1.063626527297806388e+04
-1.067300490097272996e+04
-1.005020720163312399e+04
-8.729996649520768187e+03
-6.924922269426694584e+03
-5.110960288207854319e+03
-3.359886589839143653e+03
-1.360544931197992128e+03
5.488990535510324662e+02
2.021455574984549230e+03
3.016155925601619401e+03
2.759718474610684552e+03
1.760249834445573924e+03
7.487023522628429646e+02
4.199134249645457544e+02
2.417041919102249210e+02
-6.533948616107770704e+02
-1.747868401178961221e+03
-2.590997494012989137e+03
-2.805109511624528295e+03
-3.521542609215603989e+03
-3.744540536297412473e+03
-2.307242659806883239e+03
-1.149095464165791327e+03
-1.284524090805266496e+02
1.629418829556751234e+03
3.649985946957996930e+03
5.892699349241057462e+03
7.914192679487130590e+03
9.780987262908536650e+03
1.097540827235606776e+04
1.118075631047427851e+04
1.108645294446625303e+04
1.147296837250128920e+04
1.248883935118754562e+04
1.252837245638629065e+04
1.167659938426808003e+04
1.080690077476675651e+04
9.034640146365967666e+03
7.543981798333597908e+03
7.451999096820272825e+03
8.009134035761564519e+03
7.337476900410432791e+03
7.365460975877434066e+03
9.296206815213452501e+03
1.092193931610463369e+04
1.277200061060881853e+04
1.530772498022630498e+04
1.784847821956277403e+04
1.922716293094083449e+04
2.000865769594500307e+04
1.998650872590267682e+04
1.956080550790545749e+04
2.022030912861122488e+04
2.184967236434459483e+04
2.312198694819405137e+04
2.321156914959370624e+04
2.166519465813042916e+04
1.968266883558069821e+04
1.923088942146326735e+04
1.897174352278688457e+04
1.776367947825564625e+04
1.641594116501152894e+04
1.543982179071281462e+04
1.365844418417200177e+04
1.204666930575359038e+04
1.243697245420098989e+04
1.431349303174059969e+04
1.548957512963032241e+04
1.702028644558016822e+04
1.839088675524481732e+04
1.795448098520327767e+04
1.762853321342507479e+04
1.877815122405340662e+04
1.919184939633727845e+04
1.569355955898389948e+04
7.675286124086966083e+03
1.484878363180285305e+03
-2.402194393472939737e+03
-5.974736648767194310e+03
-5.184791548253530891e+03
1.342239612900741804e+03
8.941906315615120548e+03
1.306456142027332317e+04
1.325310044638166255e+04
1.352533687404390730e+04
1.767489821352382933e+04
1.965453818219404275e+04
1.923312083603618521e+04
1.742121324102514700e+04
1.347932252336850433e+04
9.430005347725526008e+03
7.260030444594118308e+03
5.318350462102358506e+03
3.890845781084809460e+03
-2.376563256122604798e+03
-1.854990796310613587e+04
-3.299518083760907030e+04
-3.698734860320987354e+04
-3.356855647340771975e+04
-3.174774517116710922e+04
-2.873361555944910288e+04
-2.155185263717301132e+04
-1.329831129512347798e+04
-1.391054377942595602e+04
-2.410730875389602443e+04
-2.991935727138127913e+04
-2.731740007758661886e+04
-2.408906785094316365e+04
-2.327786857096874883e+04
-2.326642528191791644e+04
-1.972511058816065997e+04
-1.710630439312535964e+04
-1.065854541216235521e+04
1.066550617375313050e+04
3.004942870206104271e+04
3.236597418266248133e+04
2.092083961142589760e+04
1.024761748119233926e+04
4.728494649647875008e+02
-4.780769994623068669e+03
-1.015455974273949323e+04
-1.320760766393595623e+04
-1.244792073866739702e+04
-1.632964526258724254e+04
-1.784178330504648329e+04
-1.650131176358151788e+04
-1.391121631693777999e+04
-1.213738016644482741e+04
-2.039782060598522003e+04
-2.857259222916665749e+04
-3.015177405867504422e+04
-3.500232815379735985e+04
-3.686010184590952122e+04
-3.772001873204537696e+04
-5.146400919151300332e+04
-6.605394934513790940e+04
-6.910158187655922666e+04
-6.255279642775974207e+04
-3.643057949993659713e+04
-1.023675645055739005e+04
-9.011158721215684864e+02
9.692617981742856500e+03
1.719078320290869669e+04
7.181867564359812604e+03
2.563195949806664430e+03
6.339976731888090399e+03
1.183059038137169227e+04
1.930933182700877660e+04
1.425135326883335438e+04
1.917806613885001980e+03
-1.572815597710285329e+04
-3.109619720546805911e+04
-5.189471911501173599e+04
-6.806638857306991122e+04
-5.999412662168004317e+04
-4.391881601121561835e+04
-4.956623946532563423e+04
-5.984820963821692567e+04
-5.466957352442508272e+04
-4.521520321935137326e+04
-2.004399633572290622e+04
1.331316030461915034e+04
3.033060200034036461e+04
3.680558970989331283e+04
2.738534576499506511e+04
1.569800742243128661e+04
1.566539486502378713e+04
1.469657980307001708e+04
4.795967921191750975e+03
-8.104549905756554836e+03
-1.963905589336880803e+04
-1.350260772959703354e+04
-7.617339636031205373e+03
-5.896432281272197542e+03
-9.087132862726466556e+03
-1.365955679091440834e+04
-1.179998254181861375e+04
2.074021095965493714e+03
5.319287916501903965e+03
1.124364407394776572e+04
2.418971699175821414e+04
3.138279822218242771e+04
3.050558412236838194e+04
2.658372088089424142e+04
1.993284136971987755e+04
9.571534276712536666e+03
-4.412803970027009200e+03
-1.241366352952982561e+04
-9.591695577585995125e+03
1.297744451198038405e+04
3.193290688932936973e+04
3.728096330312432838e+04
5.105483340179200604e+04
6.923066485187599028e+04
7.139754271333324141e+04
6.406250996688386658e+04
5.247055184261893737e+04
3.991566651529286173e+04
2.810776559622724380e+04
1.309969178224671668e+04
1.517125677316136353e+04
2.812033641758904196e+04
4.138383527605226118e+04
4.100371621653575858e+04
4.125467970716280252e+04
4.976343109234917210e+04
6.176674253049388062e+04
6.856729505028130370e+04
6.464762118513938185e+04
5.581228240796059254e+04
6.092962106116992800e+04
6.732609086105506867e+04
6.496818438790403889e+04
6.493024973343696183e+04
6.189064077797567006e+04
5.557858626814993477e+04
4.902830742393479159e+04
4.185709639964537928e+04
3.325813222774634050e+04
2.438050393448977411e+04
2.031128978905542681e+04
1.924769567616049608e+04
2.039691670150381105e+04
1.998515464492877436e+04
1.536459297062377664e+04
1.409217547529085641e+04
1.560130105743319291e+04
1.819105535628303915e+04
2.087611452234321041e+04
1.873942481023761866e+04
1.481991981911435323e+04
1.864939424460923328e+04
1.891679439211716453e+04
1.545101309418642450e+04
1.096084113307136067e+04
4.681090143820877529e+03
-3.970435673066932850e+03
-1.193994348901675403e+04
-1.804064870936246007e+04
-2.067977166832600415e+04
-2.048658157802065398e+04
-1.810231387551198350e+04
-1.714899670057497133e+04
-1.946762872670172146e+04
-2.309833960159251728e+04
-2.472031636067186992e+04
-2.602271516377859007e+04
-2.969777669981823783e+04
-3.925964056210465787e+04
-4.743451473262981744e+04
-5.366668539076492016e+04
-6.206733296451336355e+04
-6.701955192636830907e+04
-6.707255173810930864e+04
-6.452356640598148078e+04
-6.066278123889592825e+04
-5.520028017599882878e+04
-4.973119219247122965e+04
-4.702167430372993113e+04
-4.975483777143233601e+04
-5.176486107691791403e+04
-5.086383465621513460e+04
-4.805375431616959395e+04
-4.803357847921912617e+04
-4.765620978166985151e+04
-4.567956446869933279e+04
-4.650752733325470035e+04
-4.495287907378393720e+04
-4.278344255225989036e+04
-4.053507314380693424e+04
-3.625666816560466395e+04
-3.432914797800818633e+04
-3.511124137773129769e+04
-3.641668711294690729e+04
-3.749020139060250222e+04
-3.877851644050671894e+04
-3.915227248572518147e+04
-3.700313980939854082e+04
-3.594387819469405076e+04
-3.448003161801379611e+04
-3.135516272095452950e+04
-2.908589273743472586e+04
-2.692664863949755454e+04
-2.285984037979906498e+04
-1.785482908086346288e+04
-1.382597344976060958e+04
-1.171853654837739487e+04
-1.016172313188723820e+04
-7.823819756596108164e+03
-5.027091308502086576e+03
-2.006875582466173455e+03
-6.613587193729848650e+02
-1.618615057718859589e+03
-2.181801189002925639e+03
-4.359039726088400357e+02
-2.302955265413766028e+03
-1.708079528292141504e+03
-4.713145020410022425e+02
4.513445521192171327e+03
4.850247943709388892e+03
1.129995146932996704e+03
1.803831861591778761e+03
4.197944151738745859e+03
9.213487506977469820e+03
1.051468519481769363e+04
9.311926011120653129e+03
1.289757391760827886e+04
1.527798317894287902e+04
1.421656112602597750e+04
1.963754967542093073e+04
2.167613841051646523e+04
2.869766112537239678e+04
3.284562185406866774e+04
3.408157500441771845e+04
3.275801512822547375e+04
2.885832224900298388e+04
2.846498201950052680e+04
2.805258096802608998e+04
2.934276569483328421e+04
3.202608006825768098e+04
3.009010325374187232e+04
3.079447390274802456e+04
3.057273622516288742e+04
3.483841358777625283e+04
3.799121931350218802e+04
3.867878749637801229e+04
3.772480038686886837e+04
3.924205535624087497e+04
3.756419074932138756e+04
3.894275464179908158e+04
3.807541864983642881e+04
3.433813336493053794e+04
3.540501795271025185e+04
3.849574003423763497e+04
3.990986652892725397e+04
3.542909683093396598e+04
3.240875690373140242e+04
2.852201488830130984e+04
2.204840015425196179e+04
1.889271461043438831e+04
1.809480872709830146e+04
1.756037772032589783e+04
1.821183036963910126e+04
2.125104599203495673e+04
2.347692907644049774e+04
2.477231931153282130e+04
2.374805557096768098e+04
2.113390121610486312e+04
1.879045886744046220e+04
1.585333759171193196e+04
1.248609625364897693e+04
9.527714367680317082e+03
7.105686269281318346e+03
4.797613451436006471e+03
4.265591199417175403e+02
-4.594317004717920099e+03
-8.166566307686791333e+03
-1.012385530216329062e+04
-1.215310917739115939e+04
-1.147709442423448672e+04
-1.097287621831946126e+04
-1.083610955367521638e+04
-1.152843878974444124e+04
-1.274885348774392878e+04
-1.348526297617869750e+04
-1.367317228043261275e+04
-1.172095391575394206e+04
-9.062554367906001062e+03
-7.380712429050057835e+03
-8.611347287717168001e+03
-9.945821549165910255e+03
-9.079275379551680089e+03
-7.602362463812204624e+03
-7.459657801734711029e+03
-8.372572271119988727e+03
-9.686572082576336470e+03
-1.205604182335973383e+04
-1.404662717643878022e+04
-1.512134765523424539e+04
-1.640722375412923066e+04
-1.671061525954815443e+04
-1.643882356741531476e+04
-1.536290869943505459e+04
-1.297770457595258449e+04
-1.007030487063942201e+04
-7.469659481945522202e+03
-5.748512384204752379e+03
-5.168153927333707543e+03
-5.046423176478653659e+03
-5.176569474818336857e+03
-5.536817956839533508e+03
-5.934176076539365567e+03
-5.078377307213107997e+03
-4.874211405953046778e+03
-6.486699845390311566e+03
-8.406874600560460749e+03
-1.092438870199283156e+04
-1.347846190728165493e+04
-1.594557757642753859e+04
-1.545382648132160102e+04
-1.368198636278617232e+04
-1.251049795032796646e+04
-1.031416817633324172e+04
-7.450381366910974975e+03
-4.322510747503656603e+03
-2.023695787534877581e+03
-2.325422371107420531e+03
-4.455126264202341190e+03
-5.309900861723091111e+03
-3.955235086362838047e+03
-3.425407861137699001e+03
-3.657589779877769615e+03
-3.925995421229618387e+03
-4.472350702990681384e+03
-5.000440766469562732e+03
-5.776709616109980743e+03
-7.452007628338706127e+03
-9.996162545166607742e+03
-1.183368076142082282e+04
-1.216210397130372803e+04
-1.136510577933650529e+04
-9.283729331817681668e+03
-7.897746277739457582e+03
-8.081125015618637917e+03
-6.294014348572161907e+03
-3.858822022838332487e+03
-2.170310665580779641e+03
-3.855678590277990452e+02
9.859103566766860922e+02
1.346677763754434181e+03
1.118685748704401931e+03
1.882033056370067015e+03
1.912614560151208707e+03
1.204691523825071044e+03
6.995103345465561517e+01
1.083865237032733376e+03
1.399833931361363057e+03
4.983962142872541534e+01
-1.413081417532029036e+03
-2.339454735033936231e+03
-2.834195020651129653e+03
-2.114164466803922551e+03
-5.610147577527272915e+02
1.776643784873503819e+03
3.737511857882728236e+03
5.735690840569464854e+03
6.657286741296075888e+03
7.268079400048393836e+03
8.112777168079494913e+03
8.833430976546384045e+03
8.876202757807472153e+03
8.567969821823702659e+03
7.802454230148787246e+03
7.080125917132971153e+03
6.234260056159560008e+03
4.600982726620683025e+03
1.837754026833734770e+03
-8.746553724244049590e+02
-3.149285575476889335e+03
-3.944448454881726775e+03
-4.430124186721723163e+03
-4.678373649472283432e+03
-3.527937183719971927e+03
-1.271202217019244699e+03
8.221600508434436279e+02
2.839032028186474690e+03
3.625024159833657450e+03
4.197205851362730755e+03
4.326534862580501795e+03
4.488627140377731848e+03
4.597317862301788409e+03
4.663951553420843993e+03
3.995886405986621867e+03
3.376314978138519564e+03
2.665546655409333198e+03
1.245147431035135241e+03
-1.207571436935604879e+03
-3.962685669941003198e+03
-6.427287276085017766e+03
-7.438498573689924342e+03
-7.683068462713075860e+03
-1.035051466306423208e+04
-9.474936323627885940e+03
-5.818313226031497834e+03
-2.804555589791439161e+03
-8.036191716939499656e+02
7.720992660872627766e+02
1.525046340044862973e+03
1.924890588489668062e+03
1.920753130022493906e+03
1.619937068254189626e+03
1.264603827093671725e+03
9.020763747559311696e+02
5.127666656437579604e+02
-8.707897118927678548e+01
-1.287362478343150315e+03
-3.510123791303344660e+03
-6.275442201164612925e+03
-7.729430852422398857e+03
-8.167967903629180000e+03
-7.916687612334442747e+03
-7.391372331611712070e+03
-6.552048061319936096e+03
-5.081572294558148315e+03
-2.909483062083791538e+03
-6.650555143374455156e+02
7.598654676407261377e+02
1.410348246727321566e+03
2.015751428725986216e+03
2.388990394839066994e+03
2.354751907391049372e+03
2.075802922294295058e+03
2.008016855954961784e+03
1.582156521918973795e+03
8.910377773860917614e+02
5.248337051734085890e+02
-7.559819244523866928e+02
-2.701391958748815796e+03
-4.525613103335958840e+03
-5.586837513217191372e+03
-5.534885716931955358e+03
-5.060833615303487932e+03
-4.109866369363427111e+03
-2.503709352552440123e+03
-7.404837239565066511e+02
1.115793472261161241e+03
3.008100587407368948e+03
3.737181215789696580e+03
4.303228497411086209e+03
4.559465984901430602e+03
4.857868453285263058e+03
5.118316504838868241e+03
4.972736039943611104e+03
4.554056611782077198e+03
3.668065560739005377e+03
2.871743779370510310e+03
1.533917569971152943e+03
-7.696200089882822795e+02
-2.350916235203941596e+03
-3.215018953377942580e+03
-3.433087758282908453e+03
-3.251446009421922554e+03
-2.346166843253256957e+03
-7.330859045397539830e+02
7.178429418589106490e+02
2.737522323573983158e+03
4.290812400107281974e+03
5.107693838232127746e+03
5.965226927011160114e+03
6.062249341078732868e+03
6.063029970180356031e+03
6.088187352599658880e+03
5.865968154085133392e+03
5.598183731884585541e+03
4.688497559376710342e+03
3.769658826381631116e+03
2.024022855225535977e+03
3.290194319152723779e+01
-1.523182944822565332e+03
-2.740391227576656092e+03
-3.629196060711745304e+03
-3.582722237494781893e+03
-2.702348744323530354e+03
-1.710406884455745967e+03
1.292256718904907302e+02
2.098467996120192765e+03
3.299973165996510488e+03
3.859872137305294928e+03
4.585840688590391437e+03
5.010979725587512803e+03
4.932140874821399848e+03
4.652650404336151951e+03
4.120577017751014864e+03
3.053821142255899758e+03
2.692997066757624452e+03
2.120198802601361422e+03
1.474465037306415240e+02
-1.958056649323959618e+03
-3.399466856793675106e+03
-4.546956808082077259e+03
-5.089737270570101828e+03
-5.028928375885743662e+03
-4.186486175445253139e+03
-2.949059799916698921e+03
-1.709565241592073562e+03
-8.289455124732819513e+01
1.358871447167659881e+03
2.261012018510965845e+03
2.946645007869463825e+03
3.576582248878767132e+03
3.840529364400560553e+03
3.715468772049304789e+03
2.942915627207853959e+03
2.100796480905568387e+03
2.147054916045648042e+03
1.750993533149758605e+03
-1.602776298199807457e+02
-2.278716206451185371e+03
-3.900526280157542260e+03
-4.574858678299731764e+03
-4.540988572517908324e+03
-3.857947572280299482e+03
-3.599562623309358059e+03
-2.870555140948307780e+03
-1.180696527564532971e+03
4.521682961434848949e+02
1.890211638817312860e+03
2.671602231913236665e+03
2.378411344881561035e+03
-9.138194295812296275e+01
-1.179716335699568845e+03
4.176733201861696898e+02
5.078267109108681439e+02
2.786948745581621552e+02
2.332262290960022142e+02
1.785118949902534951e+02
-1.964698277048277532e+03
-4.169382978264436133e+03
-5.523606237866821175e+03
-4.008165826182821547e+03
-4.909884596097907888e+03
-6.527868398404161780e+03
-5.504224651147452278e+03
-3.877086571713907688e+03
-2.868468231127302261e+03
8.238511889929774270e+02
2.420249413088798519e+03
2.106876810130230297e+03
1.112608176604867140e+03
-2.747334176720570440e+02
5.268072582140272289e+02
4.121280607661990871e+03
3.106861619397537652e+03
2.664781143328588314e+03
8.738985403859761618e+02
2.360528379643818653e+02
1.288177302769265452e+03
-1.395694095371560024e+03
-3.772417149510401032e+03
-3.391133796745385098e+03
-5.349004411201503899e+03
-5.448049466485294943e+03
-4.447259816883696658e+03
-1.276671255709287152e+03
8.387695740851553410e+02
2.958213698082906831e+03
4.014951948392919803e+03
4.184078559013908489e+03
4.535568801614172116e+03
5.701276615330786626e+03
5.721166441875752753e+03
5.345577625890909985e+03
5.406648952017293595e+03
5.189261209347277145e+03
4.434408793728874116e+03
3.564169118294516466e+03
2.351361441650986762e+03
7.638576888434164402e+02
-1.019281439664017057e+03
-2.862114224466649375e+03
-3.678781887347319298e+03
-3.152423212538281859e+03
-2.821071380726403731e+03
-1.448247259374026271e+03
6.930721018356734930e+01
1.621650082125659310e+03
3.245605023158491804e+03
4.142341333033087722e+03
4.501991004859415625e+03
4.678577125186794547e+03
4.675168211945944677e+03
4.767695272613818815e+03
3.918225581390432126e+03
3.515719074445077240e+03
3.236243977050517515e+03
2.483881207245745827e+03
1.573654629246695094e+03
-4.717537192403197537e+02
-1.837512917203767074e+03
-2.538332860883509966e+03
-3.118191761610935373e+03
-3.295438403010480670e+03
-3.155133183316795112e+03
-2.570952637846059133e+03
-5.557261671959256546e+02
8.266278395254215638e+02
2.004008717345224795e+03
2.785246335797213760e+03
3.095255412547014657e+03
3.130232418632890131e+03
3.439312302289231866e+03
4.513536145724528069e+03
4.682530677171241223e+03
3.814274530024468731e+03
2.480854787213331747e+03
2.080242682553896429e+03
1.107304921356545492e+03
-4.409329299250719600e+02
-1.801519559760588436e+03
-3.359554254783053693e+03
-3.976163533541422566e+03
-4.165449074421900150e+03
-3.758518284715341451e+03
-2.499267650245599270e+03
-7.696241223755233705e+02
1.415418938407050064e+03
2.928853442626190372e+03
3.448763197693398070e+03
3.818252564148298006e+03
4.120376426121082659e+03
4.409085210817292136e+03
4.383274028656619521e+03
3.954880928652801686e+03
3.419968274078408285e+03
2.531657797577221572e+03
1.285955773527832434e+03
9.717764898314092079e+02
1.779872412530177428e+02
-1.308555966793716152e+03
-2.361000759808598104e+03
-2.730522497411942823e+03
-2.958978707990873772e+03
-2.818300431213613592e+03
-1.974541713196592582e+03
5.491954992743662842e+02
2.193884997662967180e+03
2.818467924616000346e+03
3.343983544985506342e+03
2.612448459786498461e+03
7.049228649979485226e+02
-1.615593162213929645e+03
-1.940218439909774361e+03
-2.371990923481810569e+03
-2.119795426565826801e+03
-2.118609228031384646e+03
-3.052459113092235839e+03
-3.977508216401331083e+03
-5.437882811966329427e+03
-7.657405479061620099e+03
-8.853370897481267093e+03
-9.102021061796323920e+03
-9.793370911844654984e+03
-9.202522911393143659e+03
-6.760537198682720373e+03
-1.511361516548930922e+03
1.725010560226409552e+03
3.743646929079988695e+03
4.509614425278036833e+03
4.772910408341317634e+03
4.456493760372372890e+03
4.269346658155174737e+03
3.890370827265795015e+03
3.932532050450680345e+03
4.223870131989599031e+03
4.394464557492254244e+03
3.847221018251046189e+03
3.161941367405130677e+03
1.705568286360166894e+03
-3.839530910396890135e+02
-2.353688165101880713e+03
-2.803708602520859131e+03
-2.605120574821374248e+03
-2.186062309330357039e+03
-1.490473365017156539e+03
-7.823336832476833251e+02
1.703287512734222275e+02
1.107574818353617047e+03
1.783482566287168083e+03
2.855098051033367938e+03
3.617354751825992480e+03
3.189229256592240290e+03
2.908823988713714243e+03
2.970998736291349815e+03
3.169679652028262353e+03
3.227944903539979805e+03
3.097807867106045251e+03
2.718215885812675424e+03
1.530105057026324857e+03
-5.636191214570993679e+02
-2.255024880435495561e+03
-3.335246180463776454e+03
-3.621341696612371834e+03
-3.419279694054268475e+03
-3.459984656521463421e+03
-2.230369286654352436e+03
-3.554179481513880745e+01
1.824504604518818951e+03
2.747829804759557192e+03
2.669519125960674501e+03
2.799580830381664327e+03
3.515006655755327301e+03
3.949831089464650177e+03
3.373912734810200618e+03
2.767523711017913229e+03
