9.486234415515058345e+02
1.768563914550483105e+03
2.543692538029363732e+03
3.181110155599454174e+03
3.646927213665066120e+03
4.044212777234763053e+03
4.430843991937677856e+03
4.503752029082475929e+03
4.775854332383196379e+03
4.235190368993693482e+03
3.570120481865051715e+03
2.703012844704808231e+03
2.475016450507644549e+03
1.473712921766164527e+03
4.520033470068296424e+02
-5.060206099897609988e+02
-1.147449004325698979e+03
-8.093118534908874153e+02
-4.245996841821814201e+02
-2.572925746906021800e+02
-1.613350880123432944e+03
-1.011912096528150755e+03
1.949946176572539343e+03
2.891474562574681386e+03
3.667572175524353497e+03
3.979608460430234572e+03
4.223929272602168567e+03
4.426068811925932096e+03
4.253818222601767047e+03
3.647156577644829213e+03
3.202972462337309025e+03
2.826289777161477105e+03
2.197082729348548128e+03
1.135235608541772535e+03
2.627241049689046122e+02
-9.957407771136357155e+01
-4.557206296219657702e+02
-6.467019287492166768e+02
-4.972954156033667914e+02
-2.050182262031446214e+02
4.997140847461697035e+02
1.243632553488538861e+03
1.741945106262818172e+03
2.512431021836033324e+03
3.239941963813139864e+03
3.881959991301784157e+03
4.287869108421593410e+03
4.213611741169656852e+03
3.852985007568580386e+03
3.854838106687703657e+03
3.151292996240246339e+03
2.310044717610007410e+03
1.734188707901018233e+03
8.787613439107218483e+02
2.194482555738126450e+02
-2.813117845818375145e+02
-6.226337667521805770e+02
-1.156753798246720180e+03
-8.777915450868554217e+02
-6.597676487757209998e+02
-4.564695140038354992e+01
9.424891605261090035e+02
1.647623168859043744e+03
2.372850378611620727e+03
2.530240543808787152e+03
2.696819617841532818e+03
3.305516872675106242e+03
3.827275454006804011e+03
4.011003543084623288e+03
4.062756790528329930e+03
3.813602164398571404e+03
3.048429798949764518e+03
2.177124196389070676e+03
-1.930416560581391423e+03
-7.429176133108683644e+03
-1.127017130431228725e+04
-1.178342309531695537e+04
-1.160296220599168919e+04
-1.143283424511920202e+04
-1.103704142949368907e+04
-1.045354046623211980e+04
-9.151365170527858936e+03
-7.897466377448497951e+03
-6.840784550682723420e+03
-5.910394649938869406e+03
-5.486106036596924241e+03
-5.791343565860504896e+03
-5.205387990844644264e+03
-1.623545011667061090e+03
2.471837024697088054e+02
-4.717236636524253299e+03
-6.187558965101096874e+03
-6.241808824628787988e+03
-6.972217611922823380e+03
-7.794857235283865521e+03
-8.588666787603291596e+03
-6.400573815170498165e+03
7.432773668605044577e+02
2.478251110293302588e+02
2.901266883223523791e+02
2.500214913665933182e+03
3.671152781915823653e+03
4.387054334864675184e+03
4.791961371069570305e+03
5.177963788463424862e+03
5.266079530967894243e+03
5.474335733881428496e+03
5.450793472163518345e+03
5.164467542450593101e+03
4.908449347165035761e+03
4.331738885486913205e+03
3.598349377845887830e+03
2.617273221532766911e+03
1.602541060099084461e+03
1.440942698564088289e+02
-1.067054318049614267e+03
-1.640820435075579553e+03
-1.945193424142018557e+03
-2.041194125021804894e+03
-1.999747335344958174e+03
-1.766733540544696098e+03
-7.579702593176233449e+02
4.985803033019374197e+02
1.854929249281992725e+03
2.860142766486899291e+03
3.556307426897580171e+03
4.428333048755042000e+03
5.076236341299631022e+03
5.355099836615985623e+03
5.281009049483882336e+03
4.556052578376033125e+03
3.306249073190815125e+03
2.211631712858455558e+03
1.557249354690020027e+03
1.003041110485982017e+03
4.430723962149245381e+02
-8.055847689403202594e+02
-1.378974144490687195e+03
-1.679112533411050890e+03
-1.977949528174009856e+03
-1.716346617283481010e+03
-1.780242295190015057e+03
-1.384361858701008941e+03
-9.675101444184130060e+02
-2.743624728403511313e+02
5.727973961673347958e+02
6.848011274495731868e+02
9.046814869385876818e+02
-3.235776158651628975e+02
-3.999600660185774814e+03
-2.290575967101315655e+03
-3.896496688116819769e+03
-2.799205568767714794e+03
-1.632778556262431721e+03
-3.722283640427678620e+03
-4.069769294651666314e+03
-3.155192794374081586e+03
-2.145561130099822094e+03
-1.553818729801292648e+03
-6.619945802419772463e+02
-1.900041182301291087e+02
3.452226160190793962e+02
1.102727999794123207e+03
1.813531777698609176e+03
2.142726649596067546e+03
2.018376639400829617e+03
1.528556254554579709e+03
1.179279005037455363e+03
1.405477285706177781e+03
2.191191899253036354e+03
2.291499711380551162e+03
1.627421922059821100e+03
1.003930157046352747e+03
6.119402496634419322e+02
-1.724825379212631162e+02
-8.373981874948128734e+02
-1.018849277200318625e+03
-1.171866589535105277e+03
-1.294484558915871503e+03
-1.308631320165738089e+03
-1.071281605363562903e+03
-1.336271864558500511e+03
-7.244548726618271530e+02
2.780032683262173236e+02
7.428862036854197868e+02
1.403124776080821903e+03
2.311781222574004460e+03
2.696893470220207746e+03
2.295467847660402640e+03
1.617440271979497993e+03
6.988630546282438445e+02
-1.182941741569949272e+02
-9.211668075929731003e+02
-1.282829563743621293e+03
-1.453216957826226917e+03
-2.108336633656524555e+03
-2.432264471266528744e+03
-2.794140589706498758e+03
-2.916985833524793634e+03
-2.895850225401444277e+03
-3.269834939657947871e+03
-2.216935410827381475e+03
-9.230448498544799349e+02
8.227108678723174080e+02
2.908267142574050013e+03
4.389672854145864221e+03
4.035912689344402679e+03
2.760802716067014444e+03
2.406527048984274643e+03
2.491915867956674902e+03
1.994889131497923017e+03
9.914284472186614039e+02
-2.202580929470079809e+03
-2.799309765755212993e+03
-1.519452932016330578e+03
-2.113765389865139241e+03
-3.388779128704070445e+03
-3.482531809574511954e+03
-2.789221652332971189e+03
-7.980212294436720413e+02
2.197114212976342969e+03
4.232253210206521544e+03
4.806294861434427730e+03
4.418202672024146523e+03
3.796643296851183095e+03
3.440094047725949622e+03
2.978558028294729411e+03
2.222869068790972506e+03
2.174359296370338143e+03
2.004615736088515632e+03
3.067053151928328134e+02
-1.191711002075220676e+03
-1.869832508290491887e+03
-2.140783451746823630e+03
-2.195042298119619772e+03
-1.146049471928151888e+03
-3.050470782810725368e+01
1.172277325795036859e+03
1.249575455426254166e+03
-7.650989028169865378e+02
-1.722115416787423328e+03
-8.217072497240376379e+02
8.227637350127805576e+02
2.324501467662764753e+03
2.690194544419799968e+03
3.259200035918172944e+03
3.883241076345732836e+03
4.659674340453301738e+03
5.854043344320371943e+03
6.489063175865165249e+03
5.458106882208257957e+03
4.145245605448252718e+03
3.442656854683579695e+03
3.308481654927317322e+03
2.988340073948689223e+03
2.063555825703872870e+03
1.110846699003082222e+03
6.506691254843644856e+01
-6.188185497619762145e+02
-4.506712974889802013e+02
9.163731775797708679e+02
2.984281187736359243e+03
3.937083661706185012e+03
3.417865735311405842e+03
8.895882463377866998e+02
-2.094773291580179375e+03
-4.246140969246008353e+03
-4.248503927441664018e+03
-3.658819786161062893e+03
-3.649112068434245884e+03
-4.337273125080432692e+03
-4.305254547921898848e+03
-5.000078720929035626e+03
-5.425778150342490335e+03
-5.876367123981041914e+03
-5.803876091021395041e+03
-4.490446758010610210e+03
-3.966705299634082621e+03
-5.242873908899603521e+03
-3.232238047926698982e+03
-1.589439793294977108e+03
-5.177448484259364704e+03
-5.644288582582799791e+03
-5.630903896764155434e+03
-4.980277330051070749e+03
-4.200290933615400718e+03
-4.163868480116057981e+03
-3.878030574155938211e+03
-3.134786169825266370e+03
-3.048062898789441533e+03
-3.206765215552210520e+03
-4.081898170893960469e+03
-5.197358320225056559e+03
-5.876064058426190059e+03
-3.046108518316326808e+03
-5.337358155130639716e+03
-8.864523251660002643e+03
-8.582715753886979655e+03
-7.360181193908005298e+03
-5.812817028056932031e+03
-4.999513249132112833e+03
-3.794219908867525191e+03
2.940121125717182622e+03
5.517675714353895273e+03
3.596573808700540212e+03
4.742879624198636520e+03
6.485651470505457837e+03
4.656076476549955260e+03
4.071149202603828144e+03
4.047833293152692477e+03
1.302500780175060129e+02
2.129510559930870841e+03
4.644707993489732871e+03
4.695906572978983604e+03
3.881189341279372456e+03
2.904551808815214827e+03
2.883094301943905975e+03
1.901809352838121185e+03
3.857526060605133011e+02
2.399740487917645737e+02
1.377511479850273417e+03
3.182547659911286701e+03
4.374271214015704572e+03
5.073679557210156418e+03
5.356751694068140750e+03
5.933617257169604272e+03
7.310382589400910547e+03
7.773184274043025653e+03
7.366046539032591681e+03
6.429017483750111751e+03
5.376442545854562923e+03
4.541491584892083665e+03
3.920117547239405212e+03
3.531381617058725169e+03
2.646507563301062874e+03
1.262589201797092073e+03
-1.034294009117376731e+02
-1.295486150114227257e+03
-2.248572441758371042e+03
-2.519679141454483215e+03
-4.586685248339398640e+03
-6.637652044992009905e+03
-4.113510389515216957e+03
-1.616099946619081720e+03
-6.563638704111853031e+02
5.266203843751463864e+02
-7.828127452879183465e+02
1.525792998202515776e+02
3.237257507815723329e+03
3.767505971336073799e+03
2.709406917855810661e+03
2.109029236536977805e+03
3.189601557519335984e+03
3.243974193384671707e+03
2.179798427380589146e+03
3.551846995166300758e+02
-1.064978252085847316e+03
-1.834888564768976266e+03
-1.977472371722060643e+03
-2.025632006523647078e+03
-1.349429182131196740e+03
-6.185718810320878447e+02
-1.444667410589768224e+02
1.386056721567867100e+02
3.750472815037132932e+02
1.487633687150830838e+03
1.901411369828369970e+03
1.885490891958510929e+03
1.875921225107852251e+03
1.879761353736853835e+03
9.390121029058228714e+02
-2.892620536635953385e+02
-5.450947585339857824e+02
-1.158456974953492136e+03
-2.540420405916177060e+03
-3.888037219280240151e+03
-4.939413370346758711e+03
-4.303459094644950710e+03
-3.077252731070879236e+03
-2.160038590252999711e+03
-6.599736242884575859e+02
1.378837673337710385e+03
1.699322846521882184e+03
1.591533700153047221e+03
1.679600136154611391e+03
1.738464066547138373e+03
2.131051707519194679e+03
2.655415791736435949e+03
2.667539328047284926e+03
2.441387306090725815e+03
2.166914105615351673e+03
1.673927106416418155e+03
1.507369507276115655e+03
1.115301904905466472e+03
-1.831242672110385783e+01
-1.134577686156585287e+03
-1.886588369935598848e+03
-2.165413162499776718e+03
-2.629094369551179625e+03
-2.999703362864733663e+03
-2.735320062317375687e+03
-2.793017266423881665e+03
-4.622852679665178584e+03
-7.939804637489377455e+03
-5.946047172389345178e+03
6.874198967763924202e+02
5.591678503613956082e+02
-8.902498898675278269e+02
1.642172260237401360e+03
3.163115612795440029e+03
3.092527371742798550e+03
2.102636354349764133e+03
1.484238906559981160e+03
9.761156515934326308e+02
4.171248498450220268e+02
-5.687628497362583175e+02
-1.419673687165286083e+03
-1.936644146143086573e+03
-1.982743961759635340e+03
-2.239028339771197807e+03
-2.095554027435771332e+03
-1.368345537970286614e+03
-1.584062720387179297e+02
9.092594865203064955e+02
9.586102594817590443e+02
8.096258798089751281e+02
7.992240361422445858e+02
1.121387542155532628e+03
1.079131864907489216e+03
4.804116135198036659e+02
5.151615589862514071e+02
5.436713748881164321e+01
-7.390265042043886297e+02
-1.885081115282150222e+03
-3.414880836405784066e+03
-4.715494982693386191e+03
-5.932953457764733685e+03
-4.636300118207200285e+03
-6.905292765797861421e+02
1.660242300228049544e+03
2.259929429370130492e+03
1.896596002666743289e+03
1.592200568033567151e+03
1.614736167976220941e+03
2.038246995454504258e+03
1.886737464077711138e+03
2.528266420865565124e+03
3.091859636040398527e+03
2.425483793756730392e+03
1.304133955951978805e+03
1.183736474431293800e+03
1.537275999568111956e+03
1.881783893641321129e+03
1.518194128214516468e+03
1.404512751291001223e+03
9.097342699775285837e+02
-5.920114238736850609e+01
-8.872683858228041345e+02
-4.266045562386873371e+02
2.577801893400999944e+01
-3.612677711930264479e+01
-3.704426937626371341e+02
-2.550908401928132889e+02
2.111389456998718384e+00
2.237264127102489056e+03
2.648300316556183589e+03
2.751251276218493331e+03
3.376151371349634701e+03
2.609917980561746845e+03
-1.755866042076982012e+03
-4.996531331902822785e+03
-2.593357485688691668e+03
-1.840094501508810481e+03
1.714185527184529860e+02
-2.191981005859039669e+03
-8.333846953370002666e+02
-4.346935108079490419e+03
-4.265740373889584589e+03
-8.437353469917472921e+02
-3.890792392853849378e+03
-5.504829450074842498e+03
-3.818793900307898184e+03
-2.962641208589206144e+03
1.171695301200047879e+03
-2.830688486950235983e+03
-1.851813895525943508e+03
3.434367719991106242e+03
-7.929396988342386976e+02
-3.360699820956443091e+03
-5.920013537398410790e+02
2.086116397675486496e+03
2.105662458957407580e+03
8.625788227563680266e+02
1.834852668038047568e+03
-1.317543387400808570e+03
1.338466796695380026e+03
-2.695915664955967713e+03
-3.832687162934405478e+03
-2.961018413561164380e+03
-5.368950891183405474e+03
-3.661472891971648096e+03
8.244925901697612289e+02
-1.721016005511939738e+03
-6.245997347250620805e+03
-2.493419975742710449e+03
-9.713162685723639242e+02
3.422379918636331695e+03
4.671845784924674263e+03
4.932144158477430210e+03
1.923261964389355853e+03
2.411698114739754715e+02
5.508648880721816568e+02
3.306402030936485062e+03
2.528829193431382919e+03
1.199151480668622298e+03
2.012365830833519112e+03
1.389386677626863502e+03
2.721252860942739744e+02
-4.964985220727322712e+02
5.579248115752429626e+00
-1.105562949629007932e+02
-2.776661210447418284e+02
-2.896012053966313715e+02
-4.743949437397133693e+02
-5.871422093481015736e+02
-5.758717075483448298e+02
-1.355253410064876789e+02
7.109675740121141416e+02
1.122563846670661178e+03
1.144308115794105106e+03
1.862140919542283655e+03
2.300059285144280693e+03
3.578897526970661715e+02
1.139404089448340073e+03
6.937413554698230200e+02
-1.209440736023540012e+03
-5.364519890602796295e+02
4.111443545469529113e+02
4.300297367323009894e+02
7.749643615004117692e+02
9.468460503798117998e+02
1.912586896348499749e+03
3.082209041808077927e+03
3.712788643799215151e+03
3.718212766497490520e+03
3.692731003482416781e+03
3.635964841549031007e+03
2.707038258160214355e+03
2.701527196153200293e+03
3.052926971535327539e+03
1.468083720259727897e+03
9.650082274037649768e+02
4.011769337483178788e+03
6.128619631234664666e+03
4.677151464793531886e+03
3.335443973118819486e+03
2.813513517444253466e+03
2.112122463404163227e+03
1.200418894406817799e+03
1.359418269939264292e+03
1.975877410353212554e+03
2.311839686121920295e+03
2.945806945780930619e+03
4.590957751244474821e+03
5.232539290602546316e+03
4.591995177177243022e+03
3.977981530368203948e+03
3.775578129632390755e+03
3.854157550440739669e+03
3.917881063660588097e+03
3.831259494454850937e+03
3.504112521897552597e+03
3.519244724536988542e+03
2.956579310623119000e+03
2.659164554267277708e+03
1.871075249501397138e+03
5.601566782601395289e+02
-5.670753003082921850e+01
8.974094158357588640e+02
1.644532165601167662e+03
1.300682462556196924e+03
1.414817560578465873e+03
1.954937026342262016e+03
3.252997154749505626e+03
3.524062036078044457e+03
3.207216145490378040e+03
2.436540953548917969e+03
-6.891963600806823820e+01
-4.460139266673563725e+03
-7.004165393488576228e+03
-7.140023949478537361e+03
-6.746653370767430715e+03
-7.553038246337335295e+03
-8.138162667721899197e+03
-8.460980159236054533e+03
-9.201470841081043545e+03
-9.024792737874582599e+03
-1.030286279689712137e+04
-1.206726202835022377e+04
-1.354840801683413338e+04
-1.428149343155600582e+04
-1.299039765564525624e+04
-8.159147620441223808e+03
-7.223492685964029079e+03
-1.149554889969944088e+04
-1.198253177929565027e+04
-1.279122020322265962e+04
-1.362547802231990681e+04
-1.195432574191744425e+04
-8.705868601034182575e+03
-2.819011760394318571e+03
-1.574649580301150536e+03
-1.290687076147190282e+03
-1.222086529569486174e+03
-9.058885708123209497e+02
5.578744435111369739e+02
1.242220822176625234e+03
6.481114195933472729e+03
6.997530397943978642e+03
3.710526288302449757e+03
5.168118672532531491e+03
3.454338694088744433e+03
1.943166188833842625e+03
1.219733691212536087e+03
7.570924545014199794e+02
6.513066194334659258e+02
3.914551176378141690e+02
3.686296632037851282e+02
9.918994254179031245e+00
7.673135298700284466e+02
1.243822427803319670e+03
1.684568795501707427e+03
1.286607978477751203e+03
2.837948859445548806e+03
5.299483324423044905e+03
6.073187419871857855e+03
5.845054883131124370e+03
4.541054386966935454e+03
2.260133916219262119e+03
1.085466986112860923e+03
2.051132797067522006e+03
2.787118282260435990e+03
2.923469684722850161e+03
3.680287600513730013e+03
4.209622210242896472e+03
4.935583564264192319e+03
6.213245304242805105e+03
5.752644904174250769e+03
4.947838863551308350e+03
4.555839126897083588e+03
4.849663037945342694e+03
4.739228477668813866e+03
3.987530558417354314e+03
3.519859832208023818e+03
2.833468952169066597e+03
2.359346827690595092e+03
1.603605945670235315e+03
9.221582990376140287e+02
4.810418769642172947e+02
4.124830380497735973e+02
-1.196372320047387802e+03
-4.240713752020207721e+03
-2.441995750790179954e+03
9.623271849429377767e+01
6.080927689162427896e+02
5.222153070679266875e+02
9.785296280668129612e+02
1.995183586891326740e+03
2.876308220516498295e+03
3.257887303818130476e+03
2.990897800792457019e+03
2.886357882036859792e+03
2.350329978017109170e+03
1.712834726258635101e+03
9.308371647391603574e+02
3.792962103160207903e+02
-2.017637235332852015e+02
-8.193848473913030830e+02
-1.404626959092642892e+03
-2.003523740075349906e+03
-2.640098909367586202e+03
-2.417284495101695484e+03
-1.857036701348629549e+03
-1.363335680869958651e+03
-7.991613434354433139e+02
-2.375140531676235582e+02
2.786440862727244507e+02
7.313172355467659145e+02
1.041533559194572035e+03
1.562288501612907112e+03
1.563610634307217424e+03
1.097494210259034617e+03
6.919393954931509825e+02
3.519410753536052994e+02
-1.027300848458611995e+02
-9.033907768907264426e+02
-2.088997015233832826e+03
-2.698504685987594712e+03
-3.359836125395395356e+03
-3.483024287491095947e+03
-3.109145865054179467e+03
-3.204223197828191587e+03
-2.699237361444802445e+03
-1.953257749584127623e+03
-1.406268265155405970e+03
-7.921974261220010476e+02
-5.600185741007738898e+02
-1.708934013191950783e+02
2.741568803603972242e+02
2.503130006282158035e+02
2.833840608994980244e+02
5.502861686826894356e+02
2.459907546432186791e+02
-2.274833895918471569e+02
-1.094153665831300486e+03
-1.772232433551691884e+03
-1.800782613995279007e+03
-2.771826734138237043e+03
-3.140381130760712949e+03
-3.010540737663836353e+03
-2.837336557437168722e+03
-2.972994111143489135e+03
-2.414467468249094964e+03
-2.117768074803042055e+03
-3.988070115502990120e+03
-1.184264117543291150e+03
-2.207858418668763818e+02
-1.050549608153318331e+03
-7.153053962124647569e+02
8.003026335663888631e+02
1.286601453492830387e+03
1.326303042274063728e+03
9.146715637867032456e+02
4.071726608935576337e+02
4.862262054983011694e+01
-1.660315866924687214e+02
-6.809187870286820043e+02
-1.377105684026145354e+03
-1.859823298658076510e+03
-2.144993324854538969e+03
-2.022047507886506082e+03
-1.884273718771433551e+03
-1.557442996305302586e+03
-5.507675703082173868e+02
6.665337176269141537e+02
1.196478287263104448e+03
1.283855793202610585e+03
1.389234547357740666e+03
1.749684962315400071e+03
2.094501861018726686e+03
2.243993468277967168e+03
2.113714197504970798e+03
1.868170964571687591e+03
2.032940349672866887e+03
1.526852738123506924e+03
1.169212956627296080e+03
8.545456433660021958e+02
2.143059002236119568e+02
-2.453749351017949110e+01
-4.195636614268339031e+02
-4.285996039211273114e+02
-4.881621339614181352e+02
-3.014412529295051399e+02
2.443119627925811983e+02
8.833053380188043775e+02
1.622855640633272742e+03
2.405960942364796665e+03
2.848351114190598764e+03
3.116139764988116895e+03
3.644053313228414481e+03
3.807306063207688112e+03
3.962260985371598053e+03
3.651339021011616296e+03
3.407557287517312943e+03
3.093938835837735496e+03
2.665444154513558260e+03
1.594908670910187084e+03
8.293755229359749137e+02
5.688033472586959078e+02
-1.588121133065643278e+02
-4.084519397760587935e+02
-4.141419361242906234e+02
-1.508788727872053812e+02
3.373046744064558311e+02
1.092386018152374618e+03
1.852389080902162732e+03
2.179319729707867282e+03
2.499198073350902632e+03
1.007879015186181505e+03
-2.562267256240445022e+03
-5.693236244209769211e+03
-2.128154815202114150e+03
1.962053717704760629e+03
-7.608178756501458793e+02
-3.858142876484429848e+02
-2.908740430559765855e+02
-9.960153627784449100e+02
-2.176254861748901021e+03
-2.815651228931857531e+03
-3.048247499635755048e+03
-4.479010435374815643e+03
-1.748890640422101342e+03
-4.198834727282389395e+03
-5.627778959934675186e+03
2.934194887955636091e+02
2.367231449738677895e+02
-1.588872365623698670e+03
8.608679602493225502e+02
-4.380994522414849257e+02
-3.820471021850225384e+02
-2.113957461809903634e+03
-1.546538702501200305e+03
5.722476003928838963e+02
-3.296027468416216379e+02
1.783967972017743250e+03
-2.146054513992889497e+03
8.362756782387783687e+02
5.359318754212063141e+02
-3.575016036488168993e+03
-4.952590399909553526e+03
-7.033860135771542446e+03
-1.926709658277843346e+03
4.070236667041625651e+02
-2.205814705563964537e+02
-3.571469463293513400e+03
-4.064599316873001953e+03
5.970588487754984044e+02
3.093613938922079342e+03
3.214135450112571561e+03
3.402673458181690421e+03
3.320307494711703839e+03
3.536999580145224172e+03
3.064846198747907238e+03
2.553981907408591724e+03
2.195355257385419463e+03
1.988814279898347422e+03
1.883423442655388499e+03
8.813434581370811429e+02
1.115409582828492319e+02
-2.730185992383067628e+02
-5.773565990752996413e+02
-7.174539528003138003e+02
-5.222550726067291862e+02
-7.370232141547015203e+01
8.428241168392354439e+02
1.335722205300087353e+03
1.678973381183826632e+03
2.235538587997637933e+03
2.226432556537197343e+03
2.004748251746372034e+03
2.162514909183693817e+03
2.554720133994896059e+03
1.259446773859873019e+03
-1.710377374540813207e+03
-8.467919508825028174e+01
1.094746860250661712e+03
3.939859472444645121e+02
-1.338575441970960185e+02
-8.264612523338678329e+02
-1.122998195522892502e+03
-9.300129737129532259e+02
-1.035033980713983965e+03
-5.752531667698917772e+02
-1.755748057697405784e+02
2.102181670565423488e+00
3.585793922456969653e+02
8.757876805417241712e+02
1.317436720655303361e+03
1.626158811866060432e+03
2.202825210698103547e+03
2.413304546953320369e+03
2.431492086657637174e+03
2.434169538141615249e+03
2.443394522754387708e+03
1.969760929515966154e+03
1.656587042466762341e+03
9.472003980813525459e+02
4.225154389622989726e+01
-7.099865223107848351e+02
-8.114898593145155701e+02
-1.147230686366604232e+03
-1.172224936310075464e+03
-5.704665568021810031e+02
-2.108972538895490061e+02
3.605677661531848344e+02
1.313975821778204818e+03
1.608259722994900358e+03
2.089492861080642797e+03
2.632701389938395550e+03
2.930923094341956130e+03
3.085985854688609379e+03
3.378800745303833082e+03
3.109481788265155956e+03
2.791105093060134550e+03
2.203731519073239269e+03
1.806514243903005990e+03
1.408396826245615330e+03
3.191663304341927869e+02
-1.036168165595641995e+03
-1.478540975436687631e+03
-1.644997141284143254e+03
-1.366510733941659055e+03
-8.411080554565091916e+02
-3.448235159968832590e+02
1.705540076580684570e+02
7.080981195683024225e+02
7.457975565704305154e+02
-2.077346625161015709e+03
-6.730293320663625309e+03
-8.947969824326941307e+03
-8.296389760141295483e+03
-8.507549407442680604e+03
-7.687447589681483805e+03
-7.736079480677267384e+03
-8.090453201228833677e+03
-8.024572928498576402e+03
-8.739554742882992286e+03
-6.992328845007166819e+03
-5.200408937740751753e+03
-3.398152706262802894e+03
-1.407848140911295786e+03
1.175963376556738353e+02
1.732498293033989967e+02
4.940827458232491267e+02
1.324062586008764129e+03
2.071194206022705202e+03
2.412537895404391747e+03
2.686175632518627481e+03
3.049092195991882363e+03
3.543350648253998315e+03
3.716978082040055597e+03
3.688970247719726103e+03
3.646307735190476706e+03
3.350966247868174833e+03
2.844921782905573764e+03
2.509165163931356801e+03
1.883687216226864393e+03
1.061482970996875792e+03
3.974532628872701707e+02
-1.843789548330508410e+01
2.077968205324179678e+02
1.821253739399460869e+02
5.652980268739749192e+01
7.100031859308489857e+02
1.484572447552827271e+03
2.026296028762689730e+03
2.662158162365563385e+03
2.801197770208111251e+03
3.099477549323152289e+03
3.442980089736058289e+03
3.751668294545794652e+03
3.675490495375046521e+03
3.706502987725168168e+03
3.188751157125065674e+03
2.956134918832299263e+03
2.513621650177659831e+03
1.533192447571427920e+03
8.637661464195666667e+02
7.031316704117526228e+01
-5.732341900197434370e+02
-6.398936568920960326e+02
-6.466757504647218866e+02
-5.816012099777927915e+02
-1.429632809363549995e+03
-1.755758160570809878e+03
1.121982742962765542e+03
1.787637474640355322e+03
2.212193520940058079e+03
2.414639980869230385e+03
2.811939539210611201e+03
3.609077938222837474e+03
3.602295888089347955e+03
3.472340120110581211e+03
3.124221074467095605e+03
2.750100809470322929e+03
2.043731949135421246e+03
1.590056161498649772e+03
1.021070083949990476e+03
-4.428187786278616755e+01
-1.193079864721617241e+03
-3.881475472958053160e+03
-6.728094223205326671e+03
-6.350240895068105601e+03
-3.750968545617746258e+03
-4.357192239497534501e+03
-5.497945491498736601e+02
-2.930924111365629869e+03
1.663936185844749787e+02
-1.793796334982364897e+03
-2.628459745054629821e+03
-2.043599222954194602e+03
3.105681300030923012e+03
1.317341299441539832e+03
-2.555993116399667997e+02
-1.113163262935822559e+03
-8.523840392289513375e+02
-1.602303922615923739e+03
-6.370050616473249647e+02
-4.772539935174128914e+03
-6.678964320439727999e+03
-7.722354365502036671e+03
-7.274785497914242114e+03
-2.935253420767781790e+03
-2.248718934149184406e+03
-2.282182856307735619e+03
1.076368154263662973e+03
-1.599067095966573561e+03
-1.293513365901074849e+03
-9.209301418464774542e+02
8.446865902166973683e+02
3.862283135506436338e+03
4.598398960467276879e+02
4.452912135759160037e+02
-2.364410318555873801e+03
-1.738247866514700036e+03
-1.920290703093605089e+03
-2.383551121495710959e+03
-6.490990762501348854e+02
-2.415988177530912253e+03
-3.725258959616623997e+03
-4.666988740096912807e+03
-1.695185352867040592e+03
-1.618901019959974292e+03
-4.294170619668826475e+03
-3.617979063350649085e+03
-3.128279344090203722e+03
-2.735105976967331117e+03
2.542536727246126247e+03
3.598655250730213993e+03
3.958315041702561302e+03
4.275456838556454386e+03
4.549052907990571839e+03
4.207076836299561364e+03
4.038544633274524585e+03
3.371350290210688399e+03
2.831459159446572357e+03
2.394889953556815726e+03
1.672573077530399360e+03
1.071459484208759022e+03
5.064777415895969170e+02
2.065785734289151492e+02
-6.031110592548574800e+01
-6.532040185334825537e+02
-1.881022148685883337e+02
-1.879097606989742189e+03
-1.601154184522175910e+03
1.753228144267915695e+03
2.849184538812281971e+03
3.334548443804533690e+03
3.627983417156635824e+03
3.842377375251839112e+03
4.014993029855974328e+03
4.285012635776020034e+03
4.131889231265352464e+03
3.987908596654693156e+03
3.530026319611469717e+03
2.852076947712239871e+03
1.818341235101933307e+03
9.340616670379740754e+02
3.631439532332258295e+02
2.439689829426503422e+02
1.031577146462507670e+02
-4.993607646807629408e+01
4.288798557456261165e+02
9.467047634972884680e+02
1.661553302856972323e+03
2.138349244397257280e+03
2.618167122599279537e+03
3.051702146092221028e+03
3.752177915314850452e+03
4.661244336846541046e+03
4.678133337673675669e+03
4.542133312304961692e+03
4.122363447990347595e+03
3.920413444496502052e+03
3.286413898659624010e+03
2.395490322247363110e+03
1.552700500918047510e+03
7.752400616488295100e+02
1.421662862444586892e+02
-1.442854270696598462e+02
-2.488873616867481076e+02
-5.918189179802792523e+02
-2.665193888939226099e+02
1.791660272168037409e+02
1.181383837580337286e+03
2.253132750481514904e+03
2.603464114135965701e+03
3.102443995503238966e+03
4.175201563895756408e+03
4.680729307639673607e+03
4.315986201230140978e+03
4.171896931392179795e+03
4.516514613308009757e+03
4.309938989086412221e+03
3.459174916910736556e+03
2.512178843208720082e+03
-7.911139853861666893e+01
-4.040710182681914375e+03
-9.795611945030272182e+03
-1.139678172611517221e+04
-1.158323296489865425e+04
-1.176601090584261874e+04
-1.092309540538326110e+04
-9.642473642536564512e+03
-8.707056517968960179e+03
-7.654755746318754973e+03
-6.922588439338693206e+03
-5.982683918642226672e+03
-5.432483981594819852e+03
-6.035965034100115190e+03
-5.343557456420596282e+03
-3.857214927541846464e+03
-3.178150511195871104e+02
-3.764339106885920501e+03
-6.270785067753900876e+03
-6.898131392663445695e+03
-7.735368373597736536e+03
-8.505475440852917018e+03
-9.111432691355976203e+03
-9.119244564022199484e+03
-9.473901282782253475e+03
-8.811360171342104877e+03
-8.245593029620098605e+03
-2.841531257409813406e+03
1.016912152038338718e+03
3.538753281244551999e+03
5.280047306300662058e+03
5.587863993727043635e+03
5.953238360439327153e+03
6.239223010182924554e+03
6.419887799444782104e+03
6.361206497058387868e+03
5.971220997096377687e+03
5.494991829630456778e+03
4.662573616113366370e+03
4.260966718332046185e+03
3.336171585989385221e+03
2.264199679194490727e+03
1.218032206479328124e+03
1.064700488712642709e+03
8.532074566604470647e+02
6.696046481612229400e+02
1.128005761460656004e+03
1.966440541940166213e+03
2.426950688574797368e+03
2.677579942453500735e+03
3.125427257071245094e+03
3.720549337589517563e+03
4.331009591681617167e+03
4.346842238871199697e+03
4.776112491456052339e+03
5.084812010330647354e+03
4.620969267255662089e+03
3.999728315835770445e+03
3.456102196920069218e+03
2.781027307262831982e+03
2.065528526006429729e+03
1.002594610112212308e+03
-1.187821690607482594e+02
-5.055364272363439113e+02
-6.776329809136574340e+02
-9.330738598123634802e+02
-6.228601541712789640e+02
-1.847013299986189736e+02
4.696258305952225101e+02
1.156395193267704144e+03
1.590516740953925137e+03
2.170023768655039930e+03
2.429880185273068946e+03
2.475184819120735938e+03
2.552005069217043911e+03
1.266303766115879398e+03
-1.424882706148612669e+03
-1.027187639232438556e+02
1.734135290202726765e+03
1.406956877637302114e+03
4.873707247744522988e+02
-2.967689003097067371e+02
-1.062633681446922310e+03
-1.662425463720134758e+03
-2.235300883841656287e+03
-2.472274010221146455e+03
-2.294272201790193321e+03
-2.146253584833486912e+03
-1.592202101694851990e+03
-7.271312828481843553e+02
1.100068725651720136e+01
8.232452633857551518e+02
1.408633169362030230e+03
1.700171795710193464e+03
1.920847566117746737e+03
2.011626632877094153e+03
1.971560766592559276e+03
1.532656597288153080e+03
1.091907350329161545e+03
5.672893956859516038e+02
-1.992915761294682682e+02
-1.152845149441636295e+03
-2.251333394112504266e+03
