-6.731565750929352362e+03
-8.074594704905910476e+03
-3.741257697644320160e+03
-3.913517006569181376e+03
-3.587381942877437723e+03
-3.935853494668484473e+03
-7.541994572898442129e+03
-7.563836066795436636e+03
-6.961392681121866190e+03
-7.001706483293281963e+03
-7.118633191968700885e+03
-6.603065317325757860e+03
-6.305023391070495563e+03
-5.497662668216595193e+03
-5.770907167454916816e+03
-4.708483391586791186e+03
-1.267263242945826278e+03
-4.325378720990910551e+03
-7.184969813966763468e+03
-7.239941841259013017e+03
-7.021174959270579166e+03
-7.241691487120841884e+03
-6.866630777086785201e+03
-6.295126373393844915e+03
-6.281154108195612025e+03
-5.916629122535097849e+03
-6.169407642878612933e+03
-5.711518896475435213e+03
-5.100093169199715703e+03
-1.767253810369372559e+03
3.506038934063050874e+03
4.202878225117551665e+03
1.733333426335477270e+03
1.247491204799905518e+03
3.620345883088362825e+03
3.948784593617063365e+03
3.470691237614857073e+03
3.460054889412928333e+03
3.103004773474881404e+03
3.118581673679684172e+03
3.098752060681533294e+03
2.894569010895622341e+03
2.681092428973584447e+03
3.013333198849401924e+03
2.804194496539661941e+03
2.784756235873817332e+03
2.516960317544393092e+03
2.291731170409730566e+03
2.804081945870725576e+03
2.704017650346143000e+03
2.448636136252048345e+03
2.776036929113076440e+03
3.332332452381610437e+03
3.445578997238601914e+03
3.344970481598912556e+03
2.540645614780942651e+03
1.910659896542759498e+03
2.023995405042187258e+03
1.841539142993359519e+03
1.228323433210645817e+03
1.349233071546562769e+03
1.051541459034573109e+03
3.625640457798937888e+01
1.190197326221509684e+03
1.583384172031188655e+03
1.203823014320652192e+03
1.121427452519100825e+03
1.494044722520124196e+03
1.670531979061611764e+03
1.367900336100250115e+03
1.645303908576056074e+03
1.873815662723409787e+03
2.269450359663927884e+03
2.483236774061887900e+03
2.444196522247658322e+03
2.052285344238777725e+03
1.730517243329701387e+03
1.459916757256456549e+03
9.074344697917099438e+02
1.740414793644513622e+02
-2.793305912064228096e+02
-1.277944089543543811e+02
-1.003989907775420960e+02
-1.152565931328239373e+02
-5.105352910575502392e+02
-5.133334195066296388e+02
-9.350231481923160004e+00
-2.972384870640577148e+01
3.936578369276374190e+01
2.301865999417441344e+02
7.769368448321763481e+02
1.331476887290945797e+03
1.590740623707745499e+03
1.621594403495631013e+03
1.611090027219986951e+03
1.105261440181648368e+03
8.490400253736120249e+02
8.634065569592268048e+02
4.473507367703442128e+02
3.798870891451702505e+02
3.639776832505834250e+02
3.796687730136263212e+02
4.519968778390255579e+02
5.878650470836496424e+02
5.142660300890917142e+02
-6.379107378945474949e+01
-1.262028415798637013e+02
1.431091185002677264e+02
4.600576120653652197e+02
5.954560847197360545e+02
8.801845975273453178e+02
1.321399183165206750e+03
1.672066096679392103e+03
1.807186773591704423e+03
1.908806321776939740e+03
9.608150297369620603e+02
-1.606752938304763120e+03
-4.648867904187281056e+03
-8.029549957423802880e+03
-8.557805078042612877e+03
-8.338606897885585568e+03
-8.531777720894619051e+03
-7.837266283915605527e+03
-7.653186209422456159e+03
-7.477626805776702895e+03
-6.937713586082350048e+03
-7.281455859220834100e+03
-7.839541705794054906e+03
-7.021218229642013284e+03
-7.143499883159112869e+03
-7.121314399612875604e+03
-2.834683361779541883e+03
2.231490575568832355e+03
3.387427827260633421e+03
2.655899885299043945e+03
2.724855489206615403e+03
2.562355568863836197e+03
2.493374184843417879e+03
2.512072998165830541e+03
2.518563019151232766e+03
2.088754597467609528e+03
1.560500979532614110e+03
1.971801051537985813e+03
1.816580103706392947e+03
1.582892125030373791e+03
1.257857709311611870e+03
1.059379634041765257e+03
1.245345046659523632e+03
1.743755742080990103e+03
1.790701093557652030e+03
1.901275501740133222e+03
2.117542580752041431e+03
2.834669513689489122e+03
2.971626197628628688e+03
3.011402902187633117e+03
2.588011955395664245e+03
1.751443042818577169e+03
1.091687353485953736e+03
8.467089500501829207e+02
8.784991372905425351e+02
7.081576969626670461e+02
5.346481422657061557e+02
8.829527328599788234e+02
1.063177827740003750e+03
7.543550490746946480e+02
3.925925402048355295e+02
2.219511749271813130e+02
4.144069648170402616e+02
9.849427110589340373e+02
1.164550507044535834e+03
1.223246717255596423e+03
1.665213437325869336e+03
2.152596272026258248e+03
2.817604023498298375e+03
2.569228125594452649e+03
1.735490242895590427e+03
1.438126344855645812e+03
1.462782523471267723e+03
1.152481684598862330e+03
6.793227301478007121e+02
2.064575711367759254e+02
-7.116761767878477940e+02
-1.887101963721999027e+03
-3.139090169188973505e+03
-4.091933261010773094e+03
-5.607340960677847761e+03
-5.767253882202516252e+03
-5.490915337011485462e+03
-4.614206086689639960e+03
-4.004246024697351004e+03
-3.855913484249870180e+03
-8.651675058647579135e+02
6.880427731219315319e+02
-2.133238873014285218e+03
-1.826985068131180697e+03
3.709271869992149959e+02
-2.053597126556081093e+03
-5.246562573233778494e+03
-7.944787272325706908e+03
-9.741261358067982655e+03
-1.001801953215237882e+04
-9.516175677132914643e+03
-7.450751192382363115e+03
-2.882752749478381702e+03
1.017870561716326961e+03
2.705076577214487770e+03
4.103926381977649726e+03
5.454592261074101771e+03
4.277952399781313943e+03
3.152925892218123408e+03
2.149589236902304492e+03
6.820063806049877257e+02
7.151912992821448825e+02
1.481175281875559904e+03
2.196959957909707555e+03
2.574674785865569447e+03
2.423458654019544156e+03
2.104206696172324428e+03
1.606694673816714840e+03
9.827192021933188926e+02
2.912985414685742285e+02
2.934500177065780804e+02
8.631866195571736853e+02
1.383628144829867324e+03
2.026886700042778784e+03
3.574025134559732578e+03
3.895155084146809259e+03
3.106297208169024543e+03
2.961221442527641102e+03
3.180705315249670093e+03
3.512835475376453815e+03
3.461710673721456715e+03
3.270368555194706460e+03
3.515852149771558288e+03
3.056001392825469338e+03
1.942643526499330846e+03
1.188721502947725185e+03
1.311168539847942839e+03
7.820850478157556154e+02
-4.022006556456595945e+02
-7.127329440221387813e+02
-9.085038939469566230e+02
-1.080489294779817783e+03
-1.362678693951546848e+03
-1.751352594523080143e+03
-1.752985745350976686e+03
-4.413872546268062820e+02
-1.093405673659694628e+02
4.291625255436956650e+02
1.366823558913263469e+03
2.173447920191280446e+03
2.831974151676788097e+03
2.596432755094505410e+03
1.865919899487526664e+03
1.619568159665674557e+03
8.833153446549688397e+02
3.894103914305293301e+02
-2.219126052282814783e+02
-8.563660165536911961e+01
3.081367248129180325e+02
6.709408817043930640e+02
7.047323505906608716e+02
2.487562707828197688e+02
7.403162720157165211e+01
-5.117789358293596251e+02
-2.206969551736138328e+03
-2.603078188747143486e+03
-2.467424391456740977e+03
-2.750471076428302695e+03
-5.061670270095731212e+03
-7.317178219786422233e+03
-6.614670181730518379e+03
-4.079841239979264174e+03
-2.784770883263498035e+03
-3.273275480037678790e+03
-2.905337783636028234e+03
-1.024199611498509285e+03
9.601643647075628678e+02
1.598725340359776737e+03
5.705642472459126111e+02
-3.764574774735638130e+02
-8.355006069638903909e+02
8.237712929792864998e+02
2.933087548908543340e+03
4.087867018043195003e+03
3.253960044948770701e+03
2.438158007873727911e+03
2.273737620801939556e+03
2.594694291036979848e+03
4.293150328910409371e+03
6.116030405219074964e+03
7.078613615619287884e+03
6.343971066364078069e+03
4.831934677761969397e+03
4.496344194974752099e+03
4.634211700810934417e+03
4.313407521425968298e+03
3.865923368765155828e+03
3.968135448139673372e+03
4.653117824755562651e+03
4.601526103786741260e+03
4.692559195065510721e+03
4.438258268016050351e+03
3.601221985017824409e+03
2.401285487402536091e+03
5.065850732953717284e+02
-8.085027129345738786e+02
-1.607125286784744503e+03
-3.180300779722126663e+03
-6.101217172322543774e+03
-1.060502040581474466e+04
-1.121157122984880334e+04
-9.624721638072465794e+03
-8.286533112269211415e+03
-8.408136687994314343e+03
-8.360422612916103390e+03
-9.840231334868189151e+03
-8.244754952035600581e+03
-5.826821393558454474e+03
-4.529133315662978930e+03
-3.276919176834372593e+03
-1.674041912157396155e+03
-1.505291889427431897e+03
-1.676872422746796474e+03
1.002026967057493607e+03
-1.870286609563096590e+03
-3.882701089860144293e+03
-4.282453747631456281e+03
-4.451604527798694107e+03
-4.291124728275071902e+03
-3.988062204215924339e+03
-4.113280481614263408e+03
-4.073696572590323285e+03
-3.499265123096888146e+03
-3.122865218050282692e+03
-2.763419123185557964e+03
-2.937653656149323979e+03
-1.168604400711800736e+03
4.066616699555512696e+03
4.823959180910344003e+03
2.260532753911403688e+03
-4.770533091970982014e+02
5.344775763293034743e+02
-1.349937304834497809e+02
-2.692992837476253953e+03
-1.795994972346654322e+03
1.770151979219992199e+03
3.024623990501422213e+03
3.413588685394258391e+03
2.995104545514563142e+03
2.984193356492038220e+03
3.845994768238654615e+03
4.172730651638989912e+03
3.356733146869130451e+03
2.123130331845259661e+03
2.648721859541945832e+03
2.392358334411309443e+03
1.831112287445805123e+03
1.972946333763513394e+03
1.611913537977124861e+03
5.711418445913678852e+02
-3.335419517087468080e+02
4.220054435253348970e+02
2.806870592439894153e+03
4.872106321675629260e+03
5.146792260797739800e+03
4.455984796870513492e+03
4.538739242744889452e+03
4.099107175703782559e+03
3.837163587200189795e+03
3.657891395627491420e+03
2.250264358285293383e+03
9.835822741266989624e+02
3.593805048818382488e+02
2.586934388447054403e+02
-5.123754155955105034e+02
-1.897987462733847678e+03
-1.014096322588407588e+03
1.060447350685948095e+03
2.662658861269592308e+03
3.178671019445383081e+03
1.654509188205777718e+03
-3.251745686227930037e+02
-5.134098445494631733e+02
-1.419978642999493559e+02
-2.167556422213281451e+02
-7.215208263655307519e+02
-1.869741949733018146e+03
-2.147601707959222040e+03
7.189764187123630563e+02
5.964249740548627869e+02
-3.924480162737868341e+02
-1.098672037328080705e+03
-2.323996729555944967e+03
-1.378335385325561674e+03
1.495941927674513636e+03
3.390870720156762673e+03
3.842626633419490645e+03
3.709320128591862613e+03
2.648890815323831703e+03
2.561248764172129540e+03
4.021236573503696491e+03
4.294825488846270673e+03
2.330123486771147782e+03
5.271021956272194302e+02
-6.671929974929067839e+02
-1.159808883528853130e+03
-1.667518794888142565e+03
-6.072640824089003218e+02
-9.544473928261983531e+01
3.320589172120364196e+02
1.189268079385008832e+03
1.451025428725949951e+03
1.785375381494288376e+03
1.479489941271421230e+03
7.324899085590189998e+02
4.055675209723234502e+02
-7.450178213972242247e+02
-2.423545775244215292e+03
-3.295595653201256027e+03
-4.582289578120109582e+03
-5.172523412362707859e+03
-4.624228973017925455e+03
-4.450445445575518534e+03
-5.171287922397292277e+03
-6.717732880760065200e+03
-8.607755972041850328e+03
-9.253422916019057084e+03
-8.582783186917962666e+03
-5.187940017476999856e+03
-9.649466617479614570e+02
4.722309283413037519e+03
8.164894648942367894e+03
6.791794634120899900e+03
5.207998073486354770e+03
2.824514382732676495e+03
-2.187062211287395712e+02
-2.215782907614448504e+03
-1.863801277139176136e+03
-1.528679851634263400e+02
1.753929301468345329e+03
3.682545292394314856e+03
4.789943331163760377e+03
4.295941051644076651e+03
5.450496905069530840e+03
4.018524429452807908e+03
2.297900659384837581e+03
2.245794867248887385e+03
1.097882942477520373e+03
-5.289604073367114552e+02
7.062941417332636718e+01
9.263295470605270339e+02
3.939181772355329940e+02
-5.022929046108192210e+02
9.607600557341460217e+02
2.920043999222823913e+03
4.274519965549962762e+03
4.198045152289035286e+03
3.301427861540320009e+03
2.173314826400271158e+03
1.473417405794724118e+03
2.257019752804229711e+02
-7.672551333527259487e+01
1.265072963012386253e+03
1.344975171634626577e+03
5.332784596583385337e+02
-2.500192711928162623e+02
-5.621666754393850169e+02
-7.481476051457068479e+02
-1.118108158999135640e+03
-1.885208852408140046e+03
-8.705277091130263898e+02
2.533896334497862426e+03
5.887097910795644566e+03
6.798125114966363981e+03
4.891896698170063246e+03
3.107424100574369277e+03
5.638341461230850200e+02
-2.571924327846323195e+03
-4.559094012403590568e+03
-5.157876883216125862e+03
-4.652360165917962149e+03
-2.418616944533654078e+03
3.114780104600289974e+02
1.652996716678007488e+03
4.368254575242006013e+02
-1.850965613847627367e+02
-9.480733559828115631e+01
1.158790262490027089e+03
3.432743327497931659e+03
3.962987415096994027e+03
2.820432153784073762e+03
7.861548314966956923e+02
-2.777734769137066905e+03
-5.758141344700713489e+03
-4.934890915169190521e+03
-3.972784966967768923e+03
-2.495197925089629734e+03
2.715994081176986583e+02
4.393646085753824991e+03
6.471000984793226962e+03
3.850666042519996608e+03
2.499637933830109887e+03
4.084812691493240436e+03
7.527287549863219283e+03
8.464080337175751993e+03
7.068234367429514350e+03
4.045641181412016977e+03
1.080269519965819200e+03
-7.818220752743175126e+02
-1.131421645511215274e+03
-2.832535623697995106e+03
-3.369120534312185555e+03
-2.945062596052802292e+03
1.014843733911376603e+03
-2.513470773937585363e+03
-3.160124203576954642e+03
-3.450996263981707216e+03
-3.700028076882260279e+02
2.128532512603534315e+02
2.225317568511785282e+02
-2.638896253825577332e+03
4.877786511874003281e+02
4.015274645609902677e+02
-5.102667903383286102e+03
-3.639695616898939988e+03
-2.642328886698719543e+03
2.968594012954840309e+03
2.334975866267295260e+03
4.438640892141000222e+03
3.141754362638755538e+03
1.703518244197302465e+03
-2.971264598045056573e+02
-1.537239731168381240e+03
-3.454732673470218742e+03
-3.432488130765065762e+03
-4.486333356965827079e+03
-8.221155228880063078e+03
-7.100864956861909377e+03
-9.814587898064253750e+03
-5.783363375143608209e+03
-1.877119615074753256e+03
4.405350287252238559e+03
5.971162797222758854e+03
4.084376913419109314e+03
-2.401885528452203644e+01
-4.244035670565899636e+03
-1.651614344343599214e+03
1.201322049982019735e+03
1.836989347005881882e+03
1.099570187998188885e+03
1.800234895172819449e+02
-2.275575464022342658e+03
-5.396073089685594823e+03
-3.930363778507584357e+03
-7.983621630997556622e+02
-9.750042944383023951e+02
1.314875379281807000e+03
5.269311185083924101e+03
4.323362951013239581e+03
7.640440609331054702e+02
-8.696228704286695574e+02
1.996531201535387481e+03
3.368893072825997479e+03
5.614556948985529743e+03
6.184733533914721193e+03
4.357612896891365381e+03
3.754549384551507956e+03
4.142431509961112170e+03
3.628391889343479761e+03
1.674287923334720517e+03
2.407230840689926765e+02
-7.725343891362838633e+01
-2.791903637045834785e+03
-4.559493915587871015e+03
-3.786034539428924745e+03
-3.959318473650267151e+03
-3.139315841443933550e+03
-2.128676149973765348e+02
4.991132182026001942e+02
-1.194623873453608667e+03
5.918907327386618817e+02
3.588206862731364254e+03
4.219369116780892000e+03
3.731359990347375515e+03
3.336252130181060693e+03
1.492028885555439501e+03
3.047922586771936153e+02
-1.057381704880632014e+03
-2.790375867616238793e+03
-3.920112496124029349e+03
-5.348063089372149079e+03
-4.241916414351421736e+03
-3.864388728705641824e+03
-5.069320808185798342e+03
-8.220326143302529090e+03
-1.150432019019349536e+04
-8.039040976897753353e+03
2.137630466422933466e+02
9.169898293961032323e+03
1.187923000199120361e+04
7.834158712399974320e+03
4.305622540765066333e+03
2.104268112353516244e+03
1.132104794228177980e+03
-2.708474044509870282e+02
-2.805567950372716950e+03
-4.922020741315226587e+03
-5.900261791114983680e+03
-2.942256909411966262e+03
2.253040508962295462e+03
4.702671304883305311e+03
5.231542791134093932e+03
6.268698357890610168e+03
6.334130972693719741e+03
6.514824328751969006e+03
7.983839853937779480e+03
6.338201073792627540e+03
4.862866991246272846e+03
3.938682649612950172e+03
3.145481371609293546e+03
2.646184512526915569e+03
1.898903527606660418e+03
1.186624263947216605e+03
5.172539218788272137e+02
-2.518985322148329331e+01
-1.958761660899677508e+03
-5.680488618552233675e+03
-8.254268287692646481e+03
-6.898152856803218128e+03
-6.800256585768712284e+03
-7.242690296453443807e+03
-8.217324266147816161e+03
-8.663146312007187589e+03
-8.161423179471120420e+03
-6.814372678408607499e+03
-4.146132730953641840e+03
-8.057394066796734933e+02
-1.596150708970210189e+03
-4.560032338656997126e+03
-6.367642127586057541e+03
-4.876283676336921417e+03
-1.959083143941254320e+03
-5.069034485875421524e+03
-6.680188643109016084e+03
-5.759670218668040434e+03
-2.144851686637552120e+03
-2.791673583503289592e+03
-3.632158707439708905e+03
-1.657398640645664727e+03
1.959524708820838214e+03
1.016280500697324555e+03
5.362667269530844294e+01
6.055603684738964603e+02
2.509101926161838492e+03
5.012112781128314964e+03
6.223629559670300296e+03
5.248470923573555410e+03
3.306233142438556570e+03
2.399914559349719639e+03
1.217521104700077103e+03
8.078710516231861902e+02
-8.441758201403819157e+02
4.882351197725093925e+02
3.333962280877630747e+03
1.943752461394369902e+03
1.488486855840958924e+03
1.265989283765068649e+03
-1.785913729521970254e+03
-5.608358679558676158e+03
-7.896526308019432690e+03
-8.562520356881543194e+03
-6.078446388576976460e+03
1.023547788466241400e+03
6.439410128033355249e+03
5.964039528485121991e+03
3.861238309655321700e+03
2.526905113131178041e+03
2.096826668996114677e+03
1.578711465233459876e+03
1.223818188732318788e+02
-3.612512905858399108e+02
-4.372509849962125372e+02
-1.064757754938568496e+03
-1.534052218556257685e+03
-2.905368775599487435e+03
-4.521080829213441575e+03
-5.365518036071699498e+03
-5.715058591576606887e+03
-5.319766862223011231e+03
-3.987501805125927604e+03
-1.855426008258759111e+03
6.034342521411288089e+02
2.663938069821182125e+03
4.157850473152739141e+03
4.743977624927344550e+03
4.613279997494754753e+03
4.665515257919776559e+03
4.071765753182959998e+03
2.822823496458214322e+03
2.024284386149905231e+03
1.494736922357644971e+03
-1.766944360117988424e+02
6.518599491854415646e+02
1.604215296027115528e+03
9.382336320504141440e+02
1.143834235211511213e+03
7.677020659371621605e+02
4.697650764556744321e+02
2.489503622570534844e+02
8.510153018117117085e+01
-2.046114871676899316e+00
6.273117964172121219e+02
1.751988861737203251e+03
2.303928463285801627e+03
9.691571573161405695e+02
-2.003930774725219806e+02
-7.988768167551593251e+02
-8.493429049287398129e+02
-8.659830093733813783e+02
-1.532025106435352654e+03
-9.855787259338812589e+01
2.233310566642763206e+03
2.199583228512999085e+03
2.273168436476838451e+03
2.497928060503208599e+03
2.145782195244270952e+03
1.438734345819954115e+03
4.255712761531179922e+02
-2.800071285717525598e+02
-1.001390169982013845e+02
-7.657702691784285207e+02
-1.168716440540575832e+03
5.019989797537329537e+02
3.207495750528581084e+03
4.466794351361101690e+03
3.790830435623410722e+03
2.464507580231317661e+03
1.511681656808772232e+03
1.436083984900444193e+03
1.460602878555348980e+03
7.872801215572027331e+02
-2.127189027265757204e+02
-1.558476293034365654e+03
-2.007031094649490342e+03
-1.860442646343397882e+03
-1.909801467173772835e+03
-3.989987040902291028e+03
-6.423842736409142162e+03
-7.755184807307989104e+03
-7.111827849488396168e+03
-4.474708383508342195e+03
9.219249713365534262e+02
3.237062817620398619e+03
2.334692795795143866e+03
1.709792209226674458e+03
1.537248703405346760e+03
1.050294100479597319e+03
6.542697247414986350e+02
1.741702199767285322e+02
-6.916919711977712382e+01
2.911953638666738087e+01
1.230264748350563423e+03
1.017557305860873498e+03
1.251912706152914279e+00
-1.797510305244420579e+03
-2.138629672331339407e+03
-2.720648679310736497e+03
-4.034738475662859855e+03
-4.490946559986427019e+03
-2.890469134704698718e+03
-1.602962639468320276e+03
-1.878735278008913838e+03
-9.905933280048193410e+02
4.563092238149274067e+02
1.011670476031354951e+03
6.870985215033061877e+02
1.667142982570908316e+01
-1.161433136814848979e+02
-2.964026183477684526e+02
-1.005849406281221263e+03
-1.587978563004962552e+03
-2.554908381745630322e+03
-2.901758524176730589e+03
-2.484477773143448303e+03
-2.825725550987460792e+03
-2.591411170555832086e+03
-2.180036077712913084e+03
-2.523213525783359728e+03
-2.773313477194109055e+03
-2.109655403564054723e+03
-1.724942788367483217e+03
-1.730734335157722171e+03
-1.368985735707360845e+03
-3.392981687296388600e+02
6.555112486507573522e+02
1.328565514941258243e+03
1.504913396417892272e+03
1.372451351910645371e+03
1.497032480713122141e+03
1.931555935948016440e+03
1.698424916118925921e+03
1.893914153115779982e+03
2.453324162725726183e+03
2.480201640444585337e+03
2.500075382967817404e+03
2.697334735038220970e+03
2.124240405732943600e+03
1.705013057535222970e+03
1.566039169258192715e+03
1.370685354142142160e+03
1.642854193676289242e+03
2.416587285303270619e+03
3.808361287494624321e+03
4.992202383222595017e+03
5.698167357463600638e+03
4.684789977179510061e+03
1.673566123164045393e+03
-2.328339789324536468e+03
-2.953082408495093659e+03
-3.404348999129149433e+03
-3.415035566343397477e+03
-4.116820149890118046e+03
-3.968244775116234450e+03
-2.900197132440984205e+03
1.987444585563662713e+03
5.301999084962079905e+03
1.169801449850933295e+03
-4.403942994651180015e+03
-3.828078827479853317e+03
-4.555187613231468276e+03
-5.182109689243868161e+03
-4.743021814963026372e+03
-4.466401499843193051e+03
-1.968030158655108380e+03
1.681673676274066906e+02
-2.149650206315337073e+03
-2.947187628216929170e+03
-3.250580609154025751e+03
-3.687763661988792137e+03
-3.935409758787955070e+03
-3.879286451928621318e+03
-4.521263765649380730e+03
-4.433096743461852384e+03
-4.449606394429527427e+03
-3.316609975368757205e+03
-6.929030981897204811e+02
-5.019360930870935590e+03
-6.629779756944036308e+03
-5.765221888081676298e+03
-4.035458133132351577e+02
2.005464189713149381e+03
1.621134876807662522e+03
3.916282521158852319e+02
1.042552231031533893e+03
2.672486828503670495e+03
5.522897913544994708e+02
7.253912926853090539e+02
3.489378836309260350e+03
5.392381431327411519e+03
5.893484783194127886e+03
5.935603564496814215e+03
5.232821749681575056e+03
5.164322055971978443e+03
5.326150426869967305e+03
5.589317631770988555e+03
5.250557440175141892e+03
4.681601770396156098e+03
4.590597814474125698e+03
4.399744500266963769e+03
3.755951606443888522e+03
3.647278807325978050e+03
4.071705192617944704e+03
4.294105267198302499e+03
4.206760108395150382e+03
4.104663369540800886e+03
4.311760090459830280e+03
4.207045877357590143e+03
4.523432540167584193e+03
4.097920372782001323e+03
3.556491534590635183e+03
3.085116574549493635e+03
2.429679298990555708e+03
1.912208859947162182e+03
1.852861110243175972e+03
1.563572802942947874e+03
8.018700061843273943e+02
-4.410578451382146454e+02
-1.052867415835403193e+02
4.687014281983146020e+02
8.522653593887148418e+02
1.038409197267840000e+03
3.729156745459319495e+02
-8.144181749566216695e+02
-3.072992830009966838e+03
-9.076554405736017088e+02
1.115835126132071309e+03
1.275241651541889951e+03
5.331674428604309242e+02
4.973523896660419723e+02
1.741817898759385344e+02
2.104499755410311650e+02
3.137976250989428877e+02
-1.139384420476006881e+02
-5.609908739716207720e+02
-7.756439534759147136e+02
-1.461236100734065758e+03
-3.061058630883237583e+03
-4.172984571164238332e+03
-4.301145943719569914e+03
-3.686828429682726437e+03
-3.746294388485343006e+03
-2.674825972775959144e+03
-1.113502832550584799e+03
-1.119325135838389315e+03
-2.793835471520225155e+02
7.706906078754413159e+01
-4.840937190502309022e+02
-9.540226666751173070e+02
-1.038798318414235155e+03
-1.254846963439731553e+03
-1.207514207569714245e+03
-1.086664820035369530e+03
-1.261507484538637755e+03
-1.118223591834373565e+03
-1.200746134116695885e+03
-1.526124237261016560e+03
-1.919586220701016600e+03
-2.346319048486467636e+03
-2.433814970239956892e+03
-2.133688188572429226e+03
-1.892111606089261159e+03
-1.546851503654743965e+03
-9.588932629428747987e+02
-3.624407339718266599e+02
-1.047328072520935365e+02
-2.189066300909349820e+02
-2.890145285056911462e+02
-8.726109305890553003e+01
-2.808251185120526543e+02
-1.082870305993295460e+03
-1.516544354541582834e+03
-1.299919522019767101e+03
-1.255101898775304562e+03
-1.110289126053230802e+03
-6.236545939810868049e+02
-7.163621717584636599e+02
-1.530586659742529037e+03
-2.100597340861824705e+03
-4.110607282723233766e+03
-7.373727003709040218e+03
-9.664078248513606013e+03
-9.003765657047997593e+03
-8.627848119361688077e+03
-3.999454086208658737e+03
7.813940193152483289e+02
1.591713532703343162e+03
8.502370684609512637e+02
9.729381773110485483e+02
6.378340054055054225e+02
1.347404191739184853e+03
9.948584696628445272e+02
5.532699235464700678e+02
-1.196660828021299494e+02
5.769681714958081784e+02
9.451530020380823771e+02
5.297935865608902759e+02
8.938102467011143517e+02
1.540177321813326898e+03
1.353758668194040638e+03
6.874361566642861590e+02
9.401968359511936342e+02
1.471070192800386849e+03
1.838079970009082672e+03
2.378212088674365077e+03
2.771327292456245686e+03
3.589389230991849217e+03
3.681437618472547456e+03
2.580244087112412217e+03
2.441690280691935186e+03
2.689944412135334005e+03
2.393938235132620321e+03
1.825593552394973131e+03
1.743945084244484406e+03
1.747995651519233888e+03
1.840815663429150391e+03
1.904417165525376504e+03
1.552764125520736343e+03
1.279915479640054855e+03
9.448466395443157353e+02
1.485427104970563505e+03
1.638509017267135505e+03
2.077181841257752694e+03
3.027600925142047345e+03
3.933892403228055173e+03
4.017074767812988739e+03
4.184104390018454069e+03
4.333026885693444456e+03
4.256898086615930879e+03
3.479791215264444872e+03
2.683813662583585028e+03
2.282888567050721576e+03
2.011005341002583918e+03
1.643191721064650210e+03
1.159687438613351560e+03
1.362620669688272073e+03
1.321000532576077831e+03
1.392699840345052280e+03
1.308583088296194092e+03
8.634328864845305134e+02
3.474212620292969405e+02
6.578304841430373244e+02
1.095686329105116556e+03
2.673094782858214330e+03
3.191111272120371723e+03
3.480847763788968223e+03
3.603384296155114953e+03
3.390711012734128872e+03
2.848860856348384459e+03
2.173820508884989522e+03
9.247208353253474797e+02
-1.120321196400586132e+03
-3.504240958319236597e+03
-2.261841280373078575e+02
-2.206827658804712883e+03
-6.417893204639019132e+03
-9.154326397611375796e+02
-7.806895831743287317e+02
-1.050607104772571120e+03
1.967962657067284681e+03
1.664999951053167251e+03
-1.189485659085437419e+03
-6.144108880797227812e+02
-1.743643076406385717e+03
-2.563092090466661375e+03
-1.177085240351749746e+02
1.003569089307446461e+03
1.718388405773992247e+02
2.033160048668292575e+03
-2.363862057507238319e+02
1.045194353334139578e+03
-1.596084508646981249e+03
-3.317126694286031125e+03
-5.039927603884675591e+03
-5.258486417346894996e+03
-5.276921375317353977e+02
-1.859439258094260595e+03
-3.645748617036509131e+03
-7.025822700717690168e+02
-8.328672669981501713e+02
-2.160610385543678603e+03
7.521779677049073598e+02
-1.560519969303324388e+03
8.203461451809455411e+02
1.208858053736718290e+02
-2.078801833820439242e+03
6.632690101018362157e+02
2.693071904872600498e+03
2.453686533269087249e+03
1.728157380753948701e+03
-1.800562854357458264e+03
-9.443880231071037770e+02
3.856798548624114460e+02
8.496187423620406207e+02
7.305149572816206955e+02
4.944204319230220790e+02
4.993718463453649292e+02
6.133843556064382483e+02
5.174583404687932671e+02
6.015910836567887827e+02
7.746957090479993440e+02
1.218771761152328054e+03
1.019854157279027845e+03
9.311093620455490054e+02
1.241751538663216252e+03
1.323931388302580217e+03
1.595310458026932338e+03
1.664853503994076618e+03
1.654635951873021213e+03
2.130010544155959451e+03
2.153967839433159043e+03
1.838371563683099112e+03
1.863851500343942234e+03
1.643440496971915763e+03
1.352699867736647775e+03
1.218904124361273034e+03
9.966112811640131213e+02
5.210408359087227836e+02
-2.846621430577333285e+03
-3.369101743146424724e+03
-2.392571102555663401e+03
2.272234011468787003e+02
1.291311024344377984e+03
1.489193649269030402e+03
1.184825857855229515e+03
1.353929616744867872e+03
1.765209304901054338e+03
2.055369146359279512e+03
1.979871251137653189e+03
1.219837529541614686e+03
9.721882005430127265e+02
6.429499654155564485e+02
3.009110693595267776e+02
5.929533181107187190e+00
3.555160411272854049e+01
2.356114541582840047e+02
2.691256258620935000e+02
-7.422896564415631815e+01
-1.308233878159649350e+02
-3.776505436226790948e+02
-4.533896999539543060e+01
1.849564336180117721e+02
5.490201840434664291e+02
7.350532012081177982e+02
5.119524002934227838e+02
4.904470019333829214e+02
1.417543539249166088e+03
1.431295338434652649e+03
1.066771398260141495e+03
7.210884719993704266e+02
1.512301786796090823e+02
-6.685947329440973874e+01
1.547513100363610192e+02
-3.095792740204615967e+01
-3.670135830482461188e+02
1.665257997013154352e+02
2.095990981494012146e+02
1.342007523053189857e+02
-8.970197577583172688e+01
-4.161020269937845910e+02
-1.300213317546846383e+02
1.225428947680207301e+02
2.535532665345783698e+02
6.849794292036807519e+02
6.069387156440227500e+02
6.413359906758228135e+02
9.312242152871338021e+02
1.488668355518591170e+03
1.316716794893058022e+03
4.854196063648751078e+02
-1.852372414663124403e+02
-5.123674788175505910e+02
-2.412979080141552913e+03
-2.048060589771467676e+03
-2.039509486940072748e+03
-8.602423488340087715e+03
-1.002188542965908346e+04
-9.221921660895814057e+03
-8.585483708509893404e+03
-7.011522226699899875e+03
-7.535883382952722968e+03
-8.622292906746402878e+03
-7.783249451371872055e+03
-7.758656498600273153e+03
-7.942290567911411017e+03
-7.767999320746559533e+03
-6.810990386443636453e+03
-5.536375243887772740e+03
-4.249335285702512920e+03
1.000273439404399483e+03
2.190835224348738848e+03
1.380281969845472759e+03
1.059561383777446508e+03
1.420721876871564064e+03
1.290672267279012431e+03
1.246360831405409272e+03
1.064896891995154647e+03
1.319167373999126994e+03
1.288074299462586396e+03
1.603560664312942208e+03
1.998712136868280140e+03
2.106716836760808746e+03
1.782438750140769343e+03
1.391916301549584432e+03
1.855319237297288964e+03
2.097615535684078623e+03
2.079826250299622188e+03
1.904008112885250739e+03
1.593052518739114930e+03
1.465944793257674974e+03
1.353801557675278445e+03
1.019586410232207754e+03
5.133290738344676356e+02
-8.189888431741638897e+01
4.109053490587276087e+02
2.827222550507728442e+02
3.775822137678540003e+02
4.204994788873007678e+02
3.633996573912729673e+02
6.733248441934734956e+02
8.483593340522953667e+02
7.285130844291693393e+02
6.928091757216690212e+02
8.672948866994686341e+02
1.250062224164475083e+03
1.825122571657087292e+03
1.722497378108615976e+03
1.703265761712192216e+03
1.547371941501646688e+03
1.269701074282074615e+03
