1.990356529807334482e+03
1.384349973717222838e+03
9.809374336752155159e+02
3.863297946936597214e+02
-2.238645638631143076e+00
-7.081688369427207874e+01
4.134788800193093721e+02
1.199637686758152995e+03
1.639532574673671206e+03
1.264201695682632817e+03
1.242971438084142619e+03
2.242850985952250539e+03
2.939803592353573549e+03
2.998836309632588382e+03
2.967347422610207104e+03
3.047199739491988112e+03
2.930173664035613911e+03
2.441602092259665369e+03
2.039634604318401216e+03
2.010357918219022395e+03
1.420961927700467868e+03
4.892404154915500385e+02
-6.386252362080375633e+01
-4.042447010144719570e+02
-1.154919166870907929e+03
-7.739048934917515226e+02
-6.883044611107161472e+02
-8.992417497203034600e+02
-6.376341893730665333e+02
-5.152274989170303598e+01
-3.388297517000640369e+01
4.564249475952640296e+02
1.234267219698709596e+03
1.562501041227858423e+03
1.563202010931709992e+03
1.850532678065746040e+03
1.808487635748860384e+03
1.640024249573257748e+03
9.110817612265159369e+02
2.335931241933219269e+02
-1.254590105847226766e+02
1.495072638627253525e+01
-3.392093597353867267e+02
-1.113054439881976350e+03
-1.721753655412941953e+03
-1.757225521407564656e+03
-1.550355480015064813e+03
-1.475268032714816854e+03
-1.614976392260254670e+03
-1.766547652771912226e+03
-8.229550518649811011e+02
-1.351036092984905963e+02
-8.304917875377283565e+01
7.691815848200617438e+02
1.699498923146626339e+03
1.749831167808635882e+03
1.483273136518791262e+03
1.227808445757105346e+03
1.169233744941695704e+03
5.404469076142829636e+02
-2.855836091593164383e+02
-1.150886546685806252e+03
-1.077493688993959950e+03
-1.322545871228012857e+03
-1.661085989834618886e+03
-1.771121323775121482e+03
-1.790674853661437282e+03
-1.787789409641277416e+03
-1.860569387609984460e+03
-1.868076206547241554e+03
-9.353253927939992991e+02
3.146756841504533213e+02
9.119576752154584938e+02
1.357417599993391605e+03
1.306976376318961911e+03
3.026898610812831407e+02
-1.526497480121453464e+03
-4.197166358385561580e+02
1.650566901398750588e+02
-1.702430390648156902e+02
2.302258565361157707e+02
-2.206369995679348506e+02
-1.056959291998822664e+03
-1.322824894120349200e+03
-1.523257387509168893e+03
-2.174266953813848886e+03
-2.398042514632160419e+03
-2.016625751755666670e+03
-1.619930018870053800e+03
-1.428111494729838569e+03
-6.430199095528797670e+02
4.103746718349776756e+02
1.330810913604741700e+03
1.360533177615610157e+03
1.067626376815826688e+03
1.024707459259848292e+03
4.790330115047352137e+02
3.074486174006165129e+02
-1.442108442916667457e+02
-5.846517567730285236e+02
-1.280327913005608707e+03
-1.369222498039057655e+03
-2.532176175888174384e+03
-2.029652510122279637e+03
-3.982342156364274501e+02
-9.721629642974000944e+02
-2.418545969201509706e+03
-3.490643147372342810e+03
-2.611140867050224188e+03
-5.681219392912436206e+02
7.033827232933546156e+02
1.260229605626393095e+03
1.841737941377385368e+03
2.856753327356874706e+03
3.117239712784311450e+03
3.878001742141734667e+03
3.665894078318432548e+03
2.047980883382655975e+03
4.792472677921816739e+02
-4.842820754842139763e+02
1.096480149648697449e+02
1.175204103180272796e+03
1.086807449911464801e+03
2.083048461106920399e+02
3.959110372642230118e+02
-8.100982872812011237e+00
-1.448196834202731452e+03
-2.950461901461986599e+03
-3.219214184504311561e+03
-2.327278140172300482e+03
-4.970036564910270016e+00
1.308147722159574414e+03
2.051979384617347932e+03
2.989399047824338140e+03
2.741466882533590251e+03
2.448133991545617391e+03
1.395362883746837269e+03
-5.968493660666908909e+02
-1.810510357362729792e+03
-2.363703173314187097e+03
-1.960571224912068601e+03
-2.030092035357136638e+03
-3.833123555085069256e+03
-5.337766442527014988e+03
-3.792060763928623601e+03
-1.365989764193910787e+03
4.061749080340782969e-01
-4.588984427767861689e+02
-1.245879681078616841e+03
-1.401514961086636276e+03
-1.172814039844232639e+03
-1.168839186467256695e+03
-2.460493609665953045e+03
-1.704298536954087240e+03
-1.178739005333425439e+03
1.097208563761593496e+03
-6.243802834966235196e+02
-5.324973357948077819e+02
4.597978325164756370e+02
-2.846504771494558099e+03
-3.332411638539429077e+03
-1.802908096914392900e+03
-5.607965042251794330e+03
-7.146540341407287997e+03
-6.134597920107900791e+03
-2.969115568449224156e+03
-3.676221352629429930e+03
-2.559872409416038408e+03
-1.600999939337423257e+03
-4.696378318744538092e+02
-8.437162594220451410e+02
-7.771621589620597206e+02
4.611308104247655137e+02
-7.128158919722359315e+02
-8.699259164832847091e+02
5.368607777122555262e+02
-8.364539546109374442e+02
-1.136886489927085449e+03
-2.039472686784969483e+03
2.173671230168798019e+01
-2.705216555061853796e+03
-2.030251945850876155e+03
-1.123376381737971769e+03
3.348722780433775625e+01
-3.560086251994385442e+00
2.335633266663781455e+02
-8.680249947600549376e+02
-9.114538799263287956e+02
1.823139404419506491e+02
1.377424729213722458e+03
2.169869191910117934e+03
2.506640749859908738e+03
3.085796782563655142e+03
3.323400182448171108e+03
2.415546955538769907e+03
2.077195774366936348e+03
4.457315224487267187e+03
5.258997152306400494e+03
5.199396086618865411e+03
2.652571937809309020e+03
-3.874502038972116793e+02
-1.117533577754893713e+03
1.624726851174418982e+02
1.000719804865582091e+03
-6.765824129501104380e+02
-1.241412056687153836e+03
-5.949192772068693102e+02
3.537269381251476261e+02
6.695823915762742899e+02
7.411092951386588084e+02
1.105470739263076439e+03
2.020227381110468968e+03
1.655244718984726887e+03
1.725753035559227328e+03
2.359896734176532846e+03
3.622758148739709213e+03
4.279237411918275939e+03
4.881613127036018341e+03
5.343944255503467502e+03
3.529525549074633545e+03
1.890354030463155823e+03
1.297895089397191441e+03
-1.258450792309917006e+03
-1.284541852740662534e+03
1.137461178227421442e+03
1.236658276812171607e+03
-5.130874212440882047e+02
-3.193675552557782794e+03
-6.914972238987892524e+03
-5.715501926373601236e+03
-2.101231420642964622e+03
1.548107334144053766e+03
3.285714392755985955e+03
2.580309788616740661e+03
2.219987646486164067e+03
2.336924761357508487e+03
1.977241766483570245e+03
8.847460844754757545e+02
-2.346483306739879708e+02
-1.155919209001566742e+03
-1.007187997989946211e+03
-1.354558621134347732e+03
-2.677015472118997423e+03
-3.603591056196157751e+03
-3.939170198481549050e+03
-2.833659151429656958e+03
-1.898098528601810358e+03
-2.020539640809361117e+03
-1.523808922618468159e+03
-2.284568525587834756e+03
-2.745650466754791069e+03
-1.943084883900433624e+03
-4.378327595071374390e+02
8.232440462351999031e+02
1.306593820654432648e+03
1.460894666744131428e+03
1.644435584501829908e+03
1.103522482673899276e+03
-1.258333481040250717e+03
-2.719309475085139638e+03
-1.839839410411017298e+03
-1.549151481021362542e+03
-2.282900751647956440e+03
-2.645899929315436566e+03
-2.923420073202003096e+03
-3.791521697174084238e+03
-3.451002779785129405e+03
-3.358933566955694459e+03
-5.037568881478424373e+03
-7.294524436266557132e+03
-2.694417160360441358e+03
-1.226152865798911080e+03
-4.031764383770794666e+03
-3.767125876006341059e+03
-3.804192598015054045e+03
-4.327107429976997992e+03
-4.320815641488909023e+03
-5.151868411149972417e+03
-6.201521209070787336e+03
-5.888207587852198230e+03
-5.964964743780595199e+03
-4.933644674884256347e+03
-1.321845277960059775e+03
-5.784452299511785895e+02
-3.757801991085801774e+02
-5.488094964670100353e+02
-3.603722319960387921e+01
9.137295880079889230e+02
1.217619726163271025e+03
9.923570477827647665e+02
8.066760554099428191e+02
1.428206104548299891e+03
2.367430621157016503e+03
3.225400874701983867e+03
3.827855816718242295e+03
3.757484677404110698e+03
4.169973033161458261e+03
4.258623749653688719e+03
4.252116899778054176e+03
3.881688334292121908e+03
2.488956508189331998e+03
1.255764590359015074e+03
1.065548254206850515e+03
1.005944238807161241e+03
1.241019938236354847e+03
5.926720075120719002e+02
4.004139612126406291e+02
1.053923379558878651e+03
1.145946771625166775e+03
1.299835152386819800e+03
2.132554321280614658e+03
3.163490631210254833e+03
3.301540740954403191e+03
3.826557685451473390e+03
4.490188699079153594e+03
4.734618195568013107e+03
4.726823415167900748e+03
4.489694891226909021e+03
4.673582261347363783e+03
3.741824931804347671e+03
2.697183625301766369e+03
1.768687096072105305e+03
1.259962103146667459e+03
1.342354268606894038e+03
8.899428997214786250e+02
2.535635822348466490e+02
-8.298086989552041359e+01
4.209480130621966509e+01
5.679012953932724486e+02
5.943169583225762835e+02
9.089648461195808977e+02
2.387188959292178424e+03
3.623387096633368401e+03
3.250126592411344518e+03
3.742821992526508438e+03
4.854660857827191649e+03
4.972687431977589767e+03
5.006007211893494969e+03
4.239411452066753554e+03
3.327349580207006511e+03
3.128070214467191818e+03
3.074746907710115011e+03
1.684853252211344625e+03
6.715472741381321384e+02
1.057447293157829790e+03
-3.215222433294258053e+02
-3.176134499252748356e+03
-6.588379062959312250e+03
-6.638127632559585436e+03
-5.009298695301662519e+03
-4.055844664544878015e+03
-3.321437071801097773e+03
-2.727459357909468508e+03
-2.515428058012345446e+03
-2.802087744847886825e+03
-2.237415928389219516e+03
-2.851047186970110033e+03
-3.461265231454644436e+03
-2.894090440928217959e+03
-3.607373232614321296e+03
-2.890180433060242194e+03
-7.909549953194356249e+02
-3.674568913917009013e+03
-5.261344901088325059e+03
-5.609043668490488926e+03
-6.033714636158172652e+03
-5.946448250247498436e+03
-5.500793336508736502e+03
-4.790791837535118248e+03
-4.033580096784791294e+03
-3.816637122710281346e+03
-3.253385592236639695e+03
-2.567861662159698881e+03
-2.004524482965119205e+03
-1.764207675871816718e+03
-5.383940994543103216e+02
1.809912774195472821e+03
-1.555040852470159962e+03
-3.855398193697820261e+03
-4.813517016627354678e+03
-3.286567603605802560e+03
1.294846284272241519e+03
1.838320104834702988e+03
1.742986995979151516e+03
1.355195307918692833e+03
-3.666278093581252051e+02
-2.348380085896905712e+03
-4.557603577397699723e+01
1.033245188213284564e+03
1.228561177834530099e+03
2.468866642146521372e+03
2.942684222479125310e+03
3.256293644580279761e+03
3.490178825702014365e+03
3.847208451777634764e+03
3.935184392039229351e+03
2.759316951875078757e+03
1.575837168405375223e+03
1.870462178238248043e+03
1.863257975397161545e+03
1.461820384965986932e+03
9.267898293238159795e+02
1.760686678947770645e+01
-8.940389498712955856e+02
-1.183810789476142418e+03
-1.280039021236973667e+03
-1.228897716856341958e+03
-1.954943279753769048e+03
-3.767901554766182471e+03
-1.349872091188596414e+03
-3.997240822033928680e+02
-2.477909100051066389e+02
1.964330784703764436e+02
7.564151318445103698e+02
9.414315364201867169e+02
1.024637175573203422e+03
9.926425758951586431e+02
4.349061946021509328e+01
-6.244319345962909438e+02
-1.095269312429363708e+03
-1.386281129490548210e+03
-1.696536198271285457e+03
-2.383968656827713858e+03
-2.767778699532193059e+03
-2.788945882589264329e+03
-3.384024432703556158e+03
-3.839157951813179352e+03
-3.800799466606736132e+03
-2.991527704740287390e+03
-2.684301371163705880e+03
-2.285065841911522966e+03
-1.461182101533232071e+03
-9.526363856883865537e+02
-1.549642360616647636e+02
5.736846964495133534e+02
-2.980541986850276714e+01
-1.175872184275184736e+03
-2.435251291969367685e+03
-3.796277035525240535e+03
-4.789510127083896805e+03
-5.776332985228848884e+03
-5.638688775464891478e+03
-4.422237342036667542e+03
-4.686214853199388926e+03
-4.593946328648726194e+03
-3.216357737650976105e+03
-2.435399305869931140e+03
-2.445254072001636359e+03
-2.104391035211623603e+03
-2.091680946903410586e+03
-1.937031253243512310e+03
-2.618060409052587602e+03
-3.729160297423076827e+03
-5.800092270863299746e+03
-7.954833053745299367e+03
-9.404912382563594292e+03
-1.099805010775218943e+04
-1.243194873122232457e+04
-1.316309737634557314e+04
-1.256282677779295955e+04
-9.496502132572317350e+03
-5.509893050151954412e+03
-3.121877375675863277e+03
-3.217474121765464588e+03
-5.190850624978989799e+03
-2.825699001420338845e+03
3.755766086474280314e+02
-2.723301465946657345e+02
-2.489525349383289722e+03
-2.552057295371957025e+03
-1.873173937915558781e+03
-8.322209545569083957e+02
-1.457453824829221730e+03
-2.989610683265893840e+02
3.859010140023567601e+03
2.927376021592345296e+03
-2.117097763727790607e+03
-3.884539892575663998e+03
-4.396150264566177611e+03
-6.526891359580522476e+03
-7.489152693013043063e+03
-8.055228998298790430e+03
-1.153136173384333597e+04
-1.247574995087198477e+04
-1.159606311909432588e+04
-9.647509301694510214e+03
-5.152535551372861846e+03
4.803187854418494680e+03
1.074923593927943693e+04
1.206837866287904035e+04
1.273034080801938762e+04
1.506396898372537180e+04
1.967992200543684157e+04
2.268479677581029318e+04
2.403718496206165582e+04
2.578153657966145329e+04
2.623456330282106137e+04
2.487067903935963113e+04
2.282252025564729411e+04
1.977676597177873191e+04
1.722195404905161558e+04
1.527072266051466795e+04
1.178661447658493853e+04
6.436956672742247974e+03
6.734431406473985362e+02
-2.054490102433104767e+03
-3.194266210431928812e+03
-6.022272409304017856e+03
-9.857152047212113757e+03
-1.393457620576034424e+04
-1.370406595413318973e+04
-4.247747982601007607e+03
1.175311403759054156e+04
2.212910416973561951e+04
2.770020195491181221e+04
3.221715451414373820e+04
3.114237447062477077e+04
2.628309143430988115e+04
2.517082545688848768e+04
2.700916997412640922e+04
2.575468162204807231e+04
2.282396181574721049e+04
2.086263939686917365e+04
1.739614351960345084e+04
1.018301444152157637e+04
6.090079428107294007e+03
5.493448681583908183e+03
5.698330626907567421e+03
5.315120494079576019e+03
6.161606883678305167e+03
7.143698522668812984e+03
6.029475391501431659e+03
5.520636212520737899e+03
1.055897605445573754e+04
1.256037384251522781e+04
8.830307273376107332e+03
3.389221297934468566e+03
-2.311013720746529998e+03
-2.713715594746229272e+03
-1.873071994195710431e+03
-6.256989785339203991e+03
-1.097467194305629710e+04
-9.439419700913116685e+03
-5.273490593248468940e+03
2.618081685206630027e+03
9.350397664520727631e+03
1.392442923621902992e+04
1.419721621420691554e+04
7.410661106319919782e+03
-9.204083393122551797e+02
-9.460903120684168925e+02
8.548789158049872640e+03
1.630846069164567780e+04
1.657712340540343939e+04
1.302274944266584680e+04
1.156846722686297835e+04
1.848947997352165112e+04
2.555209852831564058e+04
2.741345447648185291e+04
2.524171218639132712e+04
2.377507418125140975e+04
2.054377094070419480e+04
9.506078685651809792e+03
-7.924786379272912200e+03
-1.940349862399149788e+04
-2.964176643903224249e+04
-4.236333453825514152e+04
-5.287082495514099719e+04
-6.905078975372338027e+04
-7.807577462078395183e+04
-6.567645997996786900e+04
-4.663148494958927040e+04
-3.757133704459185537e+04
-4.240154010439954436e+04
-4.355863292147983884e+04
-2.393310663491102969e+04
-1.769381816861332027e+03
1.325615245555770343e+04
1.354025173821017415e+04
5.162267114108309215e+03
-3.748463594782795553e+03
-1.715228625079707854e+04
-3.684060939696156129e+04
-6.397487909805912204e+04
-8.188951009434276784e+04
-7.767190721857700555e+04
-6.267443601384629437e+04
-5.292641548423021595e+04
-3.502027956753237231e+04
-3.881406005596470095e+03
1.753502110098490084e+04
1.946060221068137616e+04
2.284495997550842003e+04
3.095877535099578017e+04
2.395667793094093940e+04
7.284381604478705412e+03
5.690693471385511657e+03
7.324210133182568825e+03
-2.754633316755109627e+04
-6.949905424223869340e+04
-8.415840842819769750e+04
-7.418672858256917971e+04
-4.260017846901016310e+04
4.048907823838974309e+02
1.565322024325055827e+04
8.492419489295903986e+03
1.542752809964511869e+02
9.677584879686173736e+03
1.782205110398342367e+04
2.133528494053112809e+04
3.126493865737608940e+04
3.058769781021660310e+04
2.141714708436764704e+04
5.918083013782370472e+03
-1.304283314400942436e+04
-2.135406672590703965e+04
-1.581484517154455898e+04
-1.279973255278482611e+04
-2.347221268828151733e+04
-2.806249711349215795e+04
-1.506638911395538344e+04
4.017808756297538821e+03
3.012564627491733700e+04
5.658668153649778105e+04
6.134342066673409136e+04
5.193125403114331129e+04
3.417163170738262124e+04
1.955202138741057934e+04
1.598586696573184236e+04
1.869957842356470792e+04
8.307581384813967816e+03
2.191315311595161347e+03
-5.431957128756515885e+03
-2.484983558563329279e+04
-3.692478434843254945e+04
-2.990067222426106673e+04
-9.877058127188369326e+03
2.298312578721865793e+04
4.424384295125266362e+04
4.285360790737776551e+04
4.565761064967638231e+04
5.673613962422985060e+04
4.440168261571757466e+04
2.254914232952648672e+04
1.455919305448133309e+04
2.502194287080883805e+04
4.580855644075990131e+04
6.398797060221311403e+04
6.151027083873585070e+04
4.888846491191346286e+04
4.292558451179772965e+04
3.165356881798182803e+04
1.942841445453398774e+04
2.151916287895771165e+04
1.818779397029829124e+04
1.106311315403973276e+04
8.855928734245533633e+03
1.733607980733355362e+04
3.488747385435879551e+04
3.608092242278296908e+04
3.897514894658766571e+04
3.553788727968886815e+04
2.721286917115182223e+04
2.140775530836130565e+04
1.558231652850508181e+04
1.744930957683465749e+04
2.186907510507376355e+04
2.035736294405924855e+04
1.115784653317688935e+04
1.392408032867595466e+04
2.098662586543311772e+04
1.638809943778979869e+04
1.157509533385153554e+04
5.986114420582567618e+03
4.223767517104820399e+03
5.384492045362443605e+03
2.116804646432474328e+03
-3.068772516170130075e+03
-8.563761427378265580e+03
-1.085770165943853499e+04
-1.430523885052406331e+04
-1.501000954227131479e+04
-2.050653323532848663e+04
-2.418734146958352721e+04
-2.529216875494491615e+04
-2.757066111481382904e+04
-3.550232213086256525e+04
-3.841885999085212825e+04
-2.818098550367986900e+04
-2.883833094445396273e+04
-3.374848932370182592e+04
-4.554614200551145768e+04
-5.182085246751932573e+04
-3.483318453403177409e+04
-1.657779563595168656e+04
-1.774029526375860951e+04
-2.659836331930819870e+04
-2.594272305712665548e+04
-2.185510140379344375e+04
-2.373223714765907789e+04
-1.705278214596054386e+04
-7.533453246076932373e+03
-1.033403742210822020e+04
-1.837516962738614166e+04
-2.280640423846962221e+04
-2.763345528102717071e+04
-3.412593165840442089e+04
-3.957746619087077852e+04
-3.831464114725586842e+04
-3.063207430151460721e+04
-2.235029427729518284e+04
-2.082586681838481672e+04
-1.831839774622982804e+04
-1.222740905972023029e+04
-9.390483927265620878e+03
-7.945332181407326061e+03
-1.125158319633259271e+04
-1.463208162041062315e+04
-1.559564854683945669e+04
-1.486353270532309034e+04
-1.476300154598076551e+04
-9.394423076058739753e+03
-7.188671038875202612e+03
-6.841401709925678915e+03
-5.346796415960548984e+03
-3.538141262171267044e+03
-2.243046377865513932e+03
-2.584976591253105653e+03
-3.303471130802636253e+03
-3.299804689851257535e+03
-4.007444816922655264e+03
-3.188000119322296086e+03
-5.268357182763582387e+03
-6.893850692390261429e+03
-7.624952751102045113e+03
-7.109878425615444030e+03
-5.849819840887618739e+03
-1.372118879017702511e+03
2.791907560603497132e+03
7.274261183513031938e+03
6.025527630962370495e+03
3.875345249446600519e+03
4.620404921445555374e+03
4.197220582540270698e+03
3.620189243644607814e+03
3.299316476265096753e+03
1.471475780460292299e+03
2.487518191409682004e+03
4.831191694880041723e+03
7.016126307095517404e+03
8.560307282014062366e+03
7.981789283969381358e+03
8.896523899794430690e+03
8.638547540891904646e+03
8.509966813120210645e+03
8.477930345982184008e+03
8.043607222085880494e+03
9.009992486938304864e+03
1.173813811513656947e+04
1.196032004552016042e+04
1.317177641571133790e+04
1.374971010930175362e+04
1.334803776547629786e+04
1.386181647812094343e+04
1.312835090080006012e+04
9.988897529542342454e+03
4.859675190129072689e+03
2.138547001673324758e+03
8.168365831679706162e+02
-6.220516831791373988e+02
2.624255631963665564e+03
6.864206090141618006e+03
1.042797825796870711e+04
1.252020486879191412e+04
1.382546166085845289e+04
1.436375300769228306e+04
1.477610070787706172e+04
1.533101869952907873e+04
1.551590515605483779e+04
1.430799719825199099e+04
1.125467325526099739e+04
7.825549551873515156e+03
8.960773968449137101e+03
1.207241750174112167e+04
9.417747964372656497e+03
2.424136793334248068e+03
-3.803011767144010946e+02
1.153652100720620410e+03
2.184508365776712253e+03
4.983541323883530822e+03
9.533549816022899904e+03
1.080197495550399071e+04
9.102603161266322786e+03
7.732073529968083676e+03
5.593748141080002824e+03
6.382566427128351279e+03
8.570772468141674835e+03
1.011906976135342120e+04
9.182786655507472460e+03
6.657757870788988839e+03
4.978021335332958188e+03
4.825471517041541119e+03
4.439251233763078744e+03
5.063658878099564390e+03
5.715287171758534896e+03
4.623056030604188891e+03
1.631554961944180832e+03
-3.695282268764406695e+02
-1.168698222412976975e+03
1.442723158130972649e+02
-3.388884457104694548e+02
-9.395577640802333690e+02
-1.257617807970025069e+03
-8.695339961704731877e+02
-1.263205703239025752e+03
-1.268074232806648524e+03
-1.355523873136668954e+03
-1.167371823402004111e+03
-1.672190292024162545e+03
-2.773016592764405232e+03
-2.665871470112837869e+03
-3.348763353140962863e+03
-5.241400789166398681e+03
-6.356186842411143516e+03
-6.121835201185177539e+03
-5.665516447809864985e+03
-5.780407075011635243e+03
-6.499047429491331059e+03
-6.705182674417910675e+03
-6.939196733064013642e+03
-7.717915760835932815e+03
-7.960430139861729003e+03
-8.567446833165507996e+03
-8.432470265708145234e+03
-5.119192923620841611e+03
-3.396514217602494227e+03
-3.773531906444478864e+03
-3.680940703261112503e+03
-3.790097227207184915e+03
-4.315057550687802177e+03
-4.783715496276537124e+03
-5.137337690347837452e+03
-5.973485860629672061e+03
-6.025179858726492057e+03
-5.664209063062865425e+03
-5.545483384847735579e+03
-4.854511950808357142e+03
-3.968975010160710553e+03
-2.646459959239480668e+03
-1.889159869211289106e+03
-1.820522817038411631e+03
-2.422288409744206092e+03
-1.958412115884442073e+03
-2.188792479574450226e+03
-1.825627420154405172e+03
-4.116871336160660917e+02
-7.975958714753529648e+02
-2.689262550716906048e+02
2.633502280731494238e+02
-2.112898569713420329e+03
-6.138343010945149217e+03
-9.280397765071480535e+03
-9.779401038341329695e+03
-9.186123325298891359e+03
-8.110931265154697030e+03
-7.645876305838317421e+03
-7.627688775375476325e+03
-7.864989617431891020e+03
-8.205003352842995810e+03
-7.803905725126335710e+03
-7.114909618196062183e+03
-6.238304598745109615e+03
-4.278678805310754797e+03
-2.570096620563086617e+03
5.576215134893848244e+02
1.885631053261261286e+03
-1.019418583071255057e+03
-1.511982056070464978e+03
-2.180856939878884987e+03
-1.997035001206854758e+03
-1.289081962297505015e+03
-1.388606362163040103e+03
-1.621406735559803792e+03
-2.277482055512640272e+03
-2.599715653443306564e+03
-2.923739122416011924e+03
-3.040998016496631863e+03
-2.711341649961461371e+03
-2.532883082777439540e+03
2.486889101133537849e+02
1.536533082812888722e+02
-2.276218184662507610e+03
-2.170387389872184940e+03
-2.081066076123768198e+03
-1.765774097210682612e+03
-1.021117771261459893e+03
-1.007426706090393168e+03
9.003503140079367029e+01
4.445556086471628987e+03
5.744010212131693152e+03
5.869494279940021443e+03
5.326278253603306439e+03
5.130955367590954666e+03
4.578429694978163752e+03
4.034578841967013432e+03
3.230019849175131185e+03
2.817783555472575699e+03
2.106678557705763524e+03
1.703375888241149823e+03
1.309234056212460018e+03
1.596313737555356283e+03
2.457182862646505328e+03
2.564373889888430767e+03
2.250629521016909621e+03
2.937080037893085319e+03
3.471836740670825748e+03
3.196091181792988664e+03
3.141746607088997735e+03
3.280348465140707049e+03
2.914488785040666698e+03
2.651189903088039955e+03
1.961636459829804835e+03
1.438240126934207865e+03
1.308770540443103073e+03
1.246689356780747858e+03
9.490356413004609522e+02
5.551022370760312015e+02
4.835046530429024187e+02
9.902040076337810888e+02
1.054374128035496142e+03
1.319266198247590182e+03
7.856913366857552319e+02
5.735375461193094679e+02
1.107174052462154577e+03
1.956890108458257828e+03
2.681868405802135840e+03
2.632033814582988725e+03
2.047841431478018194e+03
1.546032979361449861e+03
1.881781233392152217e+03
9.498249159376991884e+02
3.129324263628541303e+02
8.605194652773604957e+02
6.552614522429756789e+02
-1.217902257794684218e+01
-8.749044115470788938e+02
-6.431342750635953962e+02
-6.034741368981221967e+02
-6.752460922203042628e+02
-2.156844720769101400e+02
-3.580149182700372634e+00
6.256286242088328891e+02
1.382055351372901214e+03
1.334235655649010823e+03
1.656518352287763037e+03
2.567549462295330613e+03
2.511778204429707785e+03
2.152481884395222096e+03
1.641226475379205112e+03
1.068874857204088585e+03
1.115979452524825774e+03
7.902661950325327780e+02
6.847383784026294506e+02
9.465980992860484093e+02
1.119839499100153944e+03
8.358977841473504213e+02
3.591199858223524188e+02
-1.667749035173495145e+02
-4.504043425821953974e+02
-1.798930078316580818e+02
1.403958888408615735e+02
-7.194267207165244145e+02
-1.036337259625058550e+03
-2.111941314583655185e+03
-5.288150972137156714e+03
-5.945133277430149064e+03
-5.434127176796190724e+03
-5.032212309108910631e+03
-4.903889927602957869e+03
-5.359966528553062744e+03
-5.615466470564579140e+03
-5.560621969599257682e+03
-5.713530052379457629e+03
-5.376192980060031914e+03
-5.986614466188958431e+03
-6.673440124906956953e+03
-6.547913797767519100e+03
-5.555095057270213147e+03
-2.608125085489911726e+03
-4.235704028516436665e+03
-5.685020801981847399e+03
-4.952286073448731258e+03
-4.621560599915821513e+03
-4.105857903752025777e+03
-3.850505687974823104e+03
-3.627485252199596289e+03
-3.610896687425277833e+03
-3.457377632905792325e+03
-3.014937875905312922e+03
-2.814822778702376581e+03
-3.570689160894129941e+02
3.085265639487879980e+03
3.562105902306740973e+03
3.357646514092530651e+03
3.327689197577001323e+03
2.825114286637036912e+03
2.314901282823277597e+03
2.016023382082677699e+03
2.382549663687641896e+03
2.559361880274493160e+03
2.223542813741735245e+03
2.554216553561694582e+03
3.244438116458071363e+03
3.279215460561586042e+03
3.415432744777906919e+03
4.219934892706538449e+03
4.273945814482855894e+03
4.005344857008423787e+03
3.305098156959402331e+03
3.002379166183214693e+03
2.935202810005448555e+03
2.690572398824419452e+03
2.214772783184320815e+03
1.898157764737421303e+03
1.359529818088026559e+03
8.136530390805864954e+02
4.695850085546617834e+02
6.070304138877299920e+02
6.230567201525279870e+02
8.047209606413581469e+02
8.910285865266522478e+02
9.679785903335563262e+02
1.291596479702211127e+03
2.134028353037940633e+03
2.756348365099942384e+03
3.577602741731067454e+03
3.757880897858584376e+03
3.196383541400073227e+03
2.517276894754127170e+03
1.949196110192902552e+03
1.939123903016970417e+03
2.572699542062072396e+03
2.392230228228078431e+03
1.577169918509918944e+03
1.369448387186266473e+03
1.285383444030812370e+03
9.279217771021426415e+02
1.699307068478746032e+02
-4.674986663923671131e+02
3.819342623960693004e+02
4.843189290411116303e+02
5.656775197100330388e+02
1.480949246936341751e+03
2.256474532426403130e+03
2.133193221685541630e+03
2.069054914739226206e+03
2.295180027404084740e+03
3.001610995167211513e+03
2.755297921916482665e+03
1.893214138271010597e+03
1.132285962687654319e+03
4.804939712019252624e+02
2.101738154187360408e+02
-4.394336692502933488e+02
-2.684771926111462790e+02
3.298095340938838405e+01
-1.081665759069042423e+02
1.672459326580943753e+02
1.532906526633355497e+02
1.598914732953941176e+01
-6.165475259374271388e+01
-1.835504940806812328e+02
4.742325046960806958e+02
7.747366577732236692e+02
1.327933515897590723e+03
1.837110526965346253e+03
2.177424672315804855e+03
2.037702011829420144e+03
1.578980241221457163e+03
9.363180644854389811e+02
1.018653704822602776e+03
6.839319683592246975e+02
1.260464860692070772e+02
2.200729978116080687e+01
-4.371599908027656056e+02
-8.994620473365417865e+02
-1.218715838806009288e+03
-1.301008249967413349e+03
-1.515488057618125822e+03
-1.604071211336074157e+03
-1.441762821556332938e+03
-1.336922033657601560e+03
-7.463624413639088289e+02
-2.678937513577569121e+02
-9.669453136305749297e+01
6.151853447712592242e+02
1.258731162606866747e+03
1.234988285536196145e+03
1.023100532451873732e+03
5.930883965382973884e+02
4.567705474746643972e+02
-4.509453004400065623e+01
-8.985930022311447374e+02
-1.206756583553648852e+03
-4.407714935504815230e+02
-6.828072336226224479e+02
-1.305784637364596165e+03
-1.566605654253869716e+03
-1.975314227865278781e+03
-1.895020989808511104e+03
-1.593636354022245541e+03
-9.763133410327208139e+02
1.317286556856140862e+02
1.235516538728860951e+03
1.452812136052122469e+03
1.671813403482041394e+03
1.803816249304994926e+03
2.154764141478905458e+03
2.316619744160780101e+03
1.913062100106026719e+03
1.644831963616289386e+03
1.335725540779253379e+03
1.002760484671573408e+03
3.899279255555620693e+02
-2.168807040957883316e+02
-5.778083275701404773e+02
-8.679927442176216346e+02
-2.684661011554160837e+02
-2.543494843240048340e+02
-5.729077874862578028e+02
-5.628397383213811622e+01
6.703808626352580404e+02
1.036171272815590100e+03
1.454298930235546777e+03
1.939456496199899448e+03
2.536637629170716082e+03
2.801718053136413801e+03
2.748439561022375528e+03
2.594751909047571189e+03
2.654667338058537098e+03
2.436104512593657546e+03
2.133848957726518620e+03
1.633883540680931446e+03
1.135202609439795651e+03
6.305584564996572681e+02
2.037477166577007495e+02
4.014917739505670511e+02
5.759002634442762201e+02
9.306887805909543943e+01
2.597513767661035899e+02
2.739314185500350050e+02
2.144517362980512587e+02
8.331252300402150013e+02
1.734901343599862685e+03
2.926621191675765203e+03
3.919000975269793344e+03
4.194207913884491063e+03
4.194112488806481451e+03
4.062542112581683796e+03
3.287457240372255001e+03
2.190896507614857910e+03
1.948706470659050865e+03
1.530843701945619159e+03
1.660232810645498603e+03
1.752738305195668772e+03
1.308340904164455651e+03
6.308918718901977627e+02
6.011038976775180345e+02
1.387069043563657942e+03
1.795008767551723849e+03
1.675812417825722605e+03
1.668224222819077568e+03
2.112141738258573241e+03
2.592546442068888609e+03
2.667410340396755146e+03
2.887563818344323863e+03
3.096152173749435406e+03
3.212402893902603864e+03
1.857101505721104559e+03
-4.799225873670825990e+02
-4.164736179633141546e+03
-5.143393524033206631e+03
-5.113993584378874402e+03
-5.338638100302991916e+03
-5.478295277051342055e+03
-5.751055864485792881e+03
-5.782936231306789523e+03
-6.185960697330246148e+03
-5.901108446477125653e+03
-6.254449995595935434e+03
-6.645046022646754864e+03
-7.075965271510319326e+03
-6.818186966972104528e+03
-2.436604023593085003e+03
1.578839578211111302e+03
2.597127447507293255e+03
5.172118230821565703e+02
-3.564777751351403367e+03
-4.742952968218123715e+03
-4.428459334508962456e+03
