-5.167606453051839708e+02
-7.786122865856634689e+02
-3.714319325231720086e+02
-3.436363394998230660e+02
2.582611077934785371e+01
9.512185904596292403e+02
1.490206205605519017e+03
2.094438457372618814e+03
2.693033417234556055e+03
2.976400280760569785e+03
2.378546595946579146e+03
2.090870061444622479e+03
2.126829692124745634e+03
1.992079735311601780e+03
1.717824900715624608e+03
1.817841692339319934e+03
1.805842583374611877e+03
1.545862409792882545e+03
1.663959414174556741e+03
1.516331272435139908e+03
1.103963777997118541e+03
1.012766239498181562e+03
1.303361521253028968e+03
1.548916658647146278e+03
1.695608369951921986e+03
2.181458171176907399e+03
2.500252429543425933e+03
2.604884503943163054e+03
3.477497862978895682e+03
2.947039979717468213e+03
1.888573957301144674e+03
2.274979546911348280e+03
3.010150727024138178e+03
3.129045221151224268e+03
2.910618431202788543e+03
3.084817803467305566e+03
2.221720001269979093e+03
-3.276274451738451035e+02
-2.261755220487136171e+02
1.025012026481336989e+03
-1.610900390053206763e+02
-6.332464749763173131e+03
-8.288084816211177895e+03
-7.788001641661503527e+03
-5.944165242573098112e+03
-2.760544400188918644e+03
-5.079163384497892366e+03
-5.802755881334261176e+03
-3.538428430787909747e+03
-1.089256226190467260e+03
-4.993035510780303412e+03
-5.246866143478966478e+03
-5.033808061110857125e+03
-5.481814722944646746e+03
-5.923899047988431448e+03
-5.245266820063931846e+03
-2.420117252671224833e+03
2.756746895152740308e+03
3.000545958543295910e+03
1.544171250058146143e+03
4.395298592323487128e+02
-4.094224641425034861e+03
-5.474142280826423303e+03
-3.043175141082341270e+03
1.977014557818091234e+01
-5.329307151796310791e+03
-6.742402101616863547e+03
-6.169532661540793924e+03
-5.509647769442398385e+03
-4.877705794595880434e+03
-4.744604454402486226e+03
-2.711291329853004299e+03
3.023183939345091858e+03
3.921829017867787115e+03
-1.050290730862457394e+03
-5.651930172539658770e+02
1.492133310852090290e+03
3.341784641004596779e+03
3.804844160089606248e+03
3.723358665261279384e+03
3.061325803093674949e+03
2.597645651381177686e+03
2.644260566334728082e+03
2.534299950752749737e+03
2.370831220012366884e+03
2.501815391151100357e+03
2.369387809240073693e+03
2.373639862368327613e+03
2.015531044542423842e+03
1.486107353037690928e+03
1.618434681416224294e+03
2.371619287435099523e+03
2.816763561074774316e+03
3.288851756191815639e+03
2.606876801213215913e+03
1.567900856534377453e+03
1.177921487111883607e+03
1.125914202179983704e+03
1.083907845062958586e+03
1.104076684281081043e+03
1.875589098057046385e+03
1.887586768169271863e+03
1.067988322207008423e+03
1.625680886195972050e+02
4.297346575026302844e+02
1.271576115244596622e+03
1.418169137741475879e+03
1.243526768343665253e+03
9.906918640754191756e+02
5.466795318337610752e+02
5.194948665339368290e+02
-4.883483398160735334e+01
1.418769063742700610e+03
1.148334950906443964e+03
9.068229723058609579e+02
8.428416770959439646e+02
6.115127461451628506e+02
9.815772576984333000e+02
5.350305925550320580e+02
-5.326215287472646196e+02
-4.526482669265233767e+02
3.611614175123684163e+02
-1.689017349869692808e+01
-7.178043869065203353e+02
-6.289758240575918080e+02
2.496633133770891675e+02
6.146513030867622547e+02
8.485136474850535251e+02
8.300869186538774329e+02
5.913955822501303601e+02
6.786424410828384453e+02
1.112847344187204953e+03
9.480081739014370896e+02
3.871323608168895021e+02
1.811948449508526835e+02
-4.977870784472046921e+02
-8.797888296676346727e+02
-1.268908433647465870e+02
1.488650649042693317e+02
1.784075590763962111e+02
-7.210640678539185444e+01
-1.459598472091554868e+03
-1.720119970202451668e+03
-9.256745870759963282e+02
-2.493008298975334469e+02
1.070302500054490196e+02
3.483226996967006244e+02
-9.984176942684498499e+02
-1.270213909124231577e+03
5.739102788350950277e+02
1.765968277572231955e+03
1.942022977110957299e+03
1.363022396180220085e+03
5.798830772707851793e+02
2.516284967728376500e+02
3.223182961229442753e+02
6.748773896882682948e+02
3.793054566844016904e+02
5.857421591722516752e+01
2.526792850379005131e+02
1.655683239973956518e+02
-2.357434043025164954e+02
-9.522795886069375229e+02
-2.907053415475313159e+03
-6.790054593159574324e+03
-9.416305763850472431e+03
-9.673810172350884386e+03
-9.149586532478253503e+03
-8.782661639252515670e+03
-8.494012378627672661e+03
-3.372674092117283180e+03
2.239284027518603580e+03
-3.072142323349522712e+02
-6.578179959120910098e+03
-3.511647716567149928e+03
2.163285236959953863e+02
-5.960605082412489537e+02
-3.341669962076921820e+03
-1.869886418548623851e+03
-3.345654229613502594e+03
-2.129883217324359975e+03
-3.560165756320139963e+02
6.643463405186275850e+02
1.141170178578825471e+03
1.683455235687361210e+03
1.616081100339092245e+03
1.930809131409235533e+03
2.128532729682116496e+03
2.007498175386831917e+03
1.542687239531480145e+03
1.420076741271833953e+03
1.546721526371094569e+03
2.036238341786477122e+03
2.830949686786978418e+03
2.817710768263662885e+03
2.704258984704272734e+03
2.527930499470247923e+03
2.431505175732168027e+03
2.353747549727691421e+03
2.021263745900245340e+03
1.492613744004084538e+03
1.570630481906163595e+03
1.385347107021913871e+03
1.242786156774063784e+03
2.011167913653830055e+03
2.402200206070469903e+03
2.214654329472505196e+03
1.628741609527165338e+03
1.941616590138240781e+03
2.618106191208355085e+03
2.701126992316421365e+03
2.678602854291487802e+03
2.308341677628725392e+03
2.057664133060447966e+03
2.023174694335298454e+03
2.290125647241871320e+03
2.064495598010504636e+03
1.824245634629858159e+03
3.151681863289241505e+02
3.104335215579160945e+02
8.550057274126127140e+02
1.671132436705232521e+03
1.752712244800370627e+03
1.510722708612195675e+03
1.705168550353655519e+03
1.888786160280212016e+03
2.125582241937507661e+03
1.844541866849451480e+03
1.827560450503904349e+03
2.288865467672459090e+03
2.236169609560093249e+03
1.373690163648828502e+03
1.939835591856527572e+03
2.334593409742567019e+03
2.183498659170876181e+03
2.052628977205833053e+03
1.904787446689568469e+03
1.596769899253861240e+03
8.477355610229570857e+02
-1.181127434148091425e+03
-5.273017915214472850e+03
-7.799151582599219182e+03
-5.293093696416664898e+03
4.241927996851903231e+02
1.507551178288367737e+03
-3.151112557868051681e+03
-6.017582998846948612e+03
-1.458437125859962862e+02
2.281858745403198100e+03
2.532576883859014288e+03
2.671289899668121507e+03
1.858918871512877786e+03
-3.966535484420845933e+03
-6.005995267194776716e+03
-5.975427965085852520e+03
-7.062737467097014814e+03
-7.221975304665973454e+03
-7.394068141246016239e+03
-6.513814951662908243e+03
-6.467285852836539561e+03
-6.794269264630690486e+03
-6.228778740684757395e+03
-3.112684052085893995e+02
3.694503327516937588e+03
2.879977304469365208e+03
-3.467098357392368939e+02
-5.058605806001260135e+03
-6.584923277945432346e+03
-5.860052197875389538e+03
-5.005345821304911624e+03
-5.082016262551978798e+03
-5.153042969074886969e+03
-5.358263663627885762e+03
-5.382436575991529025e+03
-5.337453372132048571e+03
-4.775312874362794901e+03
3.100913511358820074e+02
2.881826712836604656e+03
1.495057797502267022e+03
-9.899109734991120604e+02
-2.170784405756759554e+02
1.548221779522730003e+03
1.977831799005406538e+03
2.758797537943404677e+03
2.864352056678935242e+03
2.517581906918747336e+03
2.851379073782228261e+03
2.999553428121449087e+03
3.113234778377073326e+03
2.639632700972438215e+03
3.036881602407949686e+03
3.420401550236468211e+03
3.344168449957886423e+03
3.098747428875976311e+03
2.952009719463224428e+03
2.633708274849314876e+03
2.581645434215719888e+03
2.219271448599235555e+03
2.266091311831870371e+03
1.826018046796085400e+03
1.566797108952435337e+03
1.733440252739007519e+03
1.208825915000491250e+03
1.603076106320156896e+03
1.498932764607467789e+03
1.489174513397331566e+03
2.543963756491156346e+03
2.397828661456769169e+03
2.148546162956599346e+03
2.425214432065045003e+03
2.960170546800823558e+03
2.673399463474182085e+03
2.140885188781915076e+03
2.199480048454479856e+03
2.388783715024882895e+03
2.117497532902161311e+03
1.563798901475607408e+03
1.812548541045891398e+03
1.778869348771502018e+03
1.723478596295216448e+03
1.632155715634218268e+03
1.752384215495739227e+03
1.720745559786773583e+03
1.381413596687584914e+03
1.283228789829242487e+03
8.952547650714890324e+02
1.371251338015004194e+03
2.371339818988021307e+03
2.462609246856270147e+03
2.360962803074261046e+03
2.648405276960529591e+03
2.541782669524982794e+03
1.863963387926117093e+03
1.696452164137268483e+03
1.869998737662507665e+03
1.718290086879194405e+03
1.407937499030635990e+03
1.054719357958017554e+03
1.250690288422353660e+03
1.600800411954811125e+03
1.774520602819648957e+03
1.345339770257867258e+03
8.604765060175243434e+02
1.105436375067459494e+03
1.394142313638561291e+03
1.375898736474328189e+03
1.232139642454432078e+03
1.480205779124635228e+03
2.077790993621576945e+03
2.119627036272066562e+03
1.635319873136062597e+03
1.864768118983298336e+03
2.226103335050970600e+03
2.118545983534209427e+03
1.517982509051892748e+03
1.345444600666767201e+03
1.206593338663838495e+03
-1.777656788478875853e+02
-2.535652420542490745e+03
-7.189227989586376680e+03
-8.129237257870609938e+03
-7.930411958012013201e+03
-7.642206190444981985e+03
-7.550997523207957784e+03
-7.267945996828105308e+03
-6.635541093442847341e+03
-5.757499538915628364e+03
-5.696101734256750206e+03
-6.183206912940751863e+03
-6.308520167231907180e+03
-5.701969063195817398e+03
-5.694361350871719878e+03
-4.967282981662004204e+03
1.392170694616496007e+01
2.583668195370823469e+03
9.740073581591425409e+02
-3.544856915330770789e+03
-6.223377236709313365e+03
-5.645326998786471449e+03
-8.186972041001581601e+01
2.637673302034269909e+03
2.357283422066332150e+02
-1.290906952310753582e+02
1.896774405297801877e+03
2.064378531738373567e+03
2.280588435134833617e+03
3.055589122271492215e+03
3.488310447122786172e+03
3.487619384768028794e+03
3.665327755792719472e+03
3.933577300090178142e+03
3.571760696897556500e+03
3.297287045355449209e+03
3.263112536864697631e+03
3.018493480696231018e+03
2.200496078031139405e+03
2.109550168265819593e+03
1.956181093082594543e+03
1.760348292709375528e+03
2.017871261132156633e+03
2.297862200733555710e+03
2.428190270739389689e+03
2.186869699803745334e+03
2.041515707170700125e+03
2.095419872751282583e+03
2.240456031576244186e+03
1.985905529146268236e+03
2.305726062896006169e+03
2.624933155399191037e+03
2.343331411736324753e+03
2.241216434296696207e+03
2.714419639869057391e+03
2.270532023857027070e+03
1.830396183401971939e+03
1.734599875692136948e+03
1.917624250613955837e+03
1.554061853539799813e+03
1.323622067030868266e+03
1.192693633277552181e+03
8.376565627598031369e+02
5.945749046772681368e+02
2.373605134397436416e+02
-4.529121508459437173e+00
3.037544906993319671e+01
5.483426882578035020e+02
1.187612769324096007e+03
1.492252973012622533e+03
1.635113520366841612e+03
1.415346875792848095e+03
1.050939274651564574e+03
2.359313567790001969e+02
-3.161764145604912301e+03
-5.993435628092935076e+03
-2.152847490872011349e+03
-2.065539681912530341e+03
-2.124999661664332507e+03
-7.341244172889488482e+02
-4.963535579517533733e+03
-4.216225505023604455e+03
-3.599351474517721726e+03
-2.248866716837454078e+03
-3.639420923627654929e+02
-1.264812153337845302e+03
-4.051863734348832622e+03
-4.088553108768373477e+03
-3.458110744581142171e+03
-2.351577311532189015e+03
-1.463383874550439430e+02
-2.835600000585992348e+03
-1.093833312630060846e+03
-2.302549914738134476e+02
-3.178006562822026353e+03
-2.443840862921406824e+03
-3.391768578752918984e+03
-6.191792901200816232e+03
-1.137797413407057775e+03
-1.104923451044066724e+03
-2.540928392391246234e+03
-3.256457238067855997e+03
-4.246771520310562664e+03
-1.822125109558891836e+03
-1.651280805779658522e+03
-4.094072484968743538e+03
-3.877944187561721719e+03
-1.006617987589008180e+03
5.410604326127471495e+02
1.159203851002914234e+03
7.049677089336629479e+02
-1.892953034936421545e+03
8.543885965183417852e+01
-2.730663934738243370e+03
-2.599768781579352435e+03
-2.693115551746581332e+03
-2.790730510832754590e+03
-5.309364353585050594e+03
-6.034842195074628762e+03
-7.418944096152136808e+03
-5.615610056577223077e+03
-4.097339538148393331e+03
-2.347518613558597735e+03
-3.465962287293160671e+02
-7.743601411295707067e+02
-8.844041591785777428e+02
-1.362361959735489791e+03
-4.218001919471075780e+03
-4.382139258178790442e+03
-7.820694059550763996e+03
-7.988112328753733891e+03
-3.944445011873749991e+03
1.975243872877920694e+03
2.649662172674443809e+03
4.199575664480955311e+03
3.762354329591959413e+03
1.730521536412971045e+03
1.803343256232686372e+03
1.890021580306139640e+03
4.459197285915719817e+02
-2.353366302006859769e+03
-1.806867789161479323e+03
-8.316134936942406739e+02
4.188709496074117737e+02
-5.654154764233993546e+02
1.137587741140544949e+03
3.926913998514491141e+03
4.406882324062413318e+03
5.116702382230826515e+03
5.060553926740852148e+03
3.516515638076706637e+03
2.024748345926985166e+03
6.336731461439703708e+02
-4.326472644837267012e+02
-1.061434222033260539e+03
-3.046094629286269537e+03
-5.724018882043901613e+03
-5.860791588315171794e+03
-6.553337516645713549e+03
-4.971243183169751319e+03
-2.931067627382823503e+03
-6.442361922255491663e+03
-7.977962715720966116e+03
-3.527782322901666248e+03
4.176814453416310243e+03
1.304090683562872073e+04
2.019946134268653259e+04
2.384131906490041001e+04
2.357020360115122821e+04
1.972506687925144433e+04
1.461242754193994551e+04
1.052474991779006632e+04
8.390249710148520535e+03
6.587090579567309760e+03
4.347076691342811500e+03
2.347924468334273570e+03
-1.733393998637579614e+01
-7.539481279521191937e+02
2.881229646768207203e+03
7.307405296361292130e+03
7.745323809627529045e+03
6.126112097962921325e+03
4.269267229981831406e+03
4.747353383669509640e+03
7.317109037492594325e+03
7.143488924408353341e+03
2.886797493042930000e+03
4.372838631448451565e+02
5.185579400104523984e+02
1.630994553708182139e+03
8.517161548577472786e+03
1.726016310375553439e+04
2.065697069906875549e+04
2.049118955248250131e+04
1.908541139518410637e+04
1.563130597907852098e+04
1.475103277409038128e+04
1.397749871410808919e+04
1.509366064377196017e+04
1.520945071432031909e+04
1.727145430029866111e+04
2.030547905912997521e+04
1.970377154321781563e+04
1.631512550519721299e+04
1.211844123443993340e+04
9.765708248523111251e+03
6.734675603144426532e+03
2.797230953944626435e+03
-6.199376425929514198e+02
-1.163937853280921445e+03
-2.506630518402106190e+03
-3.445570856950860616e+03
-4.133966314996067013e+03
-7.342115773998409168e+03
-6.338359736619344403e+03
-4.882546706270140930e+03
-5.341014658650941783e+03
-9.216962415254000007e+03
-1.601017377601623775e+04
-2.389743878711752404e+04
-2.581693739689214635e+04
-3.012674089424813428e+04
-3.002588740841755862e+04
-3.042230798584640797e+04
-3.001003311370017400e+04
-3.315096331149134494e+04
-3.619218157095458446e+04
-3.660183846518128848e+04
-3.339581428652410250e+04
-3.396790729513513361e+04
-2.979601279417001570e+04
-2.084192661833785678e+04
-1.434870793306797168e+04
-9.210460039605155544e+03
6.520921716503743482e+03
2.093882250729902080e+04
2.120500431223380292e+04
7.960791092503191066e+03
-9.252600635033146318e+03
-2.476114362347252245e+04
-3.779874338201341743e+04
-5.126827860474462796e+04
-6.176480476513096073e+04
-6.179579535057812609e+04
-5.791926221073728811e+04
-4.680513794148866873e+04
-2.645576183338832197e+04
-3.300331783018395981e+03
2.327516885727341651e+04
3.818912040261858783e+04
4.082651899758062791e+04
3.162039585250144955e+04
2.425934676804449555e+04
2.893158698297387309e+04
2.150036901397317342e+04
2.246968760725781249e+04
3.747975855636703636e+04
4.209771862621299806e+04
3.076606481467077901e+04
2.026326716805386604e+04
1.256719238471698372e+04
-2.680786168003804505e+03
-1.342638917942945045e+04
-1.488148326021703906e+04
-8.888899302268177053e+03
3.335429070895887889e+03
1.616908960232746358e+04
2.018609930006004288e+04
3.366788132173736358e+03
-1.873548172812561461e+04
-2.952885425038831090e+04
-2.215822707126566820e+04
-1.751397459699579485e+04
-1.900555161857391795e+04
-5.919341074622934684e+03
1.373622346788437244e+04
1.966047900779520933e+04
1.758437082774979353e+04
1.178207049247849318e+04
-5.245080823175492242e+02
-8.990247600055157818e+03
5.335444369446822748e+03
1.752887046491014189e+04
5.041967909905271881e+03
1.745402727626270007e+03
1.507805964490274891e+04
3.221700260421394341e+04
5.362850954867076507e+04
4.911900491629003955e+04
3.051486736740935521e+04
1.274103542371211006e+04
9.973492905878290912e+03
6.029878925158763195e+03
6.120213267868412004e+03
6.850648245664265232e+03
-9.105704123870156081e+02
-3.721411285177357513e+03
-9.736803692261608376e+03
-1.948218217873854155e+04
-1.477545363480963351e+04
3.975365096260469727e+03
1.333841075679534879e+04
4.727840732891916559e+03
-4.538162732781351224e+03
-3.136458922670653010e+03
5.054027348095898560e+03
1.434543401974200970e+04
2.528086777169926427e+04
2.046048527008845122e+04
2.764429090595174330e+03
-8.335257645269084605e+03
-1.446351343166193146e+04
-1.049218187301964463e+04
1.742804381056949069e+03
9.019508223548786191e+03
1.219699859228861533e+04
2.570133351253406363e+04
3.302257235110905458e+04
1.721978615416196772e+04
-5.245971921033693434e+03
-1.047568119452670544e+04
-1.127430964955634045e+04
-1.913684045140355011e+04
-1.095825304852548288e+04
1.678838629632451557e+04
2.323605059883055219e+04
5.063758810330583401e+03
-1.549649866437725905e+04
-2.334672309333603698e+04
-1.057200486126593387e+04
-1.252179932839403818e+03
-7.869906468118248995e+03
-1.936743801031781913e+04
-1.715229289173481811e+04
-3.636202286112479669e+03
1.057571886912991977e+04
6.674299543751489182e+03
1.292918097764451204e+03
4.758082344707647280e+03
8.008704868960327985e+03
8.390625004942685337e+03
3.210639879152941830e+03
-1.043113130913016175e+04
-2.196059797990733205e+04
-2.777702886148802645e+04
-2.348863426248089672e+04
-2.513059361814093063e+04
-1.701918453117655008e+04
1.979292283953083142e+02
3.584316137402319782e+03
3.554789173551227123e+03
5.530521276015329931e+03
6.350218203545729011e+03
5.968866084087524541e+03
5.760442387103257715e+03
1.623118930769734106e+03
-1.947908285089956507e+03
-2.117610763230101384e+03
-7.917166556855112503e+03
-5.798791209574826098e+03
3.060694340673960028e+02
-5.599553675112561905e+03
-6.938562244459399153e+03
-6.348307607929948972e+03
-1.828717422699002418e+04
-3.282724887770887290e+04
-3.649367262432816642e+04
-1.746956599635659586e+04
5.852114897432557882e+03
8.764898920497167637e+03
4.585956969118407869e+03
1.016792558030025793e+04
1.598173307607061543e+04
1.193323777811179571e+04
7.141489883318561624e+03
5.319188578641684217e+03
4.265264499727595648e+03
1.061528497339350906e+04
1.235704355538093660e+04
-7.295669580138057427e+03
-1.457005330205111386e+04
-3.243082481910356819e+03
2.340065076427168606e+03
-2.177698705268390313e+03
-4.825206419240612377e+03
-6.169746672021576160e+03
1.417675479836480008e+02
7.059968331216114166e+03
2.553381356563001191e+03
-7.023385738961733296e+03
-8.057122977298566184e+03
-3.166009853242355803e+03
-3.022922710262685996e+03
1.840139682446754477e+03
1.162683887040577974e+04
1.432898386936341922e+04
9.945873067277007067e+03
6.030586193364296378e+03
7.832678185369224593e+03
8.953951994841476335e+03
7.751220466559424494e+03
1.622555012430718989e+03
-3.195271307476554739e+03
-7.233461514536906179e+03
-1.027590309552302278e+04
-1.183265895840839949e+04
-1.086167611795995435e+04
-6.421868598452178048e+03
9.317142450686865232e+02
2.059992893181214640e+03
4.698908525437864228e+03
3.111409813795809441e+03
-1.361379803125873650e+03
1.438600675943440365e+03
1.015112708619922341e+04
1.473820724523562421e+04
1.478170819583843877e+04
1.059955367566059977e+04
2.759133727233221180e+03
-4.060639182168020398e+03
-5.856317363573050898e+03
-7.647307022021362172e+03
-1.058385710144043878e+04
-1.118395256107242312e+04
-1.068342908400651504e+04
-7.408960406165584573e+03
-8.242164556966599775e+03
-1.428684316640695579e+04
-1.619093203427111985e+04
-1.308747781167699759e+04
-8.831431457855618646e+03
-3.718726164003648591e+03
-2.211319751080798596e+03
-2.580072986039801435e+03
-2.180062436780621738e+03
2.621373400015486368e+03
1.173014045536572667e+04
1.538256272897956478e+04
1.466883770501353865e+04
1.101304577388647522e+04
4.806104934036948180e+03
-1.519151058245097147e+03
-1.548490381249265283e+03
4.860529249638480906e+03
1.034187656329550919e+04
1.039442431239240614e+04
7.908071832873888525e+03
9.105262199852200865e+03
1.250873683912412162e+04
1.356910550187842637e+04
1.162112147135821033e+04
6.503899839256258929e+03
4.932303651853044357e+03
3.487846862347614660e+03
3.715946894367310051e+03
4.645729844065471298e+03
2.004333909050173133e+03
-1.721295648840244894e+03
-1.787301776409733748e+03
-1.983409297499213380e+03
-2.424232751197673679e+03
-1.325561021206291571e+03
-5.693709742962504379e+02
-9.275192432498586186e+02
-4.729774267818903354e+03
-9.328954014376267878e+03
-1.162961815508642394e+04
-7.842144955098979153e+03
-5.349710508941182525e+03
-4.959769647168038318e+03
-8.448006348291197355e+03
-1.055929489020807705e+04
-3.319621425132231707e+03
4.642149177283168683e+03
3.653369438497934425e+03
5.872380921460011450e+03
6.377393892129044616e+03
6.465091800392943696e+03
5.979718042495685040e+03
5.970986724407496695e+03
5.622894023258073503e+03
6.028437624023223179e+03
6.023028588065266376e+03
4.182392349728123918e+03
2.112671516272703684e+03
1.489163738578617085e+03
1.899920599233121266e+03
4.124823141645554642e+03
4.368331007401749048e+03
2.508570634705837165e+03
8.043029816907625218e+02
2.578475423357265754e+03
-3.261272171859496893e+02
-1.014625968926879409e+03
2.541526064291298326e+02
8.318149705305396537e+02
1.025561209859548171e+03
4.094184161812859202e+02
-3.453369988195114274e+03
-2.027860674969890852e+03
-2.444781364453190236e+03
-4.628535743014212130e+03
-2.729245418333485986e+02
4.649058514457764204e+02
-3.467659357576532670e+02
1.052270614422207018e+03
-5.574794951991574408e+02
-4.195253292212927590e+03
-2.740111508634348411e+03
-1.086019848793116580e+03
1.157074502468671426e+03
1.361153495523024731e+03
1.745631825694713370e+03
-5.187463165979289670e+02
-9.744038010982058040e+02
-1.519071077390037317e+03
-3.999574750460451014e+03
-3.763946547845881923e+03
-2.433406599946119513e+03
-2.209100544874107072e+03
-2.479653317094281647e+03
-4.687782729556093727e+03
-1.761145499306346210e+03
-1.915922136312395878e+03
-1.361741762332409053e+03
1.618194101743599049e+03
8.637284362402200486e+02
-2.641835934742310656e+03
-4.688630703212410253e+02
-2.073310422284979722e+03
-1.507879527990837119e+02
2.578430311355627509e+03
3.382544868184349070e+03
1.232374466785421873e+03
1.019443573845317246e+03
2.777082004931524352e+03
1.421015517688703994e+03
-7.968605505554671709e+02
-6.334103000635116132e+02
-1.663773714855806020e+03
1.764996203762982532e+03
1.404393501897979604e+03
-5.269775564376803914e+02
-2.315691647432809532e+03
-1.937480997938523387e+03
1.316432213194288124e+03
1.814413787528593957e+03
-1.466173628434496777e+03
8.247828664365574696e+02
1.506489480461891844e+03
1.610716364836413277e+03
1.880412692721122539e+03
7.882553586733233715e+02
-2.244006234429303731e+03
-4.059837832236773920e+02
1.507798473054990609e+03
1.555274919867624021e+03
1.305127979818711083e+03
7.188232847362930897e+02
6.447616450721137653e+02
8.742416650341805280e+02
5.345337101143225027e+02
-1.449658998811322874e+02
-4.954694109484096884e+02
-1.633199061323894341e+02
1.636433354813340202e+02
-5.518844325637135029e+01
-4.894390248545857958e+01
-2.185535543547005233e+01
-2.687072547858862208e+02
-3.962836802985816576e+02
-1.603013341855120188e+02
-5.045428371156638718e+02
-7.689492572610199659e+02
-6.591244287887094515e+02
-6.130720228029338159e+02
-6.591438114925410900e+02
-8.213524879649570494e+02
-9.966075193926227485e+02
-7.880284345386437508e+02
-9.179044948544249110e+02
-1.144204242661112858e+03
-1.280535493390171951e+03
-1.503614848564086742e+03
-1.936934892327104762e+03
-3.706194091065660359e+03
-3.810850384175475483e+03
-1.925577605437744296e+03
-2.821549215311454645e+03
-3.029319602942549864e+03
-2.175749255184124650e+03
-1.981711888724109485e+03
-1.356626858810639078e+03
-7.221768380404425898e+02
-7.600850023136712252e+02
-7.449781391448095746e+02
-5.898688023874905184e+02
-8.515191343554440664e+02
-9.944108076841549746e+02
-1.007647270260278447e+03
-6.200185845741975754e+02
-6.557947392252344798e+02
-7.788184299155777808e+02
-1.466601751502731076e+03
-1.238904388195324145e+03
-4.587172090898920374e+02
-8.611437414778093853e+02
-1.523876543454656030e+03
-7.800957920634423317e+02
1.263622348302933887e+02
4.366969423952460261e+02
1.769095575460659973e+02
-4.369563124056467274e+01
4.319306558179517879e+02
1.202616083497129921e+03
7.609063822130533481e+02
7.526637368174111486e+01
-2.167232385289063075e+02
-1.391202963134255697e+02
-1.351844025644520570e+02
9.597991124952463338e+01
6.464744268676258798e+02
9.137670846866496959e+02
6.412234266983264206e+02
3.738549948134220813e+02
5.999698159503028592e+02
1.478551723218751590e+02
-4.679117364538560082e+02
-2.250970192872654820e+02
3.072168918958388417e+02
9.008010294225491634e+02
1.133826873135453980e+03
1.666147792199535161e+03
2.008654432576275667e+03
1.862711362431813768e+03
1.574762787083227977e+03
1.315618659443597608e+03
9.425999698158628917e+02
2.131165350248530785e+02
-4.896041331385288800e+02
-1.398037813327115089e+02
6.925031944388304055e+02
7.312792636550648240e+02
5.108853548764917036e+02
5.530369959521707415e+02
3.135244855733890859e+02
-1.760659414182179603e+02
-4.482769236912864130e+02
5.244403924218656812e+02
1.169222470541793427e+03
6.528091620116515514e+02
-1.338346008005288240e+03
-7.494355646570205920e+01
1.920569156939576033e+03
2.788220664234671403e+03
3.023541004559160683e+03
2.446572413887754010e+03
1.380486141118120941e+03
9.296858372305079001e+02
2.891041255909284473e+02
-1.052262200646904802e+02
-2.413908822244643204e+02
3.815176985181185501e+02
1.253328162947380179e+03
1.956652717364342152e+03
2.029070114696951350e+03
1.862944704713275087e+03
1.692074665933771030e+03
1.848762709575954659e+03
1.919236619908778039e+03
1.620961742752583177e+03
9.613209642918650388e+02
1.212490414596433993e+03
1.753723147353388185e+03
1.826331735748600067e+03
2.308738423569150200e+03
2.230977105899500202e+03
1.762706030716474743e+03
1.256873762681444532e+03
1.102562377228208106e+03
6.225106668573602064e+02
4.425719268263835033e+02
6.785697598408247586e+02
6.387595533683345366e+02
8.515153123111554123e+02
1.266541793497072149e+03
1.826433531325810463e+03
1.919967935276360095e+03
1.774918340775266870e+03
2.024484982593308814e+03
2.069776003105774180e+03
2.015702117225839629e+03
2.060784961877417572e+03
2.379485065234095146e+03
2.455194771708130247e+03
2.214110786544278199e+03
2.427459427143582616e+03
2.357569936784185302e+03
2.113512560889995711e+03
2.161908441414261233e+03
2.026207800830671204e+03
1.730192839424394606e+03
4.231864967686233854e+02
-2.498571034565654372e+03
-6.540404716771735366e+03
-8.105504412559223965e+03
-3.657717142079262430e+03
1.146162736529598305e+03
1.291500064393658704e+03
-4.387932901068451429e+03
-6.732187356258541513e+03
-6.695359660293474008e+03
-6.567534868988969720e+03
-5.633484673342460155e+03
-5.631893187422351730e+03
-6.373124172728602389e+03
-6.436122813340487482e+03
-6.424891902057507650e+03
-5.837551343783316042e+03
-5.396114293122676827e+03
-4.287540474411922332e+03
-1.388545771954142992e+03
-3.850946886553315380e+03
3.211699138418440498e+02
2.711297482014836987e+03
-1.380534135512977173e+03
-6.028182267557913292e+03
-6.187321199527215867e+03
-5.745957443953140682e+03
-5.646886063850564824e+03
-5.274324538824634146e+03
-5.023631990929720814e+03
-5.294040484295629540e+03
-5.075418207693818658e+03
-4.934709796633123005e+03
-4.524859088051365688e+03
-4.591877518459135899e+03
-3.661714321988721622e+03
-6.954025899110724822e+02
-1.472908938370081842e+03
2.449969621457913036e+03
2.129313655518546511e+03
-1.079911372108800833e+03
-6.077965058904941316e+02
-8.544775871150567070e+01
2.365272969723999267e+03
2.593521812841419433e+03
3.008361782252425201e+03
3.678610899764500573e+03
3.663676654204252827e+03
3.652454135891513033e+03
3.686833335168990288e+03
4.108923007378046350e+03
4.147703845176906725e+03
3.999295041295210467e+03
3.606038429994226135e+03
3.733564286401294794e+03
4.015032430353255677e+03
4.137678991040615983e+03
3.663961537950070579e+03
2.984160821110651341e+03
2.484442699743908634e+03
2.558596455332675760e+03
2.712903459273430144e+03
2.373614211068715122e+03
2.272384598339363492e+03
1.827151993354962997e+03
1.683780552550265384e+03
1.792381345093107711e+03
2.187267100845482673e+03
2.421868729537946365e+03
2.246103079608693406e+03
2.376244511648172647e+03
2.775473083317504916e+03
2.968232592395802385e+03
2.707380300228622673e+03
2.450045886612257618e+03
1.256084278373830330e+03
3.666670044175203884e+02
1.385767838872271113e+03
8.496954392841178105e+02
1.039401521402740173e+03
2.064715377618663751e+03
1.551860364792679320e+03
1.614184666927989156e+03
1.513363190188113776e+03
1.025609406075973311e+03
4.918596096629696603e+02
8.067471645514235661e+02
1.572247842317153527e+03
1.778876196069678826e+03
1.497535391728207514e+03
1.716375035285032027e+03
1.864481196081578446e+03
1.764676686560382677e+03
1.213627198870058237e+03
8.365559673609800484e+02
1.029346444910521768e+03
1.280164366638058027e+03
1.996069715396909714e+03
2.580010648112154286e+03
1.929850847314350631e+03
1.072373326430302996e+03
3.517421670309504975e+02
1.352971409248350483e+02
2.615800786569209322e+02
8.166696793941671331e+02
1.372633454290027657e+03
9.844001102471719378e+02
5.920247693800325806e+02
5.468317822425791519e+02
6.215541840003937750e+02
6.350325614178653950e+02
6.523469434587228761e+02
6.675167686886890124e+02
3.865780664771407373e+02
5.254568750775106309e+02
5.901123375864426635e+02
5.915689008859020532e+02
8.798645155207054813e+02
5.469755270480133049e+02
-6.041617783626775235e+02
-4.435728840891993059e+02
4.877477631584389997e+02
8.677566153929885786e+02
5.874614420778285648e+02
8.983460507298485709e+01
2.948722647943980064e+02
-2.944240880650960079e+01
-7.081021626038035492e+02
-5.361026762123581193e+02
4.185375496776189834e+02
-3.062213874766191566e+03
-7.673396894851219258e+03
-8.835027960555316895e+03
-7.424099603864614437e+03
-6.780661568627326233e+03
-7.785714342604403100e+03
-8.675286566722112184e+03
-7.091411070175248824e+03
-6.973103418414544649e+03
-7.510438163664694912e+03
-5.896323569417965700e+03
