7.952702302770546794e+02
6.324916955270505241e+02
8.790258123346809498e+02
1.013901347239423671e+03
9.161503695342304354e+02
8.198124168552725450e+02
1.398572232095924903e+02
3.172082108546590575e+02
1.349003730222164222e+03
4.381917531593070976e+02
-6.062581834517347943e+02
-9.104042383382683283e+02
-1.502598184076949792e+02
9.717355798324986438e+01
-5.841451795057541858e+02
-6.612259490722648252e+02
-7.620205062297528684e+02
-8.725196161948268809e+02
-1.147797879062042966e+03
-1.053895128927274754e+03
-1.047644680557062458e+02
2.746941966862623303e+02
5.345376423546033351e+01
9.745572322380361641e+01
5.887195787947288181e+02
4.342347162504985363e+02
-2.569578634590103547e+02
-1.403893671875076279e+03
-4.716580671514948335e+03
-8.547004371189257654e+03
-8.657149991946553200e+03
-8.301056053260881527e+03
-9.063808392102007929e+03
-9.400409381022134767e+03
-9.284788330110884999e+03
-9.063976326751977467e+03
-7.894994029780663368e+03
-7.717878710236488587e+03
-6.103417483993802307e+03
-8.177479779436873741e+02
3.731208756152349224e+02
1.306184252183351873e+03
2.059515384949484542e+03
2.282160104430223782e+03
2.285083517111158926e+03
1.927284803992360821e+03
1.237810562805565723e+03
6.066501003836166319e+02
5.558078602015464185e+02
4.172168960664021142e+02
4.689133240376156664e+01
1.308647169749683314e+02
3.081540522777673345e+02
-1.172248961565595948e+02
-1.529732711385242894e+01
5.099375531800895942e+02
5.115741960735548446e+02
7.056419427822007719e+02
7.961638459406567563e+02
6.731221914991646145e+02
7.125293625411458152e+02
9.584387115781856892e+02
1.439889314093094526e+03
1.802875170843410615e+03
2.145361620073862014e+03
2.252408229654424758e+03
2.143149648117389006e+03
2.265667872695904862e+03
1.629864324004994387e+03
1.025639598883550661e+03
5.859894184353440778e+02
4.859999065494295110e+02
5.036639721567569268e+02
5.610616194291761758e+02
4.282002258235570480e+02
1.961860359335331054e+02
3.990539976625104259e+02
7.337660186116983141e+02
4.293032188913272194e+02
7.858463497399749258e+02
1.276375252809863696e+03
1.346772208794558765e+03
1.807066618569065213e+03
2.008329562073175794e+03
1.869633503957536277e+03
1.921042341490566741e+03
1.948571182335057983e+03
1.113240380576122334e+03
8.880350610102109385e+02
1.291835795955277490e+03
1.076804227963386666e+03
7.859768282027436044e+02
6.652524614340480866e+02
-4.472006053869761786e+02
-9.764236548414121444e+02
-1.984708943625690267e+02
3.246990819081810287e+02
3.922098574210751281e+02
5.161013360681648692e+02
5.043290931465504059e+02
-5.022755748942461906e+01
4.596158211047671216e+02
1.330241801470018345e+03
8.923952194673107670e+02
9.139545943167282758e+02
1.578956620409542666e+03
1.628570277290346894e+03
1.378759055432461764e+03
8.565546448204988792e+02
2.009181587247466894e+02
-7.816961216764116216e+01
1.727483135959671401e+01
2.719440239280669047e+01
1.296095707895439944e+02
-3.137246176761222927e+01
-3.766748738423162308e+02
-3.554045768086141379e+02
-3.136837055709428341e+02
-1.732837086547894785e+02
5.891616234510636474e+01
5.298676800351486236e+02
1.735313349607090174e+02
2.298948124954749233e+02
6.199535507874358018e+02
9.576484928304240611e+02
5.920009123780332629e+02
-2.029704378245345708e+02
2.639499597563956854e+02
2.017992458055437055e+02
1.964618793568725152e+02
-3.410615422784393331e+02
-3.507317626490934686e+02
-2.055594532457893706e+02
-6.496570178506885895e+02
-7.431091029282265481e+02
-7.107867176866442378e+02
-8.555944362612048053e+02
-8.725459453083140033e+02
-4.417064007886744434e+02
-3.341717093020970992e+02
-7.994837475385278935e+01
3.101623311005138817e+01
-1.937219983581478346e+03
-2.208714206848881531e+03
6.024833844654798440e+02
1.124479732773711021e+03
6.327285436543014185e+01
-3.720453825869249442e+01
7.710600388197494226e+01
1.621737012508947657e+02
-6.990762658080404535e+00
-6.949548204750549019e+01
-7.973659212149226505e+02
-8.806026105933033250e+02
-8.581871525116770272e+02
-4.020805992784102045e+02
-5.743350263516330187e+02
-4.358300780551277853e+02
4.819318661029771533e+01
6.506052445435365144e+02
2.285975492713423023e+02
5.276621357046536787e+02
1.128747081342978845e+03
6.965696977187186576e+02
2.610449265011374678e+02
-1.766587791936829944e+03
-1.366452765371645000e+03
-6.362807089209959486e+02
6.311789478590480940e+02
7.221716124308440499e+01
-4.045184522160107576e+02
8.303728745620909990e+01
5.417474901841198971e+02
-1.584368169158811270e+03
-3.123020993141879899e+03
-3.803646315752368992e+03
-2.098049489006225485e+03
-3.531856291411775146e+03
-2.935476818144886238e+03
-3.896574301809849317e+02
9.683368087996451550e+02
8.934071153746750724e+02
1.050575070847490679e+03
1.242811999020520261e+03
1.513278232444585228e+03
1.233856924548515963e+03
1.013673785723446713e+03
1.006309350171678830e+03
1.192819606820006129e+03
1.213032159052390398e+03
8.834256704634495918e+02
7.041579155334222833e+02
1.557353072685679152e+01
-4.811679084984335759e+02
-7.812833338831078436e+02
-4.475672088045413943e+02
-5.697331798919608303e+01
2.313550858357342292e+02
6.024235166336803786e+02
5.841880951961564961e+02
4.285121094187098265e+02
4.795203724837422214e+02
9.314819870506494226e+02
1.304365712733853115e+03
1.148989072243663713e+03
1.149310746683457637e+03
1.163308682287274678e+03
1.051887286194737271e+03
8.238883536000566892e+02
6.667086729247901076e+02
3.427046256011837499e+02
1.676438613417408163e+01
-1.842293743941730781e+02
-3.957669137151525547e+02
-4.799999863981714725e+02
-2.867825916603928817e+02
-3.009108582226728572e+02
-8.432813693947876743e+01
1.049784574119086642e+02
1.379422183312029233e+02
6.304869771871050261e+02
9.678571263303878141e+02
1.184406972965821979e+03
1.711259006298388613e+03
1.767259989158460940e+03
1.444155102436631978e+03
1.631116561954366489e+03
1.677449126362972720e+03
1.119247338860311856e+03
3.403841093493669518e+02
6.166696538050384788e+02
-7.199983764101727957e+02
-5.111775583007138266e+03
-4.132475522897061637e+03
-2.302707442628558965e+03
1.075644171502236333e+02
1.933897346919115989e+01
9.840313810791531068e+01
-1.000564290478201428e+03
-2.748643646580554105e+03
-1.314583984963546754e+03
-1.271685987969926828e+03
-1.645342472361789760e+03
-3.530730193396015693e+03
-3.215112803981744491e+02
-1.542126517984790553e+03
1.149251932036165499e+03
1.463163684040361659e+03
3.274567377157708847e+02
7.590892075090107483e+02
1.463916640687250947e+03
1.354796092004301499e+03
7.955545589216543476e+02
4.680433628787743032e+02
6.325635289015840499e+02
7.536993478555313004e+02
8.922285802300253863e+02
1.015616345272003059e+03
6.455297444044518897e+02
7.935808633722934928e+02
1.434588345003888890e+03
1.705114594911420454e+03
1.724746645731392164e+03
1.292135369568123224e+03
2.304684855453080672e+03
2.408124175753029704e+03
2.041404979951681753e+03
1.748206337279782019e+03
1.629103753868648710e+03
1.740233347822038013e+03
1.668542175905415888e+03
1.682845591800040438e+03
1.397080795476615549e+03
1.157883883698355021e+03
9.935052977590127057e+02
4.586868294973867819e+02
9.253793976134400623e+01
3.503611887613955105e+02
7.174289256959641534e+02
1.013623569810113850e+03
1.223568834371600133e+03
1.175984142355724316e+03
1.399785752394000383e+03
1.594807042283640158e+03
2.038813883678369621e+03
2.096560447401255260e+03
2.187541524310608111e+03
2.106729298539404681e+03
1.610362587453179003e+03
1.128359615062887997e+03
9.943669884536562904e+02
7.396395424660317985e+02
3.717180428671663428e+00
-1.521859394806772571e+03
-5.147433914040852869e+02
3.837709069599567329e+02
3.766361740617323335e+02
3.393070041216857931e+02
4.191919765844877475e+02
7.796180503873777070e+02
1.051667324647653459e+03
8.423457995770710340e+02
1.072039214792842131e+03
1.084695988626952385e+03
8.912607852392433188e+02
9.033851719550712005e+02
8.390453099646218789e+02
7.345593653018728446e+02
7.479383552534752653e+02
8.912037614093298998e+02
7.915590851919995430e+02
4.058100013968131634e+02
1.476261812124632229e+02
-2.218874632884817402e+02
-3.193153911744340689e+02
-5.742521238477388579e+02
-4.178903800392689050e+02
-1.962174534609735588e+02
-5.826793488472510063e+01
-2.221258502046503907e+02
-2.650625235227721532e+02
-4.808809964951275617e+01
1.915752451341408857e+02
5.059893983785752880e+02
6.840021893340500583e+02
7.749227470542197125e+02
3.960111836189719838e+02
2.543012063598704628e+02
4.631994590767219933e+01
-2.566328351100507348e+02
-4.423812720075213747e+02
-6.267779229467338382e+02
-1.104551009064163736e+03
-1.463382560408912013e+03
-2.094352400827996917e+03
-1.838836999970219949e+03
-1.397582534328629436e+03
-1.405248393131807688e+03
-1.076347996451751669e+03
-6.045338428490944125e+02
-7.565805307099722086e+02
-1.146620516874818804e+03
-1.030330262519283451e+03
-4.909686340685290133e+02
-3.364295414259835866e+02
-1.954533069214700390e+03
-2.550504413607651713e+03
-2.060354970537958252e+03
-2.439596095579900521e+03
-1.743329965240160618e+03
-1.660744686846347122e+03
-1.920861793531508738e+03
-1.944254663271571644e+03
-2.205003191163011707e+03
-2.504449172630218982e+03
-2.899957844030737760e+03
-4.604842779683169283e+03
-6.517508679626464982e+03
-5.341785973926918814e+03
-3.411897955592912240e+03
-2.309987158382612961e+03
-3.084560649804664081e+03
-2.569360094297362139e+03
-1.790331666671467701e+03
-1.484958669743212113e+03
-1.453472752633684422e+03
-1.895614519038962953e+03
-1.834503128017714971e+03
-2.106399447952126138e+03
-2.446833146379025038e+03
-2.778102152994503285e+03
-2.795977167171036399e+03
-3.051343419642405024e+03
-3.642982605037745998e+03
-3.634789722710635942e+03
-3.497111399415817687e+03
-3.116809685706241453e+03
-2.856586723930176959e+03
-2.420918442433875953e+03
-2.222136042484010432e+03
-2.485605085898435391e+03
-2.468524912695902913e+03
-2.413090589314019326e+03
-1.871786085700540752e+03
-1.991731139643426559e+03
-2.440513319921587026e+03
-1.866747316295198061e+03
-8.820503526995513539e+02
-1.287233410157836317e+02
2.254865717693545264e+02
-3.115929425756459636e+02
-9.358130160318870594e+02
-8.522239815159615546e+02
-6.567457306072587926e+02
-6.683345205143623389e+02
-6.088754243202275802e+02
-4.585823131640294719e+02
-3.757587188269968692e+02
-3.764119535700901338e+02
-3.963239015969497245e+02
-6.701159686485776774e+02
-4.955070564772105399e+02
2.706898323129920669e+01
4.902458141604055299e+02
7.131884381488948748e+02
9.443638905310505152e+02
1.321641869702711347e+03
1.289495753643067019e+03
1.429869988504110324e+03
1.399197281015366571e+03
1.232077748306299782e+03
1.194094833615241214e+03
1.243712235716262967e+03
1.509773511767444234e+03
7.623366727926273825e+02
-8.612225179382126043e+02
-2.034329855349494210e+03
-2.711431705883686391e+03
-2.279513383923473157e+03
-2.318711877896431361e+03
-3.437229214511563441e+03
-1.772972368241335289e+03
-1.824084658224774103e+03
1.278203557208972825e+03
9.386273809283955416e+03
1.266603599309789024e+04
1.179737933739274195e+04
1.000106070627141526e+04
8.144728878513293239e+03
5.774367225811968638e+03
7.394781805478935894e+03
5.589743565633974868e+03
5.727128260751120251e+03
7.145870042913699763e+03
5.196768699447728068e+03
7.852304373827786549e+03
8.677073405494642429e+03
8.782746206815434562e+03
7.560199218067577931e+03
5.877485687276757744e+03
6.684367026753676328e+03
6.613595643334623674e+03
8.658906334935321865e+03
5.351008889608276149e+03
2.767797585219039320e+03
3.057009557871821926e+03
7.121330947211050443e+03
7.538436849264288867e+03
5.603048816847765011e+03
7.775050428304694833e+03
5.755328658591785825e+03
6.660703918041192082e+03
7.941910359155948754e+03
7.618645574940685037e+03
7.711718323031336695e+03
7.509974167015992862e+03
5.521277815691503747e+03
4.344490558140434587e+03
6.256560729481680028e+03
8.525164585183645613e+03
8.807225000704376725e+03
8.795543916186856222e+03
8.416919378295908245e+03
6.553226930081239516e+03
1.662283129866401850e+03
9.510611909937358632e+02
5.638470545883967134e+03
1.005430886979649586e+04
1.399646438778941410e+04
1.191206537043347271e+04
7.448949363014184200e+03
4.577854904573123349e+03
2.737584481172665619e+03
1.182040810084559098e+03
-3.798040069061755162e+02
-3.352985676502356000e+03
-8.772561550557065857e+03
-1.261759666626556827e+04
-1.219306632456141415e+04
-9.621869579620108198e+03
-8.864985959651692610e+03
-1.300451315790588524e+04
-1.517356048223641119e+04
-1.397609013182613307e+04
-1.048397683339279138e+04
-8.239233671245518053e+03
-9.887856279840156276e+03
-1.194063117209986558e+04
-1.570030510021455666e+04
-1.876671138688240535e+04
-1.774704695087704022e+04
-1.578915510603839175e+04
-1.331931239915921651e+04
-1.313142639250841057e+04
-1.761137607533049959e+04
-2.422187235146667081e+04
-2.978056855445998735e+04
-2.689855440480657489e+04
-1.389261612694058931e+04
1.015422397372904925e+03
1.087787276683595519e+04
1.678355297190336569e+04
2.237529654920758912e+04
2.392297994937512703e+04
2.352550743869190410e+04
2.143101851932926002e+04
1.744577335107026011e+04
1.106915311039025983e+04
7.353943842100685515e+02
-1.477929721070804408e+04
-2.937590056143623588e+04
-3.999817236872919602e+04
-4.257780267630589515e+04
-3.947663556626278296e+04
-4.038556311145099608e+04
-4.682733740159265290e+04
-4.317171908172920666e+04
-3.027938989027040225e+04
-1.944299887232515175e+04
-1.099536347839408882e+04
-7.534244583500447334e+03
-5.460557376648404897e+03
-5.265015833046372791e+03
-9.780231731042775209e+03
-2.090188553918270190e+04
-3.175772737532279280e+04
-3.204852255785983289e+04
-3.603700761827472161e+04
-2.649498888830468422e+04
-4.300150412832032089e+03
1.405279098348797925e+04
1.979610908259036660e+04
1.523414926321600979e+04
1.563415742212169062e+04
2.045323355074457140e+04
1.022456383335854480e+04
-7.788394976817364295e+03
-4.695427766680408240e+03
1.275160181517380624e+04
1.810395264073443832e+04
2.149190058157125168e+04
3.463768732968823315e+04
4.343757891386968549e+04
4.426576188493610243e+04
3.551649463777204801e+04
2.231905361526191336e+04
1.566964836731697324e+04
1.183647670590430425e+04
1.553673326272003032e+04
1.537364336101120534e+04
5.006509771976829143e+03
-1.060362862192508874e+04
-1.136761813022505885e+04
-9.241315022261147533e+03
-2.873200358583183061e+02
1.642739648628433861e+04
2.438096383461022924e+04
2.003851989302413494e+04
4.952174130475804304e+03
-1.604496062576868280e+04
-2.977167611201071486e+04
-3.780385840552047739e+04
-3.437650247444899287e+04
-1.112639312792182682e+04
4.746455180186697362e+03
1.091145927300684889e+04
3.592451175134209188e+04
5.140863844656857691e+04
5.253982063012564322e+04
5.508193787684912240e+04
4.997045451254057116e+04
3.428628425477458222e+04
2.524105103431431780e+04
1.336108324742574769e+04
-2.968359510359391606e+03
-1.108578109172397853e+04
-1.177284745283098528e+04
-1.368880643371012411e+04
-5.860570288829818310e+03
4.035671663803267620e+03
1.401392715211381437e+04
1.491938932902381202e+04
4.019861924440840994e+03
-1.075581431108834477e+04
-2.315157659128383239e+04
-2.129974436833141226e+04
-2.773050922581375744e+03
2.208834948748194438e+04
2.761096324776324400e+04
2.409407191222999609e+04
1.737932524720189394e+04
1.586356827212280950e+04
1.709850906777480850e+04
2.269622804567126150e+04
2.063544858980101344e+04
7.388187173723130400e+03
-8.308118041443842230e+03
-1.801734605490988179e+04
-2.750277753140808272e+04
-4.566062892971083784e+04
-5.614479538871715340e+04
-3.909964582031589089e+04
-6.620396885744406063e+03
3.479648473106120946e+03
-7.608588572517302964e+03
-2.523623765166413796e+04
-9.758704188712868927e+03
2.361302107817240176e+04
2.903055883844370692e+04
1.852465315235993694e+04
1.259701026234371238e+04
1.277637530728116872e+04
6.621551479444359757e+03
5.072519702015103576e+03
5.150109842160200969e+03
9.347451852189318515e+02
-9.780881898388461195e+03
-1.770701657245226670e+04
-1.029183900314657512e+04
-2.091474177710316326e+03
-5.152335234090859331e+02
-3.859419254338518840e+03
-6.229229314935278126e+03
-1.229879594624182209e+04
-1.035339760751066387e+04
-2.362276589811754548e+03
2.436323101644644794e+03
-4.299841382691302897e+03
-1.293298444080023910e+04
-7.016267890439828989e+03
1.133097663279042763e+03
5.726813740638104719e+03
-1.855353219507401263e+03
-7.900632344760845626e+03
-9.893247278288945381e+03
-3.029405433659934261e+03
1.897313278186604180e+02
-1.403396284861829372e+04
-2.219269857892250729e+04
-1.172663922214390004e+04
1.020010576071416949e+03
8.029139259220255553e+03
7.886620768349923310e+03
-2.304775237145040592e+03
-4.856246698384817137e+03
-4.324944371819568914e+03
-6.918017679931201201e+03
-7.707509069067822566e+03
-9.205531441717937923e+03
-9.974235444575846486e+03
-9.902729630299256314e+03
-7.130089082134835735e+03
-6.471400018625416124e+03
-9.292795549441847470e+03
-1.252835131162018479e+04
-1.546510179035257715e+04
-1.125014081668794643e+04
-1.153143897717147956e+04
-1.945410321281669894e+04
-2.126017418239628023e+04
-1.911264165832486833e+04
-2.273053750450802181e+04
-2.808588959593694381e+04
-2.700068971784475798e+04
-2.485891819547648265e+04
-1.495057588880692310e+04
-2.041561920333516537e+04
-3.181101727162197858e+04
-2.258069534808609751e+04
3.280294454158966801e+03
1.084389782856169768e+04
1.436917929850556720e+04
1.548074922437571331e+04
1.175786816531560362e+04
1.057518452203643756e+04
1.018534682197416987e+04
8.272780409101414989e+03
9.832890373938933408e+03
1.042060393326595840e+04
1.328911590824517043e+04
1.145219403358926866e+04
1.171651273570855847e+04
1.153650218518901056e+04
1.079459620765294858e+04
8.931044606567780647e+03
9.587021692781476304e+03
7.591764277635791586e+03
4.999137339801925918e+03
3.736751687840202521e+03
7.355158424032404582e+03
8.904449566922792656e+03
8.842290684853291168e+03
8.923480206915121016e+03
6.780250699047962371e+03
4.084868265603730379e+03
5.008584345302307156e+03
6.142699497728864117e+03
7.486206242758587905e+03
8.044326150333861733e+03
7.825054231222102317e+03
9.530028564178499437e+03
1.144546084155292374e+04
1.245445367707486184e+04
1.180099887169127396e+04
1.017314999184528824e+04
8.811085142021118372e+03
8.555791894181236785e+03
8.776827489424895248e+03
8.922275193415103786e+03
7.809198377110229558e+03
6.440784950493793986e+03
5.418138705314270737e+03
4.461432490620145472e+03
3.672028585632052909e+03
4.721110453660676285e+03
4.378586954235113808e+03
5.288593439424593271e+03
5.348415736911170825e+03
4.886248026976390065e+03
4.660316544246849844e+03
3.593887328241115029e+03
3.624470137671191424e+03
4.250925425137204911e+03
3.610947349559337454e+03
2.718687007422332499e+03
5.113231574373071453e+03
7.257129940956881910e+03
7.688730477014250027e+03
6.958088923850545143e+03
5.524395219219927640e+03
4.579759382541304149e+03
3.760318174711675510e+03
2.475305559701454513e+03
1.090126436839486587e+03
1.029050038189889165e+02
6.263921424266303575e+02
2.328482450868669275e+03
2.772389516357369303e+03
1.252605454363411809e+03
2.580926424703049520e+02
4.136411384112896030e+02
-7.608010100357080319e+02
-3.230052149719268073e+03
-2.829663423428989972e+03
-1.380620272159936576e+03
-2.325679669829684372e+03
-1.823801819744109707e+03
1.424741018053845892e+03
1.621913450119048321e+03
-6.723546237822478133e+02
-3.219919234638981379e+03
-5.451396346480345528e+03
-6.213438788689030844e+03
-6.840963780327326276e+03
-7.919639206652885150e+03
-9.422378805073127296e+03
-1.114361650906351497e+04
-1.241919407308016343e+04
-9.055979153487904114e+03
-4.370037809526622368e+03
-4.641100593972581009e+03
-7.507053338303833698e+03
-8.581691912013806359e+03
-6.834797320639489953e+03
-4.964082108765743214e+03
-3.231190720739366043e+03
-3.724482736825317261e+03
-3.493729718513125590e+03
-1.950956712686074752e+03
-9.756713837419736137e+02
-1.551412357963706654e+03
-2.771027864025985764e+03
-3.853068012899990208e+03
-3.525253538504740845e+03
-1.902562349105126259e+03
-1.080151922408645987e+03
-8.360157444839754817e+02
-1.328959560469925918e+03
-2.474060448402166912e+03
-2.696246369373454854e+03
-2.188085503747151961e+03
-1.617024377759558774e+03
-1.070829893048851090e+03
-6.063079219412741168e+02
-9.891666092368284353e+02
-1.146629409948812281e+03
-1.132174653062680363e+03
-9.689448607605372672e+02
-8.723392624845617149e+01
8.796944561397218649e+02
4.724357751805471253e+02
-9.084502925574886376e+02
2.752303565844937907e+02
1.224389109533829469e+03
4.924654214836170354e+02
3.396251237891483754e+01
-7.738411338372597470e+01
1.634465366308564853e+02
5.273421059767656516e+02
3.684014779295372932e+02
4.032570943281450582e+02
6.629424919901485964e+02
7.400908566057752296e+02
9.273587630650514484e+02
7.906653562734841216e+02
2.654091319239664131e+02
-7.429271624716638200e+01
1.124493561934884269e+02
1.073819208151579687e+02
-1.279220889282506732e+03
2.803544238625426033e+02
4.999444984200036401e+02
8.065613813556697096e+02
1.070420897622093662e+03
4.324793433235633415e+02
-1.640802371006917610e+02
9.958420625285798167e+01
1.542278489470228067e+02
-1.083395459931595269e+03
-1.083237703733501803e+03
-2.730212484253800540e+03
1.838266842249996103e+02
1.476414622856870210e+03
2.318818661439589505e+03
1.921267266121353032e+03
-1.018323204457805105e+03
1.239956515992564164e+03
2.732743840010444728e+03
-1.404899624281591741e+03
-1.642296164274885314e+03
1.994050704903634141e+03
-6.581344762719913888e+02
7.147137953587101720e+02
-6.939516580139110147e+02
-4.150749341009232580e+02
-2.148555073145679216e+03
-3.397747046094043071e+03
-1.400832254573073442e+03
-7.811786542591133866e+02
-1.804809662870337661e+03
-7.802067682722145037e+02
-2.949263214750591487e+03
-5.439648758850727290e+02
1.968088705117170548e+03
-3.969661760848734389e+02
2.091167783987330949e+03
2.121109438154649524e+03
1.477172157843815285e+03
-5.469825140176385503e+02
5.912743308268702549e+02
-1.105424842781577439e+02
2.115260237690507893e+03
-4.622569664927189592e+02
-6.862781403164234462e+01
-1.358067251518483772e+03
-2.919455354713650650e+03
4.401992821443680981e+01
1.048067242621777496e+03
-1.035608262979154972e+02
-2.176649671076394043e+03
-1.676978145064241971e+03
-7.318150259728643050e+02
-9.594025683052891509e+02
1.596635061599024084e+03
2.247427780498245284e+03
2.947628615986516252e+03
2.649599256198915100e+03
1.843162746803875052e+03
1.169871115412157451e+03
1.717278177212558603e+03
2.691001485074927132e+03
2.463920122808345695e+03
2.558341103092527646e+03
2.154792438486061201e+03
4.309845181457839658e+02
1.347800973492884623e+03
1.993246118565415600e+03
1.525506043199459782e+03
1.245170974556736155e+03
1.814958541394402801e+03
2.437198451381550512e+03
2.699088749668243963e+03
2.677256007986405621e+03
2.346856431127376254e+03
2.394600962146058009e+03
3.046754500629886024e+03
3.516101405983466520e+03
3.515182419480573117e+03
3.374964349794758618e+03
3.243688841746547041e+03
2.735551358437999170e+03
2.247943817569025668e+03
1.895933127752457040e+03
1.808435746918312361e+03
1.562285519578533922e+03
1.494118918331709892e+03
1.551092281433850076e+03
1.712122202118537643e+03
1.938476073322851562e+03
2.279325605191194882e+03
2.668422679402314316e+03
3.003058728045976295e+03
2.892236612509318547e+03
2.917296750283719120e+03
2.751009595769468888e+03
2.683370219849355180e+03
2.698339606809515317e+03
2.824597933345397450e+03
3.120975341549160930e+03
2.881770367424126562e+03
2.501866153636916806e+03
2.390221378182131502e+03
1.690906493443045065e+03
1.620235504003547248e+03
1.073452150474471409e+03
7.751362684504892968e+02
1.007822753077340735e+03
9.369307515625421274e+02
6.640514495109435984e+02
7.275345602932669635e+02
6.018767596094850205e+02
4.447623319960072195e+02
3.944211631911225595e+02
1.788409485573579047e+02
5.946912820085777867e+02
-1.717408362061138405e+02
-2.436230727242550984e+03
-6.554768891613668529e+03
-5.251141141783524290e+03
-6.721980672318239840e+02
-7.556148867968123568e+02
-6.062631837412549430e+03
-8.523254665639504310e+03
-8.617417608094125171e+03
-8.083459127360843013e+03
-7.873319685402987488e+03
-8.674260048123689558e+03
-8.911935725705341611e+03
-8.654350443500870824e+03
-8.385600758468388449e+03
-7.960666362933006894e+03
-7.654468643430790507e+03
-7.235330827646165744e+03
-6.503804977468301331e+03
-2.822869055988183845e+03
-5.071344022238148682e+03
-7.374709567740664170e+03
-6.995049901076416973e+03
-6.632267790981242797e+03
-6.903322893624320386e+03
-6.659987704395326546e+03
-7.012139112125526481e+03
-6.710100047522463683e+03
-6.427962501249403431e+03
-6.435751319220944424e+03
-6.565352752331918055e+03
-6.447696339954578434e+03
-6.021965531776768330e+03
-3.772164190261180920e+03
1.279757326941559768e+03
2.374958548239613265e+03
7.346046660548397540e+02
4.127120428243928245e+02
6.722385225243325522e+02
2.692218405514333426e+03
4.300647798886308919e+03
4.766632215428368909e+03
4.663309982559164382e+03
4.057700172741749611e+03
3.588886174029139966e+03
3.528861513399344858e+03
3.183515681000791574e+03
3.215993668450849327e+03
3.039190560275031203e+03
2.863252198464045250e+03
3.015278423174284399e+03
2.659273340128515429e+03
2.847348768015087899e+03
2.679475999276290622e+03
2.498632384380440271e+03
3.338974170712585874e+03
4.236664657783107032e+03
4.694447366089250863e+03
4.597302269259735112e+03
3.981350000253064991e+03
4.510768997873092303e+03
4.769672092966065065e+03
4.856099065673389305e+03
4.401120702970453749e+03
4.080821322062403397e+03
4.381275772052855245e+03
4.052499276221117270e+03
3.630443865510734213e+03
3.350041551111741228e+03
2.872369736635740082e+03
1.843621661535580643e+03
4.189052073754469774e+01
-7.499651133417876281e+02
-6.448984009276335883e+02
8.145722033265152504e+02
1.056673559928066652e+03
1.364981537124383067e+03
1.458503606836732160e+03
1.376213099507423067e+03
1.778031009497203740e+03
2.081201364382020074e+03
1.990017555993052156e+03
1.198240578287074186e+03
9.272388880630535368e+02
1.033179949889258978e+03
5.668314016048307167e+02
5.122285061136647073e+02
4.234013309577701989e+02
5.173233542449685274e+02
3.124191476954376867e+02
3.110609856862552647e+02
5.858371573622366668e+02
4.524616858841746421e+02
8.942142554563417889e+02
1.596968087364686198e+03
2.504460294650682499e+03
2.017639349018285202e+03
1.258515754655121100e+03
5.772423998526626292e+02
6.687746031393855901e+02
1.267049903102282997e+03
1.513068772648300865e+03
6.519438911518117266e+02
-3.992305937864281873e+02
-2.764314147868206533e+02
-4.727915447311552839e+02
-9.074608400093338787e+02
-3.503706787426776827e+02
1.225403595852525456e+02
-3.736957919843536047e+02
-9.919739250437503415e+02
-6.933463771791822410e+02
-1.250905656903282306e+03
-6.246158936041757670e+02
-2.384945270751533144e+02
7.564282682700762734e+02
1.466230574763659433e+03
9.379194114819672450e+02
7.614495778817826022e+02
8.597799018333518006e+02
8.648824250768415141e+02
6.237407501272838317e+02
3.184141296802932857e+02
7.293958041814300941e+01
6.681089778386560738e+02
1.149906072527760443e+03
2.848033313264149768e+01
-3.631946338845534115e+02
-9.441974457446494853e+02
-3.947543705745977149e+03
-7.723233347427138142e+03
-1.077725253477690785e+04
-1.152163555249652745e+04
-1.137544528995816654e+04
-1.147168137753143128e+04
-1.081739122359996873e+04
-9.869583345934919635e+03
-1.048296158543880847e+04
-1.114265443758209767e+04
-1.055276744667774074e+04
-5.436373792577880522e+03
1.080740186960112169e+03
2.460298921373787380e+03
2.963348615696123034e+03
8.398239504033590492e+02
-1.114277408232852622e+03
-1.206853780937653482e+03
-7.889549103964126289e+02
-2.637390210787359592e+02
6.618263389823588341e+02
9.708901610576166377e+02
5.863359718530193732e+02
2.152544273808673267e+02
1.803174256615317006e+02
1.167608247094655326e+03
1.089041541388675796e+03
4.676890842813890004e+02
3.437905533320446807e+02
2.289489375290052351e+02
2.972228844479817553e+02
-5.808867953012393173e+02
-8.226868658758842230e+02
2.694267145516498658e+02
1.213895640367805072e+03
1.857437144264044491e+03
2.040366271064362536e+03
1.415560593988791425e+03
6.981150653717731984e+02
3.849289665157440936e+02
6.597206934046241713e+02
4.736517352297881871e+02
-2.751631338253786225e+02
-7.629085341731462222e+02
-7.993155476475780006e+02
-1.843749997318723672e+03
-1.846308845566126820e+03
-1.965640812976506879e+02
1.045138933006127672e+03
2.126934936649903648e+03
3.377906750481312883e+03
2.785234853463093259e+03
1.025770520173301520e+03
8.186640145757861546e+02
1.169582457865580409e+03
1.544925764921959853e+03
2.255452689496057701e+03
2.787200964713871599e+03
1.923241670991386172e+03
1.720226802700303097e+03
1.721390236293585758e+03
1.344919671079293948e+03
1.979474954644153684e+02
2.572240102832274715e+02
2.038745116516774942e+02
-2.769894486189059535e+02
1.032626429528849421e+01
-1.056045095559869196e+03
-1.092108842038479224e+03
-6.247121761867568921e+02
-6.400195349566429570e+01
1.130324219454642389e+03
1.676289748430116560e+03
2.807795890176587363e+03
3.849867430212372710e+03
3.924582371519509707e+03
8.509012854608719181e+02
-1.307966129833449486e+03
-1.613358478191404899e+01
-9.946159182277324362e+02
1.258626922791919696e+03
1.033581217477101745e+03
8.901794007433032903e+02
-1.715523868777824873e+03
-1.319436647672859181e+03
5.944921046935204458e+02
8.493673600738513869e+02
1.449197167903179889e+03
1.504013711024664872e+03
4.029255852662670350e+02
-2.824023668661902775e+03
-2.296886706486352068e+03
1.862307111910272624e+03
2.685598140232417336e+03
1.872031338703068059e+03
-2.138378582616947824e+03
-1.037618167133089401e+03
-3.836473392441379815e+02
-3.952444329274369466e+03
-2.662954636841750926e+03
3.128532161492158821e+02
4.390066410706093620e+02
-5.055012835954109391e+02
-4.425644808442353678e+03
-5.295378151646151309e+03
-4.343639140775439955e+03
-3.964398477482240651e+03
-3.715640447754793968e+03
-2.467332557418074430e+03
-3.698376969498295693e+03
-3.266767158327233119e+03
8.044955750256151532e+02
1.056494419261226540e+03
4.042759331914713812e+02
1.050821224612753667e+03
1.224214004115291573e+03
1.517495045019856661e+03
1.473693801045075816e+03
1.161797163126947908e+03
-2.171249599518553623e+03
-3.586443531427170456e+03
-2.576656271778343125e+03
-8.757743409672551707e+02
-5.558477981802046770e+02
2.680785602704292501e+02
-8.498686985023772422e+01
9.620435391507021450e+02
1.411224408063583041e+03
1.142630753985603860e+03
5.124135095861290665e+02
5.308151292391601146e+02
1.258470440775958423e+03
1.581064150021928526e+03
1.139910763455335427e+03
1.651458960749616608e+03
1.661495395865524415e+03
1.054779116660701447e+03
7.572354403480456995e+02
1.702398822384580868e+01
-8.035762170965682571e+02
5.254202681984910441e+02
5.759229803299480182e+02
3.709625660950407564e+02
-2.334277146450209841e+02
-2.936303969136822616e+03
-2.972695017190407725e+03
