-1.665858232161111800e+02
1.152134699997400958e+03
2.221728594598479049e+03
1.744133632186840714e+03
1.562139887057284113e+03
1.073735264591833811e+03
7.230351493206858322e+02
5.018448454799230944e+02
6.939292831135309143e+02
3.744586589653822557e+02
3.086248944658033224e+02
4.623360393794470724e+02
6.193992749863534755e+02
9.095975234189760386e+02
1.378992042575696132e+03
1.576668293443115090e+03
2.473603722546555218e+03
2.460725780618211502e+03
2.035037652832880212e+03
2.200517560455824423e+03
1.741106528916769776e+03
7.827419140124525256e+02
1.443653680588486665e+01
3.261230281199063938e+02
4.031521824047557061e+02
5.884917179976666830e+02
3.181062241459390521e+02
-4.230761317446875580e+01
3.422226499192492497e+02
2.316863725027876626e+02
3.414202524994630039e+02
7.496887153345364823e+02
1.648904514394145508e+03
1.851944560935777872e+03
2.019104333797931531e+03
2.565673028013338353e+03
2.490098101727459834e+03
2.332720139008546994e+03
2.475211811891085290e+03
2.481860024979946957e+03
2.290661944887462596e+03
2.547716625515822670e+03
2.521771851609466012e+03
2.090791893256287949e+03
2.203123635447392644e+03
2.064230991854444710e+03
2.069018942828236959e+03
1.606708446343950754e+03
1.198506298096430783e+03
9.258168518997684941e+02
1.413414015438655269e+03
1.994217835392459847e+03
2.615149262608833396e+03
2.700393040597762592e+03
3.030892942735548786e+03
3.549666720837534740e+03
3.679776359003994457e+03
3.744324009925157497e+03
3.731394375849716653e+03
3.430939959541231019e+03
2.829771581701175819e+03
2.195027777271934156e+03
2.245852332654454585e+03
2.152249832650572898e+03
2.167175752391868173e+03
1.949579043952490110e+03
1.578470306723339945e+03
1.295798489238549109e+03
9.286845907172582884e+02
9.402508067526327977e+02
1.652453019634251859e+03
3.097320885151857510e+03
4.132829265608555033e+03
4.490923543526022513e+03
4.691747982125868475e+03
3.512367418961951444e+03
1.450752217305690237e+03
-2.604142309353939709e+03
-4.049215953148486733e+03
-3.387389631656259098e+03
-2.994826837382091526e+03
-3.217414420392342436e+03
-3.590997708864070319e+03
-4.118744741043588874e+03
-4.138732509677853159e+03
-3.846945184538213198e+03
-3.444381792598613629e+03
-3.825010893381626374e+03
-4.781720143920460032e+03
-4.853633730881070733e+03
-4.639712939443050345e+03
-2.362948297837293012e+03
1.761655042425957618e+03
3.244183200160151046e+03
6.607107619969033294e+02
-3.426827598192352525e+03
-4.318496503650092563e+03
-3.699308921856730194e+03
-3.593244128876079685e+03
-3.855183292915406128e+03
-3.703157292580333433e+03
-3.724205825614646074e+03
-4.432394222631914090e+03
-1.158758019471793659e+03
1.790816302744188988e+03
2.256319425738915470e+03
2.592674449603538051e+03
2.423930504218822534e+03
2.126171238103387168e+03
2.063317639019270246e+03
2.103282614855533666e+03
2.310184666993249721e+03
2.640071700858428812e+03
2.945926448401203743e+03
3.308738907765449312e+03
3.431564370413689630e+03
2.745439588176973757e+03
2.761376321984296737e+03
3.010341524060967458e+03
2.640357259127791167e+03
2.125453223387412891e+03
1.804654781621855591e+03
1.406007356507511076e+03
1.067465234095540154e+03
9.438529136581495322e+02
5.872734272929127428e+02
-1.262351278787197799e+02
-3.806761206518031599e+02
-3.919741190899263188e+02
-4.601641293705656039e+02
-3.872188511034148632e+02
-5.531811033653714276e+02
-7.139976349977096106e+02
-3.765019376062152219e+02
4.063323432377869153e+02
6.314512504938195434e+02
7.978249509071515604e+02
8.044739326955724437e+02
1.703394789029856611e+03
1.915679879594152908e+03
1.260326832753624331e+03
8.373541630362817614e+02
6.197585087485115309e+02
7.085540502210832301e+02
4.687461663280946311e+01
-6.072245368656216442e+02
-1.507755008071981138e+03
-1.913623810075182746e+03
-2.093765104799333585e+03
-1.986106649381116767e+03
-1.626691408515849162e+03
-1.853647738578315284e+03
-2.095753908155299996e+03
-1.952970892884677596e+03
-1.400588868527091790e+03
-3.054772568177693870e+02
9.733931064488768925e+01
3.417812651150498482e+02
6.086802402049362115e+01
-2.844415616879633717e+02
-6.851245938983755650e+02
-4.440777403708928546e+02
-1.661891907575395919e+02
-5.265236173879543458e+02
-9.982122556200780537e+02
-8.932435106747735745e+02
-1.026605892217067719e+02
-4.841504423385458722e+01
-2.584814002609867316e+02
-6.188995945753825936e+02
-1.227686293713263922e+03
-1.055843938762459629e+03
-9.543292444858615227e+02
-3.010969406192124893e+02
3.379608606252040772e+02
1.838944763595253278e+02
-2.133711804152733293e+02
3.718973588053594881e+01
6.376094950149376928e+02
1.104865323058776994e+03
1.575955001321069858e+03
1.759861591650953415e+03
1.372597497738546735e+03
7.761109739397255680e+02
3.424034863621481009e+02
-5.649462418176554479e+01
-1.926528901644914242e+02
-1.267023420691808496e+03
-1.805589693475121976e+03
-1.672441337310798872e+03
-9.465856180635620376e+02
-2.210094019593304324e+02
2.743060441594672056e+02
8.423861247233630820e+02
1.080180693696251410e+03
4.967008751216192195e+02
-3.610407028203518394e+02
-4.570581112281096807e+02
6.436291700212307205e+02
2.016000825956947210e+03
2.262129133275010190e+03
1.352992551778493180e+03
1.167495099032182452e+03
1.244710274340568049e+03
-2.824718149140144874e+02
-2.206084317443171585e+03
-1.989158991128322896e+03
-1.424616899843776309e+03
-1.197431840035012101e+03
-6.897462516440813260e+02
-8.895890081602010468e+02
-1.310916903775044375e+03
-7.647778997378158010e+02
5.773008827902887674e+01
4.176492675026922257e+02
-7.811132713919799642e+01
-1.252715365739895788e+03
1.218088821425131414e+02
9.693366062787830515e+02
1.519954481122397283e+03
2.095931399757478175e+03
1.726396040286311973e+03
1.858853983145724840e+02
-1.125535579634917667e+03
-4.840467177918337143e+02
3.125881279032559519e+02
2.284708528625091901e+02
3.436184435135766080e+01
-1.827421836587452617e+02
-8.350270834426560214e+02
-1.049080573298531590e+03
-6.713000824934301818e+02
-9.358430890066929919e+01
-1.770413020635774899e+02
-3.069021360661275253e+02
7.579087726751095033e+02
1.311532692846934879e+03
8.861866007715796059e+02
6.439235156562323255e+02
9.345732775831272647e+02
2.730598499269943318e+02
1.071697624567754019e+03
2.380942610229933052e+03
2.323208186672827651e+03
1.012101010514160180e+03
-1.943656535125050482e+02
-1.895015384966412455e+02
2.797582841991314808e+02
7.524580253113463186e+02
7.318900299427815526e+02
-6.983154011457402248e+02
-1.491597810749504106e+03
-1.408932752235685257e+03
-5.665225569544249993e+02
-3.287041768484499471e+01
8.110972370020402877e+02
1.625499917806731446e+03
2.286938202841684870e+03
2.819178490441005579e+03
3.444453783535254843e+03
2.719308649488733863e+03
1.660710051542230076e+03
1.168242518719905547e+03
7.633567073442688979e+02
-1.951989057820910034e+02
-8.162878092118552331e+02
-8.207475771056105032e+02
-1.539514813884045736e+02
3.583119478710356134e+02
1.034429228072452247e+02
2.943728317610376166e+02
7.642974200154166056e+02
9.451711976928770582e+02
1.127012389090564284e+03
1.439631286720637036e+03
1.212309014806369305e+03
1.035351198770172914e+03
1.040710791808609656e+03
7.811290442515237373e+02
-2.040457228891333898e+03
-3.570078279175045282e+03
-3.237592510846916866e+03
-5.029401640657693520e+02
-1.981265479522088754e+03
-5.072352540008170763e+03
-4.733541485962686238e+03
-2.440396981427635183e+03
-6.645773108434182177e+02
-2.884634010460623813e+03
-3.056165369316488523e+03
-2.140417975969122381e+03
-3.200202251247112599e+02
-1.805155262929568380e+03
-2.056380396433003739e+02
-2.298741231068492198e+03
-2.643920762257764636e+03
5.387690467069983242e+02
3.118706818805248531e+03
2.484548060502226235e+03
7.516528449020170228e+02
7.812530587922375389e+02
-2.692050118984849178e+03
1.268566313507182485e+03
-2.622552795308279769e+02
-3.363445812264059896e+03
-4.141125537225345283e+02
-1.794175535553332566e+03
-2.484166155232678193e+03
-1.666708632652808774e+03
-3.431180980246189165e+02
-3.699005159049665536e+01
1.310703080984586961e+02
1.923987876447066583e+02
9.508483023854292924e+02
2.064068145930900755e+03
2.588733606626126402e+03
1.953918232252294047e+03
2.443166634004106072e+03
2.570010654719585546e+03
2.870548005889470005e+03
2.893377535294376230e+03
2.478073113584764997e+03
1.645476353470446611e+03
6.747604076728255507e+01
-8.607076704887296046e+02
6.437557031615716596e+01
7.609360337475925462e+02
1.132211387270308251e+03
7.472213015078704075e+02
-4.875811651352595959e+02
-8.156103643572615738e+02
-5.776015308009669269e+01
9.052295163376860501e+02
1.163056478733783479e+03
1.382378793252413061e+03
1.636527029024937065e+03
1.586516258792927601e+03
2.458398049153770444e+03
4.387681718050276686e+03
4.338770079417043235e+03
3.983404863419741559e+03
3.288803649750700970e+03
1.929512088796195940e+03
9.579998953736087515e+02
1.172797284269052852e+03
2.075750221756276801e+02
-1.267412859363122095e+02
-4.574228289448223563e+02
-6.330940503591222068e+02
5.804877902351621799e+01
1.179638042683441199e+03
1.662657108549541135e+03
1.830674578120075012e+03
1.607597591977924822e+03
1.388886150401833902e+03
1.546014580923819267e+03
2.140538124319421513e+03
2.577116936927118331e+03
2.254901770248242428e+03
1.150705963700993152e+03
1.263396018305437792e+03
1.845193134317031536e+03
1.566555773005751462e+03
7.638442637042365959e+02
-1.880291405006826153e+02
-7.240439225311034761e+02
-9.942508897468823079e+02
-1.555507623333929814e+03
-1.754889778476402398e+03
-1.937240864905209719e+03
-1.638352171610095183e+03
-1.091783113671530600e+03
-8.593547321698994210e+02
-6.281902439945256447e+02
-5.038206643009265235e+02
-2.132175059590734634e+02
3.175259128931211876e+02
6.754039013510688392e+02
6.540588118549020464e+02
7.352803570576550101e+02
2.096227964959498138e+02
-3.877344797429529990e+02
-1.186268296042758720e+03
-1.776687792442915679e+03
-1.991424798345021827e+03
-3.367835686071024156e+03
-4.134631551158672664e+03
-4.082008417240216659e+03
-4.141162658936690605e+03
-3.679212748697598727e+03
-2.612629473828068967e+03
-2.223358614648689127e+03
-2.325460478183833857e+03
-2.055251656674226979e+03
-2.029745565517067007e+03
-1.577992302520595558e+03
-1.310560907297665381e+03
-1.457654675318135332e+03
-1.313841326484813408e+03
-1.013939194744551287e+03
-1.856362917840317778e+03
-4.198375926698572584e+03
-7.909818002663779225e+03
-9.616598390469833248e+03
-1.006141458426434838e+04
-1.005536842109585086e+04
-1.008198225649877531e+04
-1.055901227336550619e+04
-1.117612303089293891e+04
-1.062038842185824979e+04
-9.310855099485073879e+03
-4.907179024995019972e+03
-2.921311113953106997e+03
-2.553553166750046785e+03
-1.987138483498649066e+03
-2.214107253525127817e+03
-2.785226038228177913e+03
-2.430234940074958104e+03
-5.938888706010179703e+02
7.206376139389711852e+02
7.736050043375239511e+02
6.715464208337469927e+02
-1.971899106146744032e+02
-7.612483543969266293e+02
-1.147849080434122925e+03
-1.588921018366486805e+03
-2.275688718538737703e+03
-2.977403778335787138e+03
-3.488802348377849285e+03
-3.844754623990502296e+03
-3.705242644381073660e+03
-2.808770680539827481e+03
-1.955102957657155685e+03
-1.326236477906687014e+03
-5.688113857012863264e+02
-4.626875045156604926e+01
2.469716917318264393e+02
5.999462355956825377e+02
9.823255008872476992e+02
7.636540570792096787e+02
6.303621162425126840e+02
9.555897571322780095e+02
5.631576892858502106e+02
3.820337266821150592e+02
1.566793274977451347e+02
-6.859268812563625488e+02
-1.158997790384320069e+03
-1.258012800196544504e+03
-1.748847487575499144e+03
-1.430500655606782857e+03
-9.857362800711845239e+02
-9.767006454364528736e+02
-2.621402162533491378e+02
3.349295647774217741e+02
7.150577960196695813e+02
1.093800364655510521e+03
1.874162748238381482e+03
2.743162522374058426e+03
2.410485082922876700e+03
2.945590149404360091e+03
3.113973040678014513e+03
2.404964766911028619e+03
1.647341743848444366e+03
2.025447735050436677e+03
2.551527571945381169e+03
2.863718316590116046e+03
2.935284362982868515e+03
3.799201470701737435e+03
4.042635062947328151e+03
4.070233417599849872e+03
4.386570661365422893e+03
4.481363246809441989e+03
4.362224346231686468e+03
4.913898602649098393e+03
5.121269681832629431e+03
5.023383708668874533e+03
5.266066903370640830e+03
5.076730327996532651e+03
4.325781715749517389e+03
2.924038159668930348e+03
1.406556950152747959e+03
8.043104114697157456e+02
1.195893944172722058e+03
1.220944434123601923e+03
3.178679431924550158e+02
2.963406564945070727e+02
1.855298383967763129e+03
3.191538706670759439e+03
2.661487185690190472e+03
6.366244656683845449e+01
-3.188140840407796986e+03
-6.345296220001845541e+03
-8.761218665460079137e+03
-9.145265842764838453e+03
-9.598691492594212832e+03
-1.058778097790096581e+04
-1.058606631567173463e+04
-7.424806125248735952e+03
-1.312150668191261502e+03
3.021695303914750184e+03
4.803458956186977957e+03
5.403677882804961882e+03
6.165594526947429586e+03
5.750853450406836600e+03
5.993220510529560670e+03
8.574302768243447645e+03
1.149087417882434602e+04
1.071273272510995230e+04
6.205655747052937841e+03
1.394171146820216791e+03
3.307130776582641829e+02
3.127263838040506471e+03
4.542566359419491164e+03
2.775390936997718200e+03
-4.556406802624646275e+02
-7.124294278330530688e+02
5.756802795209923715e+03
1.442433551179298593e+04
1.966191099640133689e+04
1.896470214730507359e+04
1.496441160181263513e+04
1.278535693985282342e+04
1.226117687167182157e+04
6.779914277970185140e+03
3.490686674410353135e+03
5.616231466296193503e+03
8.034020221826313900e+03
1.487166697800025213e+04
2.341220958519611668e+04
2.152460790175915099e+04
1.586162040127620821e+04
1.257211653374760135e+04
1.389490182249519239e+04
1.459666056396012391e+04
1.131914899754120779e+04
6.468030399510685129e+03
1.228790420556557592e+03
-3.407830893606570044e+03
-8.142855026268652182e+03
-1.678423929689248689e+04
-2.491414975714049797e+04
-2.479041808148179189e+04
-1.861837809509390718e+04
-1.994822915079239101e+04
-2.932848912762417604e+04
-3.480476741131111339e+04
-3.141374548239621436e+04
-2.143473477455943066e+04
-1.047290070988920161e+04
-8.706788702195639416e+03
-1.036481111964818774e+04
-3.908701102476895358e+03
3.830606109787865535e+03
4.766957881637269566e+03
1.720545750476287367e+03
3.082299274905503353e+03
8.055772078258720285e+03
9.533887377120932797e+03
8.874962402697725338e+03
3.168765975732561401e+03
-3.600902839931671679e+03
9.429799591184548717e+02
8.345968712064188367e+03
1.131984625164484896e+04
6.505831196083723626e+03
1.085869090227725792e+04
7.451003883070383381e+03
-5.418004741343928799e+03
-1.679314593272853745e+04
-1.934906788335526289e+04
-1.314357611347227612e+04
4.892562296197424075e+03
2.928377841518004789e+04
2.451942496483983632e+04
-3.447277359564934613e+03
-2.293583712520714835e+04
-2.497293217180676584e+04
-1.918525740893230613e+04
-1.442532722694874428e+04
-1.024258482032989559e+04
-1.644243339235840540e+04
-1.819542395033486537e+04
-2.309330875579485109e+03
7.977358155618381716e+03
-6.805003188608708115e+03
-1.961312037223821244e+04
-1.364154590397918946e+04
-1.945780297683548270e+04
-1.039947026663912948e+04
1.002893356376021438e+04
2.831697402488766966e+04
4.451516474449945235e+04
5.356205920736868575e+04
5.139312615246071800e+04
4.078371964737290546e+04
3.270926969107606055e+04
1.797648237011649690e+04
-1.256805382162897513e+04
-4.442983260591235739e+04
-6.475824787164236477e+04
-7.045869091719789139e+04
-6.984678072142197925e+04
-7.031885766166746907e+04
-6.080446322436675109e+04
-4.101909615521890373e+04
-1.582719057162591344e+04
2.358769612991473696e+04
3.987707865020941244e+04
2.205262752082097359e+04
1.477782773143323539e+04
1.332310620898499837e+04
1.744605549003788838e+04
1.523918668005805375e+04
7.183916850200412227e+03
-1.967260942936667107e+03
-3.547766075865858966e+03
-3.455001990388498598e+03
-3.765485493851499541e+02
7.171028119837358645e+03
6.593274211939198722e+03
3.028699997552022978e+03
-2.555199933714302006e+03
-1.147696221446594609e+04
-2.209516640544301117e+04
-2.332535003951591352e+04
-2.374416781580925090e+04
-2.251423378633132961e+04
-1.560815897801941355e+04
-5.515526067776108903e+03
3.494038447328587608e+03
-8.027123580494565431e+03
-8.877542733700047393e+03
1.616014516452428506e+04
3.237726556746195274e+04
3.236506973695712077e+04
2.787182792238109687e+04
2.896485630101589049e+04
4.682763843909588468e+04
4.674954933819021244e+04
3.437981272919005278e+04
2.574557796083742869e+04
2.286008273858413668e+04
2.183962066039843194e+04
1.625833118450043366e+04
4.189359972227647631e+03
-1.507208900265556804e+04
-1.880082447677545497e+04
-9.271749953890110191e+03
-9.277719890855581752e+01
-9.474795372103433692e+03
-9.139730109634150722e+03
1.949553073944151038e+04
4.611607677111557859e+04
4.560997450718887558e+04
3.512529360277272644e+04
2.267009101845495024e+04
1.371041712289280986e+04
1.018437505323614641e+04
5.924999178878957537e+03
-6.857550059010388850e+02
8.464926517369569410e+03
1.722723401179026769e+04
1.946914202885619670e+04
2.463447843298956650e+04
1.915916329995612614e+04
9.089163820840843982e+03
8.712235049207396514e+03
1.210115916811420357e+04
1.636469649315144125e+04
1.515773527659676256e+04
8.315915794114798700e+03
-3.582048960316867579e+03
-1.765032491637798739e+04
-1.940807866998347890e+04
-4.398556958090865010e+03
1.099482047739744303e+04
1.779979028706865574e+04
1.803214779698614439e+04
7.848625579722487601e+03
-7.049689212954345976e+02
-2.514943417540484461e+03
-5.617641473177138323e+03
-1.469838030049259578e+04
-1.732946932384698084e+04
-1.742117344162021254e+04
-1.699592314745639305e+04
-1.669308591527788303e+04
-9.959071982839177508e+03
4.156760731537128777e+02
-2.116237660724983925e+03
-1.505119928724082274e+04
-2.398959064123484495e+04
-2.791380683244508691e+04
-3.317624787491020834e+04
-3.110230185058534335e+04
-2.166742337023072105e+04
-1.868397128126161624e+04
-1.303136673615648397e+04
-8.599082054531470931e+03
-1.796746321324311430e+04
-2.463896165602340625e+04
-1.841398356637349571e+04
-1.253087909608217706e+04
-1.078611649844961175e+04
-5.951134347119649647e+03
9.366082931314628013e+02
-3.614149609976001898e+02
-3.581591611753980033e+03
-4.032303935921378070e+03
-4.280105258208953273e+03
-9.335444165326587608e+03
-1.968766702304512000e+04
-1.625421538133771719e+04
-1.109153992210608340e+04
-8.819082042355219528e+03
-1.141920923812854016e+04
-2.012932675612633102e+04
-2.671681824179478645e+04
-2.275107555442290322e+04
-8.063476707071250530e+03
2.869551770353918528e+03
6.724625592829815105e+03
4.084301751093297298e+03
2.411273655910342768e+03
5.338032338548755433e+03
8.220196241112029384e+03
9.469468530108992127e+03
9.933454607174757257e+03
7.293800802551971174e+03
2.612246085592272721e+03
1.410455633801498379e+03
4.006961345413493291e+03
8.552696831914090581e+03
9.941302984806274253e+03
6.000229681252688351e+03
6.574625734659935006e+02
-1.422155681672514220e+03
1.898385976362678548e+03
5.029677381410899216e+03
7.325075093816708431e+03
5.937685410373276682e+03
3.894981158991306529e+03
4.359683043278976584e+03
7.127897645555093732e+03
7.801883956796808889e+03
6.852541275319219494e+03
6.859193141923840813e+03
6.266847447748098602e+03
5.923009095600570618e+03
4.919608446575940434e+03
3.852548456718273883e+03
3.475379540848263332e+03
8.751306171556138906e+02
-2.347311713049385617e+03
-1.920702808886463345e+03
1.675850567822034918e+03
6.132017553510144353e+03
8.668040960793874547e+03
5.735076055269536482e+03
3.084612166120949041e+03
1.961937184312901309e+03
-1.626852893697560276e+01
-1.326429041133012788e+03
-2.793197658594860059e+03
-2.562572146762777265e+03
-3.341418810242873406e+03
-6.763942397457479274e+03
-6.747958567473057883e+03
-5.140713339573252597e+03
-1.451380926166351401e+03
2.541483147382300558e+03
-8.862984745854495259e+02
-3.780864680115378178e+03
-5.046325860021581775e+02
3.714252881150676785e+03
1.737726769502316301e+03
-1.022776364429376144e+03
3.390085230276124094e+03
8.022353866445991116e+03
4.495933903627762447e+03
6.384304574998195676e+03
8.712444566796639265e+03
6.708005694430815311e+03
2.363897990689859398e+03
9.987393285922240693e+02
1.551366498206963115e+03
1.768569989743314409e+03
3.216814681503208249e+03
4.343083220767328385e+03
3.708048739926020517e+03
1.863840904699041175e+03
-3.647058765465882516e+03
-5.028343772654010536e+03
-7.995770064931606612e+03
-8.539215940686333852e+03
-3.874508029420087496e+03
-3.572068000356411630e+03
-2.058696239523264467e+03
-4.748642123216458799e+02
2.140972542227503254e+03
-1.439597837051729130e+03
-4.557778773299755812e+03
-1.674596469966408904e+03
-1.108637143325717943e+03
-1.507537396606987613e+03
6.004341399822816356e+02
2.759476300122360612e+02
-1.262654710237993640e+03
-1.609977887387715327e+03
-9.741562172296504514e+02
1.516325245693618626e+03
-1.257084326919786690e+03
-8.059411395327582284e+01
1.145375087258947246e+02
-1.657394946627670606e+03
-1.117154265470351902e+03
2.903798407836674414e+03
3.252752385827350281e+03
1.133909730029213733e+03
2.087037263934344082e+03
3.730448613553870018e+03
6.818424329797173868e+02
2.476544201114348652e+03
3.329192346254079439e+03
3.072775497412655113e+03
3.594459195177087622e+03
3.632790175889320835e+03
3.189095677920222897e+03
3.742220010300408376e+03
3.334285659209826008e+03
2.176441184220278956e+03
2.285876397892769546e+03
1.962502627102357792e+03
1.182993458396139630e+02
-1.496361103140693331e+03
-2.019525875861470240e+03
-1.220174525907495308e+03
5.895846619548334502e+02
2.061524879101311399e+03
5.070149391946153628e+03
7.430667955951350450e+03
7.308096558276194628e+03
5.749591800898549081e+03
4.670779461422809618e+03
3.798473563623258997e+03
3.155412516449340728e+03
2.829579343356039772e+03
2.714015259398153830e+03
3.468527336320450104e+03
3.603466882883275048e+03
2.673675913795716497e+03
1.867046058189024052e+03
1.603624600355759185e+03
1.835195575847585815e+03
1.324525339911536776e+03
7.673568087880473740e+02
1.337302063870013399e+03
1.150510813368736081e+03
1.367606954491329361e+03
1.134750879856193933e+03
3.228481479988151364e+02
-8.446429618614597246e+01
-8.037149820646392300e+02
-1.156466060247456653e+03
3.906508073207145060e+01
7.771925571544654758e+02
-9.224604337564622369e+01
-1.613731080238036668e+02
1.483440696898187241e+02
-1.825923010228495116e+02
-8.026256566723623109e+02
-1.265436763764535499e+03
-1.468472443511108850e+03
-1.483734342502873233e+03
-1.560292374962896702e+03
-1.546558924190921744e+03
-1.660303710894696223e+03
-1.723307658002414428e+03
-1.363263055731743179e+03
-1.022627958897951430e+03
-5.920171537552108703e+02
-8.761144031708259945e+02
-1.687982419614096443e+03
-2.390660772202634689e+03
-2.544657326014622868e+03
-3.139434084883515425e+03
-4.310985572983150632e+03
-4.320630120776372678e+03
-3.883113335525535604e+03
-3.116600011691407872e+03
-3.303820256501238873e+03
-4.593632191988732302e+03
-5.949523546438031190e+03
-5.622686473906764149e+03
-3.997561513773844126e+03
-2.892953860236365927e+03
-2.878639464471354586e+03
-2.484530313343831494e+03
-2.445835341032871838e+03
-2.980547704520403840e+03
-3.497176179320144456e+03
-3.879965202888141448e+03
-3.270929634287547287e+03
-2.290917080398588496e+03
-2.223938867241603930e+03
-2.762132615381803134e+03
-3.435994332822569049e+03
-4.208079349934078891e+03
-4.433791966920971390e+03
-4.740335478696651990e+03
-5.241608814485589392e+03
-5.171674326702693179e+03
-4.320931451175690199e+03
-3.091329584234835238e+03
-2.968111135862698575e+03
-5.509023490407896134e+03
-9.413681545602563347e+03
-9.675151510320814850e+03
-8.838428733875882244e+03
-9.015978345749415894e+03
-9.492981800559229669e+03
-9.181438843304766124e+03
-9.101772534059235113e+03
-8.911493706041803307e+03
-5.424428204960023322e+03
-1.795655932897804860e+03
-1.149804028896777481e+03
-1.249406747788270195e+03
-1.579828595962014106e+03
-1.697395168096684074e+03
-9.958051894516970606e+02
-6.133123831903039900e+02
-3.329642184294369258e+02
-2.842133406630263153e+02
-2.504415852737915031e+02
1.863445534715055487e+02
7.642843558092193916e+02
1.074146167761173956e+03
1.322272183931755990e+03
1.480345830615887280e+03
2.543167512337421613e+03
2.730734925682886569e+03
2.848055280532427332e+03
2.847235327965520355e+03
2.809735080099422248e+03
2.697196884030754063e+03
2.471623385304447311e+03
2.639168551980987104e+03
2.765892921362655215e+03
2.775632845060623367e+03
3.186584480220556543e+03
3.177284308095527649e+03
3.282216871617963989e+03
3.381872336872390861e+03
3.278151326848906137e+03
3.428087548066754152e+03
3.380801731707204908e+03
3.510263014226890391e+03
3.966654484206550478e+03
4.227091824632206226e+03
4.811953547741547482e+03
4.643885805700335368e+03
3.946625237842075421e+03
3.966009931266100921e+03
4.291258257291067821e+03
3.821113007341117282e+03
2.978613627981737864e+03
2.965285639734188408e+03
2.803692162960880978e+03
2.795896518685774026e+03
2.792770818854355184e+03
2.182543040251921411e+03
2.501702208851312207e+03
2.951840184350717209e+03
2.613858956758088880e+03
2.202955053901850988e+03
2.440227644189451894e+03
3.134812214383395258e+03
3.053211198245784544e+03
3.799988254488149323e+03
3.819121176537486008e+03
3.080127390960327830e+03
2.846970106533711714e+03
2.317872562991452924e+03
1.325807040233368753e+03
9.359471001120144820e+02
1.219632593096593610e+03
-8.263659168511654798e+02
-1.343505738418196245e+02
4.303780326395152542e+02
-3.021951998421359804e+03
-4.208885295155858330e+03
-4.970292744238628075e+03
-2.290336014907469234e+03
-1.454535566098417974e+02
-1.877718925141854015e+03
8.449571735850670393e+02
-9.660534341491294299e+02
-3.069778616908142794e+03
1.209589333085287535e+03
-7.362545164588576654e+02
-3.672272694312795920e+03
-2.584379187559948605e+03
1.883134805862616474e+02
-1.604130633390683442e+03
-2.281762770016666309e+03
-1.105124495643738953e+02
-1.679451859175285335e+03
-1.791734324658028754e+03
-4.022666317411665773e+02
-3.559992718651117229e+03
-2.510189727113538083e+03
-4.735219455289798134e+03
-4.451228196346611185e+03
-1.317236205476811165e+03
-3.054843283402125053e+03
-1.136989619292982070e+03
-1.530875919945667192e+03
-4.219615085819582418e+03
-5.242345742372483528e+02
1.125268001807614837e+03
7.907706321500571676e+02
-3.899738174280319527e+03
-3.408155778998994720e+03
-1.339881624372260148e+03
-1.917118311131445125e+03
3.478677654960703194e+02
-1.697077183797247699e+03
-3.531412801637291977e+03
-3.518282225759536232e+03
-1.053383322964983563e+03
-1.015853557578821210e+03
-1.177331634701981102e+03
-1.430920387639731416e+03
-6.171485327632542521e+02
-1.682540407084493950e+02
1.512990430117823450e+02
6.720894009761572079e+02
1.448916407592053247e+03
1.289089824938237825e+03
9.678310624553689649e+02
1.370899653857856038e+03
1.437046404056618258e+03
1.695117933360533243e+03
1.921899078314005692e+03
1.147267880523920894e+03
3.622522920862853653e+02
1.648939147132392975e+02
5.635920310973413194e+01
2.152204116154313454e+02
1.047303325564851804e+02
-3.021434452553456822e+02
-6.389264320346057957e+01
3.469119189200314679e+01
3.154335860296404803e+02
7.101688861927747212e+02
8.547505361391480392e+02
7.746903037403878898e+02
1.416953000898628943e+03
2.417936073890524767e+03
2.859768124563970559e+03
2.655486067817909316e+03
2.467763638661978348e+03
2.150957157029324208e+03
1.639903799808603708e+03
1.372140794936248767e+03
8.378003083214136950e+02
5.807151136175064039e+02
6.865440979558090930e+02
8.435774448807921999e+02
1.073290964977076101e+03
1.258011848227101154e+03
1.434847841018958661e+03
1.624486314727033005e+03
1.604143971127339228e+03
2.095914376173673645e+03
2.694524136444946635e+03
3.412920931534168631e+03
3.728577428710345885e+03
3.699356262985586454e+03
3.882078721334182319e+03
3.673511014900191185e+03
3.912504274661872387e+03
4.151061490477287407e+03
3.882153148190213415e+03
3.415671868289584836e+03
3.008670548718901046e+03
2.220163707597808298e+03
1.639000108888891191e+03
1.991261362914191750e+03
2.211156802382088699e+03
1.694706958604315105e+03
1.480929051001222206e+03
1.611752499146057744e+03
1.858998345003884879e+03
2.030567179251440393e+03
2.377387847805004185e+03
2.578557300174522425e+03
2.785188386505501057e+03
2.949409122736099107e+03
1.348274998109761100e+03
-2.105187176864066714e+03
-4.464977262854095898e+03
-4.032107846325273385e+03
-4.159622555226665099e+03
-4.319535337705845450e+03
-4.803774870242922589e+03
-4.761318660485536384e+03
-4.722167188982518383e+03
-4.903188787239918383e+03
-4.638227945683450343e+03
-4.613324199333792421e+03
-5.022170317641801375e+03
-5.104034229468621561e+03
-4.032915399517833521e+03
-1.190776633556924253e+03
-4.935528075373471211e+02
-3.221083807978073764e+03
-1.427284340663380135e+03
3.884903428692852685e+03
3.884520342676078144e+03
-1.878524840510439162e+03
-3.957190326411085607e+03
-3.557377252981543279e+03
-3.582040061018827146e+03
-3.662186505631395448e+03
-4.311743788046260306e+03
-4.763638813163430314e+03
-5.292845298292992993e+03
-4.708346274675829591e+03
-1.472075373882811391e+03
2.972027695964524355e+03
3.407974716888568764e+03
2.655816258219760584e+03
2.017639790616646223e+03
2.684455030074770548e+03
3.909314479637842851e+03
4.023289179646421871e+03
3.565443271581803856e+03
4.020874077451815083e+03
4.444619640284727211e+03
3.906684834926148596e+03
4.329171058493062446e+03
5.062118886015389762e+03
4.697387675520664743e+03
4.922010840238871424e+03
4.402050672319735895e+03
3.301609273171939549e+03
2.420780224550614093e+03
3.126562554618743889e+03
3.624896857657325654e+03
2.585703202901808254e+03
1.812042173815645583e+03
1.741024243783937436e+03
1.976625604945563737e+03
2.485929760698481005e+03
2.697020553487601774e+03
2.545931287356787379e+03
2.495701687030803441e+03
2.972243378091355680e+03
3.486480071091211357e+03
3.198513409497270914e+03
2.242429149537522335e+03
1.132259809545338157e+03
-4.440284184175267796e+02
-1.178457044623000911e+03
-2.740747657203690437e+02
-4.268472970757453027e+02
4.940705837235188937e+02
1.267516060914059381e+03
1.150474072679421852e+03
8.324354168612123885e+02
-1.062638340312550724e+02
-4.459370843637904613e+02
-4.779556548748739715e+02
-4.560758335638927292e+02
-7.002241824364632521e+02
-6.293442962840327937e+02
-1.758512135511897441e+03
-3.291673220368281363e+03
1.710620456919235011e+01
3.239458588623899232e+03
5.035545242979878822e+03
4.480257011097132818e+03
2.457437010244257635e+03
1.401986135067657415e+03
-4.201578386120369260e+02
-1.900098127251016422e+03
-1.428767520978094353e+03
-1.299314032435409899e+03
-6.108361079634588577e+02
-6.373632685389704875e+02
-1.640956376060057664e+03
-2.178646792210169679e+03
-1.996444974726578039e+03
-2.275411879000040699e+03
-1.772605462935043761e+03
-4.071734705156161453e+02
3.968505486272990765e+02
1.296559191398706162e+03
