-2.118297045251587861e+03
-1.455750572721505932e+03
-9.751856554881571810e+02
-3.785888287220092820e+02
3.013995210691664539e+00
8.445232052661160651e+02
1.945955741690461764e+03
3.148406166332757039e+03
3.734781469459392156e+03
3.642052227284685614e+03
3.457190114190711483e+03
2.778167156385439284e+03
1.753894601591868877e+03
7.123891322246023492e+02
-5.464716856918377061e+02
-1.177898314600098729e+03
-1.733815867589940126e+03
-2.436190409958516739e+03
-2.587083201349033970e+03
-2.435548209881158527e+03
-2.623552875604830660e+03
-2.428146816064544510e+03
-2.384317780635066356e+03
-3.711153125416763032e+03
-6.151655437115577115e+03
-6.903757867122518292e+03
-5.849566503324579571e+03
-4.952054776699375907e+03
-2.004171055923089170e+03
2.272223836198623758e+03
1.720113737343054026e+03
-4.490632848671984902e+03
-7.162866561067084149e+03
-7.710795629700070094e+03
-8.139526042582747323e+03
-8.431068101391792879e+03
-5.521360225208279189e+03
-2.408621784879257120e+03
-2.104979957343253773e+03
-2.460374317899955258e+03
-2.398545155462156799e+03
-1.727414668749663178e+03
-1.034260322346289058e+03
2.379906180662972304e+01
8.839552306815822931e+02
1.684327382696101040e+03
2.811992765886261623e+03
3.624912523299451550e+03
3.678875362883497928e+03
3.451006885656027862e+03
3.387368298173330004e+03
2.542894793327201569e+03
1.514571592423943684e+03
6.283132343916499849e+02
-1.588216568662018915e+02
-1.161790812020969497e+03
-2.067650227159602764e+03
-2.608535291687991958e+03
-2.588472188990964696e+03
-2.920454938872891034e+03
-2.721367307549500765e+03
-2.451184502095821699e+03
-2.041921452343243345e+03
-1.233662751371685999e+03
-1.822602659246028338e+02
9.423804010929577544e+02
2.762293494766758158e+03
2.896509766681157089e+03
2.104094982184061337e+03
1.903078486333030924e+03
2.623472520306588649e+03
2.870359761486971365e+03
1.788846239172100468e+03
7.848531355626365666e+02
-3.126507135752784734e+02
-1.281666196805334266e+03
-2.143269312450371672e+03
-2.772491727847162565e+03
-2.500322765409467138e+03
-2.513710852043916020e+03
-2.552515415377401041e+03
-1.956710343706439062e+03
-1.225340960855696039e+03
-9.334562859240427315e+02
8.705192166487253758e+01
1.460216523964944372e+03
2.365522372974609880e+03
2.821101791522086387e+03
2.430844067671329412e+03
2.453213322752795193e+03
2.106195787351276977e+03
1.721452848443754192e+03
8.558191482209896321e+02
-6.516643921138214637e+02
-1.852047948650155604e+03
-2.696309505781954158e+03
-2.914319088685426323e+03
-2.725101209217965334e+03
-2.738679887243502435e+03
-1.984042354124075700e+03
-1.641133420591803770e+03
-1.467837697381939506e+03
-1.530994097194902906e+03
-7.795778472521059257e+02
-1.056176363990866065e+02
3.168509045557939885e+02
9.148591917540796885e+02
1.643428157393166885e+03
2.739660963438824183e+03
3.541732052624336120e+03
2.778698891202232517e+03
2.343521149315153707e+03
1.671193662786070945e+03
5.846462884751081219e+02
-6.651478606425778253e+02
-1.642179635482177446e+03
-2.519450518876156821e+03
-3.241041683789011586e+03
-3.260921917792996737e+03
-3.131978419213325651e+03
-2.963167843825063756e+03
-2.310503250758195463e+03
-1.564913948052191927e+03
-1.099429308185227001e+03
-5.309535686675995976e+02
-6.933569488228314981e+01
8.653262774379189750e+02
2.154997339653609288e+03
3.062766034829071941e+03
3.479691718308401960e+03
3.157786140166168934e+03
2.930009744520349614e+03
2.201276280753362698e+03
7.106063362262468672e+02
-4.859160554776478875e+02
-1.403056959168211733e+03
-1.903977920792149462e+03
-2.329999025372448159e+03
-2.940244209021806000e+03
-3.023746979707582341e+03
-2.250433404105588579e+03
-1.681108724443332221e+03
-1.408750671802844408e+03
-8.955365707623234357e+02
-4.145364477951749222e+02
3.803885871215329644e+02
1.284328359629826764e+03
1.854085314988892833e+03
2.115713484289597091e+03
2.421318492788797357e+03
2.395026059945678753e+03
2.584847933982814993e+03
2.370603014036357308e+03
1.257111738186511730e+03
4.972795607896593992e+02
5.114181200538468630e+01
-4.582549631403838362e+02
-1.538130223006358392e+03
-2.178708868490450641e+03
-2.787231705673619672e+03
-2.678211466345533154e+03
-1.711286916792351803e+03
-8.136279467913915369e+02
-6.768120467797774609e+02
-5.214017660168087787e+02
5.853235894927228173e+02
1.696592626855218668e+03
2.331562431149826807e+03
2.912841260835072262e+03
2.485582138801209112e+03
2.687142555823405473e+03
3.043821257590017012e+03
2.853032559509286330e+03
2.412969333357735650e+03
1.447077767177575424e+03
7.462624657540202406e+02
-4.267170784416994138e+02
-1.453864686622549016e+03
-2.023202157013960004e+03
-2.256895257106147255e+03
-2.310132322591077354e+03
-1.481966586235620525e+03
-3.552721802146942309e+02
4.111892612723576121e+02
1.065250371221643036e+03
1.603928312148183522e+03
2.368327392767337642e+03
3.247271079496939365e+03
3.895206776934649042e+03
4.162699242771880563e+03
4.172733438545782519e+03
3.543165751218924015e+03
3.043421668447115280e+03
2.560082217247591416e+03
1.737995325413997762e+03
1.410866871713705223e+03
4.189142441274921680e+02
-1.640339181434190152e+02
-8.920556796850920591e+02
-1.677304624096200541e+03
-1.340868680612445587e+03
-8.417029376432126355e+02
-4.268436445521267046e+02
1.128566911660305720e+02
7.955272469737486745e+02
2.001036229247353731e+03
3.497185564583252926e+03
4.433042812178470740e+03
4.367848517104163875e+03
4.313578661568265488e+03
4.560233648268627803e+03
3.496758639803496862e+03
7.310904676565929776e+02
-3.798773894414774986e+03
-5.515056524606324274e+03
-6.509755039565478910e+03
-7.253738549224282906e+03
-7.968143747950756733e+03
-8.283203805680945152e+03
-8.477880986825100990e+03
-8.570088132094517277e+03
-8.730766215092226048e+03
-6.552652093659277853e+03
-5.553823841117607117e+03
-5.863584776513328507e+03
-5.432919932888365111e+03
-4.619693841956238430e+03
-1.628921713279148435e+03
-7.163932165504317027e+02
-3.855990025073100696e+03
-3.536984163262742186e+03
-2.933325410931617171e+03
-3.199514212079363915e+03
-3.328717151306550477e+03
-3.869076221460331453e+03
-3.469656224744953306e+03
-1.892654380753649548e+03
-4.386111753911555752e+03
-6.460943135414026074e+03
-6.091162876578850955e+03
-6.083619749214526564e+03
-6.738307772639166615e+03
-5.177346292738586271e+03
-3.296627351921895297e+02
1.097855334778856331e+03
2.531482867534986781e+03
4.376207269032133809e+03
5.928948849397414051e+03
6.504625188429757145e+03
6.956292744875931930e+03
7.118224411590465934e+03
7.145501227198791639e+03
6.654277934275619373e+03
5.165398913665411783e+03
2.686705788418551037e+03
7.904306699138475096e+02
4.374366652264091044e+02
4.006018683114866690e+02
9.592013207783644191e+01
-8.216153969288707231e+02
-1.796036343551294294e+03
-1.696170293227503180e+03
-6.018000231359624195e+02
9.720501436397864836e+02
1.897363732151107797e+03
2.719278874937648197e+03
3.861891294245583595e+03
4.274146363917898270e+03
4.422082634428614256e+03
4.988606339661142556e+03
4.985767845020419372e+03
4.348746633297189874e+03
3.069523506804359386e+03
2.237113671277401863e+03
1.715631019700185107e+03
1.249114914972503357e+03
9.466313830226595201e+02
4.182533131486105162e+02
4.368096440126582820e+02
3.773189274791920980e+02
5.019172526432241170e+02
7.546882753644600825e+02
5.258837408765980115e+01
-5.415597272638957520e+02
-9.346292750304130550e+02
-8.736360263815296179e+00
1.207868423182236256e+03
1.494531906077614849e+03
1.651252140466596757e+03
2.734093288860806297e+03
2.545621630311218269e+03
2.664481596131046899e+03
3.199769485707442072e+03
1.660496672317739467e+03
-1.093136714505307737e+03
-3.591500013354007478e+03
-3.945482760401136147e+03
-2.698120939136472316e+03
-2.089167643193494769e+03
-3.134855212710130672e+03
-4.336083733576030681e+03
-4.047973642298055438e+03
-2.037664802853090578e+03
-7.490610284261483685e+02
-7.329404074021733777e+02
3.085560938826600008e+01
1.588392989868849099e+03
2.553624178796048909e+03
2.763632239277175358e+03
2.553395613180125565e+03
2.997634482980558914e+03
3.959424649520607545e+03
4.923693567221410376e+03
4.477213449945063076e+03
2.997375422289267590e+03
1.698409907175773697e+03
8.563233677284190435e+02
-3.699696998945926225e+02
-1.073630504630030600e+03
-1.874858969314346041e+03
-2.526674039275811083e+03
-2.646927547341226273e+03
-2.020539464806973911e+03
-1.181543112702357803e+03
-1.080630839966829399e+03
-7.524919561976001887e+02
-7.204569116304872978e+02
3.411188386406417408e+02
2.063439421084467085e+03
3.227686953832167546e+03
4.137664514273252280e+03
4.648321407471472412e+03
4.104750947264747992e+03
2.910774878828294277e+03
1.595195453434748060e+03
-4.307547701906675286e+01
-6.648869502706030516e+02
-1.188292881226294185e+03
-2.406457223308374978e+03
-4.745147735809170626e+03
-7.048321808018909906e+03
-1.117638321132606325e+04
-1.189730122581974865e+04
-1.189888384192289413e+04
-1.068414760081488566e+04
-5.019515062445082549e+03
2.712357023444240554e+02
3.638850215944632964e+03
4.821066659905994129e+03
3.865708698061374434e+03
1.893827728043631168e+03
1.167476924709156492e+03
7.424269556234784204e+02
-3.314623677074836223e+02
-1.080228133711919781e+03
-2.464629533517376331e+03
-3.927604900194654874e+03
-4.107213902345515635e+03
-2.521520695694026472e+03
-1.196531393968552038e+03
-1.363203488332302982e+02
3.818678870173932296e+02
3.630889089270257841e+02
-6.446727352797480535e+02
-1.005452949178541417e+03
4.099638939046536166e+02
2.167593268491321851e+03
3.270428089906788500e+03
4.409378237951334086e+03
4.773496971403103089e+03
4.374061695037242316e+03
3.802023245916136602e+03
3.049973126736012546e+03
1.490079365955928779e+03
1.565546304121776870e+02
-1.258887580993774691e+03
-2.397971164095264612e+03
-3.156585553354067997e+03
-3.511272134813059438e+03
-4.364429482390876728e+03
-4.138984853146848764e+03
-2.118774569027531470e+03
-1.384920560675393745e+03
-1.401423519732909426e+03
-4.358996980203698968e+02
3.068300625523851863e+02
7.668663539264839528e+02
8.790027472512806526e+02
3.288642725247988210e+02
-3.595284718976428167e+02
-4.389263172434995681e+02
3.209904846305430510e+03
5.774916163516633787e+03
4.880817207484454229e+03
2.713732606652052255e+03
4.761868711372340357e+01
-1.730880479329714717e+03
-9.369227636100456493e+02
2.545974059835078265e+02
-5.771244593805149634e+02
-1.650122387431568313e+03
-1.141371782018932890e+03
-6.764252165181606813e+01
-9.658286939134312661e+02
-2.104216542363188637e+03
-1.965738583077976728e+03
-3.551898387284941805e+02
3.056656534302703221e+03
5.556612809913001911e+03
5.509448027672752687e+03
4.462087799434599219e+03
4.047662967374113123e+03
5.418304436613965663e+03
5.515025210212328602e+03
3.599715774282480197e+03
-1.842508723964356705e+03
-4.272273411406597006e+03
-4.117936374549567518e+03
-2.868542928348431815e+03
-2.749944224603659222e+03
-1.709228197802656268e+03
-2.591338797005969354e+03
-3.294510414309150747e+03
-2.712801799223051148e+03
-4.392295389740593805e+02
2.103364825722260775e+03
-5.729659723110622735e+02
-3.923215939869033946e+02
3.192589032445835073e+03
1.260735913261582709e+03
7.561379918855407141e+02
1.383114567979583398e+03
4.287822469784698114e+03
2.381962555846680061e+03
3.558380879421752070e+03
9.495725633301314872e+01
-2.596234324362884308e+03
-3.449149964449754407e+03
-4.081926914772607688e+03
-8.445206789658504931e+02
-2.008921531656041225e+03
-3.763311622168305348e+03
-9.146190214314516425e+02
-1.646710109623695644e+03
-3.918353291250370148e+03
-5.423569924775085383e+03
-3.601384241460094017e+03
-3.377597693149780753e+03
-2.103312937915403893e+02
3.273290181082169511e+03
4.898541352918079610e+03
3.047730659159311926e+03
4.542751617313345378e+03
4.898586247159711093e+03
4.997236068152651569e+03
3.455438206869799160e+03
9.870929277383772842e+02
-5.987869513926146965e+02
-2.357409448572845122e+03
-2.328012574171175856e+03
-6.694291290271286243e+02
1.443286937226659461e+02
-1.709613680359344926e+03
-3.094099229724889483e+03
-1.697260942385215913e+03
-3.724388691698891876e+02
1.470587210427081573e+03
2.731118060308419899e+03
3.867909773724650222e+03
5.638962940888336561e+03
4.826706181195601857e+03
3.931185866498963151e+03
5.203225080523116958e+03
5.588770255888637621e+03
3.132849588918660629e+03
4.245134591070988677e+02
-1.279401821041291669e+03
-2.345652209116861741e+03
1.386491667465723765e+02
2.047108679497016510e+03
3.141204973440687240e+02
-1.552190122696194067e+03
-2.114099126915999932e+03
-2.869767320790077065e+03
-1.588776597741242767e+03
-8.257766890999832299e+00
-1.944561283220631140e+03
-4.223897694806838444e+03
4.186991260611110874e+02
3.921345380503146771e+03
5.149040002385176194e+03
6.075038753295935749e+03
5.404961773342341075e+03
3.464161477313143223e+03
2.056153168384240416e+03
2.527592225621628685e+01
-7.738996439995576111e+02
-1.415587807022313427e+03
-2.332679695754503882e+03
-3.676221398108520134e+03
-4.901421893938932953e+03
-2.899376279096800317e+03
-4.962119645665198391e+02
1.120326407695977622e+02
-1.457702542277564589e+03
-3.689453376206858138e+03
-2.992121311058400806e+03
-1.856732493975686339e+03
1.557690638980256836e+03
3.465214463850433731e+03
2.929869726104484471e+03
5.236668069542899502e+03
6.010632767935838274e+03
5.000663894739757779e+03
3.986743487440390709e+03
2.082858981701765060e+03
-1.042150139219497532e+03
-3.164302890161289270e+03
-2.520625758315758503e+03
-1.976254141891302197e+03
-1.579217869463323495e+03
7.540971317658940798e+00
2.254913196349114969e+03
3.710916319446555462e+03
4.977676830614951541e+03
4.093144020427816940e+03
2.864250330713638505e+03
2.836098343093668973e+03
2.475775477161035724e+03
1.669388831559489518e+03
1.480898085421240921e+03
1.868315996067015703e+03
3.256652577727317748e+03
5.323853248171316409e+03
5.520958274416881068e+03
5.515852878632099419e+03
5.359510116331181052e+03
4.160915312184672075e+03
3.048132227602558032e+03
7.382478878053428843e+02
-6.518203910905215253e+02
-1.622988989043377387e+03
-4.384255988101426738e+03
-8.295627554920001785e+03
-6.617140643982182155e+03
-1.147676542073915243e+03
1.197077413555935664e+03
-1.307843121402472661e+03
-3.380517739996038472e+03
-2.109944754703735271e+03
3.390136776507601553e+03
2.120930156358345812e+03
1.084384625485470451e+03
-6.135820555538531380e+02
1.398806533965180051e+03
5.835498545772735497e+02
1.462888627346832436e+03
6.699288919790379850e+02
-2.477361688063710517e+03
-4.729101131231846011e+03
-4.700291653908059743e+03
-3.304755312600127581e+03
-1.084419900529939014e+03
1.056748710014525841e+03
3.880939565283478714e+03
6.627246704191000390e+03
5.850735875985973507e+03
5.753462434840833339e+03
3.976467831644868966e+03
-1.950239783599867224e+03
-3.757520135233010478e+03
-2.203193774165260947e+03
-5.791273619999708444e+02
8.457973556258943972e+02
4.716094725197410753e+02
-2.708710957743461222e+03
-6.501973189091771928e+03
-8.723101557961930666e+03
-1.006607283083464608e+04
-1.111892400584638563e+04
-9.638673248314764351e+03
-4.306196716169707543e+03
-1.699413526266420149e+03
-2.375138368778517361e+03
-5.703437464263186030e+02
2.907981587134225720e+03
4.421929169639413885e+03
5.372595098069825326e+03
8.012227087798134562e+03
8.875039073144644135e+03
7.346076204768756725e+03
5.264435223134269108e+03
4.722220053164021920e+03
3.401439798189432167e+03
2.791393477008674040e+02
2.024810587577737522e+02
5.756348626701799276e+02
-3.694447670570521950e+03
-7.884595221695904002e+03
-1.058276753245631880e+04
-1.457376111124431918e+04
-1.212158110509532162e+04
-5.122512846535606513e+03
-9.046473486800323371e+01
2.634725955775619695e+03
3.056006581971877949e+03
3.505514298210897778e+03
5.078455062486323186e+03
4.105834503346743986e+03
1.593653197074594800e+03
-1.511914698521780338e+03
-1.966845837289799874e+03
-4.190882062345655186e+02
6.423913441741881343e+02
1.197623353904767100e+03
1.815433360055563526e+03
2.804797906582749420e+03
8.357405073749259827e+02
-8.167471010505139475e+02
-2.651588655761292102e+03
-5.057686079611104105e+03
-4.157014266673038037e+03
-2.668726718696435000e+03
-2.495859253339917359e+03
-3.276393195877849394e+03
-3.818320292132339091e+03
-1.028505434098443402e+03
1.492090840967520762e+03
-1.126506052052577843e+03
-2.057217402111974479e+03
-2.396323279331928902e+01
-7.527570503125186860e+02
2.745413687041792855e+03
9.229571613190199059e+03
1.057165389880845396e+04
6.955548529930965742e+03
3.358229437823362332e+03
1.505573204467457799e+03
-2.581643943209835470e+03
-7.108363208510497316e+03
-6.565620131580519228e+03
-3.309520312588416800e+03
2.075960286439974425e+03
5.243759836402985457e+03
3.896848222918449210e+03
1.761293980965416267e+03
1.474084140423583221e+03
4.523155628165724920e+03
7.824231580572594794e+03
8.159189754439494209e+03
1.046324985527896388e+04
1.253743134940852542e+04
1.056072927335235181e+04
6.801057792362920736e+03
3.452145174797799882e+03
1.747855779243162942e+03
-6.307685311847287721e+02
-3.334864423128512499e+03
-3.005591959842459801e+03
-7.429981325751832628e+02
-2.318069666998428147e+03
-3.744905860799327002e+03
-2.592639355356606757e+03
1.774664502818551455e+03
4.829622155777507942e+03
4.804128274070601037e+03
2.307362654532080796e+03
9.744232207181240710e+02
1.207073179720970757e+03
1.338153787671409873e+03
-1.161409857506169601e+03
-2.630718933745969480e+03
6.947003638037706423e+02
3.348420762448745904e+02
2.032736635201132458e+02
2.292915947416640847e+03
2.852231760736630804e+03
4.338380440272846499e+03
3.956553968764464116e+03
2.783193906442972093e+03
5.553468068914119158e+02
-6.928669440404702584e+01
-1.443649787116858079e+03
-4.235745071863791964e+03
-3.528461990744688592e+03
-3.884449252950253140e+03
-4.676107824720934332e+03
-2.014951254043211520e+03
3.649038747173636239e+03
5.641651228726250338e+03
5.691105548186312262e+03
4.169844271194379871e+03
3.458641080811491065e+03
3.259168856231656719e+03
2.013017533481682676e+03
1.595439713721099224e+03
9.668489267161934322e+02
-2.576603810391074603e+03
-6.220121764496758260e+03
-8.696011132025338156e+03
-8.287102538487588390e+03
-8.276299985647759968e+03
-9.088618913525138851e+03
-7.622234086881165240e+03
-8.478272616512631430e+03
-1.160277639646271928e+04
-1.187723533053285610e+04
-8.371417711222247817e+03
-5.053078048959227999e+03
-1.983623265417269522e+03
2.297957907638853612e+03
3.693582619002634601e+03
3.845407874251877274e+03
5.586504003580431345e+03
5.238697122874046727e+03
1.450908899759937867e+03
-5.890401293489250065e+02
-2.958343527094617457e+03
-3.188022327937723730e+03
-2.979315056045817300e+02
1.361880277313089209e+03
-2.386797873765298391e+03
-3.883041865162441809e+03
-8.618649028790979401e+02
-2.004239784950395688e+03
-5.852291724404210072e+03
-7.475116736170811237e+03
-6.390532013958311836e+03
-6.918547976523950638e+03
-8.095366963883830067e+03
-9.104937344073487111e+03
-9.061050550875150293e+03
-1.104259067360608788e+04
-9.601652351422588254e+03
-9.158352875262700763e+03
-1.104003704526837282e+04
-8.160492091171963693e+03
-3.556572634821513020e+03
-3.284243223431297451e+02
2.605829099084422069e+03
1.392248367426413097e+03
-3.459321956470318128e+03
-4.729939400637908875e+03
-5.503347231725351776e+03
-6.094482889380132292e+03
-5.644826792890612523e+03
-4.516465977040506004e+03
6.527410218156118162e+02
3.351824577517400030e+03
-5.280468949263585046e+02
-2.269737507235776320e+03
7.876558454380653984e+02
1.519222920893870196e+03
-5.071404312671703565e+02
-1.857490561335624079e+03
-1.078853353090509017e+03
2.125824290741803907e+03
2.417498324588470950e+03
1.837867265474573742e+03
1.946830389850404117e+03
1.816478326551019109e+03
7.249806973582712999e+02
1.163430364106677644e+03
1.480629719931133877e+03
1.796596730294377039e+03
2.875019471436762615e+03
3.635002737510260431e+03
3.405731022344266876e+03
3.810893722802464254e+03
4.651541810788771727e+03
6.140866908175967183e+03
7.886844785331557432e+03
7.238580181150397038e+03
6.087181758506733786e+03
5.605617487582887406e+03
4.579598386646899598e+03
4.002104144619629551e+03
3.946066433080171464e+03
2.572225249548091142e+03
1.838474856060465299e+03
2.243793601072772162e+03
1.866155559267141371e+03
9.976900570676693860e+02
8.144537312372245879e+02
1.014353507701606077e+03
1.783410653341563375e+03
2.323739358214559616e+03
3.297223860691314258e+03
4.541749316054968403e+03
5.327193143017050716e+03
6.443421451986446300e+03
6.615464331881784346e+03
6.182256378189269526e+03
5.426700800472096489e+03
5.361104141363411145e+03
5.134457372629197380e+03
3.248889510483125378e+03
1.780282503906023067e+03
1.125753348514283971e+03
4.323333731550984567e+02
-2.319263345328443847e+03
-4.742742544860347152e+03
-2.570254112511856874e+03
-1.113427001891046302e+03
-6.418869174547457988e+02
-3.867891482919214496e+01
1.432940314488429749e+03
3.669692254714884257e+03
4.698109342697118336e+03
6.228848487672346891e+03
6.252835708967590108e+03
5.148739754217514928e+03
4.591682411618161495e+03
4.179480757208922114e+03
3.984216311766322178e+03
3.530991960449996895e+03
1.750707127245663969e+03
-7.686319677078370205e+01
-1.325896383232858625e+03
-2.135572826075791909e+03
-1.679984016369790879e+03
-1.401239559748747524e+03
-1.585427156858566605e+03
-1.271303050835840850e+03
-5.109495165499773748e+02
-1.952071695570357690e+02
-3.636729865059966755e+02
-5.345766422801713134e+02
-1.271798347682666162e+02
1.228385798343381339e+03
1.547093456099971945e+03
8.540896813265462697e+02
1.309566529040107525e+03
1.851619051612416797e+03
2.276174756816405079e+03
2.095135352682003486e+03
9.224334083826790902e+02
-6.341366140633466557e+02
-2.311963958030973117e+03
-3.228995488734818991e+03
-3.862018776604436880e+03
-4.545208516771970608e+03
-5.508690785903587312e+03
-6.557295273084481778e+03
-5.743970124624084747e+03
-3.968846181283388432e+03
-3.209802882526562371e+03
-2.492566399564536368e+03
-1.994012950552212715e+03
-1.508216772924276029e+03
-1.371982731998763711e+03
-9.320807595068876026e+02
-7.206946768089707120e+02
-2.841821965216482567e+03
-7.140066617821686123e+03
-9.931299858318203405e+03
-1.079249214476778434e+04
-1.134250714830923607e+04
-1.104080123745006858e+04
-8.987730878031046814e+03
-5.728149433006405161e+03
-4.992910175583302589e+03
-5.315790855404677131e+03
-5.153654731041297964e+03
-4.641477623668620254e+03
-4.556933947103818355e+03
-3.564737353341021389e+03
-2.501664453967736335e+03
-2.025768520945405044e+03
-2.012072592260233932e+03
-8.374352714158866320e+02
-1.207000704244860714e+02
1.642172858602399685e+02
5.264099125754372608e+02
1.072628231005617891e+02
-2.061013181328642645e+02
-7.755360088148123623e+02
-8.858586111397886498e+02
-1.335178669244408411e+03
-1.785443922647662703e+03
-2.603439861531071074e+03
-3.329894992587160687e+03
-3.076631002753422763e+03
-3.146751098302580431e+03
-3.265070343443222555e+03
-2.670993807537163775e+03
-1.949448220752945645e+03
-1.284463712189221951e+03
-5.796162505031487626e+02
8.299178348867071691e+02
2.174934822352453921e+03
2.913969689568536978e+03
3.135627912733134053e+03
3.194174131276603930e+03
2.853689368789639502e+03
2.733616924910568741e+03
1.840285607273987580e+03
9.604280415013405445e+02
7.719230682197260194e+02
9.476374947941967264e+01
-8.928309666011532499e+02
-1.309348229517681602e+03
-1.670465637595965518e+03
-1.731041914517744090e+03
-2.800721769317164558e+02
3.115637458035644727e+02
1.442196548513758898e+03
2.149943158138823947e+03
2.620046135015906202e+03
3.294914715729438285e+03
3.998951547326423224e+03
4.735456579255949691e+03
5.133548223545829387e+03
4.184470022033109672e+03
3.461444873102554084e+03
3.880435538103963154e+03
3.562436144109569341e+03
2.296932842709332363e+03
1.225998617006649965e+03
2.061643157155713197e+03
1.552758051160880086e+03
4.105395565535205264e+02
2.453221637270416124e+02
1.394488735343821190e+03
1.148176478970950711e+03
1.948519920450298741e+03
1.916703065988447861e+03
-9.358981843299565071e+02
-1.527100735163752688e+03
1.219954145311227421e+03
2.405625366531847703e+03
5.658919065274447348e+03
2.262766440377339222e+03
2.833408101850756793e+03
5.631864972329951343e+03
2.387366654584716798e+03
1.711065560842638433e+03
1.631747352267152280e+02
1.387653579485065393e+03
-1.748343919636353803e+03
4.238767468255313275e+01
-1.413283864662872020e+03
7.588186675443809008e+02
-1.443168728449315040e+03
-1.435442703826965044e+03
-1.212045598031092197e+02
7.038205855643107043e+02
-1.796125068960140652e+03
1.939173817875205941e+03
3.167700963616092395e+03
1.538489233892627453e+03
4.442668480807730703e+03
5.654183425033103049e+03
5.952078548153764132e+03
3.423642498528127817e+03
2.249958048290410261e+03
5.719655811938499710e+02
-1.311615826777018583e+03
-2.594763078452331229e+03
-1.900376981668841836e+03
-3.361732201920494845e+03
-9.667266909995619244e+02
-2.747131801235638704e+03
-2.077154328986034670e+03
-7.161314401978636397e+02
-2.911439528042475899e+02
2.527376717489191265e+02
3.343303397773209440e+02
1.463726317367472348e+03
3.103045252824474119e+03
3.871080613016607003e+03
3.807913459121346932e+03
3.655706585189573161e+03
3.490295688442503433e+03
3.096622760972041306e+03
2.197468999954935498e+03
1.027416321794649775e+03
2.354031308312358988e+02
-9.752785288786769797e+02
-1.097923212581470352e+03
-5.189364941207355741e+02
-8.930350169432557550e+02
-1.161232337230138228e+03
-1.198984559150509085e+03
-1.344456727857620081e+03
-1.580259827119885131e+03
-1.521436574062585805e+03
-1.593071891056587901e+03
-6.962763696881797841e+02
-8.309446276725843461e+01
-3.448863633723793214e+02
-1.136752843350206149e+03
1.312246249307716198e+03
2.803586900532485288e+03
2.205915091075703003e+03
1.041059048166608363e+03
3.008768174497130303e+02
-2.504186579866318709e+02
-7.717596264310349170e+02
-1.506867524946258300e+03
-2.330643593414233692e+03
-1.945214398736757403e+03
-2.593818537885128990e+03
-3.070663959333752700e+03
-3.111147578097757105e+03
-2.326112323038200884e+03
-9.985619389191163009e+02
-4.271606860526972582e+02
5.978501178154996296e+02
1.594759538845182306e+03
2.255631519127203774e+03
2.426219055217928144e+03
2.860221804826471725e+03
2.796445385513190558e+03
2.370956781604043499e+03
1.734397645403180150e+03
8.984040424388482506e+02
-7.923349089052486249e+01
-1.054575506749304850e+03
-1.833824712642332543e+03
-1.517247867908162107e+03
-2.127002604454384254e+03
-2.030253826798767705e+03
-1.515053588128682122e+03
-1.630435461053394420e+03
-2.054619748655385138e+03
-1.588771722528011423e+03
-1.362048204867069444e+03
-6.675844646802510169e+02
2.764035520272412683e+01
1.212589046372369921e+03
1.873134771371852139e+03
2.957216370550042029e+03
3.807698739033970924e+03
3.226434105268100666e+03
2.734386534085205312e+03
1.903428387723262631e+03
1.104364790812330284e+03
2.810401950186436082e+01
-7.754227806973095767e+02
-1.516359546168846009e+03
-2.104835241341537312e+03
-1.352987516082419461e+03
-9.848501558033736956e+02
-9.514974672779760567e+02
-7.290375410611096640e+02
-5.394843331879631023e+02
-1.082875713850542979e+03
-2.389184085589192364e+03
-5.152445878761577660e+03
-5.050686357365124422e+03
-4.716975301286197464e+03
-3.656306046216594950e+03
-2.876586421190029341e+03
6.811164561139879652e+02
3.885730776663521738e+03
2.268190126609405525e+03
-3.401382271386894899e+03
-6.806056867990439969e+03
-7.461149465737182254e+03
-7.704649274814388264e+03
-8.197569713649831101e+03
-8.207995088016608861e+03
-5.742974109301765566e+03
-1.099540594967462766e+03
5.133666578206524491e+02
1.088687361058819988e+03
2.010618962437485379e+03
2.693321403510070013e+03
3.584705912191620882e+03
4.786773679521721533e+03
5.316575546350174591e+03
5.491187647764066242e+03
5.443706944757638666e+03
5.301175114611039135e+03
4.669600995320334732e+03
3.747993472330362692e+03
3.102226582804519239e+03
2.304270711376655527e+03
1.652198763750034232e+03
7.349769569870589976e+02
1.525854541649236751e+02
-1.309189170735871528e+02
1.305655707201057680e+02
8.851091840558678996e+02
9.057385900524180897e+02
1.148490586152801825e+03
2.060416991662984856e+03
2.632643540783522440e+03
3.322183032294627083e+03
4.343114460877273814e+03
4.976477155327144828e+03
5.039374574490168015e+03
5.291946260701256506e+03
5.506246498776195040e+03
4.737339852301438441e+03
3.413223710117922110e+03
2.082973288956746728e+03
1.092606732880757363e+03
6.171335709247578052e+02
2.136263747292580604e+02
-1.069961268022153860e+02
-6.778054908650344714e+02
-7.147070980266354354e+02
-6.566309762876870764e+02
-8.914584290479310766e+02
-1.210914494221377140e+02
8.665825873096812302e+02
1.747615768561964614e+03
2.745964948086235381e+03
3.173867271353905380e+03
3.618566854356645308e+03
4.460238676670593122e+03
4.196879675844107624e+03
3.369573550880757011e+03
2.694352894824373834e+03
2.445273632768424250e+03
1.601891476130962474e+03
3.101496249781151846e+02
-5.727620215959558436e+02
-1.228829850560735395e+03
-1.642159754100775899e+03
-1.841692871206070322e+03
-1.972472511555927895e+03
-2.100398892670011719e+03
-1.867387827935666564e+03
-1.428382348541967303e+03
-7.334302682416682728e+02
-2.434827934938421663e+02
4.755475014990694831e+02
1.535673610152054380e+03
2.489969143105454350e+03
3.074488111663310065e+03
3.118287730571345037e+03
2.977304569538560372e+03
2.399613340352269006e+03
1.290205622719689700e+03
3.461310133265050126e+02
-5.466868591779352755e+02
-1.487407248838356963e+03
-1.969960078420113859e+03
-2.273331970636309507e+03
-2.762561599780526649e+03
-2.880613506842243623e+03
-2.394491293744043105e+03
-1.774187318738012664e+03
-1.770767778681360824e+03
-1.391241448730912680e+03
-8.415492388652246518e+02
-1.376161506133608725e+02
3.135755016946841920e+02
1.150044579354407233e+03
2.474782632991305036e+03
2.678817815053497725e+03
2.047135327943173252e+03
2.041676010285643315e+03
1.126450052574700521e+03
-3.325536575237632633e+02
-1.850384054467098167e+03
-2.930078136175960935e+03
-2.962711834668316442e+03
-2.948489660028987601e+03
-3.895334881962878626e+03
-3.738322663059769638e+03
-2.554489968061783202e+03
-2.610801759852334726e+03
-2.630184968151947942e+03
-1.757720144313886294e+03
-6.234130122106662384e+02
2.327503131595404966e+02
7.228581205721302467e+02
1.214895838384295530e+03
1.697766507769654027e+03
2.547527968211472853e+03
1.830219238520529188e+03
1.389816460193553667e+03
1.201068715714652626e+03
9.379889768665786960e+02
-6.438652135031733792e+01
-1.423166475567594716e+03
-2.846513103872910960e+03
-3.464393570844247279e+03
-3.948948168870215341e+03
-4.693299133302270093e+03
-4.589983054981774330e+03
-2.893951242817539423e+03
-1.252334858219002626e+03
-8.553527710924886378e+02
-4.563823829742547105e+02
3.709331762884905856e+02
1.304880011705588004e+03
2.172166846684826851e+03
2.721230073433945563e+03
3.253616671267057882e+03
3.241577345356607566e+03
2.902784284017871869e+03
1.883380730397604111e+03
1.039070461886144585e+03
1.940268858872147462e+02
-6.958826045383545988e+02
