-2.334260727587675774e+03
-2.006004454384268229e+03
-9.557498155966283093e+02
6.795449368008944475e+02
2.260921507555388871e+03
2.927504797473971848e+03
2.107253044383905035e+03
-6.979945241330899819e+01
-2.437595959293814303e+03
-2.473181126227100322e+03
-2.386648647397075820e+03
-2.393909950719177232e+03
-2.176932808028670934e+03
-1.501700538378841202e+03
-1.962171229546233462e+03
-3.375493860292076533e+03
-5.258838587319104590e+03
-6.375168824835909618e+03
-7.451503239748255510e+03
-8.609978955225162281e+03
-8.109864939960993979e+03
-5.600154274955688379e+03
-2.903699954962100946e+03
-3.564433254810675407e+03
-2.441351267341126913e+03
-1.466429810964479657e+03
-8.476381398477093398e+02
-6.539377873167518374e+02
-2.484140730488491613e+02
3.258997773359134044e+03
5.341359054885342630e+03
5.646596505448010248e+03
5.250784477833867641e+03
5.422003139128039948e+03
5.035182221940623094e+03
3.495179812821579162e+03
1.887898679784957039e+03
4.513671453768274091e+02
-6.795326907122478133e+02
-1.503931651321451227e+03
-1.430874324186723015e+03
-1.060450395475286086e+03
-2.366328560929569562e+02
1.568670251396160438e+03
2.952557071571102824e+03
4.058204115643769910e+03
4.372658389686341252e+03
4.093892835220652614e+03
4.206867851535612317e+03
4.638465023053238838e+03
4.875635902394640652e+03
5.063528546525497404e+03
4.734249077040449265e+03
3.613769475523172787e+03
2.249046091659736248e+03
4.949689991808274385e+02
-1.152482085861907080e+03
-2.126359467277130079e+03
-2.678719361712219325e+03
-2.900615429656105334e+03
-2.558214556183387231e+03
-2.411617650770261207e+03
-1.804621858296442042e+03
-8.309973485061699421e+02
3.162720195861543289e+02
2.392026368588250079e+03
3.768392851529583368e+03
4.601474377375632685e+03
5.293305848875000265e+03
4.612825928385248517e+03
3.397997442078593394e+03
2.404895970601387944e+03
1.373697843518940999e+03
1.049555062601024019e+03
8.983820071773977816e+02
9.317072842577663039e+01
7.188657030471244980e+01
-2.205454512089858952e+02
-2.080188877770627641e+03
-3.146157822380488142e+03
-3.134559243042870548e+03
-4.446316603990729163e+03
-3.709481029670957014e+03
-1.461270498426530821e+03
3.603948725230951595e+02
2.025556503880544142e+03
3.874253204529547475e+03
4.735474098506252631e+03
4.747302666699156362e+03
4.420702850245236732e+03
4.033592651256288264e+03
3.447965350258434228e+03
2.880878418542962663e+03
1.917349696896556907e+03
8.353737860182870918e+02
-7.154477734905266395e+00
-9.893096250673347640e+02
-1.999081955429810250e+03
-2.826589482432053501e+03
-3.520046997295040910e+03
-4.245583488974911234e+03
-4.042188302879873845e+03
-2.907815532990051452e+03
-1.459390787498318332e+03
3.077315054221971380e+00
1.188594115435252661e+03
1.007172530015966004e+03
6.048051434075257475e+02
1.384594506279855295e+03
2.301502918315103216e+03
2.631389214805712982e+03
2.589164490353031397e+03
1.004952499865077584e+03
-4.981970510443683224e+02
-4.653623301710283613e+02
-3.056375039276193775e+02
-9.040755251013760017e+02
-2.884836372706636666e+03
-5.326990243998921869e+03
-6.753660903850386603e+03
-6.210996882151053796e+03
-5.154029287330924490e+03
-4.993742679553109156e+03
-3.578096660189227805e+03
-3.290716065060509550e+02
2.487352635325404663e+03
2.243195624643602969e+03
5.505369699519106916e+02
-1.956808490919179349e+02
-8.395389143154551093e+00
-7.507919394354955784e+02
-1.392879970353644694e+03
-6.346273963471476236e+02
2.299738001875169289e+02
1.195963649173350632e+03
2.295251259234537429e+03
1.242697215534981979e+03
-1.602872385969033985e+03
-4.659492584923908908e+03
-5.869226313388452581e+03
-5.227279884019166275e+03
-2.468696652277255907e+03
2.161660907225483896e+01
6.116818586400346476e+02
1.343484592487444615e+03
3.135088599657233317e+03
4.472443713353407475e+03
4.097990578783144883e+03
3.744844089662831266e+03
4.427853686891004145e+03
5.225416632109408056e+03
5.437828318046135792e+03
5.560010209781633421e+03
5.109123322669048321e+03
3.576932255385478584e+03
1.994170497207208427e+03
4.250387885973295852e+02
-1.781487812180440187e+03
-3.002202606749273400e+03
-2.624578254304522488e+03
-2.868617772973821957e+03
-4.108550650893585953e+03
-4.966812603031881736e+03
-2.819861697519821973e+03
1.829359049680717817e+03
4.688998622329135287e+03
5.238177662297629468e+03
5.080988702712090344e+03
5.953022811577910034e+03
5.933521827271686561e+03
4.917789561860005051e+03
3.823407203293801558e+03
3.618424285921287265e+03
3.347005974608189717e+03
2.943282727499851262e+03
1.894892524494492363e+03
6.910408114587904720e+02
6.284230980444395982e+02
-9.659031151325889368e+02
-2.123058917620081957e+03
-2.130147130671469768e+03
-3.037242062201418776e+03
-2.692232117228120387e+03
-8.693362432322677478e+02
6.364683588460454189e+01
7.402781919341473440e+02
1.847318474937007068e+03
3.733902110510840430e+03
6.274957995790930909e+03
6.546326445948525361e+03
5.638993386406706122e+03
4.771080088086764590e+03
4.572725385804301368e+03
4.534926489262705218e+03
4.094574599890657737e+03
3.388454235557208904e+03
1.908491813469635645e+03
7.869454353337013686e+01
-2.916987431819752146e+03
-6.606710089969222281e+03
-7.992584874583678356e+03
-7.780509524611460620e+03
-7.399397972927077717e+03
-6.445176553013290686e+03
-4.576698202108255828e+03
-2.585883156160151430e+03
-1.935698988301532609e+03
-1.471181344484746432e+03
-6.491112940060108940e+02
-6.734409168229315412e+01
5.500683528099847308e+02
-1.868868755046803756e+02
-1.439389336872435933e+03
-3.544113660280461318e+02
1.877147064252733571e+03
1.980281486550363525e+03
-1.309008223590354191e+03
-5.948653224469085217e+03
-7.165887203856465931e+03
-7.313764291268734269e+03
-6.923998985026957598e+03
-6.679433184656685626e+03
-6.166975512819304640e+03
-4.992574038274774466e+03
-3.814157376045927776e+03
-2.663642389333793744e+03
-1.676000416816563529e+03
-1.334049126037016777e+03
-1.388828552471153898e+03
-1.131548972645075764e+03
1.447558031845174355e+03
3.284303877596724305e+03
-6.913255756420052478e+01
-1.431426981993758773e+03
-2.242404549161986779e+03
-1.603550288951269749e+03
7.962180809662513639e+02
-3.642158929683040469e+02
-2.006042827697041048e+03
-1.778200541006863659e+03
-1.722625806774740795e+03
-1.762751074992085023e+03
-1.678677257408086916e+03
-1.232688706369681540e+03
1.051458869804639562e+03
4.720506416297669602e+03
5.673064530872232353e+03
4.803768649409182217e+03
4.810470105264747872e+03
5.024259391355978551e+03
5.453075862986594075e+03
6.226546980006480226e+03
6.078648974297587301e+03
5.908730331131404455e+03
4.676149651095567606e+03
3.339369472032643444e+03
2.476711893937816967e+03
3.040974596562901411e+02
-6.629408839006267726e+02
-1.092647977096751674e+03
-1.186414055844859604e+03
-7.820074786274774397e+02
-3.183918703244966082e+02
7.285760472425221224e+02
1.920797811811394922e+03
2.921432677690215314e+03
3.508038749895929413e+03
4.197304042936028964e+03
4.109254284720394025e+03
3.730681084959516284e+03
4.125350411957633696e+03
4.335712199528436940e+03
3.946342087899321541e+03
3.322840973470929384e+03
2.880737988039186803e+03
2.701318300221578738e+03
1.453918884600109777e+03
3.256781788688431334e+02
-1.075543371045357844e+03
-1.785182999788411280e+03
-2.025202086358984616e+03
-1.839179923404102965e+03
-1.377379241906190600e+03
-5.084979864772524394e+01
1.981783254024573750e+02
9.774711234916766216e+02
2.387001707390230422e+03
3.083252542718253153e+03
3.045354520232325285e+03
3.797543957298478290e+03
4.575606182093294592e+03
4.525841779944796144e+03
3.706635247834290112e+03
3.334215242450315145e+03
2.937858405960602340e+03
2.397048285131555531e+03
1.691637794674798670e+03
7.411765911621998271e+00
-2.035221630680184717e+03
-3.782267404977584647e+03
-4.557877137264966223e+03
-3.139519938009987527e+03
-1.007231430584679401e+03
6.468799732854055264e+02
1.675739874447316652e+03
2.069564595307716900e+03
1.959406132213491901e+03
2.697754701084464614e+03
3.843590871176334076e+03
4.563597684851414670e+03
4.507508542855710402e+03
4.121335557726648403e+03
4.056734228376233659e+03
3.467166227752828490e+03
2.585176858758780781e+03
2.482209051306375386e+03
1.217314159033979649e+03
-1.064170369153943511e+03
-2.610912212065419681e+03
-2.633215743450614355e+03
-1.863876716567467611e+03
-1.974793201050867310e+03
-2.028639961619881433e+03
-1.073968950451483124e+03
3.764736862534646207e+02
1.515392219893257106e+03
1.951309272345861245e+03
7.537300597452787088e+02
-1.333694359899312076e+03
-3.392050756164512222e+03
-3.513911457516817336e+03
-3.132544777902972783e+03
-3.031897133159508485e+03
-3.538294380554672443e+03
-4.295232462110418965e+03
-5.209884633003356612e+03
-6.303770600239830856e+03
-6.462153865180498542e+03
-4.513812756331215496e+03
-3.741477652000505714e+03
-3.940176282671120589e+03
-3.714486373011553042e+03
-3.240056123347920220e+03
-2.568981751296286802e+03
-9.142322763361074749e+02
5.154777019501897257e+02
6.286528783579028641e+02
9.987836016231559597e+02
9.936688463825820463e+02
8.782410195946323483e+02
8.246040514915620179e+02
7.703625994678612869e+02
4.499817496325209163e+02
6.442431523796592501e+02
5.773904673744931415e+02
-4.195390257338801234e+02
-2.209558483630501996e+03
-3.599761015559354746e+03
-4.671193269691514615e+03
-5.421581534777589695e+03
-5.646358553721501266e+03
-5.822975733100496655e+03
-6.109912083675309077e+03
-5.951422421696220226e+03
-4.047137040370892919e+03
-1.633786630541513432e+03
-9.686378341822554603e+02
-1.420242994666101140e+03
-1.278540024267941135e+03
-9.857218330593123028e+02
-9.335203702129764451e+02
-1.346756818758917007e+03
-1.227257947604912488e+03
-1.082110697236589203e+03
-1.278861867721927410e+03
-2.216891107245161038e+03
-3.823889794136856381e+03
-5.198213180655071483e+03
-6.643080255518678314e+03
-7.495163577401231123e+03
-7.788986803798733490e+03
-7.941014034533897757e+03
-8.056484411908118091e+03
-6.935446916340509233e+03
-5.563096685953330052e+03
-3.797618937196880779e+03
-2.819762249367427103e+03
-2.439064381398067326e+03
-2.396429718523660995e+03
-2.129789926846161507e+03
-1.574968385946154740e+03
-1.438192728968006122e+03
-1.384587268871485094e+03
-1.999792455392574766e+03
-2.394260857108567961e+03
-2.833357555603435230e+03
-3.953816965770659408e+03
-5.352502971898505166e+03
-6.819909359960474831e+03
-7.905217106628719193e+03
-8.515096762969844349e+03
-9.118566264727538510e+03
-1.195062154872552492e+04
-1.178983288920064660e+04
-7.390323464011146825e+03
-2.834811610707778982e+03
-2.756615065199873698e+03
-2.008792675776373699e+03
1.489285806671275338e+02
8.541459354387139911e+02
1.227723244226719771e+03
-8.165045033679357402e+02
-8.178371687975901523e+02
-1.224547389605364742e+03
-5.524054947873154333e+02
-1.960228017674053945e+03
-2.483175420756266703e+03
-5.699273656821956138e+03
-3.079674722876195574e+03
-3.414661785780372611e+03
-5.673698775658500381e+03
-5.689097198642502008e+03
-3.226502390575905793e+03
-1.935592598791775572e+03
-3.242563441509006680e+03
-1.404666181151982073e+03
5.725681817936117568e+02
-1.256581496405103053e+03
7.179110601219141472e+02
1.381714295577764233e+03
3.775880660277412517e+03
3.049934163953798361e+03
4.926627044845979981e+03
6.211889927161147170e+03
4.892473134278383441e+03
5.096081118987451191e+03
3.494220302098929551e+03
1.489439900948250624e+03
9.344328069374795120e+01
-4.212261302354594591e+03
-5.767251776911103661e+03
-3.753161320391415302e+03
-2.407413004378106507e+03
1.426954895749859361e+03
4.640839614876003907e+03
5.222004245024813827e+03
6.334215561130276001e+03
8.895984505718946821e+03
1.233749028307087247e+04
1.547202809252856241e+04
1.746798986276678988e+04
1.756958457388486568e+04
1.731717617156710912e+04
1.732244892826328578e+04
1.728178545705864599e+04
1.623264811079193714e+04
1.426545298693093719e+04
1.229235389976605438e+04
1.096257864646470080e+04
9.748707040914656318e+03
9.375338766368275174e+03
9.432790705746752792e+03
9.296597957332865917e+03
8.817236835968171363e+03
1.053696958469407036e+04
1.348278517729404848e+04
1.680698266438800783e+04
1.977731026209731135e+04
1.943748486252150178e+04
1.836640439547695132e+04
1.797221318245507791e+04
1.677458658218909841e+04
1.524863510857636720e+04
1.414496620538446587e+04
1.019327041343491692e+04
5.499733496071457012e+03
4.000829504907497267e+03
4.088936490348383813e+03
5.108444450293376576e+03
5.473623529562507429e+03
5.850707388927078682e+03
7.158244075940875518e+03
8.903704769193516768e+03
1.347044893699682507e+04
1.799707245657041494e+04
1.994252808367974649e+04
1.777247568936197422e+04
1.176928962433938796e+04
4.980560585190953134e+03
-4.989253644584495646e+02
-4.306955442848039638e+03
-2.656649193907209337e+03
8.243389212173268277e+01
1.336721941209662191e+03
2.139131342196529033e+02
5.566200275761642615e+02
1.937312849627434389e+03
-2.059246101780845038e+03
-9.221281148422156548e+03
-8.832917607677300111e+03
-5.362316023892424710e+03
-5.469974555771794257e+03
-1.090230784455970388e+04
-2.380622166909057341e+04
-2.981665322405612096e+04
-2.173451321028186430e+04
-1.214985758136598815e+04
-6.314702078723135855e+03
-4.100039059866526259e+02
1.163534274542531602e+04
1.789328984984306226e+04
1.779697935793446595e+04
2.314358676901461513e+04
3.003201746710216685e+04
3.252334663748755702e+04
3.351359464037606085e+04
3.044495545932828463e+04
1.578678520935494635e+04
-3.314654287346960245e+03
-1.295814074726156832e+04
-1.417853064986301433e+04
-1.427846965507144705e+04
-1.855545382613879337e+04
-2.853494146843200360e+04
-4.124354478377968189e+04
-4.583262939564435510e+04
-3.983369413070208975e+04
-2.656333151500456370e+04
-1.673490431255891963e+04
-1.055687890080262878e+04
-8.639752262030337079e+03
-1.656661666135237829e+04
-2.190817274011312838e+04
-2.458189034712280409e+04
-2.693319909885424204e+04
-2.021744857717699051e+04
-1.395508267495667860e+04
-1.168838417346634924e+04
-1.188470830882247174e+04
-1.244252936382042753e+04
-1.634021214373303701e+04
-2.397195478576801906e+04
-2.961797409953847455e+04
-3.013449311676852085e+04
-3.007458362952937023e+04
-2.682227193928156703e+04
-2.461174551184863594e+04
-1.737912868007024736e+04
-1.806246674616937526e+04
-3.031188648593335893e+04
-4.189549908888900245e+04
-4.938744963997843297e+04
-4.600395528829257819e+04
-2.852318524278239784e+04
-1.342922194425615089e+04
-7.162183077295185285e+03
-1.372211872889927872e+04
-2.850419841298655228e+04
-3.282671692819346208e+04
-2.538383723330971043e+04
-1.685270793995944405e+04
-1.417492248387379732e+03
5.884737278333080212e+03
8.539930704909116685e+03
1.253199333880346057e+04
1.322888650773785412e+04
2.467552734098042129e+04
3.998891049634433148e+04
4.004699933203897672e+04
3.265467990685539189e+04
1.745182030547315298e+04
5.083129082811514309e+03
5.305280753725716750e+03
1.172615290759914387e+04
1.049858658572801141e+04
5.410325974584161486e+03
2.745022872438918512e+03
1.494320387758002880e+03
6.362995615330146393e+03
1.916176703179459582e+04
2.460521438485378530e+04
1.261593035358695670e+04
-1.181244447171855973e+04
-3.749019732292283879e+04
-4.723951110369552043e+04
-4.755567662276385818e+04
-4.185703191377477924e+04
-9.438997745856990150e+03
4.697716003687617194e+04
7.179899878679182439e+04
5.184104668841795501e+04
2.071775389598341644e+04
1.829457627035782480e+03
-1.175149239809258324e+04
-2.904590844886494597e+04
-1.700055697320769468e+04
-8.109192471520158279e+02
1.059946718838768174e+04
2.979281881992056879e+04
6.779790506925202499e+04
8.645610063832844025e+04
8.356458802091809048e+04
7.091840975153403997e+04
6.021781100362492725e+04
5.624695674675208284e+04
4.828904427777005913e+04
3.697418925155948091e+04
2.876747389887434838e+04
2.282395895455886784e+04
2.397971144797805027e+04
2.645162914684103816e+04
2.778859498006291687e+04
2.682348003811167291e+04
2.140717898234572931e+04
1.199652510619006171e+04
2.257313201991580172e+03
-4.236697444375149644e+03
-7.199828682442965146e+03
-6.437344740897460724e+03
9.484763138332551762e+02
-2.348632272754552559e+03
-1.939221521318602390e+04
-3.384680747582744516e+04
-3.538961928063989762e+04
-2.574587839493650972e+04
-6.868961539625690421e+03
1.785673828324622082e+04
3.617080587276044389e+04
2.994785903227548260e+04
1.632638496852242679e+04
1.473277851908523007e+04
1.724743294256289664e+04
2.231976648052598102e+04
2.248421132660395233e+04
1.696514695558539097e+04
1.040393486478667728e+04
7.182843595511197236e+03
1.032221100085561920e+04
7.883309715121600675e+03
-2.593536522947013509e+03
-9.771151810616591320e+03
-9.815298733728268417e+03
-8.582798241386717564e+03
-4.636328843176723240e+03
-1.427522978082607551e+03
2.239968018231883434e+03
6.947429644223957439e+03
7.145127455938198182e+03
3.135371529868891685e+03
-2.084625400656954753e+03
-6.227633589739628405e+03
-6.060478617955935078e+03
-2.994000164746395967e+03
2.654029328618120417e+03
3.391761625470527633e+03
-6.059959344710335039e-01
-3.344906910877992686e+03
-9.601001360859603665e+03
-1.801266695248580072e+04
-2.451551191703137010e+04
-2.358752827680171686e+04
-1.988789740586676635e+04
-1.994059001866305334e+04
-2.177401157852554024e+04
-2.173593042176601375e+04
-1.380118973319264842e+04
-6.857384313871250015e+03
-2.229208382600204914e+03
-1.373143001722161671e+03
-4.761046830460621095e+03
-6.902623567792268659e+03
-5.983718682159538730e+03
-4.856888352153043343e+03
-3.663966682670953560e+03
-4.717459129987581946e+03
-8.949522198896880582e+03
-1.629156644391095870e+04
-2.503802803911672891e+04
-3.046671070084558960e+04
-3.313246533332304534e+04
-3.828982906186416949e+04
-4.529418297369673382e+04
-4.605234624596789217e+04
-4.166686276788611576e+04
-3.314685806806241453e+04
-2.299204628515822333e+04
-2.050879008831156170e+04
-2.089865189089068735e+04
-2.213680828366521018e+04
-2.117283653745215634e+04
-1.812613473821207663e+04
-1.593688341091809161e+04
-1.545562437544611566e+04
-1.527659188035137777e+04
-1.531606486674173539e+04
-1.578736912060765280e+04
-1.722650759431930419e+04
-2.321587263029845781e+04
-3.133300463989722994e+04
-3.557707202727656841e+04
-3.498949948586581013e+04
-2.983450798263996330e+04
-2.207508495608370504e+04
-1.374332822340747589e+04
-8.112463618598827452e+03
-3.235612205630514836e+03
1.828200930559980634e+03
3.922042370435251996e+03
4.653086764811104331e+03
7.756395255498900951e+03
9.954997678284038557e+03
1.113094059260993890e+04
1.068525870920381931e+04
8.055109386364598322e+03
3.531710753483641838e+03
4.250784977248326868e+02
8.435873323668118928e+01
-1.713788894745959510e+02
2.204034496358116485e+03
5.315830019490933410e+03
7.363245410006929887e+03
4.652279790590368975e+03
-3.569562607937492089e+02
-1.457294800591688272e+03
2.546615469960043470e+02
9.010482634667872844e+03
1.939757369703477161e+04
2.414925824095331336e+04
2.404601947151706190e+04
2.261325793306963169e+04
2.224633329655890702e+04
2.154485493569782193e+04
2.256623312277451259e+04
2.394460957919295834e+04
2.512728217523370768e+04
2.464652212830157077e+04
2.189774932501079093e+04
2.001133498580825835e+04
1.787856036047418820e+04
1.337881812490881748e+04
8.387236495356664818e+03
7.940170457610019184e+03
9.676146323279363060e+03
1.254296188722995976e+04
1.658650640234144521e+04
1.881850563557015630e+04
1.776853065575335859e+04
2.082299657330499758e+04
2.381497063530823652e+04
2.713778927032073625e+04
2.821895010067996918e+04
2.776306428620092993e+04
2.582042445759719703e+04
2.385229806048247337e+04
2.176652215380737107e+04
2.091683466769849838e+04
2.116911622843509031e+04
1.954948562014177514e+04
1.632258298285740966e+04
1.321629318304010667e+04
9.754754966556794898e+03
8.809031348063073892e+03
8.015347608784834847e+03
7.718814525841658906e+03
8.803002551202231189e+03
1.071021172233177458e+04
1.194418601810152904e+04
1.339158349791109868e+04
1.618819246207010474e+04
1.711392616051900404e+04
1.556790656662496804e+04
1.248962731145738326e+04
9.085413894737859664e+03
7.158885340218726014e+03
5.683399740003046645e+03
3.395848006001980593e+03
-8.199984607959742107e+02
-5.237367852011375362e+03
-8.510961157430690946e+03
-1.048217319969325945e+04
-1.287319317234460323e+04
-1.365337262837393973e+04
-1.427100382304029699e+04
-1.511981163946883862e+04
-1.422837438777602256e+04
-1.353237717853013237e+04
-1.357252203656173333e+04
-8.413386967967908276e+03
-5.604992612871496931e+03
-4.382266764791455898e+03
-3.692128132862672373e+03
-3.265427464544603936e+03
-3.681143597028931254e+03
-3.160585826534531407e+03
-2.669674595473398313e+03
-4.307889003879819938e+03
-6.516102883791882959e+03
-9.536039748482420691e+03
-1.238028376799326179e+04
-1.504488143067990313e+04
-1.703420545661959113e+04
-1.793014680426816267e+04
-1.821712330366081733e+04
-1.770835506413563053e+04
-1.625621909564975795e+04
-1.509127840428041418e+04
-1.283253345740757140e+04
-1.022687112474457717e+04
-8.487512675094438237e+03
-7.317372440724095213e+03
-6.785834371468347854e+03
-7.151176587347131317e+03
-6.980139670987925456e+03
-6.932938750899314073e+03
-7.034848183253378920e+03
-6.666617803301236563e+03
-6.829389731481625859e+03
-8.244619011876167860e+03
-1.015022888697331473e+04
-1.236197893241068596e+04
-1.398978428587851522e+04
-1.429294281097159001e+04
-1.441637963969150042e+04
-1.365525308867303647e+04
-1.174326198017137540e+04
-8.581415611605600134e+03
-4.897147182199976669e+03
-2.569650680877089599e+03
-1.021989193368731549e+03
4.108117536821310409e+02
1.193058806665660313e+03
1.889087549962244566e+03
2.586095405748505527e+03
2.891719004782775755e+03
2.963660223160402893e+03
3.060240605633264295e+03
2.644494556063808886e+03
1.646650401139968835e+03
-4.298299430299178425e+01
-1.905229944453716598e+03
-3.595624077381227380e+03
-5.891229418265123968e+03
-8.435889244589603550e+03
-9.712316338080343485e+03
-7.990082345611573146e+03
-5.494027684296961525e+03
-2.551576768803405230e+03
4.946745598119845226e+02
2.447026324581644531e+03
3.476920350537792274e+03
2.695199842840675501e+03
2.423338007805718462e+03
3.773886293280575956e+03
6.714127958807780487e+03
1.002910732172525604e+04
7.523697441643096681e+03
6.789804954140248810e+03
7.002245096991027822e+03
5.497481678327818372e+03
3.655401886188304161e+03
2.232007777146417993e+03
1.487886740603132694e+03
1.061476283166997973e+03
1.160300006588311362e+03
1.981325641061110900e+03
3.915526164734345912e+03
6.161493308144322327e+03
8.169089882224925532e+03
9.165348698414123646e+03
9.511492844614207570e+03
9.836995809511754487e+03
9.997182405647770793e+03
9.923284142302798500e+03
9.103161570028347342e+03
8.084533286973782197e+03
6.785144006417598575e+03
6.347463518213856332e+03
5.111292520798336227e+03
2.237935404645585550e+03
-4.293716211359767385e+02
-2.476507349376962338e+03
-3.704537713015235568e+03
-4.176490088849466702e+03
-4.133238184483541772e+03
-2.970628377922784239e+03
-7.927624298429342389e+02
1.163324473897712551e+03
2.641998639677698065e+03
3.540040796375822993e+03
4.044194255180473647e+03
4.506829154289558574e+03
4.593533550336872395e+03
3.909563700402713948e+03
3.616758662380039823e+03
2.712634412049487310e+03
1.878758164392638491e+03
7.119577635292300783e+02
-7.198377648027515079e+02
-2.954034358743405392e+03
-5.415673788987785883e+03
-7.362960627021559958e+03
-8.645873082519019590e+03
-9.254507249447999129e+03
-9.021041044830932151e+03
-7.762025693595580378e+03
-6.200908813268436461e+03
-4.693895327823982370e+03
-3.042123259662132568e+03
-1.623900840642644425e+03
-3.054124831100310189e+02
1.201819952292091216e+02
2.722577377572365549e+02
1.931161531508057578e+02
-3.531385231397873099e+02
-7.741084844184514395e+02
-1.468408279562364669e+03
-2.113013137995423676e+03
-3.033565245339928879e+03
-5.342051164395025808e+03
-7.216082635742265666e+03
-8.672601908579499650e+03
-9.652728921002630159e+03
-9.778162642455572495e+03
-9.381914573575040777e+03
-8.105803513682642915e+03
-6.324459675539676937e+03
-4.301466239585724907e+03
-2.405809429558134980e+03
-3.486352993235240092e+02
8.661155994238307585e+02
1.272512997238890421e+03
1.090759470202067405e+03
1.279088531941580186e+03
1.790784690220194079e+03
1.910111023922691857e+03
1.564989715133948721e+03
9.882741356344711221e+02
-6.773203066986017973e+01
-1.811814576355821600e+03
-3.633457164687906698e+03
-4.764051269927891553e+03
-5.235012859228067100e+03
-5.449777645887955259e+03
-5.022910832793595546e+03
-4.146142902636957842e+03
-2.398324129458549578e+03
-5.336093206221411265e+02
1.601776245549339365e+03
3.038850959638511995e+03
3.947779723934486810e+03
4.489619444445365843e+03
4.759292822074292417e+03
4.755598023079886843e+03
4.834505972250580271e+03
4.428639935843605599e+03
4.132467500234766703e+03
3.758698784049768619e+03
2.653727892785797394e+03
8.889836569421157719e+02
-3.868234709043794624e+02
-1.898956348807735367e+03
-2.812455925358145578e+03
-3.147451867791752647e+03
-2.883140802720949523e+03
-1.885309766841224018e+03
-4.758357251095519587e+02
1.412982262133088398e+03
3.581247202646599817e+03
4.397978407230712037e+03
4.813207676787670607e+03
6.259094761643888887e+03
6.647725737278015913e+03
6.848183249603258446e+03
6.400492894057147168e+03
6.046481023455266040e+03
5.803549180826358679e+03
5.307486153779696906e+03
3.919555246925622214e+03
2.171028023515739278e+03
-1.878692577854754404e+02
-1.039348089248346469e+03
-1.567798566801457355e+03
-1.961892200820161634e+03
-1.960944348501885770e+03
-9.737155769407602293e+02
2.981490809198190846e+02
2.076960520786356483e+03
3.955694396068379319e+03
4.795133897810021153e+03
5.116058798586543162e+03
5.845672102786041251e+03
6.230904529054612794e+03
6.474956903676686125e+03
6.381623959467818167e+03
5.619560537166993527e+03
5.180040311577557986e+03
4.388440650127348817e+03
3.517845369361834400e+03
1.652897366652176743e+03
-3.536149889337694958e+02
-2.113732501318827417e+03
-3.164754133170677960e+03
-3.061723635872514478e+03
-2.854414634228269279e+03
-2.185899335986518054e+03
-9.550904141235091629e+02
3.799561147889894528e+02
1.943286207890020250e+03
3.420707527225165904e+03
4.350286233855768842e+03
5.005191058316353519e+03
5.168840984281844612e+03
5.110425838522477534e+03
4.834623593958956008e+03
4.304193128875397633e+03
3.780221901806901769e+03
2.735761570997241961e+03
1.711753605488911717e+03
-7.189363213320311274e+01
-1.808056221064552346e+03
-3.038799556968725483e+03
-3.727216304104105348e+03
-3.952408056128443150e+03
-3.681320967763338558e+03
-3.261931093898021572e+03
-2.046211278896145586e+03
-2.606043212520102159e+01
1.372635120774263896e+03
2.030063491013468820e+03
2.417294989019504101e+03
2.527432093511140465e+03
1.407638773556662954e+03
-8.351001058110723534e+02
-2.772689781344205585e+03
-3.284086647359496055e+03
-3.794354755165560618e+03
-4.311463513225475253e+03
-4.849310244661622164e+03
-5.766044490841064544e+03
-7.683311692301792391e+03
-9.712180842459532869e+03
-1.034300138788732147e+04
-1.063468450076959925e+04
-1.043414481103700018e+04
-9.747947165753896115e+03
-8.426991916875953393e+03
-5.014123112686336754e+03
1.169663165333308967e+02
2.493374695342259656e+03
1.684116405125768324e+03
-2.170821754353129108e+03
-2.561377714988489060e+03
-2.141503408111664612e+03
-2.266199454305702147e+03
-2.381299404875308483e+03
-2.803750106803042399e+03
-3.564579783619976752e+03
-1.846739208755227537e+03
-9.652108863888524866e+02
-2.673017737199350904e+03
-2.391222172193099141e+03
-2.713921896796765850e+03
-2.528126071018864423e+03
-2.171937084479839086e+03
-1.658397271460893307e+03
-9.354494326841436305e+02
7.070573399438219440e+02
2.722350614724628031e+03
4.052566634599679674e+03
4.417667938984210195e+03
4.880682524631866727e+03
5.655555476915070358e+03
6.033260514411964323e+03
5.757838958297213139e+03
5.592521060263361505e+03
5.246543471253827192e+03
4.404950665130291782e+03
3.638589820999506628e+03
2.860290479904651875e+03
1.106049082667142557e+03
-8.921205808030601929e+02
-2.039274967780702809e+03
-2.835536573900194526e+03
-2.301145550498487410e+03
-1.276003161978449498e+03
-1.719613184205592518e+02
1.480032997557792214e+03
2.899179293705331020e+03
4.591635408447983536e+03
5.390360321694946833e+03
5.433439316473863983e+03
5.413794100320646066e+03
5.220380476427598296e+03
4.855366091791505823e+03
4.825867758753120143e+03
4.522799726853195352e+03
4.317146174851143769e+03
3.752212435093496424e+03
2.431056803812030012e+03
4.395157351400313814e+02
-1.258471125173840619e+03
-2.293936772969530466e+03
-2.701838560092790431e+03
-2.290169731767728990e+03
-1.735118645515035723e+03
-1.236620230561310564e+03
-5.754860897593844982e+01
1.274311468031335835e+03
1.547045487121793713e+03
2.052645530671324650e+03
3.576033275104872700e+03
3.822890138196419684e+03
4.589563717457616804e+03
4.737888944650660960e+03
4.670819223056539158e+03
4.507477369962224657e+03
3.385852438535217516e+03
1.687947992772090629e+03
-1.452885247262103974e+02
-1.303938539098128331e+03
-2.413028603643155748e+03
-3.549587810901323337e+03
-3.410664428493946616e+03
-3.045404588975286970e+03
-2.748935249758892496e+03
-1.668144203261328130e+03
5.920383762402331058e+02
1.418656482611813090e+03
2.575710135582980456e+03
3.252253986291571437e+03
2.559393412518374134e+03
1.760052439262076177e+03
1.590176451848079068e+03
1.308713768781759427e+03
1.068832660221552032e+03
2.245700416611636683e+03
3.072185362661056388e+03
2.329110960087753483e+03
8.414314478746072155e+02
-1.157937986591485242e+03
-3.074058233526763615e+03
-4.829083819074227904e+03
-5.365172469016691139e+03
-4.876429276940896671e+03
-3.589913600760661211e+03
-2.639588956388588031e+03
-1.863462238175014591e+03
-6.245468240169951741e+02
6.382627687991526955e+02
1.176092068746921996e+03
9.369014649656223810e+02
1.590597798453975201e+03
2.367122396160848893e+03
2.382374276779523825e+03
2.489275791947233756e+03
2.642906056523543612e+03
2.686176841267114924e+03
2.225052044671843305e+03
6.514169183901171891e+02
-2.742848958985523950e+03
-6.212863219438951091e+03
-9.260716052559411764e+03
-5.518500081473652244e+03
-4.067319819494298372e+03
-3.529303797323924755e+03
-2.858547428552345991e+03
-1.189098831909913315e+03
7.110383269508929516e+02
1.358857308189117020e+03
1.686350742529167292e+03
2.152544055641233626e+03
2.791398583809405864e+03
3.048828804593189034e+03
7.826706011567447376e+02
1.143088119839840147e+03
2.826985062177697728e+03
2.804331214158487455e+03
2.186163600993123509e+03
6.573469767346770141e+02
-1.095173357726278482e+03
-2.354676518063814001e+03
-2.799321113552263796e+03
-3.229345695796686869e+03
-3.693945752697135504e+03
-3.777850930689741745e+03
-3.076157352377400912e+03
-1.285048007814547418e+03
9.438268656869082633e+02
2.366209252565692623e+03
2.698045794007327913e+03
2.670358437244459765e+03
2.965247042862442413e+03
3.041696168683641645e+03
3.570283424689791900e+03
3.536200298350310732e+03
2.515623525766556668e+03
2.088462705918900610e+03
2.329721206949500356e+03
1.122264139267583232e+03
-7.599400092398547031e+02
