3.840492188210659606e+03
3.944744839272448189e+03
3.876068138388729039e+03
4.007303903279179849e+03
4.217603959045871306e+03
4.172131351778944008e+03
3.785943734630815925e+03
3.071265529323841747e+03
2.175166324057764996e+03
7.153116491389367866e+02
-7.843945595597623424e+02
-2.084415185432030285e+03
-2.263292473027864617e+03
-1.821795348214814567e+03
-1.838965123238422848e+03
-2.226580451693299892e+03
-1.003821153578798999e+03
1.146907909456468957e+02
1.238095544602662812e+03
2.555182389224989038e+03
3.281008176123121302e+03
3.314041630815879216e+03
2.929146661635707915e+03
2.663785455883876239e+03
2.970702888071160487e+03
3.363353819195845972e+03
3.384368444397547137e+03
2.984652509481337802e+03
1.660969586975861148e+03
-1.539579836455347674e+02
-1.563978693224808467e+03
-2.253331980125141854e+03
-3.003157169542985230e+03
-3.624030685751928559e+03
-3.292536972307265842e+03
-2.626991771030272503e+03
-1.551953183467009012e+03
1.071952800021378316e+01
1.310111463277792382e+03
2.089555207755289757e+03
2.504110706413307526e+03
2.442930251137427604e+03
2.469977998711132841e+03
2.728497143921256338e+03
3.096677001493072112e+03
3.274845218272887905e+03
3.624846914307447150e+03
3.143176708516495637e+03
2.200687963182792373e+03
6.645133798629053672e+02
-8.154193509694672457e+02
-1.637450109293007017e+03
-1.900960784188975140e+03
-2.229093975115981266e+03
-1.939786871875399356e+03
-1.165924093942488071e+03
3.433624296838360124e+01
1.883045439255940664e+03
3.425368222180311932e+03
3.874324499528734577e+03
3.936930910550879616e+03
4.511143816571461684e+03
4.598079587445726247e+03
4.203795718846457021e+03
4.009337582011312406e+03
3.634935394890201223e+03
2.179687951613832411e+03
-2.245770925470866644e+02
-3.221206256485072572e+03
-8.251955995796239449e+02
-6.573295539478623368e+02
-6.647824116615562161e+03
-1.041902276211433309e+04
-1.063176280352474896e+04
-1.016092392284550988e+04
-9.257628240427551646e+03
-8.202829171428660629e+03
-6.626510813104782756e+03
-5.717474038691689202e+03
-5.464486132204619935e+03
-5.617852170717207628e+03
-5.354640662328076360e+03
-4.571731254412008639e+03
-3.604104670228992745e+03
-1.185709580702268568e+03
1.124439378078316622e+03
-2.361606531088964402e+03
-3.561749760343518119e+03
-4.153998184296879117e+03
-5.403386079071870881e+03
-6.660092460870519972e+03
-7.423080094518011720e+03
-7.668206535811434151e+03
-7.723595130843527841e+03
-7.609438620527330386e+03
-7.043689483198345442e+03
-2.665220347903878519e+03
3.200046677101634032e+03
5.601211245895353386e+03
6.481321557750980901e+03
6.693409104124446458e+03
6.477482645172343837e+03
6.244673467832195456e+03
6.055036528310561152e+03
6.097624992656077666e+03
5.855482396299634274e+03
5.607647470027657619e+03
5.253216867830251431e+03
4.026180415654863737e+03
2.515501936164409017e+03
1.078234674110927017e+03
-1.056313256407454588e+02
-5.691163992808877765e+02
-5.473587531830852413e+02
-1.742885357719050035e+02
3.902180868058372880e+02
1.918229069869867544e+03
3.426759887961045024e+03
4.152911294372239354e+03
4.428744447373791445e+03
4.730260808976077897e+03
5.703609904777070369e+03
5.648821408066109143e+03
5.198892182849397614e+03
4.846919327953106404e+03
4.734054488564785061e+03
4.361369275617747917e+03
3.822805370145705638e+03
2.734286314545632649e+03
1.185941011270881290e+03
1.418495675454744855e+02
1.539760284113646946e+02
3.441947147404194993e+02
4.553623244005935931e+02
3.728430309411953658e+01
-3.449180038914103079e+02
-9.987236800347700694e+01
1.596032823254028926e+03
3.007836298847484159e+03
3.968362171513229441e+03
4.074605303751759038e+03
3.758546546744380976e+03
3.396112816588119586e+03
3.326338497022320553e+03
3.341308604230991477e+03
3.131023596661632382e+03
2.565499859886458580e+03
1.905712919582306540e+03
1.280644084928677557e+03
-3.907677595705509930e+02
-1.975780957464357243e+03
-2.434484081503102061e+03
-2.655958671982033593e+03
-2.824302221281316179e+03
-2.696576294737561966e+03
-1.603703616972648206e+03
-5.256614661646262903e+02
1.255213878771060081e+02
1.286955145464211682e+03
1.282640304531012134e+03
4.995621017866143347e+02
1.956943230422525346e+02
7.510133939670057543e+02
1.387484378727950570e+03
2.125055752894908437e+03
3.101661460080411871e+03
2.991374306245280877e+03
1.807206853167780537e+03
8.310158386864986824e+02
-4.732624600055139013e+02
-1.422690993637394286e+03
-1.137306496707320548e+03
-1.619240836800221587e+03
-2.511707151776951378e+03
-2.878803005261731869e+03
-2.715587669782081775e+03
-1.613059241438084428e+03
3.473061612406998222e+01
5.568473043435755017e+02
5.642702219452604595e+02
5.429252774775319494e+02
7.887620293380945213e+02
1.173703126028732186e+03
1.018714318596709290e+03
8.397485462377244403e+02
1.918222757008658448e+02
-5.621481782594606784e+02
-3.832208558566603074e+02
-9.984665926054507281e+02
-1.679027170002033017e+03
-2.014987412194112949e+03
-2.309426869877950594e+03
-3.232614402033205806e+03
-3.861661174932635276e+03
-4.268628176149590217e+03
-4.894595935345301768e+03
-8.164591181814462288e+03
-9.125606405490601901e+03
-7.419702024072014865e+03
-2.386973850643582409e+03
8.853618602756756673e+01
-5.981104157031533077e+02
2.449241629103205469e+02
1.803602733723169649e+03
2.365829487790345866e+03
1.556683531569831985e+03
1.260212364925981774e+03
1.170265209691385962e+03
6.587074540418292372e+02
-4.656820617080538796e+02
-1.941839683518353013e+03
-2.735558116592888837e+03
-1.926140633065569546e+03
-1.627925493928067681e+03
-1.361252820940060246e+03
-9.067793643602026350e+02
-9.505239879412324626e+02
-1.303428118657373943e+03
-6.360005819582163440e+02
4.792780419436197121e+02
9.448518399682591280e+02
1.463082248627858462e+03
1.089959511603913143e+03
1.407586405135984705e+03
1.508580223170203226e+03
1.827890028624323122e+03
3.164336147409008390e+03
3.496866945259940167e+03
2.097986170186181425e+03
-7.103895804562563310e-01
-1.323303744949059364e+03
-1.411761871504989585e+03
-1.806130763254638850e+03
-3.096569935802956024e+03
-3.600460415312130408e+03
-2.013717126710385855e+03
-6.371252115065973385e+02
4.424114253770085270e+02
1.389909333617779339e+03
1.404305454432987062e+03
8.659072621199876494e+02
6.835977937899918970e+02
2.930960374468584178e+02
1.164343246381471090e+03
2.504374331582235754e+03
2.738054809759541968e+03
2.896521194664665927e+03
3.248653476573758326e+03
3.169412189318777564e+03
2.016859496370266697e+03
2.104118875631407661e+02
-1.087636493504383225e+03
-2.135140757402304189e+03
-3.056164975475864594e+03
-2.432840814625902112e+03
-3.000592146068347574e+02
1.062300806131612489e+03
9.173758001842508065e+02
1.282463121394100654e+03
2.226536205782927482e+03
2.616650290526720710e+03
2.439091576978209559e+03
1.048797713814725057e+03
6.529227124452938824e+02
1.486435465555277005e+03
3.872174389031839610e+02
-1.464933082391280266e+02
1.505539031067437236e+03
1.224287579264293299e+03
6.520467831416654008e+02
-3.702505853398587988e+03
-6.258950026646493825e+03
-4.125707882358805364e+03
-1.609944476238265679e+03
-1.141835340117244414e+03
-1.051591074544043522e+03
-2.734606755109962251e+03
-3.797352905872578958e+03
-3.340824200008488788e+03
-3.269136291629797029e+02
7.101441263405913560e+02
9.677000758590033911e+02
7.036166921894588313e+02
1.574500214131489201e+03
-7.844797401023556631e+02
-1.271296869307735960e+03
-1.149646162626449041e+03
5.655591131855330467e+00
-2.106836382271448201e+03
-1.134981042960304876e+03
-4.132537021574329628e+03
-3.450113688545396599e+03
-6.863963335062950136e+03
-7.827264704210135278e+03
-6.213604670846297267e+03
-2.505251956172888185e+03
-2.156043162584086986e+03
-1.924785091136723395e+03
-1.058298833896802762e+03
1.080924173407059470e+03
1.278839670428169939e+03
-1.345536112693131827e+03
-6.702018482807850432e+02
-2.268640367684148771e+02
8.584435917126896811e+02
2.221389653548620117e+03
3.622785171789004380e+03
3.416719327164370952e+03
2.944331610776971957e+03
2.675562338820607238e+03
1.514046963011113348e+03
7.450808370869938244e+02
1.354106690577457641e+02
-4.466047244745358284e+02
-5.261791311215076803e+02
-2.991547902942099881e+02
4.651472202808366774e+01
4.666251977766238497e+02
1.223776248727898746e+03
1.837637351609015013e+03
2.484566606334326025e+03
2.934608800771364713e+03
3.352478949137203927e+03
3.010624708039442794e+03
2.834111173404690362e+03
2.924959478673375088e+03
3.937094895002435351e+03
4.149751524531837276e+03
3.114007911203533240e+03
2.199688139182943360e+03
1.072160506196934875e+03
-1.363353343351755598e+02
-1.061219178025238762e+03
-2.220341426402149864e+03
-2.225829389539450403e+03
-1.575794881755699180e+03
-8.870792601457161481e+02
4.997641306827035379e+01
1.103842247889024975e+03
1.513227035843380236e+03
2.242123224961585038e+03
2.765027740212883145e+03
2.600673756400718503e+03
2.657035266522995698e+03
2.729033468407087639e+03
2.790426339198424103e+03
1.267994118378392614e+03
3.385889880258878293e+02
1.392862939639617480e+03
2.206667821468629882e+03
1.325818376152356223e+03
-6.417536315200749186e+01
-1.157569614738529253e+03
-1.300706151407509196e+03
-1.258986685533063564e+03
-1.072521062796252636e+03
-4.968464671735708862e+02
-2.090378146118332552e+02
6.831011573402018939e+02
1.763636164229570795e+03
3.037008608569143689e+03
3.113673583298495487e+03
2.508019433642619788e+03
2.375229765237127594e+03
2.107355303473569165e+03
1.602251257060411717e+03
1.592395204908857522e+03
1.253912151084072548e+03
1.185527762924931721e+03
-5.304760424225973736e+01
-1.079319014791814425e+03
-1.377252886985591658e+03
-1.845279118451364184e+03
-2.260163410884378663e+03
-2.097660811643311717e+03
-1.752642381743268288e+03
-2.014820658700846707e+03
-1.597813831543410288e+03
-8.305402753372655980e+02
-7.943267217647871803e+02
-9.446818897465908549e+02
-1.662866005155028688e+02
4.595346876476247076e+02
4.393253769585350597e+02
-4.953242617719081409e+02
-4.929403473044157522e+02
2.686786784577540175e+02
5.724793204165697489e+02
2.254422082551835516e+01
-1.275932759616950079e+03
-5.057337726397568986e+03
-9.854300363117412417e+03
-1.376362032591662683e+04
-1.349694507034962771e+04
-1.303412612433907634e+04
-1.223760063837751659e+04
-1.158708888819246567e+04
-1.060265022996372863e+04
-1.014419122469856302e+04
-1.055116253466147828e+04
-9.938859306436583211e+03
-9.734299882975275978e+03
-1.009934006561120259e+04
-9.666914745578085785e+03
-4.412207405901547645e+03
-1.131307318373992075e+03
-8.852086872034024054e+02
-7.181188638938191389e+02
-7.108985762019063941e+02
-1.524245091405536641e+03
-3.066534951497795646e+03
-4.169924826640222818e+03
-5.106117074004762799e+03
-6.178637533338866888e+03
-5.689605571226978100e+03
-5.458361932653239819e+03
-5.192441033515788149e+03
-4.291763005221588173e+03
-3.245447147230768678e+03
-2.109929340877758023e+03
-1.263009744042269404e+03
-1.421326953242478567e+03
-1.436591829674484416e+03
-8.809753618203773158e+02
-8.331544878124218485e+02
-1.182874501731359942e+03
-1.466461677502443763e+03
-1.154143781451172572e+03
-1.141705731733661423e+03
-1.998083799273634213e+03
-2.683355909880028321e+03
-3.612484245116009333e+03
-4.227690426809761448e+03
-4.975595478147832182e+03
-4.951503734748561328e+03
-4.790712328462826008e+03
-4.196444982115607672e+03
-3.575164385389339714e+03
-2.521260878438618874e+03
-1.482752041675909140e+03
-6.493595689209761304e+02
8.257039510835903684e+02
1.172963907714106426e+03
1.355985237519482553e+03
1.583811973648886351e+03
1.542066635810055686e+03
1.841037489123908927e+03
2.504881822863769230e+03
2.308851763529972231e+03
1.394648709266777587e+03
3.537654084913313000e+02
-3.158103275669662935e+02
-6.400914532184218615e+02
-8.450749062390304971e+02
-8.258236377776697736e+02
-8.906725966091596547e+02
-5.198506309498599194e+02
1.026788322675370409e+03
2.146822227586623740e+03
3.434644926107008359e+03
3.609668579567258803e+03
4.039277137655983552e+03
4.972505838271526045e+03
5.303683791001596546e+03
5.110950519313873883e+03
4.119220127448456878e+03
4.969548566658874734e+03
6.742712795815688878e+03
5.234135517431123844e+03
4.607321186532965839e+03
2.753330292486665257e+03
1.085019935020542334e+03
4.178981834324576084e+03
4.175879410670861944e+03
2.533174740203484362e+03
3.794184793821600579e+03
1.810969354964693139e+03
4.575683744458280671e+03
4.583079494628138491e+03
9.667695003081271352e+03
1.246002482173632416e+04
1.340053634758139560e+04
1.224421946066428973e+04
9.276653592051558007e+03
1.036238000866716902e+04
9.090967499700143890e+03
7.611025668521157058e+03
9.232377329007973458e+03
9.038811123563744331e+03
1.175791753288950167e+04
1.017424825716302257e+04
4.731282818183008203e+03
6.863623996041884311e+03
7.357911807029485317e+03
4.519617317344260300e+03
4.719278307936815509e+03
7.675779634834720127e+03
1.077680800275986985e+04
1.532213020920070812e+04
1.685842554165329420e+04
1.693830481294436322e+04
1.684953171661940723e+04
1.821171549405233600e+04
1.589237411124025493e+04
1.424233344171172394e+04
1.409843505921669203e+04
1.676490706598698671e+04
1.490936316446794444e+04
1.086000007106162593e+04
1.087429915369814444e+04
7.775976101944951552e+03
4.241460487814658336e+03
6.308095684464731079e+01
-3.293101584197334887e+03
-3.785812413411185389e+03
-5.418892890282100780e+03
-6.921907780753276711e+03
-4.952469235336229758e+03
-4.036040715173175158e+03
-1.475634967584797778e+03
4.075695349329819237e+02
2.115351912459642563e+02
2.036260478616195769e+03
6.995394318474313877e+03
1.249347435983887772e+04
9.934292084177333891e+03
2.203670803915428678e+03
-2.545587535624192697e+03
-1.134853053399879173e+03
-2.274934974739448421e+02
-1.885075991369898020e+03
-7.324157881843061659e+03
-2.024354548894939217e+04
-3.028643467048692401e+04
-2.990904917872392616e+04
-2.910317195521148824e+04
-3.221419397297494288e+04
-3.112584447857243867e+04
-1.740106430262824506e+04
-6.271970680187007019e+03
-5.081440744170510698e+03
-4.906235201763570331e+03
-1.645443842531606060e+04
-2.931709919509183601e+04
-2.307120222204840684e+04
-1.359189367197377942e+04
-1.290965342085734846e+04
-5.502897913458402400e+03
7.015571678566336686e+02
-8.148073883442878468e+03
-2.770047543481911271e+04
-4.264564239042995905e+04
-4.568982948630844476e+04
-3.271378926347653396e+04
-1.399973473363634548e+04
3.032545083058063028e+03
1.004531275234785790e+04
4.866016943823727161e+03
-1.990830082509526164e+03
-6.326709452151542791e+03
1.336444809452213121e+03
2.056298781212860922e+04
2.718359419847498793e+04
2.222753742698023780e+04
1.853512707272855914e+04
1.359366194734152668e+04
1.825456702756912136e+03
-8.272082511966622405e+03
-9.547505122009541083e+03
-4.994346450965731492e+03
-8.690303059472277027e+02
-7.647110107371072445e+03
-1.664623713315905115e+04
-1.690006579342040641e+04
-7.586174136949238346e+03
-6.520309971219486442e+02
-1.519964784283052950e+03
-1.634485867365190870e+03
8.753889287037813119e+03
1.290271462099242672e+04
3.118645993178503886e+03
-1.054779824746316808e+04
-8.319041659914946649e+03
-3.902660833748194818e+03
-4.713072723377199509e+03
-7.023798341141852688e+03
-7.773717242600669124e+02
1.211574659619041995e+04
9.033195375592942582e+03
-6.728624292522856194e+03
-1.308718805856671679e+04
-8.411153168015574920e+03
-3.280185897082918132e+02
4.964784591950745380e+03
4.792634417793705325e+03
1.268950830382091908e+03
-2.754613972787261446e+03
1.702585161919801294e+03
1.913813656081877343e+04
4.973166284334364173e+04
6.121866511681407428e+04
4.391461517327801266e+04
1.739296657780382884e+04
-4.859712500044220178e+03
-2.407700129729485707e+04
-3.637367012082956353e+04
-2.574534704921474986e+04
-4.465416163590374708e+03
5.067691149059145573e+03
1.740434051411847395e+04
3.066188309328473406e+04
2.861360269007227544e+04
1.647272576557962748e+04
-1.497398090032255823e+03
-8.305402045539734900e+03
-1.702495444897997731e+04
-3.755274460787519638e+04
-2.871540429070657046e+04
2.047489992059582391e+03
2.919938412719538610e+04
3.486858861582064128e+04
2.339842801667402455e+04
1.399422002362254534e+04
2.308127332858921818e+03
-1.816763535450092604e+04
-3.502595963041583309e+04
-2.094164183376879373e+04
-2.951500604282015956e+03
-1.581396790370438111e+03
3.824817779622956550e+03
1.365424109518283149e+04
2.655492595288657685e+04
3.121994697637336503e+04
2.700240238800983570e+04
2.233626373084618172e+04
2.375155961337459303e+04
3.087640263391886401e+04
2.859093354340220321e+04
4.614129072340432685e+03
-2.077892194567249680e+04
-3.269024802333025218e+04
-2.941178480615693115e+04
-1.038862456352384652e+04
-3.020926868791287689e+03
6.916321486223037027e+03
2.109092081776570194e+04
3.199570473433382358e+04
3.446577662934933323e+04
3.881507141349582525e+04
3.382320146704134822e+04
1.479991450991954116e+04
-3.567652660605073379e+03
-1.093079603602219686e+04
-9.710843434965892811e+03
-9.559163613043630903e+03
-3.674013263953249407e+03
-2.361537676547375213e+03
-3.080027433458881205e+03
-4.419735539094995147e+03
-7.986804011624525629e+03
-3.091643143400612189e+03
-3.968088949712489466e+02
-5.195034801678630174e+02
8.550772031013371816e+03
6.573528798858674236e+03
-8.203770176416988761e+03
-2.034737641422200250e+04
-2.552269491072286110e+04
-2.874219571905628254e+04
-1.291927305465753125e+04
3.737624200697282049e+03
1.947391436784970938e+04
2.927216295097201873e+04
2.587188295384135927e+04
1.855957229262307737e+04
2.074692094672381245e+03
-1.778828022843929648e+04
-2.487774703576562752e+04
-3.099406382739546461e+04
-2.946671117700160539e+04
-1.084713588069411344e+04
1.582230227225814087e+04
2.921212340315847905e+04
1.288180995572663051e+04
-4.774203445574600664e+03
-1.386545204125237433e+04
-1.362740961431366122e+04
-1.313265311009264769e+04
-1.033534747661442680e+03
2.118440661390758760e+04
3.167662803620808336e+04
2.512851980225677835e+04
1.276257048669751566e+04
4.572247466971035465e+03
3.320008462920758120e+03
1.824274587890285375e+03
3.654542404913601331e+03
3.178424117646689865e+03
-4.673452668760647612e+03
-6.335427614065497437e+03
-6.213944982224754312e+03
-1.186945393103499555e+04
-1.439334508752542934e+04
-1.414812061136577722e+04
-9.038302015363982719e+03
-6.441332190745343723e+03
-9.050586411974720249e+03
-1.099948601776564647e+04
-1.248949570808170574e+04
-1.625200280353959533e+04
-1.817541818756335488e+04
-2.043912926484570198e+04
-1.979745620594282082e+04
-1.636882329316695723e+04
-1.916767897072905180e+04
-2.755840840420172026e+04
-2.867734533879709124e+04
-2.263264272955899651e+04
-1.303247752982987913e+04
-7.019184276643084559e+03
-8.569987457778790485e+03
-9.147068597839665017e+03
-6.609552146945494314e+03
-3.848968544889664372e+03
-4.665561372487060908e+03
-7.418123472776283961e+03
-6.638165391275742877e+03
-3.687790296970708823e+03
-1.444152474445397957e+03
2.142267264283068471e+02
-1.678600912404768223e+03
-8.643656759589162903e+03
-1.161933156535897433e+04
-9.216465623144165875e+03
-4.973594998752366337e+03
-2.602643893849512551e+03
-1.441116761593227011e+03
-3.162915016714367084e+03
-3.468967790152603925e+02
3.485099591286492341e+03
5.819259412965269803e+03
5.409251098534276025e+03
2.887328348045891744e+03
2.515576637783315164e+03
5.313723174436307090e+03
7.721815334659631844e+03
8.221613148819513299e+03
7.108458989408331945e+03
7.661783309940495201e+03
8.567074343159962154e+03
7.234486344082186406e+03
4.061391550698439005e+03
2.496689984225372427e+03
2.621944931491333932e+02
-6.850584685756641647e+02
-1.921178066456511260e+03
-2.743849224606992721e+03
-1.468755022319179034e+03
-1.714631118015222228e+03
-4.356460496923211394e+03
-5.315793025115853197e+03
-4.684386277731208793e+03
2.720898234102870902e+03
1.005697461849423053e+04
1.241934881051818229e+04
1.226735093516057532e+04
1.212990874006392551e+04
9.551475325231793249e+03
2.572247116953700242e+03
-1.994454227566769987e+03
-1.610389165820841754e+03
5.560490355606287267e+03
1.102050240782351466e+04
1.213781790351842210e+04
9.463361552122021749e+03
7.339373605933618819e+03
5.819969859026059567e+03
7.619386632786462542e+03
1.037600923312185660e+04
1.172497830437036100e+04
1.171121926127165170e+04
8.781872969607826235e+03
3.866740431607891878e+03
6.016583964204496624e+03
5.984528227958126081e+03
7.290266056079235568e+03
2.988982556101084356e+03
3.045023490084689456e+03
6.441883358600109204e+03
6.304704021104676940e+03
3.527728405011875111e+03
4.984363670865410313e+03
4.556728256411929578e+03
6.111292369645414510e+03
7.858860023823880510e+03
7.130451926187131903e+03
8.514180656240800090e+03
8.817903294595331317e+03
8.382995091675778895e+03
6.215730020313400018e+03
3.238642623471469051e+03
6.093502027957992141e+03
3.879036966268464766e+03
2.322980174188581259e+03
4.266838534592792712e+03
1.992720656005913952e+03
2.810918473299741436e+03
3.774601781924111947e+03
1.011878527256526127e+03
-5.905901004655616816e+03
-7.304040561421891653e+03
-9.317247468611789373e+03
-1.056364208624442472e+04
-1.207462542349354771e+04
-1.493210794841226198e+04
-1.250680920057995900e+04
-1.367778234383253221e+04
-1.437378421715218792e+04
-1.017579980214061288e+04
-5.914025818993729445e+03
-3.307448001824030143e+03
-1.898005967512002826e+03
-1.423450052317326254e+03
-2.323034472952580472e+03
-3.094659076576149346e+03
-3.814898657909571739e+03
-3.070294214473979537e+03
-1.823911433364167124e+03
-1.583818577322742385e+03
-2.968674308155522340e+03
-5.486089597455057628e+03
-7.621916057781355448e+03
-7.816142872025634460e+03
-8.081199845854452178e+03
-8.905153875863437861e+03
-9.341968082525962018e+03
-8.789327581976644069e+03
-8.056087438737191405e+03
-6.080655109684416857e+03
-3.847057265794687737e+03
-8.955855205429367061e+02
6.150471816103208766e+02
1.461046622408249505e+03
2.132665491673510587e+03
4.168085961637191758e+03
4.941299509078715346e+03
5.335296583619980083e+03
4.309445150806143829e+03
3.498104226081055458e+03
3.390966094152382993e+03
1.691057010379616941e+03
-1.533336683484591958e+03
-4.235979271861270718e+03
-5.260799088613281128e+03
-5.469587566615392461e+03
-4.721681192537236711e+03
-3.458648504485989633e+03
-2.047414520112932678e+03
-6.216561687342236837e+02
5.917760195757675774e+02
1.838028047135035422e+03
2.429537612361048559e+03
2.104648316497541600e+03
2.356404866942983517e+03
3.839500571212332488e+03
4.989290374922940828e+03
6.608111044856762419e+03
7.307986631613503050e+03
6.137226739477322553e+03
4.878324850390845313e+03
3.158885926476198620e+03
1.557183341114744508e+03
-3.925250552836829456e+02
-1.709132722959055627e+03
-2.962879755811925406e+03
-3.308060424092836456e+03
-2.966085512043567633e+03
-1.946590729623174411e+03
-8.816507099342388187e+01
1.688273362531946532e+03
3.444038663879193791e+03
4.521095369159518668e+03
4.565603207711857976e+03
4.614129851533371948e+03
5.020891023969762500e+03
5.322921612133138296e+03
5.225753736076631867e+03
4.877796856986452440e+03
4.422595742623760088e+03
3.438603972370635347e+03
1.615460953938067405e+03
-4.537580450058687802e+02
-2.683507369330074198e+03
-3.993293518556090930e+03
-4.901394567423709304e+03
-4.514922932604264133e+03
-4.629327238722521543e+03
-4.327223478650165816e+03
-3.419616365408081492e+03
-2.421809582194569884e+03
1.437403746967220286e+02
1.193686851002029925e+03
8.825277471655156205e+02
5.472678652042903877e+02
-9.025981614694536574e+02
-6.164252365719743466e+03
-9.611925103638124710e+03
-8.640250152151507791e+03
-7.858899834635326442e+03
-8.107445524997730899e+03
-9.522415071592715321e+03
-1.162867111839827157e+04
-1.340564429654337982e+04
-1.452400032716944224e+04
-1.559452030425096564e+04
-1.511013858897560567e+04
-1.477352849550189057e+04
-1.111620657163242140e+04
-5.111010654490968591e+03
-2.274594040922013846e+03
-2.817023403678650197e+02
-6.448794485970154255e+01
1.311411100250492382e+03
1.948195256751064562e+03
2.106468544867031596e+03
2.682171907374227885e+03
2.775841078561194536e+03
2.567161635882713199e+03
2.351777373052475923e+03
1.749062709850267311e+03
1.299214143075440916e+03
1.338112833905489367e+02
-1.691067834790629149e+03
-3.010706523421653401e+03
-3.954796896353053853e+03
-5.022234196819272256e+03
-5.106489080201095931e+03
-3.813944015517344269e+03
-2.471434320362565813e+03
-1.092218825426628655e+03
3.792640741251628356e+02
1.456612458104400957e+03
2.112485418240621129e+03
1.790390537957766810e+03
3.034504463764164939e+03
4.208927994283116277e+03
4.737502931523528787e+03
4.557935783296024056e+03
4.286715278196810686e+03
3.966602484325987461e+03
2.984614839883079185e+03
1.063425612166446172e+03
-1.502790399525222938e+03
-3.545224149347576258e+03
-3.729554331745415766e+03
-3.207937146956067863e+03
-2.488614889223671980e+03
-1.447587744377171020e+03
3.967546864359970868e+02
2.261483102560840962e+03
3.905535048581559749e+03
4.834554343225813682e+03
5.646810246368901971e+03
6.066812459795699397e+03
5.825730496322766157e+03
5.819620542253514031e+03
5.445772166596505485e+03
4.970179832382682434e+03
4.876139882594415212e+03
4.237611508065760063e+03
3.466266010891235965e+03
1.552604088926986151e+03
-6.278321619983175879e+02
-2.286433584362544480e+03
-2.356591780267910963e+03
-2.461637987826654808e+03
-2.445531094461873636e+03
-1.887622633091561738e+03
-4.607828096417807728e+02
-8.771846722926386519e+02
-2.657407541681981229e+02
2.984944733975853069e+03
3.322048850749386929e+03
3.247440784224647359e+03
3.180993609914974513e+03
3.540655835027958346e+03
3.955421013000277981e+03
4.136671172934599781e+03
3.796035303757399106e+03
3.612223274724722614e+03
2.581788125473772652e+03
9.706739761720415345e+02
-8.179717652415955627e+02
-2.191088699858652035e+03
-2.714516443312170850e+03
-2.907536662079063717e+03
-2.748235333867736244e+03
-2.841587469247689114e+03
-1.882284217178330891e+03
-1.050502700296488570e+02
1.545006316907151131e+03
2.152679541667588182e+03
2.601969593047014769e+03
2.787001409891469393e+03
3.064918740651186454e+03
3.127609989572259565e+03
2.921970846117475958e+03
2.745128464969139714e+03
2.782350196351633258e+03
2.232676745117263181e+03
1.510088977045375032e+03
-1.664726981696231078e+01
-1.840550910894772414e+03
-3.062550026604648338e+03
-3.166820579772172096e+03
-3.528308548936808165e+03
-4.169805785154921068e+03
-3.788421919328410240e+03
-2.393294534212713188e+03
-9.190519473270420576e+02
6.371781335100322394e+02
1.300692811262214036e+03
2.291651357328813901e+03
3.322039321309818661e+03
3.110058032539232954e+03
2.703123012452538660e+03
2.520144476326412587e+03
2.682570385646067734e+03
2.915675838722859226e+03
2.347485163241978171e+03
1.459278496710974650e+03
-5.976459970772574337e+01
-1.093716738153982988e+03
-2.281563748069226222e+03
-3.535579212875369194e+03
-3.809007075775377871e+03
-3.948888397880845787e+03
-3.191134267128602460e+03
-2.556570388972720139e+03
-1.315916129895929771e+03
4.003505619011663725e+02
1.459251086861993372e+03
2.168563384149113517e+03
1.985781360964753731e+03
5.155992825234161501e+02
1.058607511170755970e+03
2.275979780469676371e+03
2.834794142192065010e+03
3.281345735387290006e+03
3.311827773019402684e+03
2.390299987735066679e+03
9.336604910513549385e+02
-1.109898312431795830e+03
-3.300611526594155748e+03
-4.192484226542291253e+03
-4.282512917375417601e+03
-4.129668188928061682e+03
-3.425880306526846653e+03
-2.621655921219084576e+03
-1.498579202638742800e+03
-5.045740070408502334e+02
9.770126505924406501e+02
2.245310861380441111e+03
2.666783425389259719e+03
3.188240558684401094e+03
3.739218625544926908e+03
3.749361149205885340e+03
3.349842276472708363e+03
3.113646412557714484e+03
2.301648614541181360e+03
2.132695965365318443e+03
9.138778325228716994e+02
-1.534157350352829781e+03
-2.794178866842324624e+03
-2.792397694297245380e+03
-2.705495209306378911e+03
-1.862255037490955829e+03
-8.416901599498404494e+02
4.410624991047967001e+02
1.898084334203618710e+03
3.197502697737136259e+03
4.294315403797055296e+03
4.514414115932345339e+03
4.299580485230540944e+03
4.557743116276305955e+03
4.809920541621163466e+03
4.710218777655743907e+03
4.399607147657285168e+03
3.931943963376690135e+03
3.764191511648887172e+03
3.389330339608185113e+03
2.459337797290401795e+03
1.093130904448286856e+03
-4.563782489025118139e+02
-1.450278345831428396e+03
-9.557549785181259949e+02
-6.018979250292260303e+02
-8.298542095074794815e+02
3.044723841385134051e+02
1.821142111550558866e+03
2.917192103738956121e+03
2.764443456340779449e+03
4.580058550732356935e+02
-3.634076560727545711e+03
-5.127724209007788886e+03
-4.882156066175302840e+03
-4.488192030738027825e+03
-4.391624285559925738e+03
-4.312538900087989532e+03
-3.933857528133919004e+03
-4.342680763089356333e+03
-5.429105880241499108e+03
-6.789253640259699750e+03
-7.628187649645574311e+03
-7.836901651622909412e+03
-7.735367071081750510e+03
-7.099595373570378797e+03
-1.535655185979540192e+03
4.454941406375483552e+02
1.609937666114734157e+03
2.244705024784802390e+03
6.957982460731967649e+02
-3.508728817915637592e+03
-2.728938180406525134e+03
2.620223334810863435e+03
3.997852032096557650e+03
4.427908288279564658e+03
4.395478878523107596e+03
4.758648478513156078e+03
4.797517571896904883e+03
5.036049468718028038e+03
3.895297418089184248e+03
1.976261442711109567e+03
6.778948729533748292e+02
-1.048965295305613949e+02
-5.616174265367399698e+01
-4.768850043458591585e+02
-9.861265451322854005e+02
9.221496729922134250e+01
1.661307056446617935e+03
2.350126749399767505e+03
3.106720638448763111e+03
3.484186806442256511e+03
3.193561951448765285e+03
3.487889886523294081e+03
4.052259176794486848e+03
4.275673686926746996e+03
3.956176669264279099e+03
3.431862526113069634e+03
3.161839439312803734e+03
3.342024833418476192e+03
2.470470358655620657e+03
3.751411640631035311e+02
-1.482938298512384108e+03
-2.415795102873866654e+03
-1.298488022871771363e+03
-1.246043667729110211e+03
-9.036430649042347341e+02
3.329188939466473016e+02
1.584803195155136336e+03
2.240959244616399246e+03
2.881738326131587201e+03
3.459481392331250845e+03
3.819111327851606347e+03
3.469286707431941977e+03
2.655000015708397768e+03
2.084318620306129560e+03
1.663317861314151969e+03
1.504065502932307709e+03
1.236549397507892309e+03
9.726943822372730892e+02
-3.877802454867190249e+02
-1.639633929390513003e+03
-2.020694841533004592e+03
-2.616275451153925587e+03
-2.304650481774295258e+03
-2.247449932227124464e+03
-2.608929962231506579e+03
-1.573100903976239806e+03
3.769817745620158007e+02
1.212327019850270062e+03
1.195956453501948772e+03
2.103857784210847512e+03
3.171040152083436624e+03
1.619518890167164272e+03
4.762482061090477146e+02
6.432066043501093873e+02
1.445418084126814165e+03
2.446913216244627165e+03
3.225712971500925960e+03
3.003720669633384205e+03
1.838922110950761635e+03
-6.865962919837741651e+01
-1.859124174578387965e+03
-2.151652248022610365e+03
-2.723324541302677517e+03
-2.294233442344159812e+03
-1.593436117371661339e+03
-1.828898499513981733e+03
-1.856562065608726925e+03
