-8.023594166682924879e+03
-7.694089784541188237e+03
-6.930881119113332716e+03
-6.243943080308948083e+03
-6.299210533470062728e+03
-6.361292940502005877e+03
-6.978538717647083104e+03
-3.500002564609091678e+03
1.157408661980187162e+03
2.044683400379700970e+03
4.878600926127189723e+02
-5.288025371151889885e+03
-7.889022893395395840e+03
-8.109209346026963431e+03
-7.789520440164325009e+03
-3.475946934624761980e+03
2.600596212573615048e+03
3.271145846802006872e+03
-2.553247933430360206e+02
2.311155380047450308e+03
3.311674577263475840e+03
2.472302013212048223e+03
2.970047686476073977e+03
3.174998046630563749e+03
3.322194378561028770e+03
3.316687886444859942e+03
3.055526694428039264e+03
3.053741699965099997e+03
2.944333814095019989e+03
2.952301204986006269e+03
2.572660773574513314e+03
2.019422471394745116e+03
1.591493194420683949e+03
1.753845669451648291e+03
1.849655823211517372e+03
2.157997949598861851e+03
1.873901490164968436e+03
1.958387413567586009e+03
2.020482861149009750e+03
1.738234450658884953e+03
2.049697767945522173e+03
2.485940157514486145e+03
2.452966720247646663e+03
2.472841076039406744e+03
2.892625796746731794e+03
2.568272276731648617e+03
1.929785681706526930e+03
1.619178280571415144e+03
2.103589384719145528e+03
1.876092154312933644e+03
1.191684097762951524e+03
1.167384683256161452e+03
9.812085199437062784e+02
5.702294465814608202e+02
1.224576569418894536e+02
1.808898572829914713e+02
2.485829608020189596e+02
2.785671731015552268e+02
2.928597711646005450e+02
5.943974444222973261e+02
4.952076026755021871e+02
8.836307924424589544e+01
-2.507017954213579571e+02
-2.347573338181763916e+02
-6.236440339436809381e+02
-9.256103805306029244e+02
-5.784364545216151328e+02
-9.055042528674138111e+02
-2.946747161494908596e+03
-1.663033033893458651e+03
-7.015612890120294196e+02
-3.172277043050279417e+02
-5.800427892710091555e+02
-8.591262531118402421e+02
-8.784293918542736037e+02
-6.888979131690801978e+02
-5.785541208588974769e+02
-4.074109377769727303e+02
-1.633907455609938211e+02
-1.284420039907747082e+02
1.467838275058716313e+01
-7.244011322287084340e+02
-8.056273566379983322e+02
-8.999869549070170649e+01
-2.946257793481528964e+01
-1.129749540158123295e+02
-2.935659735545343665e+02
6.796111337748294012e+00
-2.718950305822203291e+02
-5.576582530556152051e+02
-6.184918127907699272e+02
-9.954072847193897360e+02
-1.048429375543705419e+03
-7.385396243445926530e+02
-7.426718890288316288e+02
-7.548756685383024205e+02
-6.001907808828219686e+02
-1.011653873995740014e+03
-1.029259376810565982e+03
-3.230223713450334913e+02
-1.630058836145056205e+02
-2.301452103089144146e+02
-1.114291702194709472e+02
3.511689072239701659e+02
5.816848896529647845e+02
3.720764553844511511e+02
2.982600432952715437e+02
6.823119528615457341e+01
-2.960283842949132236e+02
-6.085631369355019160e+02
-3.553970479651666210e+02
5.418873942654758302e+00
-2.871456047793851099e+02
-6.960569922924620414e+02
-8.423191740204698590e+02
-1.095013648136269467e+03
-1.067177328055830003e+03
-6.718035344247799685e+02
-3.419086283842115108e+02
4.383831858954811977e+00
1.300969852442596846e+02
1.472486090536315828e+02
2.957893682035199845e+02
9.872267561515529621e+01
1.529559202066679120e+02
5.055553661247681703e+02
3.604771186175977959e+02
-1.942502667963400143e+01
-5.097013913227103288e+00
-9.836094328651024625e+02
-1.308983936454992090e+03
-1.686219086953160286e+03
-7.234147632402783756e+02
-8.797512651243908977e+02
-1.486291770166507604e+03
-5.229231047558365617e+02
-6.932531306412560070e+02
-5.652192459014160022e+02
-2.182878149408825834e+02
1.393984391440031914e+02
2.212984634874765675e+02
5.511649475511293303e+02
5.872602831841063562e+02
8.589836026184548246e+02
1.267670371569641702e+03
1.192345532995855820e+03
1.082001987855657035e+03
6.572100582987374082e+02
3.780257758278913798e+02
4.528097965629663157e+00
-4.335666604102822248e+02
6.889016761623597063e+01
8.160377776215042331e+02
5.120602012583975693e+02
1.364226369876101330e+02
1.769041105939499232e+02
1.825093007658028625e+02
2.787648401368419968e+02
3.063935876206596731e+02
5.863173208376729235e+02
7.113166376123491546e+02
5.287457722536839810e+02
8.095316096933811423e+02
1.186373612816885952e+03
1.234600484956596347e+03
1.228681244305295650e+03
1.187874161078638053e+03
1.638088919136914228e+03
1.712322497917440387e+03
1.303491284041708695e+03
1.438696346930614936e+03
1.754976013306254572e+03
1.528991707260278190e+03
1.177924011301849532e+03
1.297369246748179648e+03
8.521981677952711607e+02
7.486183186994780954e+02
1.340551954328784177e+03
1.930969255354684719e+03
1.777896398312027486e+03
1.539307729994733791e+03
1.493192272188301786e+03
1.821574084667774969e+03
2.218418812920980145e+03
2.263686358918662336e+03
2.338400426379354030e+03
2.301554872023956705e+03
2.001133754497689324e+03
1.065124103590152572e+03
1.542525001725277889e+03
1.423410593570685478e+03
6.767300987191365493e+02
1.472455004012783093e+03
1.110579367528255489e+03
3.921021634621001226e+02
-2.949919793151466365e+03
-7.892341710984606834e+03
-7.744321369400487129e+03
-4.488957240784069654e+03
-6.848096425205288142e+03
-7.729757053641192215e+03
-7.002933128602172474e+03
-6.608588672391621003e+03
-1.479667909492836770e+03
1.506897198668808414e+03
-7.239135629408461909e+02
-3.141993477629063364e+03
-6.882406744901892125e+03
-6.832195030449582191e+03
-6.407292616310747690e+03
-6.150674853294101922e+03
-6.093346248929427020e+03
-4.426238487432249713e+03
-2.250365016728080718e+03
-6.291719562450831290e+03
-7.755241089590489537e+03
-7.414907322385829502e+03
-3.516676516723822260e+03
2.220490686646528502e+03
-3.140349990582531518e+03
-4.642123959655420549e+03
1.240163263819708618e+03
2.251547267124621612e+03
-6.169375787436393921e+02
9.197876918876866057e+02
3.029774347462212063e+03
3.411129427812909853e+03
3.432910505238610313e+03
3.033090937014367228e+03
2.706696798961303102e+03
2.505757633163585524e+03
2.356388708090983982e+03
2.288646388916059550e+03
1.980546726570824603e+03
1.775086360245336209e+03
1.756326408319768916e+03
1.943293177976078368e+03
2.122083909053294974e+03
2.017753403067205682e+03
2.368317402857437628e+03
2.558809134907030511e+03
2.586290890687996125e+03
2.319886440462313658e+03
2.385551879305746752e+03
2.862386873092841597e+03
3.083474290462898807e+03
2.842820832405153851e+03
2.768572102884517790e+03
2.477843747335785793e+03
2.001801876114647030e+03
1.572597652746796030e+03
1.432275869418018601e+03
1.327092604328957805e+03
1.282068315351312549e+03
8.130769744507881569e+02
9.120258509298870422e+02
9.120097512810450553e+02
1.011063101640535706e+03
8.032369741505827960e+02
8.665334854810110699e+01
-1.348540200315300126e+03
8.873096375667637403e+01
6.522666289831287258e+02
7.173249019207220272e+02
1.155225690921113710e+03
1.734868267950958398e+03
1.844218625271521660e+03
1.423109598496949047e+03
1.152627139361934042e+03
1.092782312655692522e+03
1.097629233083579038e+03
5.529491075485263991e+02
2.831136643500877312e+02
3.343396738097737853e+02
8.176960922462468773e+01
-2.034018520493094684e+01
5.968899109484084420e+01
1.870783370644740842e+02
1.348457556486978604e+02
8.498264650975595202e+01
-7.324080839913207797e+01
-1.108427082128632435e+02
4.627610574950189175e+02
1.099157660737927017e+03
1.352506650974772356e+03
1.282995370681710710e+03
1.086911132827508482e+03
7.424785355125352453e+02
3.000642598655777533e+02
1.636066439088544087e+02
-1.934410891484446893e+02
-4.122086248782535023e+01
8.250471066887743632e+01
-6.901958678640893652e+01
-4.320217140493121519e+02
-9.345702970799165996e+02
-1.007649272103746625e+03
-3.702578621077583421e+02
-1.833701250368695668e+01
1.279812799074094869e+02
5.277967836069531131e+02
6.941968479820994844e+02
7.329053047517797950e+02
6.290011088423271985e+02
7.429214493658049605e+02
1.117028280442523510e+03
9.153303845880280960e+02
9.474474673584378479e+02
9.109748286309741161e+02
8.625752468245381124e+02
7.847111396721780920e+02
6.264714167327181258e+02
4.390266381910464588e+02
4.257504278478119772e+02
1.606172203469113242e+02
-1.960129683748028810e+03
-5.142195873003611268e+03
-8.612913557179110285e+03
-8.730028781091919882e+03
-8.485444391771556184e+03
-8.280389040448610103e+03
-8.204193038106956010e+03
-7.843677380649349288e+03
-5.016329761781917114e+03
-1.346965459250211552e+03
-1.698777295869953605e+03
-2.979902282530824323e+03
6.333556231986046896e+02
2.112134415969657312e+03
1.893062876967958346e+03
1.924747598754540604e+03
1.782846252169712216e+03
1.535827380458431662e+03
1.633633209680670234e+03
2.029491909763712556e+03
2.178004896480274510e+03
2.273961308236137029e+03
2.238445795773369809e+03
2.150176226867795776e+03
2.389719277208479525e+03
2.521556476950606339e+03
2.940730575550103822e+03
3.325607262180767975e+03
3.504131203652751537e+03
3.578710835242963640e+03
3.561563572299291991e+03
3.616488848988397876e+03
3.503607906824981001e+03
3.561040694392760088e+03
3.295206177735407891e+03
3.113509411197760983e+03
2.825813649897093455e+03
2.758806538438839198e+03
2.686938394026650712e+03
2.637865814074574246e+03
2.520772256394327997e+03
2.414675012193631574e+03
2.515662661010380361e+03
2.578194397560315792e+03
2.463760577736528376e+03
2.919947972349709744e+03
3.093023415378165282e+03
3.139572760775626193e+03
3.208550896132600428e+03
3.467669565057950422e+03
3.602071646378567493e+03
3.455152613682077572e+03
3.132231530917053533e+03
2.914389496532187422e+03
2.899266463475772980e+03
2.933746120439254810e+03
2.556278900170096222e+03
2.294143218744519800e+03
2.106812766655589712e+03
2.120599222930194173e+03
1.702715073957487448e+03
1.637753790969343299e+03
1.616038182243132269e+03
1.528956226483735463e+03
2.200161060587888642e+03
2.031326132539404171e+03
2.051146014331261995e+03
2.314477286946048935e+03
2.208669568933913069e+03
2.378278299393741236e+03
1.858045844032656078e+03
1.398509256836855911e+03
1.394949759534430086e+03
9.633688208687102588e+02
-1.504834488942357439e+03
-5.554838539261995720e+03
-8.661895164686680801e+03
-5.928100608744166493e+03
-2.413262288918933507e+02
-8.437256657730571874e+01
-4.616452277417165533e+03
-5.620450471838937119e+03
-6.727905631240746516e+02
-4.431614737197823160e+03
-9.513655882244642271e+03
-9.213068127135959003e+03
-8.832665279341130372e+03
-8.929455434153645911e+03
-9.089362669135418400e+03
-8.913869546744272157e+03
-8.608510043408346974e+03
-7.985512886855578472e+03
-8.081087592497949117e+03
-6.900061685620755270e+03
-1.214474578770184962e+03
1.257922324434521670e+03
3.901378363865295000e+02
-3.405214033930346432e+03
-8.117476203451999027e+03
-9.101745916795847734e+03
-9.409608656174652424e+03
-9.494382487125762054e+03
-8.982754290576616768e+03
-9.392152457510244858e+03
-9.223875014784938685e+03
-8.731841381586928037e+03
-8.347125931426502575e+03
-8.138560999725130387e+03
-7.865418025591437072e+03
-7.320534579701098664e+03
-7.104284713012103566e+03
-2.531311958736819633e+03
1.428800477601716238e+03
8.884116637663828442e+02
9.952383344188720002e+02
6.127922344170375482e+02
-8.527986759814199331e+02
1.003934473615062899e+02
3.105343214306931898e+01
2.179500696853546913e+02
4.010327513812525240e+02
3.612953110927628018e+02
6.109336912780092916e+02
1.018578106586563422e+03
8.389752596451770614e+02
9.196671135375767108e+02
1.155607054794443684e+03
1.310930668834584822e+03
1.653120804769022243e+03
1.728744717541766931e+03
1.418921578229601209e+03
1.647735193700617856e+03
1.453686360809182133e+03
1.691436672606080037e+03
1.662934840419572538e+03
1.191356963413986250e+03
7.141711186908573836e+02
1.021218469403961080e+03
8.442248222329403688e+02
2.681242476228457576e+02
9.716565118888339612e+02
8.233746241361978946e+02
6.982287738791267202e+02
3.241502421022255476e+02
1.944878621973910811e+02
7.265879589422261233e+02
9.199407190906842970e+02
2.096942580541252937e+03
3.096375403484216804e+03
3.603006266058087022e+03
3.842992959387789142e+03
3.808762290975537780e+03
3.836809909624099873e+03
4.159255754350192547e+03
4.352136857050872095e+03
4.419093490211804237e+03
4.476580498767278186e+03
4.501023824837010579e+03
4.498253887294893502e+03
4.337462312217394356e+03
4.197039442219904231e+03
4.865597777097558719e+03
5.026524366701361942e+03
5.068663361109629477e+03
4.777417527232552857e+03
5.014930407194402505e+03
5.038818408714259931e+03
5.626317698264561841e+03
6.456642462257475927e+03
6.204740697611755422e+03
5.889563056434893042e+03
6.141496282708053513e+03
6.997320848418305104e+03
7.502523722336341962e+03
7.621751326683133811e+03
7.419884888476646665e+03
7.373023475537980630e+03
7.305538678017809616e+03
7.631166073068467995e+03
8.059290330157889912e+03
8.361990322271740297e+03
8.114367363134047991e+03
7.711252245864236102e+03
8.043676356936730372e+03
7.201524807547771161e+03
6.557925460223948903e+03
6.188775928167427992e+03
5.379283372756463905e+03
5.005669617696573368e+03
4.505226189240430358e+03
2.940639481616874946e+03
1.626963263645112079e+02
-2.043909472904314271e+03
-3.937736186185084080e+02
1.760940965574843176e+03
2.110191246989422780e+03
2.253449959875719912e+02
-1.194098744346178137e+03
-3.477627949183982764e+03
-5.814862209855054971e+03
-7.041611878841555153e+03
-6.967319481148334489e+03
-7.151845159884639543e+03
-1.099846621182423951e+04
-1.354694113916885908e+04
-7.571352364929512987e+03
7.781492695667542421e+02
7.173459929236340940e+03
9.691274366503643250e+03
7.899178679939341237e+03
7.790711710907745328e+03
1.049886689722430310e+04
1.120766439829594492e+04
7.930880924058349592e+03
1.026338608280322842e+04
9.987974138726287492e+03
7.942559349801436838e+03
7.200199263359465476e+03
8.071835351552614156e+03
7.221543548053676204e+03
7.341265149392729654e+03
1.116885707701472165e+04
1.583130777962563116e+04
1.560058920563470019e+04
8.869327989371708099e+03
2.713285315759748300e+03
-2.704445439791753415e+03
-5.429774075516475023e+03
-6.187782958492050057e+03
-2.079377876880284475e+03
2.431521572721492703e+03
9.848997320954689485e+02
-2.889278530755094380e+03
-3.961049095641979420e+03
-2.231410546198778775e+03
-2.740267352599256355e+03
-4.177362932615889804e+03
-5.977697703671990894e+03
-7.341107769277257830e+03
-7.682486754059244049e+03
-1.023782025936324862e+04
-1.169390832487708394e+04
-1.141071315734269228e+04
-1.559328362965509223e+04
-1.999941327620672746e+04
-1.863578926630973001e+04
-2.494335282353419461e+04
-3.340991699492611224e+04
-3.554439938068027550e+04
-2.843166661840652523e+04
-2.386343985496851019e+04
-2.564555022895725051e+04
-2.621663394227810204e+04
-2.326355813869729172e+04
-2.797555314179656853e+04
-3.383926281186297274e+04
-3.721327291682774376e+04
-3.618102351893788727e+04
-3.946703856569965865e+04
-5.452505228952726611e+04
-5.728102619552156102e+04
-3.355745271860642970e+04
-7.112113418470171382e+03
1.535041544225465032e+03
-7.242823056198336417e+03
-1.552679619211496902e+04
-1.553623368439109981e+04
-1.266762474515164831e+04
-1.223295353434832032e+04
-2.367731671095012643e+04
-2.884899665266559896e+04
-1.071698506600592009e+04
9.430955604399658114e+03
2.959625772313107518e+04
4.183012105249741580e+04
3.336676741301795846e+04
1.822146245708566130e+04
1.149653697936350727e+04
5.587231719757381143e+03
-6.023181746256957013e+03
-1.083730613174317477e+04
-7.711830093274693354e+03
-2.378481039813514599e+03
2.597200363615503011e+04
6.351193084422151878e+04
7.641356126436503837e+04
6.799120492592320079e+04
5.567006034567257302e+04
4.318539818072772323e+04
4.451954119608550536e+04
3.934581110821941547e+04
2.552556466619006460e+04
2.111898524643525161e+04
2.660731727047485037e+04
2.686375592812087416e+04
2.239149722136589116e+04
2.055477055817493601e+04
5.323911817665442868e+03
-1.311986782892453266e+04
-3.022109701829559344e+04
-2.999141718161823155e+04
-5.495866544816783062e+03
1.574055981680991499e+04
2.239006572337222678e+04
3.092988832127526985e+04
3.799017458826574148e+04
3.464303964120482851e+04
2.155967262047172699e+04
9.978307843869537464e+03
1.106818221553740295e+04
6.277397191274288161e+03
-2.181959963714343758e+03
-2.154276663986197309e+04
-2.863289492904887084e+04
-1.645823744753046412e+04
-1.099168726705319932e+04
-3.107318000680052137e+04
-4.931055944584927056e+04
-3.999279644486484176e+04
-2.332686500148547202e+04
-2.245666818743887052e+04
-1.285122494627763626e+04
9.166553702285189502e+03
2.036469707846772508e+04
2.383522258307175071e+04
2.042617767340312275e+04
1.146553244363156773e+04
5.220318774185677285e+03
1.530151199637617538e+04
2.700115009126218138e+04
3.371021027759736171e+04
3.735881482658446475e+04
3.641810330344102840e+04
3.422500083383762831e+04
3.059102240349392378e+04
2.755573543734386840e+04
1.908342423284217512e+04
8.037409720364013083e+03
-3.862733524641649296e+01
4.156999138327320793e+02
2.560960841283275840e+03
1.235226772277296959e+03
3.169975352115895362e+02
-3.772859854405050555e+03
-1.038747920482430345e+04
-1.420596448081470589e+04
-1.468951200608366344e+04
-2.142629331703371645e+04
-3.610247810690093320e+04
-3.946917936432253919e+04
-1.703574338977786829e+04
-2.618753557562647075e+03
-1.146209265170003391e+03
-6.960066174171159219e+03
-7.314248143167330454e+03
3.258212061627014464e+03
5.914880868856561392e+03
2.635526236573010920e+03
5.019670195930726209e+02
3.447915240428906600e+03
1.071219679260348812e+03
-2.973369402202386027e+03
-1.203406109099703099e+04
-2.383911402297617678e+04
-3.095672752821822723e+04
-3.970109365102578158e+04
-4.469946594851816189e+04
-3.420702381740741112e+04
-1.609835025223698358e+04
-1.868771336172389056e+04
-2.899298810455577404e+04
-3.721042028284486878e+04
-3.281120921490474575e+04
-1.600844214292136348e+04
-1.507542300878393144e+04
-3.269349041273276725e+03
1.004354897940250521e+04
2.520105560649259132e+04
3.176197822777996043e+04
1.917518367093580309e+04
1.327947299487935743e+04
1.282269092942955649e+04
1.027963697075049095e+04
8.174122903142067116e+03
-3.152024808199572362e+03
-1.065095609791927927e+04
-5.489818570297379665e+03
3.462251365677680496e+03
6.691070166503483051e+03
4.744553393663088173e+03
3.038514900620246863e+03
2.051840224390878575e+03
7.131395113096220484e+03
7.912155490580520564e+03
2.046897469102510968e+03
-1.054459095491901280e+03
-4.381929031433061937e+03
-6.311760145496386031e+03
-7.704012148792724474e+03
-7.941783344784589644e+03
-2.409135517805533254e+03
2.445845653333853079e+03
1.131024058980990048e+03
6.213695786018590752e+02
-2.862285559440041197e+03
-1.188399395475916936e+04
-1.599678970392135489e+04
-1.293168697657940538e+04
6.629489786551883412e+01
5.736087309369640025e+03
3.064671512591233750e+03
-2.418922131949644154e+03
-8.068755533606154131e+03
-4.693859231333096432e+03
1.540787932531659180e+03
5.015181140435042835e+03
6.769316451811999286e+03
8.150202949922199878e+03
7.132821426235605031e+03
7.941735043854860123e+02
-3.118704481506061256e+03
-7.868729365958585731e+03
-1.184390179554452334e+04
-9.235227850427374506e+03
-1.110681516709157677e+03
1.165678470893003760e+04
1.566130766703629524e+04
1.531293531048966724e+04
1.526965106247908079e+04
1.125950958581924169e+04
4.505570635298317939e+03
-2.754072165237560512e+03
-7.084322279391102711e+03
-3.401120478180817372e+03
1.449639801734318326e+03
2.469016712305361125e+03
-6.380982800787442102e+03
-1.211225340760406471e+04
-3.640654706662692206e+03
-3.307106837661358441e+03
-1.131581124595853453e+03
7.805126258421191778e+03
7.585126534855845421e+03
-7.495135202970607224e+02
-5.044650973686719226e+03
-2.401294633671358952e+03
-1.263674513293378112e+02
3.133238797781673384e+03
6.549005539190057789e+03
6.202229770297221876e+03
7.085655881972484167e+03
1.136429400052784513e+04
1.070538607820395191e+04
6.662271079298724544e+03
-2.394014055094222385e+03
-5.011288881851853148e+03
-2.639382238931645588e+03
-3.539322553040320599e+03
-5.651386883633995240e+02
5.706290334207432352e+03
5.089370314190153294e+03
5.646331574738956988e+03
7.620548773322952002e+03
1.187531686945296860e+04
1.529641952424136980e+04
1.572218277147808112e+04
1.216638676626907545e+04
1.014907716811384489e+04
1.028201187621452118e+04
8.713394529255008820e+03
7.086782965351316307e+03
4.278954182402199876e+03
8.466980984558844057e+02
-9.239892342672608265e+02
-2.300218504830759230e+03
-1.424662925406064687e+03
-1.258508609084128516e+01
9.123747559218735432e+02
2.884682780074451784e+03
6.128150076016269850e+03
6.474145388494878716e+03
4.366202658573731242e+03
3.259329933033650832e+03
3.220725031481124915e+03
2.030487979004670706e+03
1.739376950008360836e+03
2.293881773836281354e+03
2.888869525407409583e+03
2.517718934039869055e+03
1.616635799293745322e+03
-1.215828642459802751e+02
-2.045148478529259364e+03
-1.976957733185480492e+03
-3.230945777773917598e+03
-3.217110644173807941e+03
-2.041512127120567357e+03
-1.930260906099673321e+03
-5.742141495672133260e+02
4.115182015310238057e+02
-1.059244946669679848e+03
-2.024181583178475194e+03
-9.462370076501733820e+02
-6.639262677235418550e+02
4.823319374077088924e+02
7.679573172674443526e+01
-8.400373584677369081e+02
-7.150175068355275698e+02
-9.221644516151965263e+02
1.192924868035028112e+03
2.746060926216709959e+03
-1.874146879387951913e+03
-5.728169101674606281e+03
-8.351898013960357275e+03
-9.489525761577528101e+03
-9.541499971868483044e+03
-1.066755387791737485e+04
-1.195773828982428131e+04
-9.464940412454079706e+03
-6.792535120928637298e+03
-6.560350304470463925e+03
-7.362459125578505336e+03
-1.040778489180173347e+04
-6.966985817470004804e+03
-3.181842354271308977e+03
-3.494481625687954420e+03
-3.538946022290095243e+03
1.108802851335705100e+03
1.264540767929558569e+03
9.558273604577586866e+02
2.429304749176309997e+03
2.808546937234929374e+03
2.635508406574579567e+03
2.429886424925654410e+03
2.520368229094761773e+03
1.838371983314078534e+03
4.856308405204409837e+02
1.872404188995028278e+02
4.829296767962009085e+02
5.297103030111038606e+02
6.102563490083899751e+02
1.083394674440295603e+03
1.181724939367541992e+03
1.637661136293815161e+03
9.408082422637444324e+02
3.971232416963673728e+01
-6.003558400285625112e+02
-4.745041775960522159e+02
6.432788160172523249e+02
9.946756176979225756e+02
1.101895572226244440e+03
6.296107217556302658e+02
-7.391349788237741905e+02
-2.675573540294440591e+03
-3.814952393657257289e+03
-5.599120701720783472e+03
-4.023566936067546067e+03
1.149503178213284826e+02
1.647682979972352769e+03
1.452120035571421113e+03
1.112025330473554050e+03
1.301706705323783126e+03
1.110637813210192462e+03
2.857922771149604841e+02
-5.129722340022645994e+02
-7.386918451245812776e+02
-8.193126246775072730e+00
4.007040175415254453e+02
4.676206260979261629e+02
6.000035191018454270e+02
4.368709674798673745e+02
2.718922772428355188e+02
2.042930911111122896e+02
-4.894178707626665670e+01
1.848960890632260430e+02
1.954356908737850915e+02
-3.035564493178098928e+02
-4.189254726664692043e+02
-5.656085512368903210e+02
-8.844904548565742743e+02
-1.100604327983503026e+03
-1.100167597620456945e+03
-9.678483675586207937e+02
-9.510411428807748280e+02
-1.216128836342656541e+03
-1.791185871115586451e+03
-1.184372178865177602e+03
-8.216530428993705755e+02
-7.238070778974819177e+02
-5.987736881614105187e+02
-6.513122335746613771e+02
-1.957662629190802761e+02
-1.868731120568628512e+02
-2.256539398876248015e+02
-2.635215922136644053e+02
-3.609716035834333070e+02
-5.449124044907287043e+02
-5.468725114230721829e+02
-5.929269144306236967e+02
-6.887650302216635509e+02
-5.852705027911525804e+02
-8.460718960260313679e+02
-6.567989517010316831e+02
-6.624686272578326225e+02
-6.412280119982192446e+02
-1.964515808539246109e+02
4.607918105937165478e+02
3.908694583111834504e+02
5.055962588921162251e+02
8.452785320910481914e+02
1.020817534829699412e+03
1.034928556089773792e+03
1.032366628363362452e+03
9.251696694678170161e+02
8.788620085224097238e+02
1.324015201645399657e+03
1.418644250972696227e+03
1.312387248096579924e+03
1.185700493204053828e+03
1.499814558643995269e+03
1.206318159494711153e+03
8.846929284622374325e+02
8.978033546996929317e+02
7.270056972885406594e+02
7.091197986632017773e+02
9.059100291952496491e+02
8.524991336703646994e+02
1.002335348768404629e+03
1.247153958965341644e+03
9.990212742865198834e+02
8.200354832598583243e+02
1.734985137972463463e+03
1.878909404451977480e+03
1.839869190756058515e+03
1.487489037114335815e+03
7.313476345723631766e+02
8.819301622651323669e+02
1.111779713928476212e+03
1.115578475195494093e+03
1.026959225199859475e+03
8.851291959143079566e+02
5.691393635365229784e+02
6.367218828659881638e+02
6.377113172432731290e+02
4.121813838043200349e+02
2.123851180700592352e+02
3.532379514102875078e+02
3.467179048139150837e+02
3.566985602786228355e+02
-2.922758802753191958e+02
1.902418766777038002e+02
1.435064925337666466e+02
4.208343619636231381e+01
7.221079911414083199e+02
9.625142971605745288e+02
9.418443027756844685e+02
8.070477988175390465e+02
6.329835178540904508e+02
5.367747784003353217e+02
3.295348569098644020e+02
3.569875463598269221e+02
1.830079446761499469e+02
1.439005860974175448e+02
-3.839848588910288907e+00
5.550411919065038546e+01
1.295301236378111298e+02
-2.386206057347371257e+02
-2.080648018595363453e+02
5.246975154097658560e+02
6.927628822590656910e+02
6.223626688459370371e+02
8.916552659040086155e+02
1.139049807396174629e+03
1.118065305651612107e+03
1.050731394571748524e+03
1.464009839905936815e+03
1.268028705520726817e+03
1.072352144920752153e+03
1.184067562286086059e+03
1.411798471866368118e+03
8.373259481077287774e+02
5.719599083365420711e+02
7.135261113189358184e+02
9.912115055566088131e+02
1.076407497519618119e+03
7.063377935235423593e+02
9.639355055454294643e+02
1.001487143378947167e+03
1.051288153454760959e+03
1.082415862187356879e+03
1.018731718579440326e+03
1.311570291045484510e+03
1.851710667065739017e+03
1.664299963321582254e+03
1.687139441279296534e+03
1.881066888037594254e+03
1.722895259950571244e+03
1.442098793213033105e+03
1.307453626222272533e+03
1.411238703092743208e+03
1.320991163210155491e+03
1.252427206335398751e+03
-3.271291594021346327e+01
-2.245999174105570546e+03
-6.485487009851196490e+03
-8.369344799890324794e+03
-7.941686641213334042e+03
-8.202284231867366543e+03
-8.617271254132050672e+03
-8.660040979120765769e+03
-7.871244699435447728e+03
-7.593551790756820083e+03
-7.406462730978739273e+03
-6.634439584581448798e+03
-6.502912952089608552e+03
-6.581816380201783431e+03
-6.317182720125851120e+03
-5.857466260727248482e+03
-2.314102406553481160e+03
2.473666029667757812e+03
2.307639538220088980e+03
-2.028454647826373275e+03
-6.915648611392886778e+03
-7.550739135153493407e+03
-6.976367783291237174e+03
-7.050599720863065158e+03
-6.758565741204633923e+03
-3.889092950664983164e+03
2.162873396285920990e+03
3.628476588866691145e+03
2.528849019267623135e+03
2.491067952403054520e+01
3.021687426615906134e+03
6.579851614588072835e+02
3.562735309319960379e+03
4.026989943677393967e+03
3.830642259058270611e+03
3.837579210709137897e+03
3.024034783318425070e+03
6.882029953061556853e+02
-3.419776880545052791e+02
1.750469665595083598e+03
2.818698239258797003e+03
3.023659086748415575e+03
3.382312549812777888e+03
3.375670255153277139e+03
3.178839723598410728e+03
2.834945820431850734e+03
3.086133971523595847e+03
3.100490249282435798e+03
3.314905927607955618e+03
3.373560760336182739e+03
3.308424897668314770e+03
3.280421818815955248e+03
3.199620220901868834e+03
3.010963304967033309e+03
2.849502177602320444e+03
2.660470659786843044e+03
2.714887721027637326e+03
2.460657933312354089e+03
2.317851255690881317e+03
2.464428591712691286e+03
2.231571760734546842e+03
2.130362684834327865e+03
1.927783105772125737e+03
2.109948098755739011e+03
1.968682535645467851e+03
1.834051068156627480e+03
1.828634072141075649e+03
1.949440446245247358e+03
2.250412718446852523e+03
2.299450853116030885e+03
2.582746546159802165e+03
2.292733648853590239e+03
1.958412338251872370e+03
1.770490246932620948e+03
1.605013730716250393e+03
1.325259997371248573e+03
-1.918915856791462602e+03
-1.842154897165930151e+03
-3.729793495633712155e+03
-3.036818254194036854e+03
-3.811930615399393446e+03
-3.565266539170176202e+03
-5.853766594095659457e+02
-2.742726374157574355e+03
-1.568313408581867634e+03
7.516533723211113056e+02
-3.517032977184740048e+02
6.986890375271691482e+02
1.573914892162585375e+03
1.143959990825796012e+03
-3.662086682525804918e+03
-2.248071093310556989e+03
1.638969996824894679e+03
1.705993450462422288e+03
1.491096626001022287e+03
1.230284314725168315e+03
1.060491736482402985e+03
1.050783654085996204e+03
7.101714757225277026e+02
4.547659303704409695e+02
-5.236378923866612922e+01
-3.111240390812128226e+03
-4.498929469150606906e+02
2.563501586179330971e+01
-3.216602998954213035e+03
-9.825485014890490447e+02
-2.882158544268717378e+03
-4.393304753246661676e+02
7.770220502230311013e+02
1.006851883010397728e+03
-2.536911313547364557e+02
-2.397880627396202271e+03
9.880187021043102504e+02
-2.398390860731322789e+02
-2.499357734735003760e+03
7.884869991811516456e+02
1.069667970876990012e+03
9.071873640863585706e+02
1.072082788461433211e+03
9.213730140821219265e+02
3.880482870993033089e+02
-2.979998510022344931e+02
-1.937817548949127513e+02
-5.452915580801019360e+02
-3.532522541062262007e+03
-2.952472210753951458e+03
-6.227149649991457409e+03
-1.751612111289795394e+03
-3.088850034658756613e+03
5.822053361907915559e+01
8.595219720167617652e+02
1.156108527154139665e+03
9.918889126092758488e+02
-1.514177224955564952e+03
-1.937083548121044942e+03
5.611698105061958586e+02
8.144986885795035505e+02
8.918609994850544354e+02
5.491905076295481649e+02
-1.458548469696199845e+03
-3.139204933159101529e+03
-9.909446387603454696e+02
6.940956555463023960e+02
3.218038789442441043e+02
-3.045523376477902730e+03
-1.231915050372803307e+03
8.926786806227021316e+02
1.472175708499364191e+03
1.392413566386143430e+03
1.370353635074878412e+03
1.840732652649197234e+03
1.993702274476290540e+03
2.146528295359270942e+03
1.793088433938642311e+03
1.918028873965348566e+03
1.928418092370016211e+03
1.698482753550728148e+03
1.653938898645518066e+03
1.529776192196376314e+03
1.298891038346943787e+03
1.435917073464644318e+03
1.697185019540093208e+03
1.506834686997307017e+03
1.281911015295992456e+03
8.629017085602054067e+02
8.721789348060797238e+02
1.674617964986181505e+03
1.707110678712185518e+03
1.476592251503072703e+03
1.773030858394814686e+03
1.985313171922216952e+03
2.026230337072853672e+03
1.967025169398925982e+03
1.622926618576623241e+03
1.407564565507550242e+03
1.316119574913874658e+03
1.227959258103431239e+03
1.734601817221647025e+03
1.694967049501167821e+03
1.836992261485592735e+03
1.942662749163496756e+03
1.773982532391405357e+03
1.349862411507376692e+03
1.228283584514692848e+03
