-1.610274964772468592e-02
-1.476183907082225660e-02
-1.225363838705401803e-02
-2.016470462890757390e-02
-1.364516874527936519e-02
6.407083924582273639e-03
1.178922257938080746e-02
3.170697137520386236e-03
-2.755653600305590445e-04
-1.875432231855820144e-03
-2.666952858663692010e-03
8.559037565186118418e-04
1.844891383592612514e-04
1.736641895145578244e-03
5.690429584176469671e-03
4.352103170217728328e-03
3.443264013613717492e-03
1.576313456667039229e-03
4.398551787110316705e-03
1.087105200998150951e-02
9.060982144405243383e-03
6.803799386932892976e-03
5.308762562584027830e-03
5.644169017126294402e-03
5.919324169640419013e-03
-2.837700085641904450e-03
-2.455975261576659203e-03
2.997254256096883694e-03
-2.143675782803375774e-03
-3.531747258861797894e-03
-3.288524721573102619e-03
-4.464074926638495269e-03
-4.441911464549822865e-03
-5.299839248708763419e-03
-2.635046713168122910e-03
-4.728697152511972257e-03
-5.227771395721217060e-03
6.964189926902305530e-04
2.223663416908931711e-03
6.905335525231582477e-03
-2.621565100680812825e-03
-2.312261958272907036e-02
-1.323285665926551141e-02
3.590062456110235285e-03
3.429596176067468798e-03
5.159196109703206162e-03
5.030409097070933332e-03
2.144070309899910945e-03
1.475822544335743912e-03
5.409396822011909838e-04
2.776303316975050305e-04
-1.693730798233989169e-03
1.413835542067750067e-03
6.438132461133311280e-03
2.825068329083153112e-03
2.351868247905865988e-03
1.950638587237792879e-03
-5.369618984776605361e-03
-1.688529079781411106e-03
7.304296829608040303e-03
5.234175509539854519e-03
2.289686894888800194e-03
1.903911608976905029e-03
-1.031073769445721303e-03
-1.828953581816410720e-03
-3.415765959073191601e-04
-9.094687661475701641e-04
-2.263011962175270116e-03
-2.227223885529453114e-03
-2.346879564500776918e-03
-1.942709139709829138e-03
-3.142905354496819360e-04
-1.873287533820405587e-03
-2.531151934094966020e-03
6.054152313461442711e-04
8.326778329227034481e-04
3.491510690025222477e-04
-1.080216584842144060e-03
-1.488346369439577438e-03
4.074840932485446210e-03
2.859894559403264140e-03
-1.012043334382595411e-03
2.175195780181910822e-03
1.681886653582832227e-04
-1.893151916686388724e-03
6.959483785602698811e-05
-1.387170357965283787e-03
5.422290347811588307e-04
2.355259571518704929e-03
-1.540134697862424393e-03
-1.989542483585358783e-03
2.746113613844565135e-03
3.259483646857154731e-03
-2.173206435666538879e-03
-3.107821649082651537e-03
-5.028871841328555947e-04
1.373517485143879594e-03
3.076472200030003646e-03
-1.498038506600509736e-03
-4.057232894645447160e-03
-1.236012774565050862e-03
4.059505369863612755e-04
6.231928690863700743e-03
5.859410299550681794e-03
8.435292766188709371e-05
8.906591500605680551e-04
-2.252296885107397950e-03
-4.526792179752876615e-03
-2.109284127965429384e-03
-2.396651348628994673e-03
-1.944728719263897308e-03
-2.893746836212142924e-03
1.532612588262011622e-04
1.842941270910243958e-03
-4.751936331371111114e-03
-8.484082516918660648e-04
1.359311798635375913e-03
-6.202222355732031796e-03
-1.454150857964282926e-03
4.218387113559577198e-03
1.953727678460904366e-03
1.344162301629245109e-03
1.096095877494016957e-03
3.109429950300292376e-03
6.412042613529118744e-03
6.092705603751284553e-03
-2.867228304219177504e-04
-5.473611325942923447e-03
-2.442613353351341405e-03
-6.995623953688728759e-04
6.332642584817600034e-04
1.459304536850017158e-03
-4.852668125282470898e-04
5.996801311883017196e-03
8.260117419285593204e-03
6.956965794973754211e-04
-1.503673013235769110e-03
-2.940724473187435010e-03
-3.318029626951774901e-03
-2.785646721670820454e-03
-4.325451006324552115e-03
6.286134374285952788e-04
3.905232819678841963e-03
1.735749504808308192e-03
-1.203931743231721058e-03
-5.975405928886285203e-03
-2.721300681447175879e-03
8.788946306378962519e-04
-2.359361569090798281e-03
2.369094280843319061e-03
6.876586737672541610e-03
2.300777438373283797e-03
-1.436889689663846002e-03
-2.602891591651302575e-03
-2.168241812688621699e-03
-2.325409330072183631e-03
-2.790519448790603190e-03
-2.311004191900539045e-04
1.136551098839751455e-03
-6.707460063944018858e-04
-2.399061344687271856e-03
-2.758743212873703606e-03
-4.777711873379698881e-03
-4.563571991871018252e-03
1.647279952524736144e-03
1.985762153105613223e-04
-5.025265026864344196e-03
-1.688547443408374782e-03
-3.745259149282403844e-04
1.560278856836439052e-03
6.865496735929018692e-03
7.994037794165973279e-03
8.764136572729846683e-03
4.845151065554834796e-03
1.012222881602146225e-03
3.062959135720857377e-03
1.241041349197829742e-03
9.426926480066185991e-04
1.846718558617531586e-03
8.966664496932755203e-04
1.553636405833873834e-03
-1.390755951253779986e-03
-2.038467850519540183e-03
-1.787106847380877600e-03
-8.692676567438596636e-04
5.159195941721816080e-03
1.603598101468629801e-04
-5.473843982356259644e-03
5.358854333304028609e-04
4.038979795467218838e-03
4.934304113495494720e-03
1.825285841277292679e-03
-2.804580733901166929e-03
-1.221086608967381776e-02
-2.680903629591099152e-02
-1.725964394157860488e-02
4.183277734802955464e-03
9.081299029679069240e-03
8.744724734094280749e-03
7.427616599306781017e-03
3.498588551852927896e-03
-1.498271742253793389e-03
-2.395400778451979313e-03
1.002684526304220905e-03
-9.009068281960827150e-04
-9.624289846356593381e-04
3.511172103758996633e-04
1.735268229000848979e-03
3.343934888898627677e-03
-5.864765287343504108e-03
-5.215504217999475389e-03
4.608478164256521632e-03
1.766553812310820738e-03
2.640323385282430501e-03
2.741184265874530967e-03
-2.989750113508323186e-04
5.031733626212743157e-03
3.297552370920699139e-03
1.782810508861674709e-03
4.252283857723795565e-03
-4.370282587132782895e-04
4.065871865158535723e-04
2.916783615221301036e-03
-2.249500355478613865e-04
-1.748048573496814801e-03
-2.832338758042311864e-03
-1.666837117559176375e-03
-1.233995684290983786e-03
-3.930852738947896233e-03
-2.110508253343924921e-03
1.225447412639524064e-03
1.074267821048453461e-03
-1.569993423660852056e-03
-4.622772070440863898e-03
-4.456893215186064246e-03
-3.050785968492606727e-03
-1.449419749449412220e-03
2.814208433141434079e-03
4.353721880624059418e-03
-2.335981732961778180e-04
-2.535154715497093831e-03
1.365835154943037923e-03
2.007277529580723044e-03
-2.467278174409164027e-03
-1.100989479555217719e-03
2.507632365289512704e-03
-9.672647915274230467e-04
-2.725097427189443651e-03
2.019452399587605765e-03
6.894025582301604310e-03
7.752485396866811047e-03
2.872727007204103900e-03
2.643032137098082798e-04
1.744704609853087000e-03
-4.973706424619707932e-04
-1.121683257058090364e-03
-4.764214440884430323e-04
-2.692899864796088373e-03
-1.471510063896663226e-03
-9.949922720740315887e-04
-3.496698301261086730e-03
-2.702961923406769704e-03
-1.994808167561295826e-03
-3.846652797712043440e-03
-3.713631069912510466e-03
7.642276455208072989e-04
2.927873367322867976e-03
6.969418726378218598e-05
1.468207206943169868e-03
3.375626430307634637e-03
2.121423174879807460e-04
-1.690779625476703744e-04
-1.273311682019421251e-03
-5.813206983680052793e-03
-5.065332611143924177e-03
-8.356307206676817471e-04
3.961888765235517204e-04
-1.399457463818651890e-03
-9.143127183692246443e-05
7.222223350303787551e-03
8.452111342351546416e-03
8.035130094939540741e-04
-1.700232183304883080e-03
-1.174845395144967627e-03
-2.749940205822639511e-03
2.147063593844257458e-03
5.180463607456683647e-03
-7.784710547655479800e-04
9.169780122282507892e-05
5.983809502993653329e-03
5.672066734872199464e-03
4.427360489603190431e-03
1.426434149726451368e-03
-4.087060786015573807e-03
-5.271742152252211107e-03
-2.168115824942697892e-03
1.982719697871702675e-03
7.753568243060385149e-04
-4.029291914111070641e-03
-1.845697625534105076e-03
1.017463691872886591e-03
-2.674608969144917723e-03
-5.664825526765272963e-03
-4.926400876164546347e-03
-3.447581588819068933e-03
-3.569970134980808216e-03
-2.515617137161060227e-03
9.292483412470747915e-04
1.234178900205412004e-03
1.484521721363135389e-04
1.628754936865751480e-03
2.687173160217416323e-03
9.334776561167255600e-04
-1.505472406981431732e-03
1.230560209395785117e-03
5.284908297054053718e-03
2.935238792912300658e-03
6.988405068068928366e-04
1.315759783965807748e-03
7.316057902488568845e-04
1.185304502421196478e-04
-1.508348344953134700e-03
-1.153429168572961232e-03
2.386459375517900692e-03
2.169178979056423078e-03
2.731034336942712252e-03
5.717228248938905494e-03
1.449049339758977676e-03
-3.130311307270702142e-03
-1.380218815012003962e-03
-4.044702531179375504e-03
-8.197221887788331759e-03
-3.387292190491128594e-03
1.457154208954998705e-03
1.351106480800785879e-04
2.881052402191370968e-04
2.282376302336132715e-03
1.688831876943890998e-03
-6.710477511608540320e-04
4.825753156746276530e-05
3.703024433456275719e-03
1.499450045423466465e-03
-3.595358345343213548e-03
-2.800930560535109734e-03
-5.109747973238761704e-04
2.538912992931992318e-04
3.602266277619283808e-04
-1.658699046431061060e-04
-3.123741272591537641e-04
4.537008263849993267e-06
1.707257949438751362e-03
4.575348014915587777e-04
-3.030982847874719426e-03
-4.817543332481799556e-04
2.261557202888885790e-03
2.642985939382760420e-03
5.267546287087174900e-03
4.324860439454445739e-03
2.636618744946591254e-03
2.712024769466193832e-03
-1.591325390933240628e-03
-3.810082679977512456e-03
-2.019529225244449337e-03
-2.443367364140973559e-03
-3.194935999119851832e-03
-4.756953498441823802e-03
-5.258503105640624162e-03
-2.025559082133200975e-03
-2.008046883110020317e-03
-3.595878107734961412e-03
-2.024967498695858827e-03
-2.753882148842005484e-04
2.814492889571855016e-03
3.502294191188000307e-03
-1.153071592292657715e-03
-3.189761765254953748e-03
-1.961024635675320989e-03
3.795042086873787017e-04
4.733923840095092574e-03
6.622123385619473578e-03
3.537211856570893816e-03
2.141283762464936576e-03
4.899434985869068927e-03
2.619992917248844394e-03
-1.054586394737364258e-03
1.513251806699033924e-03
3.051537314129590828e-03
4.127519578756047060e-03
3.216116766854701468e-03
-8.101241856761328460e-04
1.780053009544691834e-03
3.476964030394854525e-03
-2.861866361961681892e-04
-1.935408223481910285e-04
3.447518452435467673e-03
1.601951053539051560e-03
-3.787350111061796570e-03
5.384269377320585054e-04
-6.939611384460343813e-03
-2.803534094948841038e-02
-2.054355274807001877e-02
-5.032971237176001728e-03
-2.227719240807858429e-03
5.671714655460691375e-03
7.499140915535249668e-03
8.769949982686306433e-03
8.147549493367302331e-03
5.362896501032597598e-04
5.267155648343533302e-03
3.892192574167571608e-03
-3.903074901209081619e-03
-1.370492271393385694e-03
-2.423126959700524618e-03
-1.015210336797723939e-03
6.026856042072362661e-04
-1.270502548393099554e-03
3.433477186536630643e-03
2.991951350371185262e-03
-8.277423500392556283e-04
-7.476240109732635404e-04
1.107748596291307543e-03
3.906908566863061434e-03
2.281012024419859594e-03
3.521108840711060887e-03
4.792369883571707435e-03
-8.475518827923187283e-04
-3.894868617778631317e-03
-6.161573580645730332e-03
-5.088567366675595706e-03
7.600218909054913541e-04
1.515305695435530554e-03
1.685110626288721268e-03
2.365360867869857955e-03
-1.013864923141271713e-03
-2.273575992695615281e-03
-3.088836411618785032e-04
-6.550055492741532412e-04
1.350981654764055705e-03
5.451803587793932308e-03
2.583170954024579039e-03
1.041424458178505982e-03
1.673639730067536359e-04
-5.832667804446761521e-03
-2.688457090173679721e-03
1.371567402864155199e-03
-1.164430596311668599e-03
8.310084677010016758e-04
9.092769003646082680e-04
-5.529959631283979174e-04
-9.045447921234808135e-04
-1.838577109711945785e-03
5.582605033751009182e-04
-1.968231761007408105e-03
-5.537767642543054217e-03
-3.015104668190629351e-03
-2.391640400079064928e-03
1.050871490448781022e-04
2.579567643335039379e-03
-8.783119087847029820e-04
-2.032771532146694998e-05
5.501794254181367749e-03
4.530058229390945476e-03
-8.513741160724037883e-05
1.536616272496008160e-05
-2.584330246880809766e-03
-7.894004640937658454e-03
-2.874059559062433055e-03
3.774086514590000233e-03
4.256438303386859447e-03
5.918372962335861909e-03
3.325299247647343047e-03
-1.542445317062120843e-03
1.003232356667383514e-03
3.037816636073038465e-03
1.384531878504193262e-03
8.625062417143094552e-04
2.516027612616518615e-05
1.251896027128244918e-03
3.736163077851100377e-03
2.146544865317785104e-03
-6.538405742363129474e-04
-2.537917570974577292e-03
-3.504670898354289924e-03
-3.188306326949142365e-03
-4.168138926782645470e-03
-5.287709384571980843e-03
-4.323199104391136152e-03
6.240543101565209348e-05
2.590352051827784878e-03
-1.567897895293092871e-03
-1.266750627106060087e-03
8.468117287363549454e-04
-2.028376731060898153e-03
7.799521396078571648e-04
2.042667454565065457e-03
-4.285559400633839671e-04
1.747240275431392702e-03
-3.283974948456454919e-04
-3.473301256187014997e-04
4.299714445488466916e-03
3.012036184252753733e-03
1.843545371129413479e-03
-6.004593397380235398e-04
-1.431157343856026293e-03
4.022644299443388187e-03
6.516177520210882567e-04
-4.450156952766646211e-03
1.714774918041747729e-03
5.504113825014279697e-03
-2.364037815998822479e-04
-4.982553891095180959e-03
-1.242630976560282069e-03
1.230117562743693847e-03
-1.299954675373433260e-03
1.173192518942989260e-03
1.772739491282839886e-03
-2.948542722950346466e-03
-2.364967075920582258e-03
8.061511028995534345e-06
1.538786578658987584e-03
3.105292954095356054e-03
-9.168709152874195004e-04
-4.211036330748318957e-03
-2.317269316475948585e-03
-1.799366392903637519e-03
7.968600123296680320e-04
4.692424043728027870e-03
1.832471672626906226e-03
-9.495549502892741602e-04
7.327733661758674454e-04
7.610173371244282085e-04
-2.293304887862208583e-03
-6.177669138899209191e-03
-3.489526496514124693e-03
4.256232860251335862e-03
4.054976926582533857e-03
-1.524593066677873161e-03
-3.502258565479028900e-03
-2.588279720574140907e-03
-1.480933476890471806e-03
9.428375791089942375e-04
5.480400597919888803e-03
4.822597010598691711e-03
9.291124071397307334e-04
2.653683429129498100e-04
-1.051849575875820654e-03
1.070394837068569310e-03
2.546069259849375720e-03
-7.042260418597397036e-04
3.459292076114799889e-03
3.647997103023424472e-03
-6.042827320291380838e-03
-6.063541790048020477e-03
1.018094406501344074e-03
4.637791791749531871e-03
3.308856984870452329e-03
-8.830656025621677402e-04
7.536197428495663335e-04
3.840586598707543178e-03
2.233109184381686725e-06
-3.466728221874371824e-03
-1.996862730743213625e-03
-5.093157302716862060e-04
-6.484335180521930662e-04
-7.863041014168439292e-04
-5.761558070565525169e-04
-1.203394055435046085e-03
-3.441362935967025565e-03
-1.737710240968676385e-03
3.050291980416964307e-03
3.376267780227536945e-04
-4.121477072057202345e-03
-1.456665757456805177e-03
2.575051806689670000e-03
3.560892470518094936e-03
-6.184940063092358802e-05
-3.672611469213960325e-03
-3.278540974597948278e-03
-3.893669835835740674e-03
-3.911806180133938458e-03
-2.427736726655284772e-03
-2.634525455967589181e-03
-1.406974877935582595e-03
9.808648508361844046e-04
3.391722439438207403e-03
7.706243838728048592e-03
8.518171107341356019e-03
3.537614668894616902e-03
3.611646611725494627e-04
-3.859394817952188118e-04
4.196633016786481237e-04
4.570788404155560689e-03
5.168270822501389028e-03
2.084006570132051605e-03
1.247116081909794639e-04
-1.142890522333646309e-03
-9.944741792107759590e-04
-2.786865435624325156e-03
-1.007608570585111826e-03
5.841292141964439869e-03
5.050887254355931714e-03
1.588592594506489175e-03
5.784980845981917228e-04
1.042576270621418911e-04
-5.425780798545500397e-03
-2.059812196822176020e-02
-1.791601967467762110e-02
5.598719371558256866e-04
2.331862767793516783e-03
1.845367410308221962e-03
6.722503021297005291e-03
3.985919833515505842e-03
2.476074103602998342e-04
-6.883025602889080536e-04
3.997147563801266789e-04
2.255988175122564620e-04
-7.602435266608880424e-04
-8.026101037012089035e-04
-2.731445307779689202e-03
1.500182311850059525e-03
5.207872917845747865e-03
-1.884444075629949770e-04
-1.085883238770838982e-03
-4.431453928360663970e-04
-2.838237510668961076e-03
-1.012175521249565163e-04
2.056283865470734037e-03
9.751488089970405905e-04
2.848668222593552478e-03
4.874828373970850268e-03
3.559005212851770131e-03
1.166699378778154233e-03
-6.987784896910377705e-04
7.719455965686449167e-05
-4.948794465473534999e-04
-6.091664870805505935e-03
-4.484816136771294787e-03
2.645909390605291275e-03
2.156384471449517351e-03
2.902317996926674203e-03
6.243486949967038541e-03
1.319440151879136070e-03
-5.164568794776245274e-03
-4.870415558841532412e-03
-1.402100471304749008e-03
5.456972425085962562e-04
-1.775475725726905537e-04
6.742918860558707499e-04
6.026543761749841681e-03
3.768082504541308327e-03
-5.717561331355464245e-03
-4.621941953217932608e-03
-1.761418235562679877e-03
-3.240862155741107246e-03
-4.344636357711954594e-04
2.129177492528898635e-03
5.143773265637285527e-03
-6.865354089905315992e-04
-8.864252599936358820e-03
1.379674589578450735e-03
4.647708602321542863e-03
-1.829611633782080287e-04
2.787561145156217807e-03
-3.403434224892081840e-03
-3.849256484460646197e-03
2.685654111805961183e-03
-1.179713642672481407e-03
2.664627132535600258e-03
7.622103214963969232e-03
1.862692573661680435e-03
-2.783552769806920367e-03
-6.557004947808218152e-03
-6.102403190357322087e-03
-4.383302454514194564e-04
2.939880733594098412e-03
2.871744904829266060e-03
-1.696200192899878392e-04
-1.093462077868484353e-03
1.400717189207229636e-03
1.009531751789081652e-03
-2.143242248417167976e-03
-1.728029937494093843e-05
5.097205734293112911e-03
1.411114823680983650e-03
-2.975518736303886264e-03
-1.764160675713518473e-04
-5.179382124971396899e-04
-1.849082063210009648e-03
-3.169388056478217915e-04
6.433282728665184200e-07
1.538782609958623581e-03
2.671366663133600654e-03
1.817652100102448145e-03
1.203434996193777180e-03
-1.630669888988974837e-03
-3.338227468876086429e-03
-1.914035037957070938e-04
6.090954602143963583e-04
-1.507392261596065533e-03
1.453003972809951538e-03
5.326176236051929913e-03
3.632433307345899181e-03
1.129592634059292710e-03
-6.951513646067169691e-04
-2.233300403762765972e-03
-5.622368154433442797e-04
-5.856565727284344935e-04
-4.976033212845516751e-03
-6.198981155701258419e-03
-3.085768384975824240e-03
-6.045865917640396272e-04
1.566722855955777116e-04
1.110465692548771302e-03
3.516143369636909842e-03
1.695409650706376737e-03
-4.523332052419825125e-03
-2.961147932450725918e-03
3.816061007067866190e-03
4.573284174572502664e-03
2.344014836471845081e-03
-3.512213086406740302e-04
-3.636377749340464777e-03
-3.269687053141890482e-03
-5.900703327995485462e-05
2.587723271640445920e-03
3.071332065331636770e-03
1.329275328429553723e-03
-3.400649306763804192e-04
-1.040995952004498308e-03
1.071789789586171044e-03
5.092858707549476061e-03
4.450298329533673020e-03
4.218596030370368784e-04
-3.197566345445831005e-03
-4.632652189112986679e-03
1.671724522412439346e-03
6.599097404852531656e-03
3.787176486373063414e-04
-4.936850923748468782e-03
-3.425976654202776001e-03
-2.223061791529704219e-04
2.012944967399001093e-04
-4.206638242901333986e-03
-5.275020423124865063e-03
-6.754189959256946765e-06
4.691678555080360490e-03
4.146978229081281671e-03
2.943325247171290271e-04
5.993679396142744713e-04
9.659307418769956435e-04
-2.181204736549091205e-03
-1.805637572237533310e-03
-2.715505570990522878e-04
4.638941916857859107e-04
5.527196829304413831e-04
6.998223813539387796e-04
3.222558126318909259e-03
6.149155066463800725e-04
-2.944264102732408774e-03
-1.232851592364048307e-03
-1.374251511711422095e-03
-9.400281737953178514e-04
-5.430772189020244278e-04
-1.568539758548998441e-03
-1.166908688160523712e-03
-1.716677829071882331e-03
3.072347314471446725e-03
8.267336108959622704e-03
4.067627023539148803e-03
4.618777647842791149e-04
1.324994939116164736e-04
-6.505203605766051670e-04
-1.300720681642702353e-03
-1.471522147252651543e-03
-9.479848379222872426e-04
-2.902008323163946749e-03
-4.025070723741508080e-03
-2.635362383523131690e-03
-1.380734660452267309e-03
4.150252204072237406e-04
-3.589857800101510770e-03
-8.558498441312711522e-03
-4.061325378678838464e-03
1.213448699082344748e-03
5.168669395384965304e-04
-2.580663803126620730e-03
-9.606623158596949924e-04
4.389217135999904859e-03
4.271411700066526582e-03
4.676791999307238108e-03
6.097961971764563616e-03
7.779483734004805518e-04
8.142778819643774766e-04
7.014420922266686141e-03
5.152803009774077451e-03
2.639333229710776659e-03
6.178475671534376830e-03
5.907485345507055771e-03
4.360085922000993437e-03
5.542523884970518462e-03
2.147649271506333647e-03
-1.642129542485734758e-04
-9.390219485138173554e-04
-6.777154427416887117e-03
-4.935996753264431519e-03
2.967878729549833922e-03
3.890945540297653660e-03
3.370904046278279907e-03
2.814268591539834021e-03
-7.813723344962908782e-03
-2.931007177159604751e-02
-3.356212782797718397e-02
-1.044774960737592309e-02
3.591557110173830124e-03
4.571184025432325354e-03
6.409505457724443654e-03
2.529036543941216419e-03
4.142497814449383996e-03
6.138877087977295637e-03
-1.631808733219052097e-03
-2.066512491431483130e-03
1.669893746717942455e-03
6.537078066174329023e-04
-2.068650210596645160e-03
-4.059233954109504709e-03
8.815306402387625574e-04
8.376482143846513892e-03
1.096356766285407590e-02
7.134392427014104449e-03
2.690713371061365621e-03
5.305575242079969660e-03
5.662446516420120007e-03
1.590324360202437269e-03
-6.964309522070792971e-04
-1.246277572222161643e-03
1.897517560041075187e-03
-4.439989142344660995e-04
-4.780987316802023414e-03
6.761308084399605305e-04
2.921303108889584509e-03
1.346446622978655265e-03
1.436649296639999152e-03
-2.906525643901237965e-03
-5.070019469508071572e-03
-3.803485487634204829e-03
-3.923036476875288794e-03
-1.842254129219574911e-03
6.007353557057307399e-04
-1.921835404697751432e-03
-5.215548418751465333e-03
-3.221295151343174425e-03
-2.291488255456203445e-03
-2.938081205595765612e-03
6.479163984047007314e-04
2.087703388938037374e-03
2.394013884647205274e-03
4.016397304046059706e-03
1.440135538547201348e-03
-1.179135162222127433e-03
-3.883214129592497607e-04
3.496647104554527225e-03
8.627164071810328183e-03
8.179487379909566522e-03
1.332468925327572225e-03
-4.086350823040274700e-03
-5.519975914293882456e-04
6.149670956719765352e-03
8.422190519033397396e-03
7.670024051112402617e-03
3.698601687704544932e-03
3.007846622434539458e-03
5.960382673404496408e-03
3.179676596247551536e-03
-3.316058434687926479e-04
-1.452506945870100669e-03
-3.408632259195909075e-03
-6.457733166597650828e-03
-9.009266283204451359e-03
-8.370066393212000078e-03
-9.441954073080988108e-03
-8.827532646845321143e-03
-4.340737464730487494e-03
-5.460661307556190051e-03
-6.400526878932568352e-03
-5.872367699517529703e-03
-9.746481804634301443e-03
-1.290099328391899024e-02
-1.000830163736082280e-02
1.004378640872195371e-03
5.978821584305528923e-03
1.978110031360642319e-03
3.215950613901326013e-03
4.816825367838350330e-03
8.355169748761402670e-03
1.089779316993801789e-02
4.455819001740831189e-03
1.124294558386312631e-04
-5.052900033404899433e-03
-3.808040008129778050e-03
9.661396976682761623e-03
1.261046835885933429e-02
8.215532565672050216e-03
4.935446690787025255e-03
2.108488403013700479e-03
4.485827810547887880e-03
5.861943471753426789e-03
8.096893656863841937e-03
7.545908502229563102e-03
2.386992591206863520e-03
2.433096504728707657e-03
-5.924386651158506691e-04
-1.217612367795672034e-03
8.701745100098937265e-04
-5.659653973112090640e-03
-3.345585609882672888e-03
5.032590332075604841e-03
8.994313664586644705e-03
1.305497488782349398e-02
9.412170084707599527e-03
2.838485239894639710e-03
-7.181979367177319593e-03
-2.256642975834440012e-02
-2.796104680397834552e-02
-2.767341774511847263e-02
-2.147557275696840989e-02
-8.042692062700808678e-03
-6.859963649307123865e-03
-1.145796664510446636e-02
-1.163471166501143551e-02
-1.695516420148557996e-02
-1.882035540289445780e-02
-1.612388624794359321e-02
-2.221230163456410639e-02
-3.278274720880505755e-02
-4.123475738729243806e-02
-3.335158682243497680e-02
-8.490992044451625698e-03
1.014735347144447158e-02
3.746712714960497015e-02
6.557571842154238939e-02
6.122392098797269089e-02
6.133908751951433480e-02
6.554974229024067289e-02
4.904126265645950000e-02
5.939644518985542909e-02
7.982912982343466635e-02
6.387425173599031725e-02
4.278623354263412504e-02
3.167683321584145728e-02
2.448272949076745614e-02
1.164944530207568871e-02
-2.366769367417840761e-02
-4.993414397409246669e-02
-4.161668384085142475e-02
-3.025551679526797960e-02
-4.573640835492466528e-02
-7.654300850822132185e-02
-8.772226809678589088e-02
-7.673871126088940842e-02
-6.361606693326210538e-02
-5.811810814913015433e-02
-7.366585874478537299e-02
-8.680449313562521585e-02
-6.371164557977010423e-02
-2.863180763449005642e-02
-1.768007680722823161e-02
-5.275156775622939082e-02
-7.925435361785661270e-02
-2.195575201968894691e-02
2.186397167699183700e-02
6.961781093957631825e-03
5.009842861671795489e-02
1.184989820416878642e-01
1.568997030090905354e-01
1.947302844847113301e-01
1.754171329563946335e-01
1.299902486417540415e-01
1.210221410793915070e-01
8.111906415885813959e-02
3.619843864651194065e-02
2.961760496178894586e-02
-1.943332522240204729e-03
-4.628309546120875501e-02
-6.260247248071081072e-02
-5.949537502730124078e-02
-2.949224589373160635e-02
-5.033989609673461887e-03
-4.088537774134928804e-02
-9.556235993039480237e-02
-1.050356568900787241e-01
-9.121352859270388802e-02
-7.296730041705348779e-02
-3.873366811200461973e-02
-2.143973068785729602e-02
-2.897618754631314450e-02
-2.131624788695666087e-02
-1.236203888425347307e-02
-3.769282470876094554e-02
-7.478488957586321151e-02
-8.389754753747649674e-02
-7.292353094353420939e-02
-5.587690182605445366e-02
1.643657565976122670e-02
1.373957050683089764e-01
1.782778226408284483e-01
1.201311953141253608e-01
7.689175139497748945e-02
6.363694537826404540e-02
4.544983412954390484e-02
3.147727121172494424e-02
1.673615842606775497e-02
8.504220394788992998e-03
8.662249374421518433e-03
-4.762149110735502608e-03
-2.215397999644384136e-02
-4.050374406554489021e-02
-5.838614641560602170e-02
-4.930960502637819071e-02
-2.408636426966386315e-02
-9.052263918823324346e-03
2.310677741804854544e-04
1.272705782479321285e-02
2.504652260293770832e-02
2.502624669666469320e-02
1.062457510494658509e-02
-5.860650858581579331e-03
-1.510608823687689152e-02
-1.555728513462627943e-02
-1.112113599986895573e-02
-7.493596485662158864e-03
-9.225951798862645770e-03
-1.046434554794401645e-02
-4.827917140776290077e-03
4.369647694378400206e-04
3.976650668321955046e-03
7.889383971157019199e-03
8.889008835152001700e-03
7.655114456415442956e-03
5.257130448014546084e-03
3.220668932493971244e-03
-2.461216545769218784e-04
-5.197605833957906311e-03
-5.109936551575237559e-03
-4.572528005726170588e-03
-7.228151590291187825e-03
-7.572062290381867920e-03
-6.856512974471996522e-03
-7.146235584824310420e-03
-7.099714651392132099e-03
-4.033542985735703336e-03
2.888971908367217326e-04
1.321228319728893347e-03
4.003432080049493420e-03
9.115401293475204614e-03
1.390085415277716833e-02
1.681612816705020316e-02
1.265619713958112368e-02
9.141561147130366355e-03
8.085377363022625344e-03
1.501821477879421987e-03
-6.916200915468192741e-04
1.503813758106326524e-03
-3.725191558488198922e-03
-8.650275682257516779e-03
-7.255717571719290902e-03
-8.712520033880746806e-03
-1.014163853032903385e-02
-5.728615926357323584e-03
-9.103711830605040051e-03
-1.417021283360823773e-02
-3.844144047563930952e-03
4.578202575632036794e-03
4.794835271078074813e-03
5.147873080617420584e-03
-6.815179159099864995e-04
-2.851760584511323516e-03
4.702191526136518564e-03
7.163131358658061248e-03
3.967050433123957449e-03
4.283753698334769738e-03
5.160994852283388307e-03
2.003820373434071767e-03
-3.635137562579850417e-04
-2.739534071476338369e-03
-5.460236113850688681e-03
-3.861291968837263656e-03
-3.401888331801474798e-03
-7.105160600720173596e-04
3.952766676267829848e-03
1.817289774854092491e-03
1.945252312348517238e-03
1.213244060812247640e-03
-3.357368401216287088e-03
-2.708127536767781108e-03
-4.381656706717656016e-03
-4.356830208707794007e-03
3.200752428604451477e-04
1.722741171156804934e-05
-5.619985283082794568e-05
1.125785354765573279e-03
4.295278512976087419e-03
7.417953532026432158e-03
2.811294037682527877e-03
-9.104399645671544224e-04
-4.003632025703452411e-03
-7.828731727683104977e-03
-2.179355292484080799e-03
4.460966263328304711e-03
2.439518242976682072e-03
-2.021082185038428590e-03
-4.823839069505457718e-05
5.579682156521818814e-03
3.275759261584343645e-03
-4.260167008399570136e-04
1.790321063332518583e-03
9.418048830290994640e-04
-1.534393406537070499e-03
5.015472524317945031e-05
1.197333063625921233e-03
-7.901358735457451486e-04
-2.574547776346315740e-03
-1.913191201724358205e-03
-5.231465778195368418e-04
6.974403009070401878e-04
4.214285714353445769e-04
-9.968441377653041412e-04
1.263641306217878771e-03
2.893939354209047830e-03
-1.670350435890344135e-03
-4.398017679725067623e-03
-1.701289102362687914e-03
6.987764835127264042e-04
1.053169642622128104e-03
1.359002756711917624e-04
-2.461238715472168631e-03
-5.887940382409408320e-03
-3.079932778907612956e-03
3.298027394497477470e-03
-1.980257187902894657e-03
-8.430769823250130676e-03
-1.910201159536782265e-03
3.247620661568349689e-03
5.256996719427914702e-03
7.628034907575684427e-03
1.953946029990858129e-03
-2.066523714304997327e-03
2.588469004988874257e-03
5.549628555692228370e-03
3.174583946740886994e-03
4.299183550986317593e-04
2.606972593045446887e-03
4.237508305107441121e-03
1.910946997294534020e-03
3.612375730857167889e-03
3.480484955594151386e-03
-4.005336531147757687e-03
-5.755642643261948098e-03
-9.546644766865781560e-04
-1.787358937303301989e-03
-4.037529109775528716e-03
1.604191245161933868e-04
3.672918473127758602e-03
2.530481626750761322e-03
-4.114797954499892652e-04
-4.325424369195099428e-03
-5.168501041374637915e-03
-2.952826552071813587e-03
-4.196721196632858912e-03
-7.709825653906276360e-03
-7.739313743477120415e-03
-5.990353572931898449e-03
-3.292739617614017910e-03
3.089808664533609875e-03
5.779983391142169691e-03
4.763075588321428327e-03
6.903322905620015541e-03
3.188926255313682869e-03
-1.549145750378069504e-04
5.339049011665453551e-03
4.292468609498344828e-03
2.894241784474818526e-03
6.569845866130782051e-03
1.648963939548694739e-03
-2.812379423063780890e-03
-1.892729323053408139e-03
-1.682861765626150708e-03
5.015783055383457101e-05
-1.185561446424853371e-03
-3.893319837921886944e-03
-3.449390834624562266e-03
-1.008858874316496870e-03
2.761518499519238605e-03
1.014746245647661681e-03
-4.479640359416354328e-03
-4.963771572498841371e-03
-5.311522773996206481e-04
2.795605595413527995e-03
-1.149171594866110844e-03
-4.554874509861550104e-03
-2.039439506877285899e-03
2.900170028967806869e-04
8.660697963135360715e-04
-2.653200559238162379e-03
-3.312145418140271386e-03
1.037127419138676341e-03
1.102801002440622832e-03
3.330752496166199898e-03
6.256128432262080853e-03
4.917033409274356934e-03
4.306158786989185659e-03
3.504023856046694675e-03
6.549380401989886302e-03
5.939007904991498027e-03
-1.990763212271587021e-03
-4.471618010199762162e-03
-4.639978114728479652e-03
-5.791449301459461289e-04
3.718165113889291065e-03
2.582208658184022374e-03
3.802332061717445671e-03
-1.104353035385942546e-02
-2.829274348266520508e-02
-1.416455858962952820e-02
3.440615048664159674e-03
7.197504243498992205e-03
8.090408447531914626e-03
4.315773054381271366e-03
1.755890321365544821e-03
3.799069673499544299e-03
3.880200977574571955e-03
1.889197497116289768e-03
4.715638513697564815e-03
3.227990268297272012e-03
-8.215118737630890816e-03
-5.889954479102571180e-03
4.698594857784152250e-03
2.429216627176438489e-03
-9.466877169020793516e-04
7.337511416380930072e-04
3.509163127489250099e-03
3.541647121711308764e-03
1.148187253687572444e-04
-2.039057749695225106e-03
-5.698798326804607392e-03
-4.996938948143256863e-03
-6.567283026217226889e-04
-2.195523271387624618e-03
-3.667174739947747213e-03
-5.769290585475456146e-03
-5.269918799470366816e-03
2.741469420305857677e-03
6.342258478927225059e-03
3.511424800615230331e-03
-3.152635008089933223e-03
-7.437500827739839879e-03
-2.940778604287514354e-03
-1.618981231172398087e-03
-2.104551700568819614e-03
5.380834845072641343e-03
1.310333389445025518e-02
1.553006064921699618e-02
1.266706419846011338e-02
5.613805375059881947e-03
4.910269111038205198e-04
-1.118091824918651710e-03
-5.080768070536069436e-03
-7.006775872559981543e-03
-1.594717804272477663e-03
-4.356710769975021859e-03
-1.119223655862316459e-02
-2.467332715251333453e-03
5.051014021491222368e-03
1.584987815185236095e-03
-2.309317498998446697e-04
-3.678540021292051564e-03
-5.618699641398949146e-03
-8.331914623098508280e-04
2.610566934373975256e-03
2.453452806142324832e-03
-1.512859919027170199e-03
-5.027934332016213530e-03
-3.092177074820409190e-03
-1.340285286912784579e-04
3.184166965804222614e-03
2.876521028960990663e-03
-4.122123189957475203e-03
-4.788264164816057912e-03
1.059681186765747433e-03
7.057146695065089070e-04
-5.087999858552387988e-05
4.523113494148947936e-03
6.017699552948152161e-03
4.285328287092331385e-03
3.477948721530995345e-03
3.217873639775357692e-03
1.870463879124133460e-03
-4.586185949910287149e-03
-6.979304893513251645e-03
-8.087171854352030297e-04
4.308759509121171116e-04
1.319872128913924169e-03
3.328938199640750582e-03
-1.292781839821925986e-03
-7.470936936383406647e-04
3.743011305952100975e-03
3.732620747280099641e-03
5.042903334175199504e-05
-4.429244125527231554e-03
8.418574554880855088e-04
2.895243607445283779e-03
-4.673033765794433123e-03
-3.427078521392543792e-03
-2.148340599011189928e-03
-1.148896637451680362e-03
4.422440849413209613e-03
9.256781811161963504e-04
-1.090950413872550200e-03
-1.382142723237418788e-03
-4.962880058824683215e-03
6.119133704831273115e-04
-1.496648782694921190e-03
-1.105321285565201254e-02
-3.245529385910666306e-03
5.866121109898455102e-03
2.745610571796058309e-03
1.263327681074181280e-03
2.042119728741271546e-03
1.417110108782702535e-03
3.175301177349886678e-03
3.517068805956965159e-03
1.101701699263500037e-03
1.051511252026723908e-03
-8.418151956302710867e-04
-3.075906927075999948e-03
4.604583547728584043e-04
3.164836902053557149e-03
3.110416967594077306e-03
2.226662193302060468e-03
1.290369618488919779e-03
2.940107932943995892e-03
1.202013828851624527e-03
-3.181327083539821181e-03
-2.933348945088517547e-03
-6.644024380963841746e-04
3.459280151732631575e-04
-1.453568455931251004e-03
-1.108952549747858419e-03
2.567615687893605881e-03
-7.616750330526038002e-04
-4.638847654237214513e-03
-2.094174172056331284e-03
-2.566518198413251378e-03
-4.876128146633326547e-03
-2.784571348154417196e-03
1.529436597511149402e-03
1.178226415578814083e-03
-1.719288779006772740e-03
1.238339269692040378e-03
1.918726255437570773e-03
-6.441056332998379864e-04
4.155873877236176202e-04
-1.892766846716560354e-04
2.458743630368316786e-03
4.959403799646440458e-03
-1.087881206113481007e-04
-1.988497244430600421e-03
-1.423656242363371916e-03
2.292399056782640308e-03
7.689462514532416880e-03
2.572805662721275484e-03
-1.386953257811339348e-03
1.682207449162417346e-03
9.352911461426003954e-04
-1.638413524822387394e-03
-1.349607998066064320e-03
1.841352394942511080e-03
-1.290022583375267408e-05
-5.026872354306827738e-03
-2.450267113230414524e-03
1.485867243704218029e-04
1.331704197548490981e-03
2.894922055226239240e-03
-9.187337039172222821e-04
-2.213809580668522990e-03
-2.878945079928386334e-03
-6.816929643051920090e-03
-2.141474730512159860e-03
2.210777812568546444e-03
-2.865112295934863808e-03
5.990645499252446196e-04
8.998239624011236670e-03
4.382986800467476331e-03
-7.847017066448383005e-04
-8.894917995989538471e-04
-4.732689021282936344e-03
-4.484205683251754442e-03
-2.347009669097518004e-03
-4.060280441310211777e-03
-3.622444260829295933e-03
-3.252170754279463949e-03
-1.277570375868400214e-03
2.359650503319181067e-03
5.918935132617004135e-04
-1.622144522365279564e-03
1.487212961078062312e-03
4.820592819553300504e-03
1.955033665038663580e-03
2.536633904295872068e-04
3.884074639859555911e-03
4.568075430180791596e-03
6.549115634490233241e-03
7.466443420168073636e-03
3.487875161307388543e-03
4.944869259148311491e-03
5.424714113257395401e-03
1.929529459177648301e-03
1.742583675608801131e-03
2.834490667233011737e-03
2.935460763708703028e-03
-8.436503172360326243e-04
-2.082115573941573355e-03
1.172249689501046093e-03
2.445791759452352679e-03
4.504060750999895786e-03
3.908719996599028731e-03
-3.858972926680932086e-03
-2.520795592940112267e-02
-4.052888734781565777e-02
-1.772894697727633168e-02
5.496679873242955351e-03
7.629279695775113834e-03
5.158627539784597926e-03
-1.556038130136874059e-02
-1.716965962117807803e-02
1.072068489442836066e-02
1.054169698475298199e-02
2.156237072664578865e-03
7.277054917588276876e-03
3.384231016805548404e-03
2.229539901517567629e-03
5.945085719021868213e-03
4.370986687563655632e-03
2.963732266598736315e-03
4.002994651805474348e-03
4.726107469250527549e-03
3.651972405528473072e-03
5.366422527472367032e-03
7.092336001358680829e-03
4.901318473313705931e-03
1.918787880772394394e-03
-1.628052042003899115e-03
-1.542228669964073673e-03
4.283676232755676862e-04
3.107815068289194278e-04
-1.941703956787898394e-03
-6.353120837894238662e-03
-4.700648884219583816e-03
-2.259502423548524416e-03
-3.940454438680019746e-03
-1.953337394511050432e-03
-1.722262960165898190e-03
-1.762732831057972583e-03
-2.843675200911793756e-05
2.661663877197664209e-04
1.814922944647181721e-03
-1.359157035853512810e-03
-2.236479999735399484e-03
3.000616508048752594e-03
3.320992836866617712e-03
3.168651390903853317e-03
2.901453550239744845e-03
2.839909810050340443e-03
1.311571227130041645e-03
-5.223635703984760154e-03
-3.608891113128560261e-03
-1.912975300000146822e-03
-4.877345990017688433e-03
-1.967183882963786674e-03
-1.805264427947359841e-03
9.289175529730691596e-04
3.711275989987710723e-03
-7.816806654630266806e-04
7.795378872231334627e-04
-1.423152316513338986e-03
-6.600457005343347838e-03
-3.620704222497255625e-03
-1.832041129857113959e-03
2.800464416863263865e-03
6.105500740762965541e-03
3.486034593746340123e-03
3.346850776543717956e-03
9.913661140654387704e-04
-1.514338806463448595e-03
-1.279336052483411555e-03
2.260039261086609942e-03
5.795277460371573049e-03
-5.627176244067273996e-04
-2.419187901745958446e-03
6.358604763550539541e-04
-2.209766232115016604e-03
2.618379882800364166e-03
5.855508891514427106e-03
4.111560598949893369e-04
-1.762991622198835416e-03
-4.400342796673573260e-03
-3.336013236409468910e-03
-5.916805772142770807e-05
-2.489690931098938100e-03
-3.556990871506217778e-03
-3.574151415602834503e-03
-2.061732740062431190e-03
9.339019736014150938e-04
4.872110187614078812e-04
5.528164823052899180e-04
1.489086937137332721e-03
3.107198068955315667e-03
4.530745072805561144e-03
2.304467622153346783e-03
7.851015210709682375e-04
1.410239181070516200e-03
3.060672237758988237e-03
2.981444363517908244e-03
-1.935382645776564307e-04
-4.330827672929216891e-04
-1.179463507851658899e-03
-3.443580720729204955e-03
-4.089921248520071002e-04
2.491443920050654456e-03
2.071447428403250506e-03
7.464304503117942221e-04
-1.837892263754725133e-03
-1.878509409321775254e-03
-5.099060552627670797e-05
-3.543013260572526035e-04
5.553394751251084904e-04
9.906249798323377240e-04
-3.991165058072088448e-03
-5.649582809562204815e-03
-7.266995806806347911e-04
1.250004112440855110e-03
8.898621190361515401e-04
-2.621602210994880533e-04
-1.160895298974205531e-03
1.396271949435909593e-03
-1.455301786991893736e-03
-7.318901872056633555e-03
-4.238910487230471494e-03
1.895139521436210511e-03
3.719518269183876794e-03
1.952175914168972513e-03
9.371431349943218012e-04
2.578593071008633553e-03
2.277299985937180412e-03
-1.890272039038603537e-04
-1.602828629808337145e-03
-3.514908931005085571e-05
9.786873818752774967e-04
-7.323865143881980698e-04
1.460693576579566531e-03
9.062145963862896581e-04
-5.300826674008881495e-03
-2.476588044989355610e-03
2.807404403980535545e-03
2.176990362312935471e-03
4.709115786616472309e-03
6.512388159372348682e-03
4.243444977441323054e-03
2.640504093741541554e-03
-9.735958745567844727e-04
-4.294688507441839914e-03
-1.563669447321150560e-03
4.203190248909387770e-03
5.469622892848324293e-03
6.256253165438586039e-04
-2.706669971068044207e-03
-3.295628032211542126e-03
-4.559367246543362048e-03
-1.853636234816951993e-03
1.356697226125149879e-03
-4.252827940733716443e-04
-1.677901231257139828e-03
-6.089424712389574813e-04
1.342729698860029280e-03
2.027261412970120648e-04
-3.621747543841739685e-03
-4.041857124939282273e-03
-6.000600692997892609e-03
-5.552583733349410536e-03
-2.800807835488432147e-05
6.960021694280788614e-05
2.530122972285882548e-03
4.753697604999172592e-03
-6.373969352893734362e-04
3.203818905004073622e-04
2.845012375490158126e-03
1.717420657476066963e-03
5.151827708219208204e-04
-3.511629071323177885e-03
2.939516070503675254e-04
5.945222009993375925e-03
1.193505980655617344e-03
-8.519370884254258208e-04
6.495999291023953331e-04
-8.463158731562638081e-04
-6.691475078154919499e-04
-3.142855684858957043e-04
-3.016097534503770373e-03
-2.975751468742035208e-03
2.349701898885487358e-03
3.912815643281253829e-03
2.793470332654609742e-03
4.255693950741936196e-03
1.213036112936707531e-03
-6.912680589501540938e-04
3.236034145632660057e-03
2.853190332174083401e-04
-5.503620665406970709e-03
-2.268999842163289034e-03
2.834187042175942157e-03
3.305625438981210293e-03
3.031979246618716085e-03
2.562092451853487107e-03
1.706425444644598180e-03
1.301890565980688089e-03
-1.643872006469621224e-04
-2.280737554392684666e-03
-2.022931635413328672e-03
2.473753041373483608e-03
3.945786932109702529e-03
1.993111408873721440e-03
1.202523264093757245e-04
-1.525260961324024188e-02
-2.659722662015788844e-02
-1.099542162065196213e-02
2.790850608990996622e-03
6.186414475510972066e-03
9.101717180644529337e-03
4.952117826213489789e-03
2.106809609141442000e-03
9.714191967147027453e-04
9.009582767517306792e-04
4.221156834670078059e-03
-1.117426053448891503e-03
-6.643471771460224447e-03
-3.360146662394034641e-03
2.436908490158207208e-05
6.627460362460479114e-04
-4.698180764682306667e-04
1.152734351390467598e-03
4.400878411503661436e-03
6.060690815787392154e-03
4.450754006411672750e-03
-5.474421305044974888e-04
1.428086835756103932e-03
4.860769272376251789e-03
1.171953964704552454e-03
-1.306810294643809614e-03
-2.588356030743413014e-03
-2.498782258234986085e-03
-9.605517316013846433e-04
-5.179976197361687087e-04
6.156733219996968296e-04
-3.794593371353553453e-04
7.240584493326663153e-04
3.378327755854803206e-03
2.820577827942076011e-04
-1.330769069261630595e-03
4.827500724322680804e-04
5.216241977910447512e-05
-1.919263959651565940e-03
-8.727519604918433475e-04
2.407001749421730161e-03
1.603803279658295002e-03
8.965502090271149256e-04
6.493104992589639798e-04
-1.731905168081935252e-03
9.574708044524424646e-04
1.592123324715557153e-03
-3.747541435040553127e-03
-4.752923476065215938e-03
-4.754385826343967940e-03
-5.221651019096728435e-03
-4.542552685071534488e-04
1.788845527717067806e-03
-3.107757529402440343e-03
-3.486621824053252904e-04
7.927531993542626457e-03
2.858723646528589860e-03
-2.107989951604377979e-03
9.041205280161991337e-04
-3.841365174484549002e-03
-4.593638915295877000e-03
3.304468885830489332e-03
3.334355215009182118e-03
-1.272555877165719700e-03
-3.972261259806324392e-03
-3.119280059057688743e-03
1.986629955439552300e-03
4.943145943439435433e-03
4.300311613142396468e-03
2.036726276388154972e-03
9.620271456929847863e-05
1.360533464488245913e-04
1.993246122346363784e-04
1.461568595946127628e-03
2.778258732414117665e-03
-5.173566322614266567e-04
-3.151378885240892561e-03
1.820156139780829997e-04
1.932588484594267766e-03
-5.459122763643829441e-04
9.504444977500556323e-04
3.099587333812180590e-03
-4.557342626802001937e-07
-5.434995722277870950e-04
1.651624885072122499e-04
-3.461704219489256541e-03
-2.096006540413931137e-03
2.730417554667935020e-03
-3.923511431872110959e-04
-3.602780691005466693e-03
-1.212828881634791644e-03
-2.413165959448200677e-03
-2.850196012866440271e-03
3.185381499064232798e-03
4.529625370908080088e-03
-1.365670458074903781e-03
-4.387546166919623937e-03
-8.715595135467542158e-04
1.354474143935354129e-03
-2.161401230682598752e-03
1.034339273898749877e-04
5.127505103567539177e-03
-4.432814665715044812e-04
-2.278607437481630985e-03
4.451516983124503661e-03
4.904847541197773601e-03
3.153606834529325623e-03
2.332381597587169109e-03
1.689264052325345825e-04
-2.161767065304391871e-04
-2.344128135382612683e-03
-2.324155999828215070e-03
9.028405836611808240e-04
-3.762280718788204095e-03
-6.970045526227523595e-03
7.149189260692016172e-04
2.649608703246574600e-03
-3.091079655848634998e-03
-1.163788520847351812e-03
3.527988839759696373e-03
2.428405434283809668e-03
-5.702705975926242567e-04
-3.447283450662077305e-03
-4.302804499009547576e-03
-3.155306140504567699e-03
5.413300929334672598e-04
5.156291060995654187e-03
9.050430800297938963e-04
-2.871927312599599665e-03
2.388906281542032845e-03
3.575143064932443781e-03
3.837671077054136473e-03
3.452884977746123029e-03
-3.749424163593167124e-03
-3.548293995683897851e-03
1.310444069333572756e-03
2.166820527749539185e-04
-1.621253267461702651e-04
-6.621172860444260368e-04
-8.402780891888682801e-04
1.810416822511040419e-03
1.210125532947078225e-03
1.339554868190108851e-04
2.278907789746509663e-03
2.700271410983284479e-03
1.506322252710764684e-03
1.808963754195019608e-03
1.355972345282363892e-03
-1.806835800079022907e-03
-2.957163471146217158e-03
7.705966878945465746e-04
2.130397317355159966e-03
-1.149551556722205404e-03
-9.407884109210396190e-04
6.136219359499070535e-04
-3.234424489632362065e-03
-4.642478298237873863e-03
-1.210722531811198391e-03
-7.622095656970181120e-04
1.270829698812825110e-03
4.200725193793503585e-03
8.657834190372845412e-04
9.465157111836107950e-04
2.632941220658186355e-03
-4.314357640816128894e-03
-5.794746080973549839e-03
7.964423816786019884e-04
1.070409451707365770e-03
-1.697201645388715955e-03
-2.286521752153458133e-03
-2.050420811302540783e-04
1.757059989241492809e-03
-2.227930093636391700e-04
2.356222427668817291e-03
3.613583553589082200e-03
-5.220617350801543509e-03
-7.026730848022663505e-03
-1.286567161984693416e-03
-7.026652166854129890e-04
-2.472868651411457789e-03
-3.267069666735441646e-03
1.419143118589930508e-03
5.783617254288463128e-03
1.998630242416375106e-03
1.055975865945804008e-03
2.784506395182226746e-03
2.174976616588121612e-03
4.123735150893511996e-03
4.192180517403627099e-03
2.362519950158851762e-03
3.067304005012583094e-03
3.562538837183897803e-03
3.297312494433211113e-03
2.024890876214519454e-03
3.596594567127922798e-04
-2.025747322542697463e-03
-2.013195944953509713e-03
4.178215173443959596e-03
4.527203918197240072e-03
-9.952431075614155426e-04
-8.269708624007754720e-04
1.442423491696926199e-03
5.676030470669587817e-03
4.532978010946263868e-03
-6.464447778819612869e-03
-1.342669791395263365e-02
-2.253813650451004860e-02
-2.639335078028027734e-02
-8.260772023506810641e-03
6.124015250076455218e-03
8.506899975839563727e-03
9.269830901901575729e-03
2.834147710966928527e-03
1.550621156807291835e-04
2.435574964626859105e-03
-8.103312781268485554e-04
-3.337802451487497952e-03
-3.527325875283714423e-03
-5.483261507590270287e-04
4.685060442175687130e-03
6.827686199699595747e-03
7.800096211690762428e-03
4.866173712870478472e-03
7.635268691163136882e-04
2.938750128429703460e-03
4.519437333500605884e-03
1.315587291729135647e-03
-4.010693439097275646e-05
2.988342141824610818e-03
2.397123406072460081e-03
-4.155763960999251348e-03
-5.733171712648837959e-03
-1.384764837170050864e-03
1.872867457502537004e-03
3.064072199277680878e-03
9.365138586048783135e-04
-2.793436462626946570e-03
-3.563007869685207944e-03
-1.292808435018311846e-03
7.279352551071304909e-04
3.154201071191454347e-04
-1.244175111670139207e-03
-3.956111810488078563e-03
-6.590890882384519908e-03
-3.142648117754651572e-03
3.586567943778083602e-03
4.624955871426210743e-03
2.081587958907600219e-03
7.796027156556687397e-04
7.200642575885915931e-04
2.680439554170146142e-03
2.173596220564544355e-03
-2.199924719947893639e-03
-1.524816634279403541e-03
2.288975872862424651e-03
2.677744756773871564e-03
2.380191238219187249e-03
-1.079862573436393214e-03
-9.008105865978346949e-03
-1.208340338533294561e-02
-5.727250203807482745e-03
2.591252483334489237e-03
4.311944278584626568e-03
2.059389360343736632e-03
5.493555805195819101e-04
-7.553769109415805084e-04
1.228493625662306025e-03
4.142309774439153700e-03
2.778377696946320377e-03
9.749588302524932193e-04
4.974475281703238114e-04
1.963173865955006401e-03
1.083516797873863629e-03
-5.450503369152448832e-03
-4.040082409250188820e-03
1.488626699389198520e-03
-8.015507304331845806e-04
-6.105588945130461858e-04
8.580252304761857695e-04
2.025532217926867117e-03
6.448692952362986876e-03
2.624545288245194036e-03
-1.464743608009180667e-03
2.631070715201284157e-03
1.162442768842366801e-03
-2.281238571657048190e-03
-3.615279401163285855e-04
6.223313226672681775e-04
-7.407698533646713077e-04
-1.571609705033872066e-03
-2.775250047943810211e-04
-4.455712064989337498e-04
-3.096151479396026893e-03
-2.135455535018074627e-03
1.170684933078073534e-03
6.222465317153736807e-04
-2.710127648744379506e-03
-2.949567354818138139e-03
7.035872620039934633e-04
2.139998938784244513e-03
1.238776386688315075e-03
2.819098110337916237e-03
2.566195225570936777e-03
-8.043263903246182858e-04
5.867871035276230702e-04
1.964936822916807206e-03
-2.695507800908667709e-03
-3.399571315534027829e-03
6.990530274724414666e-04
8.344138116543656745e-04
-1.055350695069860213e-03
1.423715728813182261e-04
2.347596987526260389e-03
9.463158492983564504e-04
-2.297979747554665917e-04
1.357073410896486414e-03
1.508414787404855153e-04
-1.688583204260422389e-03
-1.579666634267144635e-03
-5.529806443050576652e-04
1.636572032120267584e-03
-3.079593594438335405e-04
-4.041407410705771808e-03
-1.118472708544289125e-03
4.049388934761804539e-03
2.464931987703652006e-03
-1.727616150343306125e-03
-1.097293252920069490e-03
-2.229219352851356806e-03
-2.279040007747084196e-03
3.434704130115402623e-03
6.374659738615532853e-04
-4.032263086950461060e-03
-4.583558221977072954e-04
1.577576063229609070e-03
4.308262586775612676e-03
4.644650009667809255e-03
-4.657827882657223154e-04
-1.893958376850808645e-03
-1.386157570126265049e-03
6.929592329899475836e-04
9.555035327291449936e-04
-2.743530296454473917e-03
-3.093655928994242920e-03
-3.616017326541269734e-03
-1.823094136510439601e-03
8.042545165758847306e-04
-2.926279416456616100e-03
-1.016644369312240219e-03
2.000834241258419004e-03
-7.085094693227733144e-04
2.343642400280632806e-03
4.000088354638692278e-03
8.973025208063818486e-04
2.591861703524849913e-03
5.514035013133509501e-03
3.694723741591560313e-03
-2.201605529365011169e-04
1.757553004009844129e-03
7.005480423464759479e-03
6.154481390911213830e-03
1.130514059055895155e-03
-1.021596111927458453e-03
4.756404367544426635e-04
-3.934909820821883876e-03
-1.087721478082775452e-02
-8.261802420910350359e-03
-5.554748413361744984e-03
-3.756882454421238936e-03
