-5.312711352052729152e-02
-6.502725434237104085e-02
-2.240103429144834832e-02
-1.552334463042726563e-02
9.876862429053735390e-03
2.963430834101318453e-02
3.341810375181571841e-02
4.291687710549878937e-02
3.787225176360346779e-02
4.187814044418244203e-02
4.328880556089281795e-02
9.525611348692576349e-03
-1.673420205646698050e-02
-1.061768819055877028e-02
-5.881313123129163975e-03
-1.433683763425755257e-02
-2.400601122190632042e-02
-4.023009727130909263e-02
-4.831452233305442989e-02
-3.839256814779199584e-02
-3.475397758957453342e-02
-2.741113085468924529e-02
-1.063367018145308131e-02
-3.084503231942479703e-03
8.160611196510441506e-03
2.230652567379320245e-02
2.390860393753825239e-02
2.415170552645214130e-02
2.855731995080272242e-02
2.787214104415678198e-02
2.467452312090715610e-02
2.045954202791070917e-02
6.078002696199232696e-03
-4.021283288547018372e-03
-2.439516267361022724e-03
-7.788977564093312739e-03
-1.094912810132601597e-02
-9.590523106260177844e-03
-1.804044493463208623e-02
-2.409652403203083396e-02
-2.202461807956744913e-02
-1.492335034676829132e-02
-4.352162035159853025e-03
4.301413714928556918e-03
1.162474147824425069e-02
1.044901835987424067e-02
4.875162822295210814e-03
7.390843424726407929e-03
7.823057965295565283e-03
4.227127482943057735e-03
5.442923964172547042e-03
6.730518466505479649e-03
2.243409415858444063e-03
-4.357899935768870525e-03
-4.395522234668830172e-03
1.811427764523049905e-03
6.021314200577178831e-03
3.638697181714617077e-03
-1.323604744861735802e-03
-6.764076182494414054e-04
-2.670310574468996636e-03
-1.112112481314910667e-02
-5.397229380179151097e-03
8.363325897238382128e-03
4.538219895431365794e-03
-2.833964389974191842e-03
-9.956141477045561856e-04
-2.307125597991043116e-03
-3.270359964400810105e-03
-2.742250771692955093e-03
-5.304468487958013088e-03
-3.455284345341580726e-03
-1.165764874659444388e-03
-5.214584929778155048e-04
4.431659585822639649e-03
7.253159498829762561e-03
6.077868311129530285e-03
2.950612114700425399e-03
2.310840078524392487e-03
5.516306416953546676e-03
-2.404031748727659620e-04
-3.341478762490658443e-03
4.085404202805619465e-03
2.240864087970909600e-03
-2.308916728503442300e-03
-4.984227159405715119e-03
-7.856723109949094452e-03
-9.683137282857559721e-04
1.352638203047374461e-03
-1.025622644625154593e-03
4.129090760939904160e-04
-4.901669831390509380e-03
-6.045855452120705610e-03
-3.144143336609627176e-03
-3.496882365359936518e-03
2.737454119870596364e-03
3.863914844942003927e-03
-7.260635144546033655e-04
1.155693734408446988e-03
7.034768502725872270e-05
-2.530837358986340411e-03
1.175637222127987004e-03
5.051063725691492742e-03
3.148185099987256281e-03
5.882795250000979028e-04
3.253088577040789617e-03
4.323434936058270957e-03
3.415460787764672008e-03
2.558434942621685190e-03
-1.406357545960548912e-03
-9.256133471147399896e-04
5.349595284190059247e-04
-2.175086057981929274e-03
-1.047836229925306348e-03
-9.644283661646121161e-04
-1.529688066860285505e-03
1.786738023960132227e-03
8.231820077940649747e-04
-2.247469716584645557e-03
-3.183929443741156072e-03
-1.751311927856452882e-03
3.751955668015840629e-04
-2.071990894784191302e-03
-4.377817138684158118e-04
3.517691656567679438e-03
-1.354835482601821550e-03
-4.134266842809597442e-03
-2.419118019204772371e-03
-1.195354097708676037e-03
1.462102219172937458e-03
-3.906618844699737613e-04
-2.296952029526263487e-03
-1.925557397407681899e-03
-4.830367493643176156e-03
-2.914681674762162073e-03
1.777012348752138836e-03
5.684195924661854422e-03
1.020859651413383480e-02
6.128172025163669198e-03
2.264565949991977512e-03
3.771653325490287312e-03
-1.110593406572126223e-03
-2.233179486448084571e-03
4.739412485963259355e-03
6.471419830439383881e-03
1.874979817668796095e-03
-2.972225327655260343e-03
-4.883362850065979012e-03
-8.036929551343779607e-03
-9.714909483095683987e-03
-3.227840670362035896e-03
2.368193331912238624e-04
-2.872621810074253018e-03
-3.194136227740618662e-03
5.451565724900816904e-04
6.072846343707474608e-03
8.998604369045256485e-03
8.390282317789156744e-03
4.387306334726444150e-03
-1.739467007887868710e-03
-2.781948479843666770e-03
-1.462966962489410444e-03
-2.060838107383627005e-04
2.557935925176989169e-03
1.485983436538519057e-03
-2.626626191296696760e-03
-6.466946159319308940e-03
-7.531149030024229633e-03
-5.200460790627229116e-03
-2.492965544001024113e-03
8.775594135223171695e-04
-2.306712736149967903e-04
-3.457535921103756498e-03
-1.370181475118362018e-03
4.388592247245406194e-04
2.855056276913885832e-03
3.910713676131117797e-03
1.465016416637850930e-03
6.312664628709659803e-03
9.898791626846384362e-03
2.120215454459113517e-03
-3.686905992586901864e-03
-3.807918255524619022e-04
3.346554116832778109e-03
1.338724400237347725e-03
-1.432716813015799326e-03
-2.533470113701191597e-03
-2.094104210188294998e-03
-6.169317773419167802e-04
-4.693508550266450342e-03
-7.563289453313683415e-03
-3.017697192718792488e-03
-2.869133601625213029e-04
1.592453280953967740e-03
2.124533475452962221e-03
-4.212156870000620910e-03
-6.118867755264774388e-03
3.403724740340837579e-03
1.028087131550483799e-02
8.300492618643642850e-03
6.669027940879857647e-03
2.801431989600711766e-03
-3.057767241665815695e-03
1.778519292716214222e-03
8.399142296867802976e-03
4.635071286792336563e-03
9.984700287327251834e-04
4.451488281028997572e-04
-6.745649925420553819e-03
-1.178413460689697011e-02
-3.862680911764764229e-03
3.214245142574035166e-03
3.662355246889227763e-03
-2.120946921874368365e-03
-7.331868788570646348e-03
5.637535116888765969e-03
1.092275670570296529e-03
-2.628067349864831453e-02
-1.393625964424173753e-02
8.170189275420035313e-03
1.700945878519196123e-03
3.297534647227734917e-03
5.233712030741404821e-03
9.357437135840825050e-04
5.215514127493718795e-03
5.528142032261986263e-03
2.106679380448684899e-03
-2.392250584452007469e-03
-3.685898777456646756e-03
1.407738988937016003e-03
2.256282331576220986e-03
3.791094269853913148e-03
4.266455436626447398e-03
-9.260482159605244821e-04
-2.890751548894593837e-03
-2.113484103589803077e-03
2.853041026366274786e-03
5.807908896023956935e-03
-1.630814412719225944e-03
-3.732201487353598978e-03
2.007785417094561792e-03
-1.422353049424134389e-03
-5.377700277539745541e-03
2.686820851980995656e-03
6.087874858889756255e-03
2.148714473609058141e-03
-6.019756236651630605e-04
-6.628640301047129813e-03
-4.731774953217522499e-03
-1.282927337205356198e-04
-5.695601278977605562e-03
-5.606518069850175562e-03
-2.310380184315151582e-03
1.941873244801629698e-04
5.185627430188292052e-03
7.223318676708541906e-03
1.323029672912453235e-02
1.210747294190606463e-02
2.429390361722584633e-03
2.633737075778068860e-03
4.614229228911251356e-04
-4.992521162000628822e-03
-2.794212164321185476e-03
2.526760578511419181e-03
7.111905416104113802e-03
5.119988673702660295e-03
-1.084777429801357575e-03
-5.909044018155684003e-03
-2.872849327466143847e-03
-4.970984046854243048e-03
-2.788493300766647573e-02
-2.592577907138316623e-02
3.642876774707733047e-03
3.065823508065493828e-03
-9.097032092487050692e-03
-4.061489886206860224e-03
4.592336724771640087e-03
1.170792788053843896e-02
1.081033965280546114e-02
6.675234959823969812e-03
3.540966008367820318e-03
-3.533439598341064393e-03
-3.670563906519194296e-03
4.745285525655336227e-03
8.731268329641826351e-03
3.793621717284335719e-03
-1.233238676645812730e-03
-1.875868327858184982e-04
2.666115092469258097e-04
-1.284107767111151988e-03
3.099477032774644006e-04
4.841249233064924724e-03
3.785127902137466836e-03
-3.397858867809606855e-03
-5.082795215879102983e-03
-2.777928540482132395e-05
9.037889202349096152e-03
1.214543654437279588e-02
3.942907578991074538e-03
1.418452652606430218e-03
-3.406843466359592005e-04
-7.788656326974222575e-03
-7.029193033359711247e-03
-4.264198186732484804e-03
-3.652291986224141199e-03
-3.276757845493621663e-03
-2.730884184673048817e-03
2.941777307762598846e-03
2.059031236654230729e-03
-2.905322910462871007e-03
-2.167599008979895041e-03
-4.253555643711813029e-03
-3.715272557639664845e-03
-2.812362175022181318e-03
-5.724535787123863698e-03
-3.522290183552329338e-04
3.763519909081137517e-03
3.375391940641007948e-03
5.611232510466612408e-03
1.285501494358583892e-03
-2.524769451653664613e-03
-1.347023798449545557e-03
-2.606173791764887851e-03
2.725806600924958988e-03
7.194540710631311745e-03
1.009892350422978043e-04
-3.607157149372684085e-03
-3.697349644302828486e-03
-4.218180261806683297e-03
-1.005579841485319077e-04
1.251117799593444348e-03
2.965236933785169414e-03
5.188204023640868856e-03
-1.340522304810803575e-03
-7.570865421152807480e-04
6.505679610272564577e-03
1.946467133789599093e-03
-2.994538705164232709e-03
1.551702991336458958e-03
7.212345177215718009e-03
5.689217630159015132e-03
-1.781422980700786592e-03
-3.849371402679641237e-03
-6.929998840449139033e-04
2.559672485363627143e-03
2.309034343367627907e-03
-2.257342564540085108e-03
-1.365430945738390104e-03
8.034765238695975665e-04
-1.131797729438537709e-03
-1.390191385768917067e-03
-2.889797615981851836e-03
-4.229577022772447979e-03
-4.126466090604576434e-03
-4.721210491398177347e-03
-5.660843238774054820e-03
-4.955214241100609415e-03
3.646156061638613274e-03
7.698017755974066907e-03
4.101881470406872239e-03
4.880947084868450872e-03
-7.099371899012009955e-04
-2.890494169465844965e-03
5.585883576081541665e-03
4.472418966642247723e-03
2.494301691859985085e-03
2.395542788926630692e-03
-2.778955753014762144e-03
-2.663803685827571995e-03
-3.511725693619678016e-03
-5.875460386800970478e-03
-2.545055942514432012e-03
-2.196394812184561743e-03
-5.486312818477268732e-03
-6.519876958701596378e-03
-3.794437991062219601e-03
6.613144133114736735e-04
2.070804530496667302e-03
2.165103886599259106e-03
7.266855167213429750e-03
1.226476333978514591e-02
6.302909974364998176e-03
-9.372485771905202144e-04
2.459240862303798368e-03
6.231376560180613977e-03
2.324635361909993536e-03
-3.052517407886625768e-03
-3.031120305706088910e-03
-1.454085237153813007e-03
-2.705202843970712194e-03
-2.456866700169409688e-03
-2.698329750078115683e-03
-4.879135425120199182e-03
-4.637364173338193347e-03
-3.293873025646564413e-03
-1.395265979935124932e-03
3.480285669241919323e-03
1.015596575689546935e-02
9.673830127730775191e-03
1.734311976822467197e-03
-4.231805498060589241e-03
-9.121142874923977503e-03
-7.501486445518961918e-03
2.724811050741597282e-03
6.906128689027634521e-03
2.462381994247077495e-03
-3.339440791408019357e-03
-4.488455465445602768e-03
-2.206742428285144147e-03
5.127139329346320357e-04
4.634415581660666049e-03
3.439368199855466317e-03
1.286942866855094120e-03
3.007687497669458802e-04
-4.182635645599766007e-03
2.406181543739145906e-04
7.769652043359440326e-03
8.737526344269164191e-03
5.780965317783595334e-03
-4.218780574158509031e-03
-9.251405569615228988e-03
-8.794977700821582020e-03
-8.207546195785859339e-03
-9.500090103245139531e-04
3.619709849358734421e-03
5.129945518369234160e-03
3.523124666198690271e-03
-3.640224178372166927e-03
-1.774834292938239945e-03
2.970471031476704625e-03
-1.446069595749983980e-03
-7.537825116167658560e-03
-6.739211718015586383e-03
-4.154491593498391665e-03
-6.472315201016059019e-03
-8.770133723964647398e-04
8.390293366716846182e-03
7.725722579150819287e-03
4.617838418443940066e-03
3.453975699591027224e-03
5.392221076236435560e-03
1.282098667107914661e-03
-3.002257495263839851e-03
6.455746880359772982e-03
1.098125586476650199e-02
1.184221692350088777e-02
7.690863015357579831e-03
-2.647036878999559951e-03
1.814717343859572739e-03
-1.131187309035470295e-02
-2.913464777924703111e-02
-6.158673845238029666e-03
5.539753828650804783e-03
-4.738821711957909126e-03
-2.885535391085048730e-03
-2.240285990720009349e-03
2.907310002474466568e-03
1.262866083703469144e-02
1.135819699047361901e-02
3.072321559532739839e-03
-3.847905932317137543e-03
-3.786585685065779142e-03
-3.832664723011950172e-03
-2.091455602798506896e-04
6.191453113490453554e-03
-3.646480793339328379e-04
-5.548837536736702866e-03
-5.125378334655676313e-03
-8.306427541177101304e-03
-5.961461866953834607e-03
-1.004376225317401205e-03
2.862134484156915633e-03
2.303485656560266305e-03
-3.401004167966572081e-03
-1.691762488503520054e-03
1.599406479361645695e-03
4.565290557307574715e-03
1.052357219584223666e-02
6.095147967532936993e-03
6.945747996877214185e-04
2.008693199628686175e-03
-2.945426971336769385e-03
-5.472555880147317482e-03
-3.350866918806330369e-04
3.636130647834855643e-03
7.590727496618101915e-03
5.887982083332445049e-03
-4.168304073292342093e-03
-9.560598851999658337e-03
-5.984685903359573782e-03
-8.891712792432094085e-04
1.811117425243704507e-03
2.798321853188209200e-03
-1.607432859353581786e-03
-9.489564795303757558e-03
-7.546825122302702749e-03
1.022583126953798037e-03
3.746194696082493728e-03
4.278061643082687465e-03
5.472266962931821022e-03
4.323269233155508165e-03
3.378363394627124927e-03
2.504944183402060300e-03
-1.885609148690024816e-03
-1.863542756522956843e-03
6.672911622684470079e-03
5.715114965881768969e-03
-4.776825765149168151e-03
-6.907816305995759763e-03
-5.783030648833468491e-03
-3.649439496464647152e-03
3.157264997273256501e-03
3.995837532897534607e-03
-2.588545992166086903e-05
-1.005676384053352541e-03
-1.133258640884645752e-03
-1.856864772257602872e-03
8.108289352011044740e-04
5.263738291215851357e-03
2.374087048533623286e-03
-4.277425136760388234e-03
-6.925066644112356021e-03
-6.786014179860000092e-03
-5.666126417121493224e-04
7.533356002505909275e-03
6.326896366961086773e-03
1.155242774332715470e-05
-2.335822117075186336e-03
-2.041136087175678820e-03
-4.135233275466857969e-03
-5.299672550200354090e-03
-7.480039196500857536e-05
4.955281178900423737e-03
2.596402395089571560e-03
-1.925198698486975651e-03
-1.940707659237675149e-03
1.144268232321934411e-03
1.810196593829937507e-03
2.453566375106867783e-04
2.690718657631317387e-03
5.231587331986355290e-03
1.058766882037721121e-03
-1.534168741986358022e-03
1.806966157449311095e-03
4.500149924633343144e-03
1.780591144734499764e-03
-3.607106086872817648e-03
-2.281296740770492187e-03
7.073606065982846001e-05
-2.288372457631070080e-03
4.873351205381054661e-04
1.756173949974945908e-03
-3.947137239483091212e-03
-7.369392224215163580e-03
-6.402011847136988149e-03
9.429686615551887514e-04
8.225346202558743783e-03
8.812292061198186491e-03
7.507136572900153723e-03
3.437002321475801474e-03
5.370683252036147172e-04
-5.507715292475467506e-05
-3.224357644386366926e-03
-3.980614657615406081e-03
-1.962235823417680936e-03
2.005903795725908195e-03
4.413049359623677677e-03
1.281280875127352404e-03
-3.215122584602407661e-05
-3.367032266970950392e-03
-9.222963242816562685e-03
-8.607407804185496919e-03
-7.885868777072084501e-03
-9.659370582575788414e-03
-9.548403749319098535e-03
-3.308703471682187310e-03
6.284132096290412708e-03
7.074269607355037140e-03
5.998326775849222546e-03
8.414082321338551065e-03
6.833873414152123911e-03
6.288642360355529808e-03
3.673824675697634143e-03
-9.042187649557002728e-04
3.911116734038487183e-03
7.252627733056861946e-03
3.132704348523277990e-03
4.245867790946706308e-04
-4.381566207923206363e-03
-8.515996880101614486e-03
-6.293916683812334108e-03
-3.683673764084922659e-03
-1.006979201617126717e-03
-6.978864209472626081e-04
-5.728132364579600379e-03
-5.748418003699856324e-03
4.276804768802793498e-04
6.295989949737249014e-03
1.025449558249159204e-02
5.278959192254560097e-03
-3.596076224715429124e-03
-2.998069428606593267e-03
-1.228249345384433994e-03
-3.504728117538442444e-03
-6.631885143196663852e-04
3.437301253203428955e-03
5.294854354701997688e-03
5.440272713303851218e-03
-2.207718019863563709e-04
-2.435502979019256269e-03
5.053312705295142943e-04
1.489081432731349623e-03
3.992446220299956418e-03
-1.345311153382883077e-04
-5.093795655505944583e-03
1.089662433036851525e-03
2.377727963928095815e-03
9.280512897887587941e-04
-8.679910849091572109e-05
-4.837005443581009721e-03
-1.719323678611587962e-03
-1.278432338643032806e-03
4.351324629284371954e-04
5.856723963768102094e-03
-5.092466335097504786e-03
-4.256920460104830946e-03
7.416030942074372176e-03
4.150140357995003512e-03
2.024701390883529815e-03
-1.463505565725470997e-02
-2.774866254196167725e-02
-3.892178113571783966e-03
8.415336908934967913e-03
1.634386805125481951e-03
1.700636292338087059e-03
-4.874861863073288049e-04
2.185654360172929224e-03
6.959887025445804856e-03
5.320794061118040534e-03
5.083015559429412272e-03
5.619596531103700221e-03
3.431734876089128847e-03
-2.978598008046327329e-03
-3.785499087370166552e-03
5.577626402606142460e-03
1.035845102488320256e-02
3.803502479877101869e-03
-4.368031019419763190e-03
-3.079102767374734730e-03
-2.293057452726384848e-03
-5.374828720915074930e-03
-1.458116541157443696e-03
-2.367755504806303563e-03
-5.886701311266053123e-03
-1.529605349311713523e-03
1.031063152919109698e-03
2.609168352748883739e-03
1.893501097529020141e-03
3.173759103627759974e-04
1.169703724474762101e-03
-4.240261027705694019e-03
-6.687381311847705699e-03
-4.555922124544570413e-03
-4.028658100897395539e-03
6.904208156149040099e-03
1.610562057890613935e-02
6.860982657424768982e-03
-9.872129962773825394e-04
2.691340815804269589e-03
1.041948375257571984e-03
-3.863234396914824471e-03
-1.669297674041232043e-03
2.481705267671521732e-04
1.047793821863302445e-03
-2.588911188268557591e-03
-7.299087063201984554e-03
3.029000666221673540e-04
4.535840235294227862e-03
2.571595751542542479e-03
2.944190856601215916e-03
-2.092407131575540948e-03
-2.256676156418175715e-03
-2.459373409798412593e-03
-7.762339533017053282e-03
-3.317687383538892205e-03
7.735024688541229741e-06
6.468333388929430917e-05
-3.360352919175694803e-04
-6.377537761689377332e-03
-5.627525395445636715e-03
-1.345103559769558234e-03
2.433144073031282451e-04
1.702833221800470519e-03
-1.579499046786361077e-03
-3.074241899905139248e-03
8.588431731666474472e-04
5.422843891755376247e-03
7.625269436836972468e-03
7.962607082345678905e-03
7.935824014248714364e-03
2.276173378806960017e-03
-2.677848397876335645e-03
-3.121861157427781829e-03
-2.444973409235056891e-03
3.384593781718904428e-03
4.336787871421526018e-03
1.824443835680082237e-03
3.124372954486912945e-03
-2.975976369527333180e-05
-2.270402970705721023e-04
7.776686178998434016e-04
-2.683196629960842711e-03
-5.205983405626312018e-03
-1.034772841155031514e-02
-8.915681133555069734e-03
-2.635809803874819383e-03
1.049495497027128337e-03
9.739642218374101532e-03
1.100872252920451037e-02
7.265667296015861087e-03
6.016859873279892246e-03
-5.149155046291466198e-03
-9.507207845171819841e-03
-1.630731399482192399e-03
1.597447801909387954e-03
4.690203020159732818e-03
4.177030883375979116e-03
-9.668657394440653523e-04
-2.346938929493301573e-03
-6.784062225068583120e-03
-9.780867035040403251e-03
-5.308331910791696737e-03
-3.589955778154799420e-03
-4.077286500202459592e-03
-5.523941474648857639e-03
-9.543205300790292764e-03
-5.194613260426248977e-03
5.535000361325988216e-03
1.084747905912998578e-02
1.296805149406860327e-02
1.276270563847880721e-02
6.412678710061192784e-03
-2.125069006493102326e-03
-2.289320518002501640e-03
6.477342837680210436e-03
9.646574312719849789e-03
6.900517971091790423e-03
4.844228621347318985e-03
-2.346782221139611345e-03
-7.864499836455596249e-03
-6.311161033822122214e-03
-7.886415520581811084e-03
-1.025227822642300890e-02
-1.081779157482413815e-02
-1.068683239757292451e-02
-1.919854886308898587e-03
7.994163429739204602e-03
7.676316801284741552e-03
4.581759137601981377e-03
2.565893305457389497e-03
3.186508704358675557e-04
-2.176573436540396936e-03
-6.769113649987318522e-03
-5.287114784244091419e-03
3.671245568688783628e-03
5.314303423894454516e-03
1.601462970356394306e-03
3.349399335828423530e-03
1.957775353936323098e-03
-4.909113370018378456e-03
-1.639646368720620471e-03
5.526215082104903725e-03
2.000079925803321685e-03
8.252911165326119259e-04
3.919335632020785019e-03
2.214395525053564073e-03
5.683160172450675736e-03
7.828468927723764015e-03
1.563115979283577310e-03
1.869319250692721502e-03
3.978764027197704244e-03
-1.542733495286053615e-03
-7.303006779263026410e-03
-7.885033666934436122e-03
-5.040206305410382948e-03
-6.021438619279854444e-03
-8.117106592766024434e-03
-5.138558486334547822e-03
5.576306642399947531e-04
7.007541453151165840e-03
6.934657751550435054e-03
6.167990267911028796e-04
-2.913181938054422264e-03
-3.580593397822552648e-03
-3.769268538453114659e-03
-5.778252047891447099e-03
-2.300320580703461674e-03
6.430087872773645151e-03
3.342433403604099917e-03
-1.782791403227759058e-03
2.199446110274064052e-03
3.178793514969591345e-03
2.445437759434801028e-03
1.825951182115605718e-03
-1.486642407946236295e-03
-2.258568191529730304e-03
-1.400923946372607549e-03
1.299052895362016926e-04
9.032745735591022566e-04
-4.615414128919879955e-03
-8.932959473283456561e-03
-3.027828583641117843e-03
4.316359229951717037e-03
4.475951978857750646e-03
1.840963039960640413e-03
2.100476186098456299e-04
-6.236915235600237880e-04
1.254790563474831450e-03
8.044934759660643531e-03
1.340418110757183104e-02
1.075392655154846708e-02
4.823872440399224783e-03
-1.286243401007013468e-03
-1.890570330665289258e-03
3.077449733584356785e-03
4.393243606606329205e-03
7.691377855604602035e-03
5.627088408709006451e-03
-3.201671357033991465e-03
-4.888294206355301395e-03
-1.416997636680170959e-02
-1.253361912186274491e-02
-5.466741023066900608e-04
-2.473470421551512283e-02
-3.349769606027767910e-02
-3.410980767210098057e-03
4.058625086029811480e-03
6.889659539602048174e-03
1.606882618986643294e-02
9.250931647196173821e-03
5.223691825367483485e-03
2.826011083481779450e-03
-7.009776429131844757e-04
-2.140897213860479731e-04
-2.240939391955429870e-03
-2.323900634215847862e-04
9.913438827128459585e-04
-3.983888600999245695e-03
-7.233562733309622031e-03
-7.466215794801529283e-03
-2.790128984103305149e-03
3.621235699350568334e-03
7.653174869265058806e-03
7.887576736589088644e-03
2.828326779386837551e-03
3.790853640896213982e-03
1.184378600617701574e-02
1.322462920367859646e-02
1.190211522456894461e-02
1.243106271285840392e-02
7.531309666098480113e-03
6.141456736530996347e-04
-4.985780332078193489e-03
-8.130959560265405353e-03
-3.683943519069337279e-03
1.287510040834314185e-03
2.781933875820920016e-03
3.511620813706078665e-04
-7.886730376549203059e-03
-7.641195672077233207e-03
-2.463504520540111924e-03
-3.081959079088628008e-03
3.508704513070881430e-03
6.235944556332692797e-03
-7.475810315709438894e-03
-1.804903856268447529e-02
-2.100275959006198123e-02
-2.012815647079366915e-02
-1.110442384449036868e-02
-2.366871679341186162e-03
1.696386074319090193e-03
6.289882254129825802e-03
9.595074834142833242e-03
1.290768745899416488e-02
1.545564767109875934e-02
1.349486368673201431e-02
1.327528551291750659e-02
7.548130024600656698e-03
-3.101707835934653518e-03
3.279373144069218718e-03
1.516379967556922420e-02
1.557284836371889379e-02
1.157194060289682726e-02
4.178785994071726809e-03
-4.110160330354890867e-03
-1.197963107727704340e-02
-1.649271891615977995e-02
-1.477708817345332534e-02
-4.186981301945398581e-03
1.984138297140098164e-02
2.074334241280080884e-02
-3.212553194460612046e-03
5.964142230853562363e-03
3.055953652541981355e-02
2.808360042603480489e-02
1.120455780743700828e-02
-9.408628928872323285e-03
-3.422259207285413551e-02
-5.299998792449055890e-02
-4.951923985477892087e-02
-4.354943031671303089e-02
-4.884461543180757676e-02
-3.670367971307376270e-02
-2.241539166325995022e-02
-1.044773019675113157e-02
2.041201959767845533e-02
3.945986895813243661e-02
4.522772731703326998e-02
4.730396297646444204e-02
3.312261783447725816e-02
2.137724028668173265e-02
1.701620958371547615e-02
1.896819343392494930e-02
1.555383843694639785e-02
-1.047981796592866062e-02
-2.126962061236786772e-02
-1.124244041903081984e-02
-9.617330662960478505e-03
-3.662366952600420219e-03
1.279413049491626804e-03
-1.743822847266664547e-02
-5.148252652012060004e-02
-7.931925767385146486e-02
-8.184426891984948604e-02
-5.213781644923418113e-02
-1.562048521263185823e-02
6.294865839273825966e-03
4.171598635766685104e-02
8.785049329838248711e-02
9.742102270362837380e-02
6.759436040334160234e-02
1.826780521316876890e-02
-3.010402718496453869e-02
-5.658470622846831222e-02
-5.567641564681150013e-02
-3.142876606787440436e-02
8.245324281451230867e-04
5.182940551052533235e-02
1.103285916225100194e-01
1.232407131194601935e-01
1.183456079918572823e-01
1.339802422721936004e-01
1.463014836363215054e-01
1.549788275082804312e-01
1.367088067706062060e-01
4.113536600208091837e-02
-9.743027124883990586e-02
-1.940604197338205716e-01
-2.377496134695069874e-01
-2.705985128712691257e-01
-2.827825575186548868e-01
-2.433142503564618420e-01
-1.645323336952559667e-01
-8.848496016403543940e-02
-3.874771952183053703e-02
2.313814385936663331e-02
1.259332076672662337e-01
2.040787787951577614e-01
1.725289505166762993e-01
6.515633507464885232e-02
5.136426830962818012e-03
1.647416409293497863e-02
1.586278433191085427e-03
-9.056257297660134931e-02
-1.614168531357879632e-01
-1.129813376874117259e-01
-2.206292867071801833e-02
5.455232971254082852e-02
1.651487725056915434e-01
2.581718029547616644e-01
2.530580548800229201e-01
1.917801198676149232e-01
1.780014891360617857e-01
1.965798926636549426e-01
1.021694372686179075e-01
-9.554617875684241757e-02
-2.276740465274342540e-01
-2.200737765599379003e-01
-1.561435951422345259e-01
-1.505597374258055565e-01
-1.839890689965203441e-01
-1.971733838650012449e-01
-1.556095007591650758e-01
-3.431159869756267300e-02
6.895801450786949449e-02
6.740487994563536256e-02
-3.496307235055402113e-02
-7.965426198809053004e-02
1.142871493768508884e-01
2.571557140892564708e-01
1.467417086994351194e-01
5.562304491220290692e-02
2.459403850825244917e-02
4.587236817839458053e-02
1.460764410873726937e-01
1.387619881160602475e-01
9.834691908408385586e-02
1.226328241205452696e-01
8.504078658014077585e-02
-1.677382025922264513e-02
-1.387503088101971760e-01
-2.040796762979983081e-01
-1.797562257062357005e-01
-1.573616829430390385e-01
-1.528544365519958204e-01
-1.060296096463563265e-01
3.741038933647883313e-02
1.723824287221938645e-01
1.940435719369670853e-01
1.725251530103432129e-01
5.111379552437040480e-02
-1.946198127407820500e-01
-4.291052042621934515e-01
-5.491983023038421452e-01
-4.852567119896957770e-01
-3.516755026576900423e-01
-1.592278673096310104e-01
2.332272714797785085e-01
5.599222651875707113e-01
5.585591688043844982e-01
3.860144444326845670e-01
2.267227741157579191e-01
1.456453319955788583e-01
1.194463694222889505e-01
9.161076274462978675e-02
4.648848853737366088e-02
9.547297819050929238e-03
-2.720393539845040402e-03
-3.015500355388514228e-02
-5.842447940977502779e-02
-5.671455607244301617e-02
-5.034917151661514462e-02
-4.273456537463102972e-02
-4.998396178078257091e-02
-4.815782174064958676e-02
1.225803750395294649e-02
6.120178176156539779e-02
2.717273410342847806e-02
-4.573753345906860640e-02
-1.032206355524496605e-01
-1.335441447371974732e-01
-1.198071493121501269e-01
-1.039665393921793135e-01
-1.300317364560193978e-01
-1.069628778624053256e-01
-4.015046914603660061e-02
-4.754483558686912331e-02
-7.397910761482397179e-02
-4.409839623920148652e-03
1.266071302319083935e-01
1.796197143351308534e-01
1.306810111119779405e-01
8.370468819509394032e-02
5.353033037873525940e-02
3.753346497760008671e-02
4.579925359256568212e-02
4.153530059556174991e-02
3.025113612918064673e-02
1.290144313997274028e-02
-6.172071029628312284e-03
-1.954562772696205250e-02
-4.586544542751942732e-02
-5.882024868885333407e-02
-6.538260695620301544e-02
-6.636040583788839486e-02
-3.843508084267190095e-02
-2.187241368647222656e-02
9.459871118837342649e-03
6.121501009562513307e-02
6.157971615359930651e-02
3.981833690390507163e-02
3.288704955632617416e-02
2.753978828550037936e-02
1.674506945717835205e-02
-1.107328975177478136e-02
-4.069774940786091699e-02
-5.821520913751335180e-02
-6.017810765555862279e-02
-5.132952204911715027e-02
-3.937943208258104510e-02
-8.223915701580758160e-04
4.505763020605480645e-02
5.202352163651374067e-02
3.039114853442437952e-02
1.066048510924031724e-02
5.376159777484297575e-03
1.112305809350834897e-03
-4.014984259210087510e-03
3.623575097663474069e-04
1.067830153602161887e-04
-1.560171737514515341e-03
-1.129797076537640685e-05
-5.383775719139735107e-03
-7.215913615076276384e-03
-3.626452125331051154e-03
4.958121627984862691e-04
7.395436186211260844e-03
9.722193878564489022e-03
4.736927627969392783e-03
-5.880518917928438064e-04
-1.675481830993164186e-04
3.991661212409887177e-04
-4.548852446017689942e-04
1.791933951043306718e-03
-2.681217959653472201e-03
-6.085340231789374867e-03
-2.670979510358675868e-03
-6.653018015279621444e-03
-6.075566808593450135e-03
-1.772835770111928170e-04
-3.519976237903250016e-04
2.989487333062688847e-03
2.756769673475047058e-03
-2.927348616346273254e-03
-3.252595367288601061e-03
2.715669352031437837e-03
1.357939171017274495e-02
1.439791836340535355e-02
7.429827323652327987e-03
4.904314868791391155e-03
-4.907122982672169204e-03
-1.295388638125476860e-02
-7.954535945925034907e-03
-5.925984123490824797e-03
-6.781820732929875681e-03
-2.430131742136558241e-03
5.898195743885810763e-04
-2.689507541180065440e-03
-4.421535266930303257e-03
1.594084735802942399e-03
3.788261693536272914e-03
-1.991306184433723481e-03
-5.899706551736128360e-03
-6.077637307412842894e-03
-2.688296398406992034e-03
9.888972760055969331e-04
2.453258988928707415e-03
3.035274249334042693e-03
-1.320662342178215241e-03
-4.435776710065201731e-03
-7.714612470422824424e-04
2.911782840022461225e-03
4.043595491570393420e-03
1.341341672191391325e-03
6.027299729934816651e-04
4.027847432951109190e-03
6.835626349142636705e-03
1.696896186335611692e-02
2.133192036066854438e-02
4.406824676883015074e-03
-8.163015541835320563e-03
-6.790385715389301094e-03
-4.983509234435782968e-03
-9.051116118340790618e-04
4.519991182068279836e-03
1.249076817548652046e-02
2.303226513293114841e-02
1.743765211978345539e-02
-3.247163100079574361e-03
-1.774783641936456338e-02
-2.133475036202082606e-02
-1.432960396125497297e-02
-8.379718125702219009e-03
-1.629145884935476532e-02
-1.717079127568962513e-02
-8.261269858651543868e-03
-8.330948428155430727e-03
-6.234670106895864004e-03
-1.011721397904005032e-03
1.753945608828845655e-05
4.236153821987940701e-03
6.351859173463164469e-03
4.871081095505045908e-03
1.723160265332183798e-03
-3.690141462115538652e-05
5.072323317709535873e-03
6.591056042300595837e-03
7.627936115265953124e-03
8.549785997992180933e-03
4.118895624098173119e-04
-1.299183241086898253e-03
1.481963231390737287e-04
-1.219292172591637455e-03
5.081454167678453593e-03
7.508364806853949115e-03
5.634186068934210131e-03
3.670020143529715857e-03
1.133575151721703074e-03
6.279908037789020889e-03
3.781401724487511423e-03
-3.732419574553046040e-03
1.210211511113122411e-03
4.228070752725840431e-04
-7.647957823426372592e-03
-9.532719415982516056e-03
-7.570059179454594056e-03
6.033795984366042238e-04
5.900977383623198270e-03
-7.517865115451471177e-05
-3.787593568017574071e-03
-4.338097993103472681e-03
-7.745089445606219598e-03
-5.172804526390654620e-03
-2.524801183278848390e-04
-3.481314256727360400e-03
-5.996645475213451155e-03
-3.261443911716178402e-03
-3.067866670827648461e-03
-4.691180487812819308e-03
-2.578587359842158481e-03
4.587723633154757071e-03
1.028593572318374678e-02
9.705007930631845761e-03
8.639290776107019787e-03
8.609407811716230166e-03
7.784332740185998141e-03
6.711105016666362930e-03
2.346729535387017795e-03
-2.621020211643341688e-03
-4.817374004923345721e-03
-6.232148489333514535e-03
-5.002844162790185192e-03
-1.736411290462918028e-03
2.739116626146232292e-03
3.499385777205032792e-03
-5.484268528884346516e-03
-7.561410895382670097e-03
1.542422691960704121e-03
3.730864030164984628e-03
1.491112796865345144e-03
-1.114919664736061140e-03
-3.536639204357648267e-03
-4.605403406474001260e-03
-1.199154514065973315e-02
-1.069070962622485112e-02
2.052555700422063409e-03
5.067406686639011268e-03
7.408442517748786878e-03
8.443164628703175856e-03
-5.705604092105180224e-04
-3.177916492467686670e-03
-2.027444115432376539e-03
-5.884535776593750878e-03
-7.706796234734744795e-03
-5.275053255514674556e-03
-1.274384175001816357e-03
2.205374652525252544e-03
5.914983406130013693e-03
8.385968657190918593e-03
1.359658987862950690e-02
1.564234983854564595e-02
6.293591842674296083e-03
8.207280558798227266e-03
3.918316668760664714e-03
-2.497106492999029426e-02
-2.300878096726139549e-02
4.847986442617071776e-03
1.194441123254197032e-02
8.388631853650432152e-03
-3.327387677878364128e-04
-3.639965401332418901e-03
1.679974102884005229e-03
-4.964996225012282410e-03
-6.278419144313560595e-03
-4.155237598953149115e-04
-6.613422484040996398e-03
-8.890178713162931803e-03
-2.704040033469045680e-03
4.231435565025547588e-03
1.176190371917955682e-02
1.065975481341689853e-02
2.873296588756806338e-03
-2.466258109956017634e-03
-8.177576722763087863e-03
-1.162970183838844471e-02
-5.995823772320035133e-03
1.599511918515705410e-03
4.811336096861735037e-03
5.404441158947194228e-03
2.464839329988774939e-03
6.815754670828204657e-04
-1.010606414014675672e-03
-7.661322565847248321e-03
-7.171946763977182955e-03
1.388547748711991018e-04
2.028062673178563854e-03
-8.075990258270186826e-04
-6.591119414556062539e-03
-4.288026796115181061e-03
7.084799949449057700e-03
6.333964978822395619e-03
7.445509505621108678e-04
4.978577292274889710e-03
4.193025483914130519e-03
-5.098465826022803267e-04
3.822081338885747331e-03
7.758934672045083095e-03
6.888203230578940350e-03
5.177344239109472196e-03
-3.407340146072496351e-04
-6.222535187879059057e-03
-8.821287034718117842e-03
-7.242514559244790477e-03
-2.645815762157686934e-03
-1.042215670148619305e-03
-4.453127604494216485e-04
-4.084786524641673827e-03
-8.407111180631606992e-03
3.117194438667739501e-03
1.310533287411775119e-02
7.215733100322867417e-03
1.822812287914864953e-03
-2.987664354146529495e-03
-8.015491352557989335e-03
-6.939101795825172725e-03
-1.827122847111079884e-03
4.674155061290877905e-03
5.966561412910100642e-03
3.410550028195367955e-03
2.168224503019393779e-03
-2.644961019956666021e-04
-4.268560055003690207e-03
-9.272007290039331606e-03
-8.722883037956452937e-03
-3.377130215896096462e-03
-4.446982692107571272e-03
-8.426021596624181167e-03
-9.345413221307176041e-03
-2.957595364821407388e-03
1.222381986433138112e-02
2.097966101525139751e-02
1.673907799087681961e-02
8.249948688854502957e-03
1.919562059192918345e-04
-3.986065837368483154e-03
-1.415817564363475644e-03
4.350380779306461422e-03
6.566498132240728390e-03
3.240225996082981078e-03
-3.589137841801801499e-03
-9.180928855724896850e-03
-8.294817277856110851e-03
-4.755771511309750399e-03
-4.362542290838148339e-03
-5.723792943902712184e-03
-5.491901726194849467e-03
-1.974766415909975925e-03
3.105870336193636890e-03
5.801899647035391530e-03
7.144407728932674825e-03
8.811916618934200265e-03
3.851379287951310192e-03
-4.904099978164746555e-03
-7.822782566396917561e-03
-1.030885718165913678e-02
-9.779861027293964768e-03
-3.019812380107843395e-03
4.161173776390170902e-04
4.564451382539166761e-03
7.151411383309650392e-03
3.495847523245120252e-03
4.881161460141428612e-03
5.487200773490672791e-03
6.696575243341728028e-04
3.353180688481987659e-04
-3.289319008163595201e-04
-4.334981770977197786e-03
-5.004594503881253792e-03
-5.457632952963077828e-03
-9.357011289272767346e-03
-6.709538182102287376e-03
4.370361703167272363e-03
8.588052995707659218e-03
3.892426588565408262e-03
2.575866216240281005e-04
2.233272644678901530e-03
7.949284493329881324e-03
8.494367362521106080e-03
3.801802567710201725e-03
-1.023666470562016768e-03
-5.457354142049702060e-03
-3.858782085125576130e-03
5.402907281098684239e-04
7.977713308008292908e-04
1.989262608336623151e-03
2.797706871826366806e-03
-1.814863965369770561e-03
-4.362268268099384581e-03
1.986595664963562366e-03
9.227535658201580296e-03
7.721944241985931844e-03
4.381771587661285969e-04
-4.223752461912001592e-03
-5.672715349573187286e-03
-7.879873519222625744e-03
-5.409576925626359556e-03
1.266797132681492374e-03
2.297383524944266939e-03
4.496837869169406643e-04
-2.588034954116478006e-03
-6.028870506453464645e-03
-6.973292501175884506e-03
-1.095003686316111356e-02
-1.167968536281431199e-02
-7.031487645591373223e-03
-8.029948284338742082e-03
-1.099215828849107318e-02
-7.181466250822235442e-03
5.107162222698009499e-03
1.432615135020128341e-02
1.376919854102092236e-02
1.314814055586098832e-02
9.411881679645597160e-03
3.975220239319420847e-03
2.762000077010109359e-03
2.303444978906066753e-04
2.892855187918197228e-03
1.007245690467661013e-02
1.201532740491810872e-02
7.643631253140653094e-03
-1.522445299961878128e-03
-5.185191976354294741e-03
-4.444528733747557178e-03
-5.736684074579614760e-03
-2.959628210546885220e-03
5.212107398206319674e-05
-2.387370135919437367e-03
-7.960455367131406834e-03
-5.943106509611864943e-03
4.604046598931712045e-03
4.053910037526060363e-03
-4.908100629653581320e-04
2.008767415971785507e-03
1.500229987381882478e-03
3.756561718378035718e-03
1.825129641995941856e-03
-7.551415083933899451e-03
-3.265836851492205130e-03
3.104484371901257856e-03
-1.686608975547175190e-03
-5.769397122227773803e-03
-7.674559064605828568e-03
-6.821667832270043690e-03
-2.125920271889746721e-03
1.946094177385876379e-03
4.122735098364557153e-04
-2.507343684085649223e-03
3.358835258536079817e-03
4.200571126296404056e-03
-2.455785465857906330e-03
1.275011130081848010e-03
2.541760223546036396e-03
-1.131313984725634695e-03
2.179032971637787607e-03
2.195776992038270085e-03
2.558866199571312519e-03
1.028349655284713227e-03
-1.030681329672641401e-02
-8.813571942532681322e-03
4.414183749706365907e-03
6.804639221335424294e-03
1.339160122375600802e-03
-2.884291864271479235e-03
-9.073621258463089503e-04
3.270699511067268975e-03
2.372210907334667499e-03
2.101220662443431704e-03
2.156039349656223899e-03
-1.178825332140098943e-03
-3.792533550217056871e-04
4.966718969983047183e-03
7.247889293636884320e-03
4.286048443747660780e-03
-1.051438721023152884e-03
-3.871180989316202851e-03
-3.995495148121362347e-03
-1.876602124015478877e-03
5.140246286016914370e-03
7.572629961251203627e-03
-5.841191763565699952e-04
-3.459407279872298794e-03
1.822410587674119439e-03
-3.258092586985356131e-04
-7.452871639948555754e-03
-6.316795844618220031e-03
-1.615565003601836507e-03
-4.507968912049162107e-03
-7.540257745026522108e-03
-3.106477120504329021e-03
1.050485265171209083e-03
2.697520969946140459e-03
2.040456889604343269e-03
-1.664573499379875046e-03
-3.869231595903970151e-03
-6.924630629586223628e-03
-9.229231493295891181e-03
-3.956890033918421257e-03
2.795135857384997875e-03
6.785238349334370318e-03
9.545113062378856456e-03
8.650874460599380922e-03
5.726861387162445090e-03
3.778061455612541277e-03
1.602165989607447650e-03
-1.020425676295948539e-05
1.430864908811967096e-03
3.240973778276925836e-03
1.051549442579772457e-04
-4.395187004912597291e-03
-1.289542729083564647e-03
5.516826623116644068e-03
6.792641255238547615e-03
5.042492439558570079e-03
2.607138133519744036e-03
-8.643061508454973497e-04
-1.293125671273805642e-03
1.939080379083050251e-03
4.511969815866201210e-03
-1.004240927356008818e-03
-8.447697173794795067e-03
-7.589312214803576803e-03
-1.268340447974338966e-02
-1.941546124943581419e-02
-1.138687105806487736e-02
-4.254930166976843460e-03
-2.342816599517488774e-03
-4.050682410611767571e-03
-9.283783744939825416e-03
1.868176204790316687e-03
1.614144061285648774e-02
1.385427293442831505e-02
8.583228784738917982e-03
3.138440023725817905e-03
1.409792338941576618e-03
3.460398084068757110e-03
1.499518380245267162e-03
7.268032311647055176e-03
1.389046042357078292e-02
8.598941110454755288e-03
2.312683367970140309e-03
-2.816982626582477736e-03
-5.855081125904541828e-03
-8.874200577951617611e-03
-1.407834024687175910e-02
-6.748570981382831513e-03
3.595559450327622322e-03
3.137025854296943183e-04
-2.872640018084216505e-03
-1.344382011117472046e-03
-6.468616841741853902e-04
2.650144677098840648e-03
6.098622730500569480e-03
6.158707416861404146e-03
4.355642671287803837e-03
-1.627174756947125751e-03
-7.876586237193424281e-03
-3.520870525383352437e-03
3.125203062279966783e-03
2.318369294641242639e-03
-3.903538242526878805e-04
-4.993659708115309563e-03
-3.994411206140965204e-03
1.693428409478728563e-03
-7.501176835430446634e-04
3.141712445033386075e-04
2.226730892678250879e-03
-3.907612279424799683e-03
-3.081804319686737206e-03
1.668096589395558823e-03
3.317366375028585855e-03
2.084836306231949155e-03
-7.408046313431643432e-04
9.267997463453342367e-04
-1.134904988715951940e-03
-2.560158133438784206e-03
1.026916469175185795e-03
-1.086387954913106940e-04
3.887913165794149896e-03
6.535327603157950298e-03
-2.535617708046974342e-04
-5.093995000888992255e-04
1.769502989983795082e-03
8.712704372814436375e-05
-2.605555354783700966e-03
-4.352818935708405342e-03
-2.052139522737790687e-03
-1.801277781591413768e-03
-4.329394318205633148e-03
-3.192869564047387445e-03
3.033391385918914746e-03
8.159435894676731610e-03
5.852914691636521352e-03
2.127128320503139918e-03
-3.074193900542414207e-04
-7.934767713801212270e-04
5.291809114142335523e-04
-5.447145474112313236e-04
1.083334559380055547e-03
2.590105293350579603e-03
1.122071427854436868e-03
8.988033525993543299e-04
-1.195349017562850977e-03
-1.734531687930837389e-03
-1.560462896237356989e-03
-1.266156731749932618e-03
-1.817353588682352390e-04
-7.070873159383203772e-03
-9.526509676324425996e-03
-2.638226812458866269e-03
-1.449711408672192670e-03
-1.141969306883891186e-03
2.827600829347901978e-03
4.237228677109758888e-03
1.312061948804211847e-03
1.184269157853633215e-04
-1.798380719887101404e-04
-3.130438000880779968e-03
2.377734554863117529e-03
5.748351929044828550e-03
-1.783972257202596882e-03
-2.893770192897326520e-03
-1.516283634937918429e-03
-1.056835693346955696e-03
-3.356112703254776966e-04
4.190116543800419648e-04
6.635325171501307157e-03
1.752315007461183530e-03
-6.310880070169591106e-03
1.656226300052813984e-03
8.280843312386602234e-03
8.485210276762028200e-03
6.231880809773243657e-03
4.757368194105071960e-03
5.068612339409976804e-03
9.058293531140072493e-04
8.089288172334663284e-04
-4.021302927414001317e-04
-7.306589972109256209e-04
7.227701599513177387e-03
2.536434468021765611e-03
-3.064608155682609081e-03
-2.884670045815076328e-03
-7.057757848127430705e-03
7.853523283228424495e-04
-8.684770324146799322e-03
-3.352982339854225502e-02
-2.046601058413034455e-02
-3.353264157364273853e-03
-3.562477204580959903e-03
7.648081608692271216e-03
1.094499984655899691e-02
6.620995882146700484e-03
8.146321416605864160e-03
8.612904459290391529e-04
-5.042032675107454426e-03
-3.161946339006658797e-03
-1.510511365151156245e-03
2.995918683125403659e-03
5.786916198564336436e-03
5.728761473671540108e-03
4.169425243899973176e-03
1.327400024748326282e-04
-2.109814607334686886e-04
6.826129844212714716e-05
1.119379806815075677e-03
7.499717263334192488e-03
8.504748331677115802e-03
1.321148391516532589e-03
-2.266957303409358835e-03
2.106442870075698592e-03
4.874361920598726389e-03
1.187251380465333562e-03
-6.624168429984040284e-04
1.169433312444900569e-04
-1.063882042690106377e-03
-6.387917416675507366e-03
-1.099183689648653914e-02
-3.092617747473215464e-03
6.187128599765128259e-03
2.973936072687490516e-03
-2.327133470244277004e-03
-5.289090005447541487e-03
-6.459082243706215469e-03
-4.088370741273858293e-03
-1.733142127140340156e-03
-1.540450763064063391e-03
-4.050086709663680735e-03
-5.515357121430318303e-03
-3.342233775235993465e-03
2.738048485835331905e-03
8.165028754388381146e-03
4.471072376101862741e-03
4.033311887402227583e-03
7.652609550330398760e-03
-3.988075613342367343e-05
-3.100479439584899466e-03
1.705439657728362660e-03
2.108317575931926893e-03
7.040715938663744296e-03
8.279847308074898826e-03
-2.177564612977523229e-03
-7.613196116219841068e-03
-2.072434035034597787e-03
3.569339097149172319e-03
1.121858158099108774e-03
-1.471876615639008306e-03
-6.385039121522319023e-04
-2.733617613117014008e-03
-3.304213352842642545e-03
-7.808320738244389336e-04
3.840727953664532703e-03
5.732774022322067314e-03
-3.804999938967718130e-04
-7.357150521803191602e-04
2.403031171571940600e-03
-2.619126653791172942e-03
-2.988463514738249650e-03
2.248185918709335587e-04
-2.910979704349928813e-03
-5.696832342069887804e-03
-8.312819620879423332e-03
-9.928549260353651887e-03
-3.543149046505651972e-03
1.959422548813016893e-03
4.342711229559652504e-04
1.552671467314098485e-04
2.185494709813791251e-04
-1.082837525731909084e-03
2.282755900445571106e-04
8.447701375984111851e-04
1.165104613950282897e-03
3.339828558490585790e-03
6.765842350743835228e-03
9.398058677460420160e-03
3.426427649038030470e-03
-2.848071868140686271e-03
2.632199576852170195e-03
9.836337907006369868e-03
1.080442550978733159e-02
5.472505221170046591e-03
-1.351634474024787300e-03
-3.782470621929820160e-03
-5.892760936025301897e-03
-5.404988465331324148e-03
2.263102817879225517e-04
2.827230445385642017e-03
-7.813080072951647786e-04
-6.164705917819228095e-03
-6.807182085646617566e-03
-2.574036004437606565e-03
2.412714654569251063e-03
3.814899956635196474e-03
7.780597384029729882e-04
2.932525610708622190e-03
6.084681648176181769e-03
2.147803902840094564e-04
-3.665845592461064624e-03
5.140954326598664876e-05
2.740474553979336050e-03
-1.444466031540772750e-03
-5.291900756891876854e-03
-9.426525974582802099e-04
-1.023521779795805511e-03
-9.053179276360793365e-03
-9.574657160759111191e-03
-3.075972652495916407e-03
-4.096180884033162259e-03
-9.218928299402490145e-03
-3.195776625311929405e-03
5.550520568709232244e-03
9.649628443480400344e-03
1.062068031036725139e-02
-1.084353054798806691e-03
-8.141995959119557175e-03
-7.831726916249950703e-04
1.554520122384800635e-03
5.504836511101551637e-03
1.171322135297503571e-02
1.046499459265710745e-02
7.459062425831590286e-03
3.268816256625509814e-03
9.093486793640358744e-04
-3.047624495655699723e-03
-7.205501208435564388e-03
-2.305637747943912672e-03
-1.722702691298077702e-04
-1.694843298482951810e-03
-1.878162587576816473e-03
-2.841222872974750666e-03
4.367714730162863736e-04
7.789084870877848506e-04
1.911500800514889190e-03
6.190694017061848520e-03
1.258631294503571125e-03
-1.029444305423235983e-03
-1.726202256375786517e-03
-7.651364189400106618e-03
-2.429304138305239842e-03
5.405195613237072025e-03
2.865695173554976081e-03
-3.488104874671092833e-04
-2.423765443623312381e-04
2.199874162058929310e-04
-1.405598123315554256e-03
-3.291720514788524891e-03
-1.357313610257025868e-03
1.180934546962174574e-03
-1.754083630139939825e-03
-4.541764838790636125e-03
-1.489096200275854143e-03
-1.150663966805538958e-05
2.006150963658312816e-03
5.288437368215478072e-03
2.949874450932267553e-03
1.578351519259708555e-03
7.536085487598031814e-05
-2.791278629822483131e-03
-2.628027911109517487e-03
-4.374417105625412298e-03
-2.025874747802512178e-03
1.019640602502339729e-03
-4.109360390428255967e-03
-5.298737443173962350e-03
-7.615622490883359194e-04
2.592047598426041027e-03
5.616998193201387830e-04
-3.027700129524560704e-03
4.560494937631400045e-04
2.159787446689044078e-03
4.892879741049379130e-03
1.076806113943168386e-02
8.266340722986147138e-03
5.652446024027518896e-03
2.796217577712556759e-03
-1.569605676719015202e-03
-2.516610988079712088e-03
-3.487075532989699755e-03
2.256682148775550345e-03
2.608406810231438978e-03
-3.354146442189533811e-03
2.096523267408600347e-03
3.112711673789042566e-04
-4.906331799860243897e-03
-1.494595776057032477e-03
-2.754191065351534098e-03
-5.843981333379796254e-04
-4.665129843278568132e-03
-1.473175556327876480e-02
-5.771565759020332899e-03
-3.441645984793724987e-04
-3.440536785627622534e-03
6.264802763908460664e-03
9.196331102266435201e-03
2.038468915982062646e-03
7.745200791117165312e-04
-1.410095377332249746e-03
-7.193229896899509725e-04
6.965532517724847342e-03
9.542600250065898584e-03
6.406032535510240190e-03
5.357259610142627677e-04
-2.070904188085455344e-03
-9.797903861365440947e-04
-7.152820453349411668e-03
-4.937089808484927851e-03
3.102967134033914921e-03
-3.057625646227908438e-03
-1.441066955285569360e-03
2.904861246375228280e-03
-2.017914704361667508e-03
3.401902816194026912e-03
5.946651056073269138e-03
2.623753731419514734e-03
2.290486180696004598e-03
-5.113569527698185813e-04
-6.173863925530885467e-05
-1.834656240685956455e-03
1.564994769977842010e-03
8.034362627535271764e-03
4.981595617969925352e-03
4.697114163602420303e-03
-1.400589337502319495e-02
-3.111102186831237945e-02
-9.726391966473546188e-03
-1.841778152977032595e-03
-5.461561029143666840e-03
6.659019781248939202e-03
4.872829209187991110e-03
-7.923696876451028761e-04
4.043881591251137931e-04
4.449427171048576934e-03
1.073116037143221832e-02
5.000773874685050108e-03
-3.716520564521022009e-04
-1.249093669384242211e-03
-3.169865713403703742e-03
1.737316119538461195e-03
4.008940092897378057e-03
5.187551453407240887e-03
7.452108814103263791e-03
5.044606241577750949e-03
3.750094967341688346e-03
-1.253449331042469275e-03
-4.933588249389923679e-03
-4.217629644756602791e-03
-8.774006343709863515e-03
-5.401443585213519701e-03
1.509418492607442468e-03
-2.757392986298573198e-03
-1.686397597258754676e-03
3.265903658000665795e-03
-2.725697260030392199e-06
3.751236418752299353e-04
5.335329969507921627e-03
5.980107147562237734e-03
3.350505278309412124e-03
-9.526039742705726381e-04
-1.753013858589874208e-03
3.826959455980038019e-03
7.863961945067894643e-03
4.831737777943067615e-03
-1.926331205594598731e-03
-5.563023420234354532e-03
-4.589252114872024481e-03
-2.287362563621698607e-03
-8.178465901918436417e-04
-4.034957434586500073e-03
-1.112706621009869508e-02
-1.061602879964972102e-02
-3.463104667925587178e-04
4.102758887898775089e-03
3.024723052797394923e-03
2.534362039176953855e-03
-5.583693742394070514e-03
-5.474336629400176728e-03
-5.651174773265155160e-03
-3.186032708859519447e-02
-3.212636241647400664e-02
3.118183594224107919e-03
1.442917658894622701e-02
1.151802923942891847e-02
9.957524513391907695e-03
8.664949242930470794e-03
1.686373773904428081e-02
1.675459697663373576e-02
1.683874599279362727e-02
2.084188745179868171e-02
1.163482338484461351e-02
8.337867753071685414e-03
4.848870514966339453e-03
-5.920967916307336501e-03
-3.890808806754881589e-03
-5.987506503463784630e-03
-1.400399799405155354e-02
-1.353817155031080549e-02
-1.888145262759520493e-02
-2.188464012891544810e-02
-9.273221479292589886e-03
3.718322159218107915e-03
6.793641811778911889e-03
5.138575016881591004e-03
1.103823311229468716e-02
2.352241494471870448e-02
2.698679560494651741e-02
2.462288031741086819e-02
2.751547203667270916e-02
2.643220981391822613e-02
1.567981687317167305e-02
5.642804086387337784e-03
-3.128110742576738733e-03
-1.482607276141506732e-02
-2.499828734846755440e-02
-3.494643162353509858e-02
-4.638641469933914296e-02
-5.445707351557373121e-02
-5.555584188022781589e-02
-4.674498838353705749e-02
-3.497405253542911624e-02
-2.551247119871524055e-02
-1.153517571509107831e-02
3.129103943667034104e-03
1.684034070668569485e-02
3.081500358842379633e-02
3.659891170131581578e-02
3.840877118712170135e-02
3.603326434617242641e-02
2.812882685790207143e-02
2.023830416287797709e-02
-9.200123567789373399e-04
-1.656899559790112053e-02
