1.005546044560724208e-04
-2.887154251302074918e-03
-5.744432182862505357e-03
-7.024657288801605150e-03
-3.023590765102543432e-03
-1.837968477550630758e-04
-3.830156713692073247e-03
-6.392732410821293579e-03
-3.704952293602307035e-03
4.838459920385416134e-03
1.399779759188019522e-02
1.707648620912527448e-02
1.752622356103201301e-02
1.720886911441728631e-02
1.782438686419917165e-02
1.050223376537627595e-02
-1.108693706224216091e-02
-1.825888025294686995e-02
-4.072449280515712776e-03
4.775352824568069275e-03
2.799151038986258822e-03
-4.474709489246520358e-03
-9.161949712670147683e-03
-8.137284804963009280e-03
-6.133146292471920724e-03
-3.453352740640217803e-03
-5.857230247859773233e-03
-6.503981120750989761e-03
9.203900721415994319e-04
2.799255045888894306e-03
1.448337281530946621e-03
1.239208126605547116e-03
-6.103126710213790940e-04
1.004806432721944880e-03
3.585370548337900309e-03
4.380584605463089254e-03
4.156571593753546727e-03
3.893993654425813127e-03
4.949315294829433574e-03
4.854965694407960969e-03
4.211764675249898317e-03
5.539685963846729348e-04
-4.040857431294498509e-03
-4.641525056736250758e-03
-6.954585015265597921e-03
-9.398216576544922082e-03
-9.910292958843384264e-03
-6.366128403952598346e-03
2.128210206254934744e-03
3.081646522042492953e-03
1.659729366129626812e-03
3.329807229878434163e-03
1.822058721879812318e-03
5.755222292748799102e-03
8.215393879893659324e-03
6.436456599606366850e-04
-3.385234968932619454e-03
-1.033283760007699644e-03
3.026710982488424982e-03
4.546349162995542287e-03
4.706440160612727431e-04
-3.315126665409042373e-03
-4.931890330545226579e-04
4.551929711742663635e-03
1.538607716427075863e-03
-2.811181717535649223e-03
-1.271855730923923938e-03
-3.207736765380199851e-03
-5.303554034629840049e-03
-7.392864258582431151e-04
3.778798637866777506e-03
1.851031609342137238e-03
-1.941563361150883604e-03
-2.544531966323322191e-03
-5.852750985208683178e-03
-6.061519009249573785e-03
2.076845305454706601e-05
1.720489425600248146e-03
2.837011421997458205e-03
2.613928762482523906e-03
-5.637302371666098356e-04
-3.422673834524794529e-04
-1.028728792819405796e-04
2.229143079869919108e-03
5.407470922732206774e-03
4.860719484668820159e-03
2.935777828141535473e-03
5.834523208190067062e-04
1.367573308458252613e-03
-5.865435554596602806e-04
-2.465149937173454105e-03
4.760168610025339764e-04
-7.026573111907718702e-03
-1.205208446376443247e-02
-4.720327116282826974e-03
-3.408377151845787441e-03
-3.953892592107708000e-03
-1.350406725647121126e-03
1.083637991010358986e-03
2.862101696848759393e-03
3.546516458044830355e-03
9.110084705174605404e-03
1.272759868137934847e-02
9.576132121083007556e-03
4.447497226651437111e-03
-1.767719318901936820e-03
1.218240232642878477e-03
1.143942276032407050e-02
9.314467682787779326e-03
-5.397665012876148340e-03
-1.350101183744333716e-02
-1.208393193916929703e-02
-8.592587432204349188e-03
1.583258195671757482e-04
2.650793447901732009e-03
-8.922163211040771763e-04
3.485816363997743927e-03
4.872599400954851813e-03
6.403019585614370610e-03
4.181797826663596201e-03
-5.105430563832871228e-03
-3.538377797986976946e-03
-1.759695992099375231e-02
-3.424032709960597720e-02
-1.295918758881346028e-02
4.061766216580211739e-03
2.742153727108800031e-03
4.850578419409462376e-03
4.862093070505377201e-03
9.025162981914408925e-03
1.128792594749458006e-02
7.474762028177725157e-03
5.751040600621129886e-03
1.180088791014015067e-03
5.738425532254632418e-04
3.969839582041923519e-03
2.837482257233449497e-03
3.011518340268442683e-03
3.436233665982991320e-03
1.531860148104322332e-03
1.320285087702874728e-03
-4.596199517358566067e-04
-3.551920356183309486e-03
-1.380392200027836776e-03
-1.924712819910031334e-04
-4.018887330502578063e-03
-4.255800456774583122e-03
-1.920468765358897397e-03
1.191748001816739266e-04
6.642110860696956963e-04
-1.714180252885061460e-03
-3.930964603284642627e-06
2.246044227689733812e-03
-1.971899242734063366e-03
-7.442614028550058325e-03
-8.357640787695288717e-03
-3.368378187756271899e-03
5.915387292946103388e-04
1.123493314219684057e-03
2.648375470691847165e-03
5.446115979459886097e-03
8.605708779520302582e-03
6.627643894465198859e-03
2.362423652770200954e-03
3.381204261908614221e-03
3.086841056231902271e-03
-2.334285363676780710e-03
-6.001093131475441524e-03
-4.232068324972334920e-03
-8.322993851677362416e-04
1.786605972561880126e-03
8.404801270308832114e-04
-1.892820151724203216e-03
-5.226248925563365278e-04
-3.029874739042042082e-03
-5.877987321853757503e-04
8.900370305178772340e-03
4.640583927917736780e-03
5.327528219703308275e-03
-1.313849001286847545e-03
-3.334993373171307729e-02
-3.129908705396123453e-02
-9.161925591289188636e-04
9.618861873560596507e-03
1.178673097881268589e-02
9.576825034262447661e-03
8.083732213488528662e-03
1.001294444642141131e-02
9.213087754546661276e-03
8.529810941618800810e-03
-4.212090311218003556e-03
-1.451479565590560981e-02
-7.484481215023597311e-03
-1.731787791291671983e-03
2.375899600482234576e-03
4.733935425894241628e-03
2.581169758819788600e-03
3.643290771555185068e-04
-5.250688516965390951e-04
3.116608436078132684e-03
2.526911612829048966e-03
1.246274688912719312e-03
3.409568220445711138e-03
-9.964711183224582436e-04
-6.950096066059564511e-04
6.493784276604965770e-04
-5.821525715807512359e-03
-5.965100592836404189e-03
-2.706031643124428513e-03
1.243344358468170580e-04
3.764376258756113158e-03
3.604802109423367769e-03
7.990594966321995247e-04
-4.432673750185522898e-03
-6.385607978316782361e-03
-4.020199173522935945e-03
-2.197817284164009944e-03
2.857948893083915435e-04
4.522286297533584503e-04
1.820075314835699169e-03
7.029224281222662060e-03
7.358748222279802229e-03
1.470027959164912261e-03
-3.751459976458700312e-03
-3.618670158782239573e-03
-1.004327888521204049e-03
2.296439165827481033e-03
4.962021038277132819e-03
4.992716821293377398e-03
5.682321366217363452e-03
3.659942689848790301e-03
-2.811312584404703071e-04
-4.917375423950712948e-03
-1.088726948794388472e-02
-6.040772175719725037e-03
7.944416196776736550e-04
9.065353609080899601e-04
1.796176535512086520e-03
-2.897816114532168578e-03
-2.277369149361949466e-03
2.427188374540060686e-03
-3.244510577218553266e-03
-3.900643913055645276e-04
3.879217464710896408e-03
-2.604351284690756187e-03
-2.691331518295158026e-03
-1.061473027989132557e-03
-2.923252330672013091e-03
-5.052563439621915627e-03
-4.063534428819732050e-03
1.856002711384328874e-03
1.417854560875882273e-03
1.221552668633962098e-03
4.904199262487846274e-03
2.468735085712230395e-03
2.103377859835476173e-04
-8.267849465772844414e-05
4.100987721422524532e-03
1.010924263684365686e-02
7.096737488718077823e-03
4.022172585419192363e-03
2.068800572997767703e-03
-1.985402230484705800e-03
-6.961872516284718778e-04
2.146294308273991817e-03
1.400722065268564069e-03
-3.287498476674560310e-03
-5.530453242144134883e-03
-1.285507073624413826e-03
1.940497041490395116e-03
4.534928266077634454e-03
5.476539821130178495e-03
7.178062995763113269e-04
-5.689544641769076622e-03
-8.346793403740839293e-03
-5.776915760369753794e-03
-5.886783183551357740e-03
-6.409277446107134422e-03
-3.000764379058420452e-03
-3.031603282274337053e-03
-6.288912728758350125e-04
1.940877402328194772e-03
-1.718579010475043169e-03
-1.756019126719735122e-03
1.724803168411854788e-03
6.682202328504602794e-03
5.890428564642453957e-03
-1.624958786100309327e-03
4.350744868970964551e-04
4.127306145336664435e-03
3.023002210791958435e-03
1.174735873597708164e-03
-3.828946052913948135e-03
-1.748673161265730004e-03
9.839148823660723645e-04
-1.633250439394710223e-03
-9.589381641807014772e-04
-2.718620371113464329e-03
-1.769737268940285366e-03
1.014828741311821995e-03
-2.614170095454226850e-03
-4.502413045405309969e-03
-3.329198200698651935e-03
8.794641035615569482e-04
2.511330926581036276e-03
1.624645286920033821e-03
5.576282154542878608e-03
4.210369893802096836e-03
4.792660632421041553e-03
8.141274069385546347e-03
2.982936914128100740e-03
4.342940897297399572e-03
6.205791587315049457e-03
1.141299976460720140e-03
-3.320199784666199769e-05
-1.979430439723674044e-03
-2.230519532410500487e-03
-3.593002375725628649e-04
1.595009515169725335e-03
2.677153297170564456e-03
-2.997898156894652361e-03
-8.847371050350943608e-04
6.075404250625111337e-03
1.772628313633361303e-03
-5.362465974928449022e-04
8.373043925550889988e-04
-1.413589466777762441e-02
-3.929704904411141647e-02
-3.177288117095947856e-02
2.932838991964185384e-03
1.206948431072561376e-02
7.779253152438970163e-03
8.907983866744476065e-03
1.615671762725686376e-03
1.203270412325315808e-03
4.989236973203153673e-03
-4.414445782457048829e-04
-5.647002166224647686e-03
-6.900731227408238300e-03
5.966662150728139786e-04
9.803818586240853339e-03
1.019379061331388177e-02
8.792018236729603337e-03
6.970016955156552695e-03
3.674899092989539380e-03
9.493281089691285764e-04
-3.910340237213633173e-04
6.181598241958995328e-04
2.447546704412453377e-03
2.748783054619381369e-03
1.252783819947493734e-03
1.839240044050688893e-03
8.383863592583112433e-04
-3.261082423616079497e-03
-2.946218510459374870e-03
-2.139958070195738943e-03
-1.305501092995760325e-03
-1.428791195114846591e-03
-6.386098352563862428e-03
-3.724471338799849752e-03
2.751300987909348870e-03
3.623092285414796897e-03
3.134758310164869992e-03
-3.001106103432344199e-03
-5.229348709108060447e-03
6.530575940114772323e-04
-1.152209646288289121e-03
-4.360473757711596718e-03
-1.053418208759006151e-03
3.920801412314196474e-03
4.740951250586894310e-03
-2.560270108625134402e-03
-4.588642455612351213e-03
-3.421492313487259091e-04
-3.097243826589545033e-03
-6.173829141225383420e-03
-4.809242484963079274e-03
5.661492278926387369e-04
4.738828357550520926e-03
-3.119331801610419029e-03
-7.609216267894237419e-03
1.517846629778501046e-04
5.658554403638209329e-03
8.932683913613069168e-03
7.829042135417541362e-03
3.092438500432730282e-04
-1.815260235809419047e-03
1.363953146854415344e-03
3.627628193152131371e-03
3.216185143840071241e-03
2.282534797667870683e-03
2.231833706470779787e-03
-7.322231970777404652e-04
3.880125424233014768e-05
2.885507919932009304e-03
-2.199035523446146462e-03
-2.672438784686292142e-03
1.003980668330950281e-03
-3.321569478497148065e-03
-2.963352865737457677e-03
1.957288294688739726e-03
-2.507752889982654333e-04
-1.442870410148790758e-03
-1.309193991539369002e-03
-3.180933823301781288e-03
5.514485812421437809e-04
2.495359053883103220e-03
-1.526540478445097835e-03
-8.041246975609305956e-04
-1.466933532638310970e-04
-1.841360320127840688e-03
-8.227080376936200465e-06
-1.153152902942509344e-03
-2.084781175443702929e-03
1.446058473972935726e-04
-1.847159087361300829e-03
6.850540525741402901e-04
6.149998028046506360e-03
1.705026728935038743e-03
-1.335955281681938406e-03
1.225403610946481682e-03
1.130087992770502630e-03
1.165011963142834018e-03
-2.176020645721705570e-03
-5.571038441849104558e-03
-1.673885144566063504e-03
-1.274411917687241769e-03
-2.314226274678485209e-03
2.429088629169088936e-04
1.988121782494919150e-04
3.459443477352253625e-03
4.957614022263238072e-03
-1.062632344283559113e-03
-1.836548490893956040e-03
8.236424454212001129e-04
-3.274789213672506943e-04
-2.283040779807240551e-03
1.493579700032007817e-04
5.271290618545389044e-03
3.038340765219590435e-03
5.399389269887203829e-04
4.131856047816860437e-03
2.341960475633406927e-03
-2.279976611674496174e-03
-2.058718724475475017e-03
-1.017265463468075603e-03
-2.691104481541594078e-03
-2.366667058135490595e-03
1.149238599178532870e-03
2.552832678755690213e-03
5.338328636360824969e-03
4.571096195355841933e-03
-2.755957811228566812e-03
-4.129050175074499597e-03
-4.567601047500308500e-03
-6.528821322241269015e-03
-4.905858042423012072e-03
-2.482038513334329684e-03
2.973041716738278589e-03
2.509675717239436953e-03
-8.873169347864138298e-04
2.734868136795780540e-03
8.248521631708162103e-04
-1.342024873674428197e-03
-2.754375220366542601e-04
-1.975926726180874358e-03
1.460163812403951402e-03
1.816796179879343704e-03
-1.249834110462906848e-03
9.933728012686340869e-04
3.528714484561451797e-03
7.016922203748523351e-03
6.297127933237790451e-03
1.940497595862108364e-03
7.975992448584396950e-04
-1.214726655134298113e-03
-2.942917680387342142e-03
-6.370150436551283608e-03
-6.835908845128213854e-03
-1.307103647748764129e-03
-2.120812164157289889e-03
-2.624867962221330304e-03
1.032632825725505023e-03
1.738355524694141889e-03
2.869339346119740772e-03
1.383115657197036890e-03
1.191376582910307546e-03
2.251012187899549370e-03
-6.183947366229906178e-03
-7.500463943766887305e-03
2.866436908694740531e-03
1.289188040399229891e-03
-4.571846795138473363e-03
-9.866672522070489646e-04
-3.844267740822283246e-04
-9.008948713091799823e-05
5.280942440043366604e-03
5.899711681391378408e-03
6.391735192920524992e-03
6.486673584995074175e-03
-1.199071777878883769e-05
-1.588013025505390866e-03
8.979634805701801076e-04
-5.860493644587118529e-04
-2.459494351929537165e-03
-4.148892062330274133e-03
-5.071391031050615818e-03
-6.478594742476537563e-03
-6.058390589787573249e-03
1.156633547761186463e-04
2.691684795945970335e-03
3.061161799097288951e-03
8.288832869374596068e-03
8.427297134077972943e-03
2.005748426732506876e-03
-1.223860292521161165e-03
-1.138990529606453408e-03
-1.251070214278551460e-03
-2.639395448108374301e-03
-5.224878223472744290e-03
-5.587891999677708881e-03
-3.523107277105539618e-03
-1.941388373204180938e-03
9.837323896520811829e-04
5.619539974974252158e-03
8.401852747331413351e-03
7.259302288618775176e-03
7.091915372250950401e-03
9.293302170699176828e-03
5.167408230355097914e-03
5.055166437413425619e-03
7.744615372276276478e-03
-1.478231605372745325e-02
-3.620305271197650498e-02
-2.260264975650702265e-02
-2.998209737941482170e-03
3.527260561166414930e-03
2.328607628007662265e-03
-1.146244404948903794e-04
3.214356358246649604e-03
3.520168281716079019e-03
1.650662886166530570e-03
3.307110303856550422e-03
1.465149497067780174e-03
5.530099978363103548e-04
3.775936442278862541e-03
4.155688005856918513e-03
3.511263701741662753e-04
-1.542687804983257187e-03
1.463714541769287709e-03
2.640107422772173217e-03
3.730015890782138743e-03
6.747139759961651856e-03
3.524729781633554639e-03
-4.862032518252269514e-04
4.464557878906096414e-04
-1.335382431928712173e-03
-4.825402094934631674e-03
-3.351153124194713052e-03
-5.901233050974247695e-04
5.267158981937157753e-04
2.918912829432031807e-03
2.950459119525053811e-03
8.270991328026902080e-05
-2.060793721818152124e-03
-3.488890076634430706e-03
-2.524225596548422372e-03
-3.543158291325777982e-03
-7.074728621649195408e-03
-6.207262883186863769e-03
-1.110152875264022385e-03
4.119439687106736872e-03
2.457700969520693491e-03
4.553658952875202278e-04
3.985760071761614530e-03
2.093138181917522742e-03
1.398164093815169309e-03
4.302292818289405081e-03
3.441024901561716334e-03
3.600154040615644469e-03
1.283540619380306490e-03
1.150671697559308169e-04
6.729899058584696463e-04
-2.723168907560030369e-03
-7.443338209856995794e-04
4.782804767567482647e-04
-2.870682439084548503e-03
-5.920407461248047495e-03
-7.685718105505138717e-03
2.038357418257809219e-03
7.497105055269725864e-03
8.199835039566445217e-05
-2.758326361894073049e-03
-6.140967881525604029e-03
-4.946380447593943033e-03
2.036323237252910933e-03
-1.933576397001014312e-03
-4.827363974199815749e-03
-5.542104151083516311e-04
-2.688324147545551331e-05
-1.248477487743484930e-03
-1.664798774491186998e-03
-8.000911991153941564e-04
2.561094459394082541e-03
4.972005945809728975e-03
1.871632183033797130e-03
7.613692643264625406e-04
5.046267767358353189e-03
4.117030504913918657e-03
1.863974907416741803e-03
1.688983507369852099e-03
1.572929392605603230e-03
4.885210560969896476e-03
3.900166436086867187e-03
2.261445949209819201e-03
3.394139086510454626e-03
-2.733157921231151206e-03
-5.297863727355502095e-03
1.694494057393862451e-04
3.311356426591974527e-03
3.821817681499258858e-03
-3.543140839615709276e-04
-6.213426767192523244e-03
-6.023373596221659985e-03
-3.306514740457562000e-03
-3.681005420571562166e-03
-4.493749976300268935e-03
-5.103523927911119036e-03
-5.510241209537731708e-03
-3.360608080337170898e-04
1.704738731673759037e-03
-1.139958368904638795e-04
5.779189059490221457e-03
5.745303153196128741e-03
-6.667670146443692349e-04
-5.666661177287116114e-04
-1.027985896828037538e-03
-1.263439412354407446e-03
-1.634620100204442223e-03
-2.484252206897314547e-03
3.334792571283702687e-04
1.160865905878015253e-03
4.277927840303672076e-03
6.468716486020390823e-03
3.171476391908618301e-03
2.760203986176249739e-03
1.142491097463154987e-03
1.420539454884837656e-03
2.831028874950135971e-03
-1.109093067566021586e-03
-3.776818070575683898e-04
2.493655659052411064e-04
-1.814656696785927996e-03
-2.903068668935990769e-03
-8.057512334069625443e-03
-7.943682293942109021e-03
-4.472859142420101790e-03
-4.001233631810423297e-03
-5.139530170522013837e-05
2.816913659123635328e-03
1.993942794010738085e-03
-6.743938182835107400e-04
-9.590381977305529075e-04
1.661745056906909586e-03
9.573669120124240724e-05
1.123178614447218216e-03
4.801353417526850291e-03
4.578419804054624336e-03
3.178714022062468624e-03
1.119239868676083927e-03
3.546793274952559326e-03
4.997667372584662683e-03
-2.723012236619750835e-04
-3.856327536458853573e-03
-6.273068893558485584e-03
-3.068485084486099242e-03
3.475795769517786137e-03
3.071627204592532103e-03
2.713126784327070471e-03
3.124441113380697563e-03
2.081882700908419155e-03
1.667883894839737081e-04
-1.001280443532392246e-03
3.952285162810683164e-03
3.395549832092911811e-03
-4.579580222435777025e-03
-5.749216401544321800e-03
-3.747386000534742943e-03
-3.917041548891409333e-03
-4.777461247181672040e-03
-3.089141325748348110e-03
6.288570357373839993e-04
1.813343699077615487e-04
1.061240941307785187e-04
4.595160597835835567e-04
-2.870093539909307143e-03
-2.422604111871421058e-03
6.784606509814934076e-04
2.686552830004183476e-03
4.511742026917272240e-03
2.418071459419549648e-03
2.834056396088346745e-04
3.464454777323345614e-04
-1.666759556981247661e-03
-1.762879335149410576e-03
-4.511796230285043956e-04
-3.660148547695303393e-04
1.637973773482105438e-04
-2.048902866437273939e-03
-1.133456109294158059e-03
2.159785350646353536e-03
-3.404771747847915551e-03
-5.174909288356105592e-03
1.007873053006946547e-03
4.571921253794181475e-04
-4.607717754418706106e-04
1.233474619442548065e-03
-1.648267019216893186e-03
3.874125921532955920e-04
6.149847414684319821e-03
2.549323368223587079e-03
7.461221866022840765e-04
7.009008929705054861e-03
7.725512963530750329e-03
4.488430249863983520e-03
4.439535081689189146e-04
-2.397346824967240206e-03
5.805254126041081361e-04
1.812447967775221522e-03
2.934018862903804876e-03
2.337061168664515166e-03
2.402698468824651017e-04
4.543815156552600404e-03
4.124134238199291674e-03
5.756759501143618105e-03
5.747071612235217682e-03
-3.652783952762134103e-03
-1.268998042424694965e-03
-1.380391545947273063e-02
-2.778435610330640126e-02
-1.401045407866559345e-02
-2.685214076450942802e-02
-2.531464624304431352e-02
1.603308035602357684e-02
1.382971091931806118e-02
1.767219643498552616e-03
1.149687522581110434e-02
4.443964791752449094e-03
-1.055952145813327751e-03
1.191456373035322655e-04
4.799440852244919037e-03
9.538519136536388610e-03
1.415496274240661241e-03
1.701280186894003855e-03
6.023652951223057786e-03
2.413011081925978216e-03
1.555145439729812206e-03
2.596291756035069864e-04
1.421497084652641966e-03
2.542740171106467901e-03
2.031221370262309249e-03
4.732126093546910363e-03
2.249649065286593239e-03
1.537490736853226736e-03
3.745222892426626829e-03
-2.724070169615469550e-03
-8.006184856547363810e-03
-4.900548560613177639e-03
-1.890878791906994757e-03
-4.539474066485561787e-03
-4.798533432006955174e-03
-6.493503991346822636e-04
-1.615500280790546162e-03
-1.058401856849772822e-03
2.149386197337928208e-03
1.048331448291365837e-03
2.210013106318478582e-03
2.938382161092110804e-03
3.782854040487523156e-04
-1.427566938343641841e-03
-2.319110088647956692e-03
1.402200558432721003e-03
4.641529927469064364e-03
2.179224210962421582e-03
-9.770393335000935025e-04
-3.749423590241716606e-03
-4.876361463159227180e-03
-3.563141274340101989e-03
3.090050978196238205e-04
3.980785166063561913e-03
2.744324703806178076e-03
2.003890868540861118e-03
2.056976398868312367e-03
5.524852216756317557e-04
-1.458214990750358701e-03
-7.723751101627776561e-03
-7.041432486013628894e-03
3.366058403542969337e-03
3.375583780679997786e-03
-2.620751670688534381e-03
4.901385203868157943e-06
2.732052685576840962e-03
7.444937599553798097e-04
2.218104208701874181e-03
3.742766394477815232e-03
1.353544788499373415e-04
-3.166032848510919506e-05
-1.859617358851952318e-03
-7.328015594479939457e-03
-2.716067584111254551e-03
1.581601511264471268e-03
-4.515772058256388574e-04
2.561247563118157575e-03
4.876076427855498448e-03
1.904171188146440126e-03
-8.492969582426501945e-04
-1.073436650625147820e-03
-2.065289031559072730e-03
-1.498155601510389821e-03
4.967607163138905782e-03
4.800391082371517799e-03
-1.522180719196244698e-04
1.524980599817423593e-03
2.831527202218465738e-04
-1.986242151538594215e-03
1.045201971532215188e-04
3.943151146694221323e-05
8.400131970099338884e-04
2.948012900165378290e-03
1.034381634109417985e-03
-2.022099224767629714e-03
7.623959575810580888e-04
2.941155484904158478e-03
-4.281238224298902079e-03
-7.454774896355687540e-03
-3.528724726765070444e-03
-4.564545197093995352e-03
-4.512379383285486205e-03
-6.429114918452872880e-04
4.747425975942571219e-04
9.734415815476663795e-04
2.135440640663245279e-03
2.802142765709293368e-03
4.187744296511634878e-03
5.193478677300684791e-03
3.575046607022510075e-03
1.949246378611529679e-03
-8.735395085381715335e-05
-6.141213167533647946e-03
-8.010066014046772140e-03
-1.489376206460305821e-03
3.058851881011969125e-03
2.936173339794400771e-03
2.187554756513511965e-03
1.649388999886462152e-04
-2.406626604081518132e-03
-3.012101275420190662e-03
-1.532517137605552120e-03
1.426638205436154454e-03
4.107662050402351335e-03
2.032670540274485182e-03
-3.392290089966222468e-03
-3.636183193141493981e-03
9.586418374548430878e-04
1.907082020556006598e-03
-5.637558496679349537e-04
-1.076237168517602937e-03
9.192825500515719971e-04
3.756087290442816466e-03
3.517825530178924666e-03
1.877836547346730138e-04
-4.086427211585868624e-04
1.280928545801153376e-03
3.291628673651111024e-03
4.753925439881180950e-03
2.923347992292196079e-03
-1.788324258840447709e-04
-3.535483476463107105e-03
-3.417104676012278075e-03
2.265121546162011164e-03
2.088372080567234973e-03
-6.981041850637378357e-04
2.111967862210047901e-03
-6.753256285901908067e-04
-4.260941857533607352e-03
2.927201083978314580e-04
4.211920865834412053e-03
6.480648441360278497e-03
2.066879779718135742e-03
-6.742880411598177123e-03
-3.923439676522118627e-03
-1.288260476958057090e-04
-3.668648568741736480e-03
-4.736125926535755988e-03
-6.782888467385964938e-03
-7.567029866034482265e-03
-3.945991524134715052e-03
-1.667848275677902368e-03
2.341713565995592449e-03
4.273144838973071992e-03
3.355250838451297266e-03
8.552093356261274149e-03
1.242890512669614020e-02
9.374290464670715500e-03
6.769625983993721174e-03
5.967903373943844736e-03
3.480728219402054891e-03
7.457854974808903609e-04
1.520623169389347410e-03
1.693505855063266599e-04
-5.737376565497337086e-03
-1.005284260599146641e-02
-1.344366852164060808e-02
-1.410151961298486065e-02
-1.205305373738058475e-02
-1.033081995917276528e-02
-5.897946304487653238e-03
-2.443945115817107092e-03
2.828068562161387307e-03
1.084985509213383728e-02
1.130510949552687196e-02
1.410775533212499724e-02
2.142911833944110764e-02
1.954965036458387179e-02
1.257481371259296793e-02
6.949253997721022841e-03
7.598216953158398214e-03
8.373105452121866465e-03
1.749517142296447053e-04
-3.192430841029118751e-03
-3.330129940702806698e-03
-6.781956188918246940e-03
-7.854694966519136165e-03
-1.248610769197459197e-02
-1.060347188763567650e-02
-2.489062013321621369e-03
-5.600577372019507026e-03
-6.510311349881264115e-03
9.686417292739758550e-04
7.151619689395765853e-03
6.738304149265507588e-03
3.180431214517945131e-03
2.080153747389547770e-03
-1.957697305358434975e-02
-4.126235460328616517e-02
-2.450450722880525428e-02
-1.345322916040114086e-02
-2.040336659393451185e-02
-1.546012860218841031e-02
-1.085064233860339074e-02
-5.685245227464134563e-03
3.173729990823115528e-03
7.591773737456469599e-03
8.022681092077451823e-03
7.097830195948616992e-03
1.698145379705125538e-02
2.538126051581238163e-02
2.817352983430702895e-02
3.983800893102538293e-02
3.497503102614130804e-02
1.249678456805335819e-02
-3.438397190644316894e-03
-1.892500190281169031e-02
-3.238234171505125630e-02
-4.170504769517235921e-02
-4.980144509435768113e-02
-5.508085114019824896e-02
-5.548656288880032816e-02
-3.518390909000612687e-02
7.786118111895052110e-03
5.053502767827554309e-02
6.710711893002838102e-02
6.797902208961684178e-02
8.790885972390947989e-02
1.107943982669551686e-01
1.061982388895903878e-01
6.532550712192997100e-02
2.101106756108011859e-03
-2.587912179061707327e-02
-1.733805020934471586e-02
-2.417563116549219931e-02
-4.237149440384783278e-02
-4.791680661553839038e-02
-2.456869094797691291e-02
2.042127616266813106e-02
4.145254783452318598e-02
3.431790060272611222e-03
-7.868011487783359292e-02
-1.117474988619383269e-01
-5.317144004122824341e-02
-3.215834770365477019e-03
-2.239536819097341647e-02
-7.838733774012650313e-02
-1.201606902912529806e-01
-9.663719959543692894e-02
-5.615561697709348099e-02
-6.929332631926032882e-02
-7.692581969274016329e-02
-3.791798123858951958e-02
6.174609789578329976e-03
4.064180038337749518e-02
5.036356278743460424e-02
4.228040249650900917e-02
5.975805675545164258e-02
8.216439865740583770e-02
9.772775593835296426e-02
1.486238129677921460e-01
1.994945025642313186e-01
1.760937560813960190e-01
9.693110399055313020e-02
1.996399407038157089e-02
-3.137766296635195046e-02
-6.826785655577099696e-03
9.102675998801429413e-02
1.261630216386961101e-01
7.499178086034903601e-02
2.280703633227291680e-02
-5.348675144797974262e-02
-1.540825565072999337e-01
-2.195723967071351035e-01
-2.307677026344112647e-01
-1.966134479924368794e-01
-1.515184134535028648e-01
-8.385362632129696181e-02
1.075600073869941581e-02
8.650225566056540805e-02
1.352565158036976023e-01
1.293413729133791601e-01
7.170678374034279712e-02
8.238928986813714040e-04
-9.771227959491129988e-02
-1.727124928777532820e-01
-1.741655593786472223e-01
-1.378720507825980657e-01
-7.293712510071034827e-02
2.740530014942781437e-02
1.393667276142577793e-01
1.888602620243737817e-01
1.739695887590973766e-01
1.793018713805383524e-01
1.376811137079149705e-01
8.919932912521574787e-04
-9.142785142640132146e-02
-9.374110531127589907e-02
-6.285790703349908304e-02
-1.610579113495496425e-03
6.619337928347610034e-02
9.588563078534743933e-02
9.286311160627679084e-02
5.543073108682400330e-02
-2.296408309890083863e-02
-8.865801302644822635e-02
-1.165575928447078191e-01
-1.135458036681937510e-01
-7.002957553385535938e-02
-3.589484239387270847e-02
-8.462281811839876891e-03
6.776572812555511915e-02
1.151209954049879636e-01
8.362853198404092414e-02
4.129996288027590334e-02
1.094953565307430626e-02
-1.049908780304272156e-02
-2.302219502511684140e-02
-4.044004795563121979e-02
-5.180798731639770643e-02
-6.214504677015565692e-02
-8.416962105042356812e-02
-8.249872266247586239e-02
-5.023604097060579282e-02
-9.556667421291823936e-03
4.481088339854119584e-02
7.129211829236950515e-02
5.179577791391799801e-02
4.949446373213882422e-02
4.976433118068067374e-02
1.876825175879847166e-02
-9.605614911055593980e-04
-2.001010772700709088e-03
-2.949697018819197759e-03
-4.134700431148837819e-03
-5.583850702881701204e-03
-3.358227537283490789e-03
9.908746379160781562e-06
3.311913723993228312e-03
5.125599069734841813e-03
4.897362620561770095e-03
9.942867808429216997e-03
1.364256743048014413e-02
9.328139402763172688e-03
3.109180291784878394e-03
-4.874893314018873447e-04
-3.190645391210408886e-03
-9.698436242296333554e-03
-1.408508494472550908e-02
-1.069725636438996833e-02
-3.379558746400010329e-03
-3.646256839944780892e-03
-1.274081519265076942e-02
-1.230625525606041278e-02
-6.569068703631815963e-03
-4.654559983066559642e-04
1.442818426567540890e-02
2.178050785088917959e-02
1.185019500174135619e-02
-9.537145243604491091e-03
-2.824185508322728938e-02
-3.695131428374692772e-02
-4.224217285413810197e-02
-2.723721607135618644e-02
-5.809416612039201844e-03
2.048615991715632516e-03
2.297298029401836569e-02
3.497176850022831740e-02
1.724240880470509843e-02
1.137197711188569571e-03
-4.214602189839530832e-03
-7.821461601067849557e-05
3.895056227330553726e-03
5.326373996802477931e-03
1.247645564482017903e-02
1.291408452617016228e-02
1.322383000381759620e-02
1.658761423916831068e-02
1.181408867374297671e-02
8.178872695875872775e-03
6.948050708871778870e-03
4.360507483429356887e-03
-4.365201457681311013e-04
-4.064756045213183989e-03
-1.920930703964510980e-03
-3.162446453024848284e-03
-4.863979228069171233e-03
-5.821711886084139469e-03
-1.019585854839974957e-02
-9.581209956090869923e-03
-7.810118028269905088e-03
-9.660336125844824415e-03
-1.499238159726604819e-02
-1.934065987144335461e-02
-1.560259748399985165e-02
-1.573080180516807022e-02
-1.866994081696999458e-02
-1.551087518235505676e-02
-1.342522606556258331e-02
-4.213453484578020755e-03
2.129854198035350046e-02
4.086424231308971589e-02
2.706156989081247993e-02
7.267838442810666162e-03
2.082159254060663225e-02
3.706848898278425342e-02
2.712550729268903976e-02
5.248071108654198472e-03
-1.287650421809845812e-02
-1.231911745490943920e-02
-3.265255839599282787e-03
-2.539669311781975278e-03
-4.678129121097262914e-03
-1.032560746874124948e-02
-1.917640161488766079e-02
-2.659244610478079043e-02
-2.885078601541421137e-02
-1.921579888089260113e-02
-5.941781388272988559e-03
1.695347895975832199e-03
1.262184762994312918e-02
2.680161599633417574e-02
2.552792478809999197e-02
8.977070405609318890e-03
-1.972280506162030558e-03
-2.764228693205119693e-03
-2.766692507283335521e-04
1.305487210734822745e-03
7.083131560921382582e-04
1.506645055999650696e-03
3.261253272380345257e-03
4.921009303367480069e-03
6.997199426108257139e-03
6.215049777516331100e-03
2.432291602547312446e-03
3.194556428118317686e-04
1.515881992249593644e-03
1.706009206428897281e-03
2.760412592043765857e-04
-2.039679669242296968e-03
-5.184464394927429040e-03
-3.587286817235543421e-03
-3.570963184012332630e-03
-1.172603918737595043e-02
-1.602491941500200703e-02
-1.205119575363256847e-02
-5.437463357014271463e-03
-1.852078169022344572e-03
-3.835894446468233326e-03
-2.198273005098270051e-03
5.570153927665535964e-03
9.352520117301208261e-03
7.620068135625671091e-03
8.568017972757904430e-03
1.125864309676470262e-02
8.240316652838707706e-03
3.439125169182331247e-03
-1.548441059115116675e-03
-4.961592376010470935e-03
8.511575295167544009e-04
1.854818673881869625e-03
-5.481234092937150790e-03
-5.849797735701274537e-03
-1.000890693715150367e-02
-1.480412760948750413e-02
-3.619870376469642211e-03
6.045416603865942998e-03
5.320924117457038333e-03
3.543867120818248659e-03
4.993929602837564622e-04
-4.383218474668468950e-05
3.128730231086660363e-03
5.568310964203401943e-03
5.600326011549220002e-03
3.286916460446750142e-03
1.716329365671057398e-03
5.777770765066459835e-04
-1.725012317554557029e-03
-5.770785647170445336e-03
-6.001604168568408157e-03
3.010280344002165022e-03
6.909194620952402791e-03
3.607660741695357422e-03
6.771258542459949840e-03
1.024678922291948242e-02
7.058885168327105712e-03
-4.965314290947932599e-03
-1.735026217153881611e-02
-1.144479898866244960e-02
4.555205222084003852e-05
5.512974008115884179e-04
-1.662373485047984826e-03
-1.539709973144628465e-03
-2.833329964197765132e-04
-1.871466669494968593e-03
-5.776455081072574653e-03
-6.970521845705754047e-03
-6.708730941374484863e-03
-3.780256675446114038e-03
4.570083677253880539e-03
1.324649579697553120e-02
1.321722976206529850e-02
8.508329302597346724e-03
3.506733501742669706e-03
-6.859450037310625518e-03
-5.589577670943455395e-03
6.845870632807107489e-03
3.371039502489129019e-03
-3.992005860729095496e-03
-3.332800112533051799e-03
-4.386026610849691476e-03
-7.393217657501571956e-03
-1.215112185750583801e-02
-8.930481701229243605e-03
4.159359036775659184e-04
3.668497567772504089e-03
7.902590433506780088e-03
1.223741984102290348e-02
1.356144535516294256e-02
1.285488280271135549e-02
5.666705804940296021e-03
-2.190378285239050031e-03
-4.392199384639577410e-03
-1.207772778888712610e-03
-3.094065357309025259e-03
-1.270894128149875277e-02
-1.331708895029743572e-02
-7.727584487838905572e-03
-3.792163099423662750e-03
1.094731443102322458e-03
3.123375960740137035e-03
4.601518412344669448e-03
5.287770695007203495e-03
4.196863291740036105e-03
4.439771302427567706e-03
1.151899344203416269e-03
-3.226210242388033445e-03
6.100282419201857962e-04
9.547977247903233558e-03
6.875320281451281421e-03
-7.003390662528785268e-03
-1.267330928593580000e-02
-9.723937158876386211e-03
-3.442270948754870552e-03
1.993874063211449176e-03
1.727388277818984888e-03
2.275212166426581265e-03
-3.865054460277738920e-04
-2.546737976013977627e-04
1.069755307443833597e-02
9.797959736080849233e-03
1.234956675140612197e-04
1.746654896337486917e-03
2.675017548430783012e-03
-5.286756195418781945e-03
-8.077952522888289313e-03
2.076269825515314092e-04
4.237914887318932483e-03
1.219288772998809072e-03
1.583083984153847278e-03
-4.958174535129823354e-04
-5.441594652433684454e-03
-6.224126582886273067e-03
-5.385215599113253419e-03
-5.111521377286330596e-03
-2.381699478804251598e-03
4.143680052887920885e-03
8.134895574549504821e-03
8.846626392669912006e-03
8.116705785689419875e-03
4.284374084707504547e-03
2.679055254881744356e-06
-5.954918870574853543e-03
-8.140441834375591185e-03
-6.011488739799044669e-03
-8.750629408244548629e-03
-8.923269938895634149e-03
-7.234254647434487824e-03
-5.193992072459747977e-03
6.948710984315183701e-04
1.029406198096193600e-03
3.533873377926983420e-03
8.727409830651799288e-03
7.285784292973134478e-03
7.038387682438021140e-03
7.638254722728299653e-03
9.075008272767517634e-03
7.293739119267670865e-03
4.287214993179589047e-03
6.873545350647510162e-03
-2.663341713887344697e-03
-9.710260401698532148e-03
9.172636983568862657e-05
2.337634414928514237e-04
-5.696545808502098511e-03
-6.403746748632274319e-03
-1.753092304623897436e-03
3.742350119870789266e-03
2.182899993353276235e-03
5.799921826861240484e-03
6.207551381808593810e-03
-1.487214205528612082e-03
-3.502486103911449291e-03
-5.398115302400982932e-03
-1.916610718518536351e-03
9.432835172371664559e-04
1.859201144346224314e-04
-2.144167674244999884e-03
-2.827308038229251613e-02
-3.659868958553403467e-02
-5.067120846823950850e-03
7.063747156173481694e-03
5.161143006252926976e-03
1.062931766193445440e-02
8.397297047502414943e-03
6.451171922571817020e-03
6.972328442407220092e-03
7.242621686036412008e-03
5.983971923112627392e-03
1.291222621597001375e-03
1.687708898626825299e-03
2.185147077678152236e-03
1.252433651494178546e-03
4.190205525812285871e-03
2.219012799455458238e-03
-2.408308310796765991e-03
-1.500514995305981180e-03
-4.544822641092116904e-04
4.080166148776904079e-04
5.191944570059295327e-03
7.602747056029648780e-03
5.156746804477619316e-03
3.097008253162510105e-03
8.222986634866028509e-04
-3.761390698722377138e-03
-8.264940000749820478e-03
-8.181553344488756360e-03
-5.313291314291667712e-03
-4.892682831680168938e-03
-6.168608769847899742e-03
-7.433068553460911790e-03
-4.255779094127442284e-03
8.687759724366986725e-04
4.850769210307092488e-04
2.592412714310927241e-04
2.499891710283722208e-03
7.002092367027971075e-03
1.071210994548610525e-02
6.825749142671285255e-03
3.692696608157223018e-03
5.166078105961861844e-04
-4.640362472102668029e-03
-3.510303969820035251e-03
-3.207203466904364614e-03
-5.124454971434915657e-03
-4.934648640644649989e-03
2.709096161373694480e-05
6.433693917751754678e-03
3.205313828763634541e-03
2.467734609312941321e-03
9.866984274386925591e-04
-9.156831388367326838e-03
-7.428566468318627096e-03
-3.334729020550962226e-03
-1.037690071685478050e-03
5.001530468409997980e-03
3.441914153592464396e-04
1.515525708806280585e-03
6.858568261833015989e-03
5.880999775081274155e-05
-3.815147450079945388e-04
2.083243908262847992e-03
7.908547105268681505e-04
3.269418670397501465e-03
3.443289225944612397e-03
2.279943558141149876e-05
-3.815351590757843064e-03
-2.765901836945599927e-03
7.319394982274306932e-04
-1.465119089380584935e-03
-2.400749527927982779e-03
2.150377145381635090e-04
2.525567504479798477e-03
3.808880929150828924e-03
1.469114403650545160e-03
-2.916117843458451275e-03
-5.451253868069215122e-03
-2.786186302255228616e-03
1.394883338912182580e-03
2.048635701469038277e-03
5.497138764134448146e-04
-2.963975892704032427e-03
-3.421197740443043638e-03
-4.820377214661641474e-04
-8.712596308838566452e-04
-1.229945668846313270e-03
9.109786235961421768e-04
2.648988533168649979e-03
2.650770233197917349e-03
2.779246676117959336e-03
3.945524382533556647e-03
3.360811189290867709e-03
4.268856479767229976e-03
4.474349144112784935e-03
-2.119886013346262543e-03
-5.711567529834401039e-03
3.841019340016190754e-04
6.095923075567541427e-03
1.338297005285758604e-03
-5.219188595838425947e-03
-6.269722489785403132e-04
1.889675301693093416e-03
-5.770666851238838782e-03
-6.893817296117608732e-03
-2.824857837489060802e-03
-5.923142948534160235e-03
-7.107413119244928093e-03
-8.097437174274509184e-04
3.001197729692742146e-03
3.228753500133630695e-03
2.747675394820567069e-03
9.082008014283399363e-05
-2.874880696203017884e-04
2.716568075073517649e-03
2.872342991142827050e-03
3.855670108129022940e-04
1.506879512983268308e-03
4.862718338201867802e-03
3.265922771729597857e-03
-3.884484120816828010e-04
-3.378884634487390112e-03
-7.452003202347553222e-03
-4.311018101945202942e-03
4.413186730350703892e-03
5.197463917860255071e-03
3.631789196148645354e-04
-1.603955118936067166e-03
1.081459826181081340e-03
5.268732844773508887e-03
3.977945525336258094e-03
-8.645777350243827753e-05
-5.419072032924976369e-04
-1.499344863911380261e-03
-3.496475627558741275e-03
-2.968137432881937359e-03
-3.677713016393057040e-03
-5.261714614257915167e-03
-2.373120992476911249e-03
2.174893555624532720e-03
2.198029360574679271e-03
-2.474735457574067654e-03
-4.789365059279996999e-03
-1.648271332553804570e-04
4.256709949657989413e-03
5.364799992068547928e-03
7.179379988199375250e-03
6.894866047213260574e-03
1.038897420788689394e-02
1.787234732774698256e-02
5.445249633658793935e-03
-1.611404373614924029e-02
-1.442913477216608946e-02
-4.805966635538740615e-03
-4.824866794241354680e-03
-3.596490111642950890e-03
-4.565551552912165537e-04
1.325700306743408420e-03
1.797546292624172849e-03
8.235500146112388013e-04
2.280318150093916933e-04
-4.038882713334825819e-03
-7.137523319309790198e-03
-3.399147286360107000e-03
-2.516736056143929236e-03
-3.779957356707699858e-03
-2.803982723635279738e-03
-2.543395575101896604e-03
-3.217206009067016793e-06
4.048461211310486196e-03
7.101209273746672719e-03
5.495044552924106818e-03
-1.402845424112605932e-03
-3.050784865522320009e-03
-4.350938334529522514e-03
-7.915448113602091551e-03
-1.146336209462380353e-03
6.504739211457482434e-03
7.245234991706476189e-03
7.164842101183854089e-03
5.794455099270493306e-03
6.355675137933757164e-03
4.569985702375854893e-03
-2.952497565801490836e-03
-5.361567371417791730e-03
-8.346831518389424788e-04
3.144961530053586897e-03
3.029923592968777717e-03
4.199069993999260224e-03
4.845326796348603006e-03
-1.157953915464381145e-03
-2.168318772665242793e-03
1.270308456467639669e-03
6.142556907931394534e-04
9.708027036698635816e-04
4.729201637336889795e-04
-7.591295617726299223e-05
-1.342949226236656544e-03
-5.368925140167325749e-03
-2.810527227210149730e-03
3.948827630298599144e-03
7.169307219724136218e-03
2.246981974916943507e-03
-4.562700227164338818e-03
-7.152492477298056858e-03
-2.294314919280279405e-02
-3.046674863093188149e-02
-5.928798440580327310e-03
8.988224736519072680e-03
6.372269349022095797e-03
6.963279258981132716e-03
2.211468030075059484e-03
-5.034504686409237964e-05
2.020857413730038545e-03
-1.430166495306138628e-03
-3.953314705587715298e-03
-3.487505513888520398e-03
4.659295925040950886e-03
1.467537852571799452e-02
1.174242432577362813e-02
5.834922828824676624e-03
2.370412512684696906e-03
-4.904691132100825806e-04
3.221508419776821040e-03
4.132260136195983757e-03
-1.744566431710670596e-03
-2.759851014186440882e-03
1.473426625814606202e-03
4.047932024493272607e-03
2.661849619477958933e-03
-3.349193188301426627e-04
-3.785673769932175123e-03
-5.846090546427033796e-03
-3.361874552765338649e-03
-2.318418392633401527e-03
-4.360525872495480022e-03
-4.800653170892506087e-03
-3.596368164873985952e-03
1.021281127716797528e-04
1.343832769157721121e-03
-1.423057360389165049e-03
-1.715520716854495795e-03
-1.080960699763652572e-03
-3.761150754399764768e-04
1.733630597418455094e-03
3.484436984541236342e-03
4.146013445654083557e-03
4.486930779674626162e-03
3.715708885405709979e-03
-2.251796464472539017e-04
-5.363978493962282467e-04
1.063508262276888043e-03
3.989573492571348457e-04
3.280003565630834790e-03
-1.273165204256085717e-03
-3.476358890978845095e-03
7.111339584443030805e-03
6.773121091504187043e-03
6.554094314556862221e-03
1.005435388909790666e-02
8.490370445154358375e-03
7.335005513533067109e-03
-2.549819172929237293e-02
-5.436046136815667063e-02
-2.825232475878614036e-02
-4.830095528653416577e-03
2.459437319095771589e-03
1.222542218380689300e-02
9.372082893864690928e-03
9.425865419953077806e-03
8.899339057637544945e-03
2.680309833480841279e-03
4.343273018857390401e-03
3.782317817895841650e-03
9.026093791731160457e-04
5.488267104075590392e-04
1.977778036530512037e-03
4.707647176433122152e-03
4.304566116811886674e-03
4.174525369891417086e-03
2.142110112525457289e-03
-6.679355856487104431e-04
1.443330608348229261e-03
3.441913248087860588e-03
4.092419291353728387e-03
4.413171276204021914e-03
4.892437069785399162e-03
9.046964359549564605e-04
-7.228389509184739506e-03
-8.591514823975009499e-03
-7.682119963586619624e-03
-6.301352811644078851e-03
-2.848915913517522953e-03
-4.806648122192191432e-03
-5.958646960535498097e-03
-3.295392963895978512e-03
-2.254026994389430293e-03
-2.596501328995306883e-03
-9.209675878986761047e-04
4.850992872097137712e-03
5.333984035772325154e-03
2.260646168981046006e-03
5.721448723346180334e-03
8.159213900591866936e-03
4.487430810208493763e-03
-1.241315897318048637e-03
-3.208592884877884636e-03
-1.072149305763862252e-03
7.100376641626886644e-04
3.311580659488993963e-03
2.298988805334641929e-03
3.435694909951616323e-04
3.712043194031209008e-03
8.451900289333910601e-04
-7.275460844329977549e-03
-7.640612495027427654e-03
-4.727330538297444887e-03
-5.082555098346611122e-03
-4.046380611711438043e-04
7.839302572999674867e-03
4.994592156323822765e-03
8.778563554328104547e-04
2.258935647324633242e-03
-2.864450705762440399e-03
-4.643076542927119382e-03
-1.320251144010592880e-03
-3.221270342269844447e-03
-3.459492454095657553e-03
-1.809096768684903870e-05
4.064473482775832203e-03
3.456858782496290573e-03
-1.027018046591812424e-03
8.656730764616906749e-04
2.923610164437775126e-03
1.464455577309173046e-03
7.269003127013289652e-04
-4.268565180438316079e-04
-1.457359766360675362e-04
-1.189498865613357022e-03
-8.337625905306343113e-04
-6.262146584442671460e-04
-7.865908465028104146e-03
-7.630323708206320464e-03
7.428459515412518324e-04
2.447582745052711162e-03
1.866435149765739146e-03
2.577341128761110201e-03
2.873491036047945597e-03
1.627762149038869833e-03
3.569137240715468395e-03
9.698377246283782643e-03
6.300331181044602213e-03
-2.281079239999994959e-04
1.502395441909855616e-03
8.194502774690105460e-04
-2.875768180830652002e-03
-2.835063490661117718e-03
-9.001832863452645947e-04
-1.099590600553266087e-03
-2.366620969352320036e-03
-5.666453982280290642e-04
-1.757765568733352188e-03
-4.574776773956980985e-03
-1.279677568706455307e-03
-7.452495694768720915e-05
-2.471553699743698346e-03
-3.063721913782635649e-03
-4.135533766075496706e-03
-1.376167243755438765e-03
4.595768406629926854e-03
2.965679568371431662e-03
-3.538775844375280713e-03
-2.784430237430058751e-03
2.299081208593385314e-03
1.375684409344992212e-03
7.592085096183831235e-04
4.396223984857906483e-03
3.992658574145354147e-03
5.166989559457746926e-03
7.348663393046290029e-03
3.108462973350657873e-04
-2.448473421152804093e-03
1.194414125689476601e-03
-3.369460839956538688e-03
-5.746030212600067820e-03
-1.751182723062806243e-03
-1.352413498694388528e-03
-4.207187669475045207e-04
4.950400188128603986e-05
-2.071872417873456967e-03
-1.275010500764754565e-03
-6.311769705996111025e-04
-6.048819959298258435e-04
1.295084853659378378e-04
-1.029458746509745101e-03
-6.387579730910362399e-04
-1.168170504552681378e-03
-3.684507537620008467e-03
-3.025116266101284673e-04
2.227420608958039297e-03
1.013365335931605896e-03
4.847157338941014519e-03
4.395713968549953658e-03
-2.476825151912208714e-03
-1.772001512872753426e-03
1.521792729474313096e-03
1.274458162100737145e-03
4.825389729368323791e-03
7.023101518996926508e-03
-9.832863654714267131e-05
-4.960725558114857311e-03
-1.569377565764554184e-03
-1.412785710379926927e-03
-4.074532323971832501e-03
-3.634829450914406953e-03
-2.409490176016106881e-03
6.148057987257389296e-04
3.610917673680097764e-03
4.049339206403330949e-03
1.761682513232177769e-03
-1.275757005212758586e-03
1.859408763078523657e-03
3.419046584112989985e-03
-1.424704461829839073e-03
-1.037040325563437027e-03
-7.362974518145823984e-04
-5.576372945908313929e-03
-4.603020671620578798e-03
1.530367443519123913e-03
4.205885416603343321e-03
2.475138479931966989e-03
-9.621367793996181330e-06
-1.626607605903243776e-03
-4.801009391068505666e-04
5.602109068821414361e-04
-3.164947111072852291e-03
-3.884403115293127290e-03
-9.430626075230001595e-04
2.101641030277812822e-03
7.705660874311116154e-03
5.893462541137867508e-03
-1.556033945874170561e-04
-9.411208918614299111e-04
-4.232647882772140949e-03
-3.764367888518267875e-03
8.062867228526641441e-04
-1.445796742278306155e-04
1.445422161917756139e-03
7.177543703788636731e-04
-6.192315530070448791e-03
-5.149151091404036498e-03
5.453363123281773162e-04
2.847662078561476271e-03
2.035088999097869108e-03
-1.887456805597381368e-03
-1.511170372837685903e-03
2.875512789314155909e-03
3.250291224337614228e-03
3.043168974767429709e-03
4.007719451845086385e-03
4.422404588574471718e-03
3.900015231152321842e-03
-1.709876829241122097e-03
-8.583708331250067963e-03
-8.972282987776279001e-03
-5.746283447275114115e-03
-3.974975368013658993e-03
7.757634700409161890e-04
7.461742125187825758e-03
6.291903759201986600e-03
5.247775645633242711e-03
5.686840904021003319e-03
-1.880735259302136753e-03
-1.404245021253157800e-03
4.004883259640656945e-03
-1.905620478452787819e-03
-4.627309193413039513e-03
-1.724293160118145962e-03
-4.955233084970793282e-04
-3.978276425249873283e-04
-2.377087970690728701e-03
-4.339284185981668977e-03
-8.668481496958735030e-03
-6.326476254634466438e-03
2.031501199441248032e-03
-9.028798705070647471e-04
-3.695933676047559718e-03
-2.717892180914415357e-04
2.026363391643792259e-03
6.168891879402959438e-03
7.044756327826751097e-03
6.379228983776948601e-03
7.263926044059356400e-03
4.878675890827430771e-03
2.089725845945866918e-03
1.877895034686012394e-03
1.918490681797620440e-03
-9.701822914381539806e-04
3.043525631503686524e-05
2.902938786647721661e-03
-7.232439745387989841e-04
-9.853924328938241679e-04
-8.830682021523383624e-04
-2.045161827576686200e-03
1.348495480607136022e-03
-1.253134670940550879e-03
-4.234015919878887299e-03
-1.472101000142136051e-03
2.116055829116242609e-03
2.941168642562214889e-03
1.108633385807098869e-03
3.048958713680792031e-03
-1.583325350296441864e-02
-4.024119604127286004e-02
-1.905536752117144988e-02
6.537356173884359412e-03
7.073834249020200492e-03
9.394421771665372248e-03
8.344560697004911251e-03
7.558067041204711428e-03
7.137740933364666862e-03
2.593680500407410938e-03
3.997979105813576246e-03
1.567839225477306222e-03
-4.081896179742158445e-04
1.006668385776096674e-03
-3.704509632051038170e-03
-2.120925580290010121e-03
2.855240521374704469e-03
3.291202045436278888e-03
5.748142132228112496e-03
8.100601717289658901e-03
8.187032370437241982e-03
3.863226434928014597e-03
-2.343275249655548103e-03
-3.015681766555967664e-03
-2.373368665791233175e-03
-4.249993543433232962e-03
-4.331102266901103517e-03
-3.006240834495619175e-03
-2.770462913254559227e-03
-1.742091612386872088e-04
7.641606936419100254e-04
-3.594497479478665422e-03
-3.373138539084102796e-03
2.940131987752300866e-04
3.671033286449906959e-04
-1.108466938154832853e-04
7.585319474570457673e-04
1.929689818232926566e-03
1.482144444734347132e-03
1.678356365606163605e-03
2.400392073436420463e-03
1.645578421703703612e-03
2.897646583089993639e-03
1.022498195632248622e-03
-4.994778464303703189e-03
-7.271831529488673694e-03
-4.899865024285464908e-03
1.320230231403922861e-03
5.746815487645319694e-03
4.720722024788807404e-03
8.581060742395000456e-04
-1.761070919596036469e-03
-8.865202680574311945e-04
-5.967366390313984248e-03
-9.386690972980572464e-03
-1.928428871895014564e-03
-3.168117856398292476e-04
-8.110599617718583770e-04
2.709892324327079285e-03
1.692944944129321644e-03
1.861113162966280838e-03
2.113999110451565081e-03
9.275776768102257696e-04
1.195188742903264319e-03
1.093230522233344182e-03
5.051775988239103933e-03
7.618845358902069480e-03
5.471317262544028032e-03
3.761257561364054688e-03
-2.430584584550135683e-03
-5.938553488294548086e-03
-1.305981972266951306e-03
-2.678308315346552160e-03
-6.432010332289725407e-03
-1.240021884072762051e-03
1.840926457828052703e-03
-1.586489997809341617e-03
-2.596916840724641275e-03
-3.493877317852881869e-03
-4.860404820432161037e-03
-5.169296204595005308e-03
-5.806249748389595393e-03
3.129973747465126556e-05
6.372180054929663974e-03
5.247895405496087046e-03
4.089519872637698006e-03
3.189741761686207006e-03
3.746638434510940734e-03
5.422244678072921271e-03
4.256615815433358908e-03
4.477146589368785103e-03
3.077925717115920484e-03
2.275934847168209626e-04
1.344032135585827934e-03
5.719477526790824225e-03
7.345839339140207945e-03
-8.571634919658258035e-04
-2.531522194493202819e-03
4.935708239557690113e-03
3.005189549408445945e-03
2.635410518079213567e-03
3.192364738428653780e-03
-2.362358622491196776e-03
-1.246919826183716731e-02
-3.750152094498842431e-02
-4.126625589115993920e-02
-9.519965693362985107e-03
3.917388365274584831e-03
6.377260859803987169e-04
4.585149241571248417e-03
5.376049928286857037e-03
6.255715466751572522e-03
9.535973137604897634e-03
1.209769138582032083e-02
1.241205678482962607e-02
8.666460963834691708e-03
7.422380810012175513e-03
7.083869569762893566e-03
4.903120370565433768e-03
4.314292199319905152e-03
3.681542663083912752e-03
-7.281699533229439971e-04
-7.916048961563792313e-03
-9.100364097390969964e-03
-6.581094892717985478e-03
-5.132976447301638469e-03
-8.539368844277321320e-04
-2.098618819841146371e-06
1.032841915233081217e-03
5.149444462324105631e-03
5.669787915850163854e-03
1.045121395453680810e-02
6.092951934793438065e-03
