-1.858497550444809798e-02
-7.613541666305171339e-03
3.566930613539619557e-03
4.409409865086525403e-03
7.918019359039149205e-03
2.248230722270777408e-03
-2.431484631699877986e-03
-9.535736486016717058e-04
-3.705075306061148595e-03
-4.962590614159163860e-03
-4.542069677280402909e-03
-3.377601719449119678e-03
-1.719402536499464512e-03
4.607920210452364515e-05
5.307789796869683344e-03
6.859669880274913388e-03
3.326192086192384561e-04
-5.568986434711005636e-03
-4.652571904798501624e-04
8.016617254179975866e-03
4.681977136653536070e-03
1.174991370288626380e-03
5.414571837796962848e-03
6.046434920437816080e-03
3.271575053245210848e-03
1.261224330693572269e-04
-1.187221038006016543e-03
-7.375664004031854532e-05
-3.207992531980106022e-03
-6.750334519954831122e-03
-3.206874020893095596e-03
1.159248879978793919e-03
-4.371737823671869964e-04
-2.242323248528316475e-03
-4.783436938583730444e-04
-4.927312779820295892e-04
-2.680384990729616900e-03
-3.115395879048671931e-03
-1.021648608388332552e-03
-1.282850184339420340e-03
-2.346477549449301619e-03
3.938996295369459957e-03
5.790686464988266391e-03
-3.047471821284237397e-04
1.012937428876368442e-03
1.751854955245514154e-03
-1.070233938279431442e-03
5.649568496180194555e-05
-2.603946196791108360e-03
-1.703443658722640685e-03
5.148962414727299361e-03
7.212094067617388742e-04
-8.770501195460586943e-03
-6.405523178993873315e-03
3.259908142871724163e-03
5.209557288910553544e-03
9.283065742727059392e-04
8.041011055906183798e-04
2.433752688773851123e-04
-1.292283154568184397e-03
2.184321249624805554e-03
4.105821812876454466e-03
2.288435055348246507e-03
2.640010527381510784e-03
2.092676473204370131e-03
-1.322548180015889778e-03
-2.003461143450297431e-03
-1.977277414287711282e-03
-2.833186031955299208e-03
-3.903517233916753274e-04
8.000881898590037501e-04
4.947970225428721365e-04
3.843175418948316466e-04
-6.251248405782614155e-04
3.133222528674333221e-03
3.201874258151977178e-03
-1.684545551519926482e-03
3.024762749113316367e-04
3.312703317970228990e-04
-1.181490110506908846e-03
-2.015143228478499197e-03
-7.273977461777286595e-03
-2.672983734058094994e-03
4.956727292879362437e-03
2.160105325966641104e-03
9.500429551885079154e-05
-9.639014314503501369e-04
-1.564428100215401168e-03
-1.378567001497980589e-03
-3.829226559838158281e-03
-5.226959827675772743e-04
3.937658337552302212e-03
9.460601968070125054e-04
-8.325833104519306770e-04
1.219153084405101345e-03
3.039826146379953978e-03
3.282906990476240454e-03
2.865650952794135007e-04
-1.269946486552481994e-03
1.487901581560402019e-04
-2.334265063894574391e-03
-2.980469984039675179e-03
1.445799140481407756e-03
2.928648910691553585e-04
-2.375168273254667142e-03
-1.849789073873564504e-03
-1.739872170870519286e-03
4.548026732886360259e-04
1.641579653012187508e-03
2.193262142476319881e-03
4.032960687768023453e-03
3.532440295815696130e-03
3.637070044558931257e-03
2.082592257101564294e-03
-1.074133496777970225e-03
-2.098905163114162236e-03
-2.821425284849186574e-03
1.348991960405127293e-03
3.656423124280160607e-03
-5.058520238941920663e-04
-1.763513104177937571e-04
-3.144020127719503025e-04
-2.296420624214847751e-03
-4.159880163455925250e-04
-3.344466394763961686e-04
-9.777655379199791906e-04
-1.170881267805680978e-03
-6.546480384370143924e-04
2.593803788666512733e-03
1.218566962759763759e-03
-4.014297114158440517e-03
-4.504561334050878781e-03
-4.668466856918492567e-04
1.719365667111711618e-03
2.872082303024288798e-04
1.080702362474698702e-03
4.034986699792896220e-04
-4.314062974923599768e-03
-1.670580770372974248e-03
5.138099237328178082e-03
4.440166750830166868e-03
3.623157158107332136e-04
-9.826264446023745634e-05
1.482699154972083209e-03
9.375770384336020976e-04
-6.143241314819874836e-04
-8.448814665617396724e-04
6.385877408633481309e-04
3.167236729177329117e-03
1.811231802999703142e-03
-3.546279470035342300e-04
-4.737616520105571779e-05
-1.666040337641646989e-03
-4.868224805465722971e-04
-1.637386878038790878e-04
-2.761477933285107645e-03
9.078845886812446711e-04
1.543783444712418598e-04
-3.786831864476736774e-03
-7.438949861172111525e-04
-2.557153105408785376e-03
-2.336991150742826710e-03
4.819710086231183271e-03
3.302673110069093924e-03
-9.172795613833797891e-04
-3.682899972154448200e-04
1.760590902176892465e-03
4.365063827675814793e-03
2.215134533380718179e-03
-1.188814790606264327e-03
-2.006504774764824011e-03
-3.620836806414235408e-03
-2.098922552649947534e-03
-8.951826537480968987e-04
-4.059868242599734903e-03
-2.333672392087083464e-03
-1.635263593876039789e-04
-2.782339019029857544e-03
-1.273991949981165056e-03
-2.886957779811023914e-04
-2.740661159395094484e-03
-1.647645588422505048e-03
9.001045333235635753e-04
2.792506789964359706e-03
1.759709786881207471e-03
1.037382809139203010e-03
5.356720879651528412e-03
7.977102334523540617e-03
9.963714272624345225e-03
1.054989730020352429e-02
4.141425431453188075e-03
-1.109389691566127186e-03
-3.962641740138784607e-04
1.844369239393974912e-03
1.407003174211246327e-03
9.402561408414716144e-04
8.284594920863035941e-04
-2.348894951521208856e-03
-2.011418638013034825e-03
-8.604262536685761261e-04
8.501143513400886541e-04
4.300896003078604445e-03
-2.131779599486051391e-03
-6.062525309641293540e-03
-6.623612989537354910e-03
-1.364529050564329722e-02
-1.523656162728549528e-02
-2.115821132745245373e-02
-2.200450179351351107e-02
-4.767831600927839759e-03
5.975936332497771772e-03
1.289213789285017890e-02
1.439632682349339075e-02
7.092881625483877898e-03
6.757414467729048850e-03
1.501763958712983276e-03
-1.983731297451255329e-03
3.605857715287567964e-03
4.261144181458066151e-03
7.704551178096421746e-03
6.407433707719426171e-03
1.164656645587402789e-03
5.041567726444565363e-03
3.498826875896568402e-03
2.440465129783653665e-04
2.824664210513075022e-03
3.962559771391153257e-03
4.417399402566204135e-03
1.810313052309703904e-03
-1.287621997779074068e-03
-3.000592743184227109e-03
-4.341891457596955620e-03
-2.859599682601872157e-03
-3.544325280666994499e-03
-4.356823555337557309e-03
-4.561988062213441324e-03
-7.080880730024732839e-03
-2.772074178622652933e-03
3.915851459494222760e-03
3.944188708649139750e-03
1.902031590539743399e-03
-2.184086288523419579e-03
-3.992837298522852220e-03
-2.851536315176071481e-05
3.107867602051453773e-04
-2.291972095499823087e-03
-2.672669274581201872e-03
-2.019650749354261372e-03
2.246603742822770537e-03
6.328901214243711805e-03
4.489165230866972063e-03
-1.481337592917757748e-04
-1.935842650290580183e-03
1.918462887840550329e-03
1.658962558887343676e-03
-3.855671143260630106e-03
-1.697880453323497799e-03
2.388241690041359271e-03
1.862441637393479955e-04
-5.329952116243321172e-03
-7.186398267974361542e-03
3.322406889539216129e-04
4.706318332733184888e-03
4.646681718233754317e-03
8.377189976690319062e-03
4.545759049435997741e-03
-2.906328604092680082e-03
-2.884571667503547064e-03
4.338334841628123861e-04
1.882099384134452687e-03
-1.289630906827220896e-03
-1.137462239578846237e-03
-1.125696483334494204e-03
-6.758253979416132054e-03
-2.627098435108285359e-03
5.002793752744131087e-03
4.903511931885787441e-03
3.472379934203331277e-03
-1.379967282861747436e-03
-5.159743715079890755e-03
-3.966481443429849263e-03
-1.953666731151935173e-03
-8.066635390664575944e-05
-2.468408792242192049e-03
-2.042581873866205436e-03
3.136484536986192204e-03
4.054090764787482253e-03
5.867524352895001245e-03
6.074994797412679517e-03
1.998351410840750516e-03
2.120214802907252442e-03
1.954747029275659593e-05
-5.775634337248278759e-03
-4.799468876270114072e-03
5.730997691918749987e-04
4.331805426126913473e-03
4.887215620690376142e-03
1.437175801945807675e-03
-4.361692697600324316e-04
1.093159813687234142e-03
-3.590414408489259017e-03
-9.760047836663083426e-03
-3.915716144702028646e-03
3.286246142493353967e-03
1.087901276681794288e-03
-1.599604294983160858e-03
-6.529252615038581191e-04
9.013070246918388059e-04
1.316823966301652145e-03
3.083180649667231071e-04
-1.002047888916169673e-04
-3.826840319144302971e-04
-1.204968477793625465e-03
-1.960977264285172772e-04
-1.509747692213462146e-04
-2.761556465549749005e-03
-2.061114223203079892e-03
-5.965257267740215917e-04
-3.965374585004163193e-04
4.114787025664746328e-03
6.488291788698232788e-03
2.989644655659249618e-03
-1.615868878717446801e-03
-2.670950349389315283e-03
3.368639766773721435e-03
2.409729572240914587e-03
-3.582077716175043232e-03
1.254764498913633723e-03
1.896046436663595446e-03
-1.378149485307905578e-03
2.432874033453638965e-03
1.440967813280324408e-03
-2.451428593345653714e-03
-3.591246291504716828e-03
-1.740820038479308626e-03
1.894078788381535396e-03
-9.041257223956844849e-04
-4.282956489903433882e-03
-8.058549681286631197e-04
5.569116663551061143e-03
5.448374672462329496e-03
-1.266746841977418794e-03
-1.681782752355793923e-04
1.242830382214050663e-03
-2.257793047221490733e-03
-6.843012291386812345e-05
-6.065301194455716876e-04
-1.022780486552365715e-03
1.287687028748339462e-03
-3.001950734168944580e-03
-1.597546191514430869e-03
3.680004656997488272e-03
1.604547737655960191e-03
1.613283754476526471e-03
4.694082316745147934e-03
5.585226184781849970e-03
3.088658910809305783e-03
-2.743743588571318729e-03
-5.825264792750674270e-03
-4.630092119526324317e-03
-5.164357587246679732e-03
-7.390064182588911880e-03
-5.239616697540215584e-03
-1.666827930015142654e-03
1.520104696054410927e-03
5.625785815291856930e-03
2.509389504733690931e-03
-1.758848481679314087e-04
4.498119424941982719e-03
2.500289939929914874e-03
-1.881821031737809747e-03
2.278312187530579121e-04
2.183452450307501146e-03
1.278273713114411398e-03
3.932453669325744602e-04
3.668603001178770071e-03
4.961008867049365723e-03
9.720236777530095584e-04
-1.158852630346304162e-03
-4.083720158566024779e-03
-6.350915264154159863e-03
-5.884902870741715725e-03
-5.097425238126168136e-03
-2.188082275977712736e-04
2.855336396854904826e-03
2.023683442933735775e-03
4.657182783549133941e-04
-3.946373846591844786e-03
-3.446247738238269066e-03
2.415629975283138837e-03
5.221591920417769164e-03
3.680420629088599141e-03
2.997617733849532087e-03
6.198131925706459357e-03
3.252183810709849583e-03
-1.063189624854889810e-04
3.109136955260993762e-03
1.440882908953737248e-03
2.279415930828867457e-03
3.725881720507848160e-03
-1.120412126315931556e-03
-1.445259286809009547e-04
5.620422585146416699e-04
-3.645525516513950580e-04
1.503012355513886743e-03
2.656127061498274235e-03
4.915154743362961168e-03
4.090155936208610468e-03
4.062313206732491924e-03
-8.443265392544634096e-03
-2.698122395115066033e-02
-1.506541804510088713e-02
-1.496649594642823246e-02
-2.915685318111021704e-02
-3.944627388284305779e-03
1.275511959723163273e-02
6.973093279126691899e-03
1.245259214178697990e-02
9.656806895706557953e-03
6.500464344448002307e-03
6.204382959552234150e-03
-6.658071238554918655e-04
4.550903447164271237e-04
2.892677177130000520e-03
3.377592933553887414e-03
3.755908547166298024e-03
3.532996448360520639e-03
6.576255419235389928e-03
2.502878502742814006e-03
-2.484973879113533835e-03
1.290622175433603141e-03
5.577218669174523191e-03
6.506366343925509138e-03
1.719893963283310656e-03
-3.043367030660263772e-03
-3.158435008566485430e-03
-1.582223154476526629e-03
-2.300997982881896416e-04
-2.767663828002806144e-03
-4.905627803288217272e-03
-7.482068232745651450e-03
-1.052812690279090850e-02
-5.219815725981590861e-03
9.324179976825915442e-04
2.887461339397878312e-03
1.830637592392812731e-03
-1.938763897971615717e-03
-9.797305487645942041e-05
2.518183978128746628e-03
2.292153532203809567e-03
5.388998034895595840e-03
5.523378772410797444e-03
2.205108728115489237e-03
2.182656864148711622e-03
3.150960862127412171e-04
-3.996625245747954282e-03
-7.723600508736503832e-04
3.283366713229767583e-03
-1.831665341134884563e-03
-4.188020059903460428e-03
-2.066425593088472203e-03
-2.969663618920384118e-03
-1.477140755218029873e-03
-1.762308396354892240e-03
-7.441453335321737174e-03
-6.522088122257381840e-03
2.089192677539047135e-03
6.146141751337591032e-03
4.381440508032758557e-03
2.272842868408656795e-03
-2.210309153263051701e-03
-3.824459601728699091e-03
1.736867913609403203e-03
5.039749704223027600e-03
5.378622045048328353e-03
4.870053042156323626e-03
1.452773755000124787e-03
-9.234101710970679883e-04
-2.217932073062079757e-04
2.118513859340907281e-03
1.695641020378078900e-03
-7.102046997371589277e-04
1.589735064458561642e-03
2.274910805437654285e-03
-2.446927151428220440e-03
-3.863848521022716746e-03
-8.893794352161242447e-04
-6.361738920879381296e-05
-3.845213498182568218e-03
-5.523804038729668991e-03
-1.353974986227377084e-03
1.608945598615199373e-03
1.240469224090609958e-04
-8.802268457635121883e-04
-2.607188954716764171e-04
-1.044229524474272856e-03
-4.000735095846844839e-04
9.670035886955553276e-04
7.455919931564348969e-04
2.056759501322053766e-03
-7.378948104907687979e-04
-3.636184820690370467e-03
2.564906211316755587e-04
1.813558370496586372e-03
3.907008462700822977e-03
4.467288170126372873e-03
5.187152914937342030e-04
3.022555255850847139e-03
2.385818023914613398e-03
-2.683873756570716480e-03
-2.447893497163492263e-03
-3.272500921124834629e-03
-3.164962654825310192e-03
-7.488661761079015320e-04
1.773255122316994697e-03
1.327256913794034330e-03
-3.128649311780295431e-03
-7.684783990364467453e-04
8.875573435015806679e-04
-1.562235517452932642e-03
1.010124305594796044e-03
9.369465301906527988e-04
3.737531746418416216e-04
4.681950900641726715e-04
7.154945731883407623e-04
4.626923539352257100e-03
2.024748974376208883e-03
9.101038680017483826e-04
1.145787351937535429e-03
-4.795631374177794504e-03
4.315824904224708244e-04
4.733936204962145566e-03
1.448068152169270945e-04
1.950439617812591226e-03
1.020246740948658158e-03
-7.309267388170972513e-04
-9.971310972723156953e-04
-5.213749984752140236e-03
-3.882898446830331061e-03
-1.991258102964343739e-03
-9.429516500869905647e-04
2.122253814935224497e-03
-2.090993981909892128e-03
-5.047626257031778176e-03
-3.665704659857198819e-04
2.106623592651951996e-03
5.615122312613270508e-04
-1.792694650177677814e-03
-3.430730280205536616e-03
-2.671282714203694533e-03
2.018430117905257483e-04
1.807198390582460566e-03
2.648607396396082930e-03
3.148000890709568358e-03
1.842755347501972250e-03
2.184291889495080987e-03
2.808142445644966692e-03
3.652144291059137259e-03
5.319393069452837096e-03
2.824704861232341449e-03
-3.051134439149139738e-04
-2.077268439570466134e-03
-6.263872538440224671e-04
2.604572610861476730e-03
-1.558642023433784917e-03
-4.841463799995321892e-04
4.573930206359927766e-03
-2.299018035720297275e-03
-5.432117421671383770e-03
-2.662565737573329653e-03
-4.607271114400846674e-04
4.123116764169670705e-03
7.528597234956354006e-04
-1.624880108873844172e-03
1.229513737789317057e-03
-2.163845351498639834e-03
-3.386705620738403224e-03
-2.075831980310830546e-03
3.203005121047010177e-04
2.392191069819594659e-03
-3.448645374965160233e-03
-5.384710869723054009e-03
-3.676424816589147614e-03
-3.381632099517206842e-03
1.269760582860753788e-03
-3.946062600773383913e-04
-3.645148138138128505e-03
-3.399237129120754068e-04
-1.018997111709447467e-03
-4.495743229865154108e-04
3.139344383911361978e-03
3.132480123903303836e-03
1.838578660258000834e-03
-3.946881951889480932e-04
1.801810905343773084e-03
6.554257709692096721e-03
4.238297775939618359e-03
2.609548889199357971e-03
5.202751310689287048e-03
2.792845328509366374e-03
-5.907404443473887167e-04
-1.402246311847264921e-04
-2.363813799439104524e-03
-2.676564299619416283e-03
4.145886761354274433e-03
6.705522182030704964e-03
4.760052725364086364e-03
5.741613055066261025e-03
3.121767430169329963e-03
-1.935200152548588112e-03
-2.647007225122930329e-04
2.280710821776933857e-03
-1.615765432014898808e-03
-4.727584597765552288e-03
-7.734670635820519412e-03
-2.025943545245482980e-02
-2.653682897527927589e-02
-1.121755941929285239e-02
3.853150653346574389e-03
4.167484603605474576e-03
2.245994596067966108e-03
2.944779150821611076e-03
2.502491833092198876e-03
2.158258300091041998e-03
4.581412300570246628e-03
5.611875608203998993e-03
1.372319422992701078e-03
-1.019514043423199075e-03
3.568443093224071664e-05
3.513629571243006341e-04
1.553778856734548989e-03
5.072747415392236297e-04
3.734465866761021643e-04
5.897367804873714266e-03
8.095444511725367193e-03
8.120829308329276588e-03
7.904024273148827287e-03
4.047661431097804297e-03
2.335636476781386816e-03
-8.111494016135779471e-04
-4.346547562694499586e-03
-2.634419932817722194e-03
-4.812406620424708112e-03
-6.422779198707330960e-03
-2.905398209973801375e-03
-2.644594590563164455e-03
-2.540884491570099494e-03
-6.233965792732312902e-04
1.071755313777833713e-05
-1.907894736828827376e-03
-3.719008862824300932e-03
-5.313855603381733173e-04
1.451392204968552030e-03
6.781193001188253302e-04
1.836596904022029129e-03
1.440886204513844825e-03
-5.441759986110510962e-04
-2.747488986175847334e-03
-2.747287020916018216e-03
1.994146060694650720e-03
4.830600986475318964e-03
3.348834673480736643e-03
8.903639464450570102e-04
-1.566851482515200719e-03
-2.298821881300640909e-03
-1.420026810510634100e-03
-6.043019668905662148e-04
-3.674314603261065373e-04
-2.237909451795565263e-04
-9.450527306790776176e-04
-3.700398338537089129e-03
-5.350449031891044670e-03
-1.956869784672900410e-03
4.298531298638443368e-03
5.762617101452449132e-03
2.575402491327762403e-03
4.739323334800447061e-03
8.172421676859102646e-03
1.159042557427599407e-03
-6.277875879948859907e-03
-4.416096440107793522e-03
-2.477483814984346878e-03
-9.895604746428406616e-04
2.640124277437052268e-03
1.310306058091723828e-04
-4.513843173916920817e-03
-3.477040607693990867e-03
-1.071295493664086275e-03
1.414781235381094328e-04
1.344779469952571372e-03
3.033229726157621580e-03
2.437969439271306729e-03
1.085890987553147493e-03
3.361387408419831777e-03
1.689766223076033004e-03
-3.308126914686110483e-03
-3.360983486943590597e-03
-2.337411176443490203e-03
-1.129372972487632971e-03
-1.639514207436428505e-04
-2.178100660060983389e-03
-3.336295586626297424e-03
-1.518878904477429133e-03
2.672081094335830142e-03
5.291310906215858020e-03
4.587568436105513882e-03
4.976196552584062280e-03
4.643567373733183644e-03
1.109449355888310774e-03
-1.910376400840681482e-03
-2.072516275387895155e-03
-7.917273264995011457e-04
1.519402006004428284e-03
2.586277846449480493e-03
-2.581092464351221645e-03
-4.220351410716263740e-03
8.253884492713018349e-04
-1.341072058529643599e-03
-8.591681715992299405e-04
3.214552270364791613e-03
-5.026434872785929230e-03
-6.387734509434137183e-03
2.031104090481090224e-03
-6.949094937949753517e-04
-1.904577156939304614e-03
3.340894336831192780e-03
1.646496311061079569e-03
-3.223062437929088021e-03
-4.563366190954086868e-03
-2.691182127845448500e-03
-1.484278097178777078e-03
-3.883542723527035837e-04
6.242983183664972463e-04
-2.631016677103502951e-03
-1.627981915796474161e-03
5.330634976368256971e-03
6.849315426934981209e-03
2.874038764787041622e-03
-5.714329702225701179e-04
2.863555964376219773e-03
5.500027323533701780e-03
-9.195472742614397817e-04
-2.277454443386047432e-03
-4.369830919192888312e-05
8.676111617206701786e-04
6.014467605644097277e-03
2.741820100362840715e-03
-3.310829760862997982e-03
-4.697630909547964779e-04
-1.391681535638054825e-03
-1.963929745178808091e-03
5.205786257894632740e-04
-2.079884467274642750e-03
-1.126959308376222204e-03
2.193457171888868375e-03
-3.588860987665908726e-04
-2.563947123720391151e-03
-1.928901390084363692e-03
-2.792574441275903763e-03
-3.512275715370839421e-03
-2.171654919789912496e-03
-2.238788135492130339e-03
-1.859624766432823499e-03
1.373955338869892271e-03
3.455065716478804023e-03
4.039385936698347730e-03
2.063218640804278907e-03
-3.065833053121374174e-04
1.951439800816537990e-03
1.856055291128552807e-03
-1.497890626752363644e-04
1.134809635673058106e-03
-2.062837182320580165e-03
-5.199513295708480497e-03
-1.068782593065870827e-03
7.511109735694849413e-04
-6.554680883976370630e-04
2.190102903075198096e-04
1.290120906871098034e-03
2.464836030261006571e-03
4.497588977737697509e-03
4.061159723784860121e-03
6.985896831946050581e-04
-7.302708503601967405e-04
-1.244100171651428468e-03
-2.312307469532512254e-03
-3.044729361357461999e-04
-1.384721696331303381e-03
-3.329474061647089578e-03
6.959148911253852394e-04
1.766589045228081638e-04
-2.023321445380506147e-03
-1.410385793017941355e-03
-4.101297287295892213e-03
-1.823094804896844418e-03
2.430404713230882932e-03
1.117721899986266624e-03
-1.191783853271295279e-03
-2.486418307744973823e-03
2.359052468156529105e-03
4.070273910759375155e-03
-1.148907095326292442e-03
1.459629029188417139e-03
2.568490138022661538e-03
-2.934383947130637417e-03
-4.157068989351584039e-03
-1.724558854565861601e-03
1.813719082991045554e-03
2.102504707423379256e-03
1.688360837541758898e-03
2.409548221927200213e-03
8.816021916258370448e-04
3.177129227460576740e-03
5.689515423068344270e-03
4.588882818925267733e-03
4.205915785849187113e-03
3.198342519924248038e-03
2.736630140671273553e-03
2.349141461887509479e-03
1.132267406432202082e-03
-9.015206408154025769e-03
-2.479100482515971676e-02
-1.770895153395567884e-02
3.790315537046630087e-04
3.472032440721689508e-03
3.574407265456726410e-03
2.907408269277410914e-03
-3.569747040839658003e-04
1.200466402188286657e-03
4.079440361929851690e-03
3.380146966367732035e-03
-1.566337693120470255e-04
3.845999079806653809e-04
2.272706937962702071e-03
-1.106175197429503558e-03
-4.348927346956167617e-03
-4.208858277398830686e-03
4.906158737641907932e-04
2.627727889094631526e-03
-4.002399426661761169e-04
1.358007821455130314e-03
5.841474979942410349e-04
-1.331187989744970828e-03
4.461719132160800808e-03
5.155459784533176527e-03
1.669956738037669391e-03
1.685067143597225418e-03
2.714015186625898073e-03
4.107580910656949587e-03
-9.679085877848903844e-04
-6.042436322688257179e-03
-1.660610272406486555e-03
-1.110470361148657974e-03
-5.022013455577730573e-03
-1.755518789140425714e-03
3.981863617231469477e-03
4.500221795713321184e-03
1.644766716497531207e-03
1.584907071015346797e-03
4.147202059873994658e-03
3.511322137515622034e-03
-9.813902698962209941e-04
-5.921704147149965680e-03
-5.593235722540848553e-03
-7.766475270936268761e-04
-2.320412556849437270e-04
-1.029569035745129873e-03
-3.217905841405037295e-04
-2.182647290705409630e-03
-4.299237675009624391e-04
1.944842849035973049e-03
-5.358217012578001112e-04
1.209298152023383663e-04
-1.523315849125545180e-03
-4.227288304591981898e-03
1.776495999415920362e-03
1.451638162296164675e-03
-4.119184468902105205e-03
3.863802871859742987e-04
4.369720947130588048e-03
4.576278292300675447e-03
4.360775775056544880e-03
-4.577514323881931232e-05
-6.065465401404522387e-04
1.764503011506944217e-03
2.733641403280663400e-03
5.947588889026795070e-03
3.502115770794263141e-03
7.069621631207964911e-04
4.155153672524891650e-03
5.292759158401085613e-04
-2.755125546496884834e-03
2.427349864237225274e-04
-1.366353522526604723e-03
-1.314745833601331819e-03
3.688861985155115564e-04
-5.109849208799657327e-04
2.223425575202751976e-03
2.347189955826102254e-03
-1.199417095236746588e-03
-1.980857094165803124e-03
-2.106774280355068214e-03
5.449562035152489018e-04
2.614970984731521900e-03
-1.392234544081192215e-03
-1.785151780206989955e-03
3.539199148255299781e-03
4.294979391707402609e-03
5.250271457688059475e-04
-2.094246315844875989e-03
-2.559302327021798808e-03
-2.788165380967307615e-03
-4.703223416957750744e-03
-4.228625621096498630e-03
-7.751483835827893644e-04
-3.975435365437617920e-03
-1.019403833013143509e-02
-9.303468537488609677e-03
-9.171544755952533434e-03
-1.295130907268877626e-02
-1.423800146861381108e-02
-1.595385298954366329e-02
-1.723816589781995701e-02
-1.375460097445687681e-02
-6.724438717792291867e-03
1.988082424091393470e-03
9.493393845111197313e-03
1.489499571753715411e-02
1.470720723964957961e-02
8.030485305875880581e-03
8.097233454326531812e-03
1.569829426193730323e-02
1.784455672014443467e-02
1.842270152119217241e-02
2.202527999730472669e-02
2.029087702071625393e-02
1.550645886915361440e-02
1.861020416999100563e-02
2.253917894854048226e-02
2.193000016755089487e-02
2.378756811820025713e-02
1.260005278953571506e-02
-1.280340626736208368e-02
-2.837172257581598023e-02
-4.155196738486296310e-02
-5.559561756082516404e-02
-6.016795085547588934e-02
-5.962378087671609678e-02
-4.750875102996576782e-02
-3.067532461132765204e-02
-2.080727570937493387e-02
-2.886232702517901785e-03
2.729002550583050496e-02
6.299097098689440677e-02
9.725446944185978104e-02
1.101896788725524046e-01
8.099439715711428955e-02
2.157223665484082897e-02
-2.435583596702303733e-02
-4.274451163825094407e-02
-4.661556563273173970e-02
-3.640651845720480062e-02
-1.620739369301095467e-02
5.879876104376273276e-03
2.230183353616567443e-02
2.374236275698136944e-02
1.777685355009066964e-02
3.010443950450672826e-02
4.632359787465767376e-02
2.279554605157507394e-02
-1.385515054116067714e-02
-3.588430287831149285e-02
-6.646519652637600251e-02
-9.974159876537919134e-02
-1.315123801640356582e-01
-1.455087511464140670e-01
-1.361458314382294754e-01
-1.423205730204876729e-01
-1.073708498847104481e-01
1.904979338826927457e-03
8.857081357164839353e-02
1.400100113342115093e-01
1.829694637015818193e-01
1.629201774786895041e-01
8.570613256143773395e-02
3.394090035333989508e-02
2.203619973226272552e-02
1.484894515197209518e-02
2.279142382099398970e-02
4.582935422401047260e-02
5.625264961362395205e-02
5.086304220469480691e-02
3.503048669502422524e-02
2.498079871592162257e-02
2.780956595290839245e-02
4.113125466516371481e-02
5.667742453451380530e-02
3.667019905698533366e-02
-5.132146021809913874e-03
-3.296641929073819421e-02
-6.338571215734417619e-02
-8.712784598526610025e-02
-8.239260925900801502e-02
-6.140063581459707237e-02
-4.850747662643780517e-02
-6.400216039671846602e-02
-1.030193207677528450e-01
-1.143569190917863021e-01
-3.992194948936098747e-02
3.251275904339950840e-02
-7.185051466435278880e-03
-5.555434899855554720e-02
-4.596480199489613727e-02
-3.881943021775547537e-02
-1.070872405112096096e-02
3.647467815897629390e-02
5.518245415458705033e-02
5.202900062096182249e-02
2.337232666541983264e-02
-9.452170132553259357e-03
-3.537214090810855693e-03
4.134956836304413269e-02
1.011005151224160792e-01
1.078125969233189735e-01
3.970191876839488515e-02
-1.541162940065654574e-02
-1.984804291830317632e-02
-3.424828444491551625e-03
1.689905816018407933e-02
1.560195357676547046e-02
5.763462019200145392e-03
1.954360495881939108e-02
3.157054374430601218e-02
2.568421473088712201e-02
1.872543416587785572e-02
1.385117261586478465e-02
4.511469699084604164e-03
-7.747712719009795627e-03
-1.330406029025786932e-02
-1.471090626809593190e-02
-1.479739869230010593e-02
-1.886298539027632393e-02
-3.086061483085580925e-02
-2.170909920327371984e-02
-2.388723383917758410e-03
-1.372135621007109126e-02
-2.852831060931458954e-02
-2.586684143207588701e-02
-2.452784383277800337e-02
-2.411393271398896976e-02
-2.195842307968386142e-02
-1.862507663653083928e-02
-1.214715418860839828e-02
-2.533510856871355656e-03
1.040467104423984691e-02
2.314990046601744442e-02
3.068173936878511657e-02
2.391697639711779649e-02
4.044089307514348898e-03
-1.302136809973664794e-02
-2.251676266076297478e-02
-2.649972917934043798e-02
-2.239347254766395692e-02
-6.969224414681874334e-03
1.890269815809380791e-02
3.779400271764755265e-02
3.275846344027198015e-02
2.228638020825000898e-02
2.653826768330815392e-02
2.573225602449864813e-02
1.166461313876630997e-02
8.036992320247378710e-03
1.403720122288146070e-02
8.781910662234011095e-03
-7.833750929667730387e-03
-1.836784332209031451e-02
-1.694658322119971944e-02
-1.653304182039968401e-02
-2.003358664603914138e-02
-1.591282258675996014e-02
-6.839017101903207413e-03
-7.215543290621080630e-03
-1.084575973553006216e-02
-4.418982272797669988e-03
-2.398615587840143091e-03
-8.645819593473309458e-03
-2.206996091775559939e-03
1.095313479492747953e-02
1.230590816411203728e-02
9.750609418512802898e-03
1.230597268785002529e-02
8.300720001087197319e-03
-3.915309013353600841e-03
-9.824108737194491014e-03
-1.061116014791521102e-02
-1.324469935730726231e-02
-1.440802774704210559e-02
-7.225979039575342565e-03
8.888155363607730744e-03
1.614307206819400736e-02
1.178511864968643727e-02
1.235517721231541022e-02
1.248559724607926046e-02
7.026873186724573624e-03
1.005379740575510243e-03
-5.961884164703908258e-03
-6.868914981432708809e-03
-3.505591259340038335e-03
-5.521272008149105334e-03
-7.043674337559877388e-03
-5.063575706380287443e-03
-5.130426328615323751e-03
-4.457613306219999037e-03
-4.942003040267408265e-04
2.121334982431639406e-03
5.180930859147912793e-03
8.361720562438765270e-03
4.070971336826426611e-03
4.679928009610960331e-04
2.632341936420284911e-03
1.733973628436017832e-04
-2.431637165062366067e-03
-1.866774961938401627e-03
-4.219621697590364602e-03
-3.487595021133938801e-03
-1.629902889109488204e-03
-4.926645010420442616e-03
-4.889907041868057393e-03
-1.280010372009052298e-03
-2.143541936518553789e-03
-3.724975275964325337e-03
-2.441170224704476428e-04
4.114570426695681078e-03
5.711964163051263393e-03
7.491299692597369088e-03
6.508751654840495317e-03
1.863069829220767321e-03
3.001233979396105735e-03
5.330467712855130151e-03
9.096956906187081329e-04
-1.815912771005141497e-03
-2.429843078731228241e-03
-2.976143830661755630e-03
-3.305135568197307841e-04
-2.437466069728364687e-03
-6.314816544859489997e-03
-1.439026442065246755e-03
3.804378045724547165e-03
3.840139478862150679e-03
3.048996544341687175e-03
1.176480282095475165e-03
-9.121831666691157959e-04
-1.039340798077251129e-03
-1.247859477807914362e-03
-2.313619026990438796e-03
-1.708024184316657900e-03
-2.439700210972687449e-04
1.594709546282887126e-03
2.180202414299608950e-03
-1.047125627225586886e-03
-1.499359768139832795e-03
-1.512090976477728109e-03
-5.277141645512545276e-03
-3.382215164312666385e-03
-1.496056129505545125e-03
-2.446201847997592996e-03
2.286929375514945139e-03
2.821147529329678591e-03
-2.052376866316003596e-03
-3.465277449498999768e-03
-1.902790236955905108e-03
2.118032390701507332e-03
3.172901280507176621e-03
3.052911939950388089e-03
4.479852230475320565e-03
2.165563373850242120e-03
2.166876802698219397e-03
3.995516614424685781e-03
2.017955108583567147e-03
-1.066206036717241108e-03
-4.957503160246569743e-03
-2.208216895357387882e-03
4.212957408743183210e-03
3.257765337722853729e-03
1.603759819766402287e-03
3.377022106948887278e-04
2.979807660875161135e-05
2.618838590027551625e-03
-2.588323987020155128e-05
-1.191164840420149687e-03
1.476851035649728340e-03
-6.745773119417007579e-04
-4.566842850506363030e-03
-7.508959203676347435e-03
-5.267746382007610674e-03
-1.803258585383219403e-03
-3.456801386065099825e-03
-4.667732652573299609e-04
4.824203970088126580e-04
-3.716679427703417898e-03
9.549101995548538190e-05
3.143608595496392749e-04
-3.964195777197625052e-03
2.984598506855319281e-05
1.720071310711686514e-03
1.290555566951738032e-03
3.111879107431740274e-03
2.870443537052207368e-04
2.319736482283267769e-03
8.938040827074297465e-03
6.494766140067225954e-03
3.855221375670102053e-03
6.081993729995288124e-03
3.966883110898479677e-03
5.417130644190272775e-04
-3.015799159277506546e-03
-7.034762000567160861e-03
-4.435783795907075923e-03
-9.877372290699154133e-04
-7.474926657673969330e-04
1.689709882716760540e-03
1.145149739622612975e-03
-1.376516838094605155e-03
2.449007725107520258e-04
-9.481456430982219833e-04
-5.573968182732772815e-03
-2.882359762656941642e-03
5.656265955266042214e-03
4.906608406663691239e-03
-2.147538449900803729e-03
-5.266658541395533889e-03
-1.447891693866174175e-02
-1.919436630919185358e-02
-5.972573679695417255e-03
1.926231488343507162e-03
2.409214980430284935e-03
6.951304333900516774e-03
8.373759349255164436e-03
8.687030134450324237e-03
6.921503786774501309e-03
3.593811946775956820e-03
2.331615177502686584e-03
-1.624102942439339557e-03
-5.028948331026091836e-04
3.679536342345611673e-03
4.050591663407007367e-03
4.839239145997961504e-03
-7.196365646619964744e-04
-2.420124921977326142e-03
5.324746925462519112e-03
4.137076079969769470e-03
1.287285642090153174e-03
2.078553144004022593e-03
-4.042907579612640316e-04
-9.225635546682644942e-04
-2.303314921302175924e-03
-3.644938159851688220e-03
-1.543790538049173537e-03
-2.797833651768672457e-03
-6.590220144132572129e-03
-6.174809956297671112e-03
-1.801078714929340999e-03
-2.904952840935014907e-03
-6.442727176940153157e-03
-3.303869392802417839e-03
-3.611628407284620933e-03
-6.924117050385166124e-03
-5.450871415235115751e-03
-5.062605067848706224e-03
-3.376556598893777628e-03
-5.918954630893909956e-04
-6.701549846861411730e-04
2.536529669747400809e-03
6.652150722851114806e-03
7.428294839143095504e-03
6.527543668997943214e-03
1.750892742365810087e-03
-1.452921987166555344e-04
6.931612968161041978e-03
1.108965531089635415e-02
9.048525600453107345e-03
1.126648017472213839e-02
1.433600220499315139e-02
6.911319070487819544e-03
-5.551452630829956103e-03
-5.190179980661005152e-03
3.837824421939126096e-03
2.489892552734779448e-03
-2.454853166212939142e-03
-3.348074585744336643e-03
-5.497909953041455258e-03
-2.480474271748697203e-03
1.184670379220076428e-03
-1.156801379586931168e-03
-1.736604943619801536e-03
-4.796854592849507035e-03
-9.618786235034719814e-03
-9.681044275428965853e-03
-1.119729028168936838e-02
-1.239305028230318177e-02
-1.147739762404055563e-02
-9.908284977355396109e-03
-3.493422054919005908e-03
7.851210646485601123e-04
-4.863753755531817513e-04
-4.811822007944424086e-04
9.711349850286864010e-05
3.412785617490513360e-03
9.428744768489856140e-03
7.377762936029146935e-03
-5.126701115496367245e-04
-1.266623033179714326e-03
4.380406355412177002e-03
9.668065463870086432e-03
1.498664963540378807e-02
1.698101489414081608e-02
1.168655228247764480e-02
6.259019456540136639e-03
3.439050466860757438e-03
-1.045134829081229748e-04
-1.723096423154377339e-03
-2.960478974267060585e-03
-3.666861817901080189e-03
-9.309404881909417746e-04
-2.411581046988524064e-03
-4.244465620489431754e-03
-1.733071293116967461e-05
-2.110043313310503658e-03
-8.174866676330999268e-03
-6.728436504504435589e-03
-2.711136317467778035e-03
-1.893507835799489083e-03
-4.446106606932520751e-03
-5.019303788241706414e-03
-2.472105297817780902e-03
-2.565749837391428749e-03
-2.348425098692269106e-03
-1.233902319362754603e-03
-2.725921627989943540e-03
-3.698760213774330858e-03
-1.415026712668614227e-03
3.241494763627536784e-03
4.715075110127443618e-03
2.336777662169179683e-03
2.043909802105930290e-03
3.907549919490144359e-03
6.803150054959603704e-03
8.493277081083251689e-03
5.592732031266292071e-03
8.950354034409285309e-04
-1.695611543607666340e-03
-2.085249130591350624e-03
-3.346466206368276831e-03
-5.251030224821061354e-03
-3.956877072732878885e-03
1.967666089735071392e-04
3.667495429679443718e-03
2.795391067322071897e-03
1.138664208195899275e-03
3.261905930988239898e-03
2.247471127171810860e-03
-2.585215040426293038e-03
-5.694985994063629653e-03
-9.117545095829189539e-03
-8.330141471941122575e-03
-1.285261640270700118e-04
5.770401945426100777e-03
5.431276292365016384e-03
3.058211018340885583e-03
2.217105591849340834e-03
3.415922243483640423e-03
1.460091694650250682e-03
-3.662049294323595997e-03
-3.810764641127186835e-03
2.409018568078524671e-04
7.826068887082685780e-04
-1.157552417369144947e-03
-1.075174463392009148e-03
-7.126148067075766934e-04
-3.422220682079749575e-04
3.553854970400475207e-03
7.101057115021788130e-03
4.097536248096066841e-03
-1.715240070110501860e-03
-3.526563488539859095e-03
-1.209257891714173245e-03
1.149974855726418983e-03
-2.630050124150929542e-04
-4.029139630973567823e-03
-2.185274644019689211e-03
4.790507326617510220e-03
6.264140011161819371e-03
9.809487106520696758e-04
-3.483484258780109553e-03
-3.658244883509862225e-03
-2.545956657485744061e-03
-1.700937840336447801e-03
2.977202027213881404e-04
2.800476132170047732e-06
-2.466688641549973061e-04
2.593694928501993728e-03
9.125528611253534922e-05
-4.693568400624219955e-03
-4.719000935063438242e-03
-4.924990030014090789e-03
-4.168218066868036725e-03
-7.886732039348018825e-06
1.790709551885105895e-03
-1.642182322538446966e-03
-3.252643150994510238e-03
4.976374471137872844e-04
2.226039568403225932e-03
-9.507903068202509236e-05
-2.413743820869330287e-03
1.991465290224328066e-03
8.445743028607979180e-03
4.327491636423022939e-03
3.502061833776908949e-03
8.981047506952171897e-03
5.318380602000265765e-03
2.092770023551818355e-03
4.924671408071165223e-04
-3.208564546092460435e-03
-2.563136993921271822e-03
-1.661306518869131669e-03
1.729685147794356084e-03
3.951373737621576010e-03
3.585928831210164446e-04
4.780985093399383245e-04
3.646425059584191869e-04
-3.823306451393865702e-03
-4.218700146213376183e-03
2.187661582275817005e-03
5.165322096896469983e-03
2.300330410403352531e-03
3.866775793126362576e-03
-8.009802926085787811e-03
-2.687031477606677959e-02
-1.538911083767867741e-02
4.559737967195743973e-03
7.316922110037269236e-03
2.130182678188940332e-03
-3.469001235948140568e-03
5.236099752181467637e-04
4.292318266592274993e-03
2.063182154286433232e-03
2.252680872297861507e-03
-1.129303258571611726e-03
-2.378242725108007088e-03
5.939388548514328231e-04
1.330934313427093937e-03
2.601356587640859131e-03
8.091695313493578413e-04
-3.753668910882890643e-04
2.276494818436951891e-03
3.464296974240670297e-03
2.715149287378478254e-03
1.099258926137018405e-04
5.821711739044999924e-04
1.308514576889857487e-03
-1.100188732229677707e-03
-1.287192363797054484e-03
-3.945357216014717429e-03
-3.890072491368342343e-03
2.364441401702627003e-03
2.607411055450325772e-03
2.732058414557117683e-03
5.505975821209714571e-03
1.896495354829251913e-03
-1.724558822895343613e-03
-5.175460944636876533e-04
1.427297808129979282e-03
-1.366602356290756411e-04
-4.981091066718065091e-03
-3.246213487220624052e-03
2.086332538611847167e-03
1.000143626115595211e-04
-7.888762469624590419e-04
1.113475252871470996e-03
-1.107695250428563640e-03
-8.346605823677492745e-04
7.366513841367096696e-06
-2.151910931355502637e-03
-1.496882064799261386e-03
7.795930868775224030e-04
3.426816122751120530e-03
2.583717726892123447e-03
-5.282599038401192834e-04
-5.239912699819025211e-04
-6.821218579231484377e-03
-1.074124224403902490e-02
-1.859064507718459838e-03
1.461180980990176752e-03
5.644521689802688060e-04
2.831778187171947285e-03
7.541363936055820241e-04
1.574980415550616183e-03
6.385631114707860517e-03
7.123483183521245841e-03
3.600030451707734308e-03
-2.007567994429159709e-03
-1.120789413200900652e-03
2.338486315634710506e-03
-3.139145751019832998e-03
-6.588316407935013337e-03
-1.663864294405248802e-03
1.178094439229010124e-03
7.082377834954716421e-04
6.656601842519880088e-04
3.023325100308409574e-04
-1.352748216147604127e-03
-5.287653216981698899e-04
4.279882460133790055e-03
3.107181595245072508e-03
-3.540021626394674811e-03
-3.350932891686113878e-03
-1.844151745883275482e-04
-1.157470797187441563e-03
-2.116828082188050054e-03
-1.256849280994455122e-03
-5.936499209179103105e-04
-9.758796287935573958e-04
-6.320108340094122198e-04
3.787658748628249623e-04
-5.664455096488001063e-04
-6.045871096300866557e-04
1.644718142535309385e-03
1.958262653589043240e-03
7.432525948410108850e-04
2.154328273202101192e-03
4.608366601468549470e-03
2.136852466525846449e-03
-3.055740525108639012e-04
1.677899917805608697e-03
-2.187182020423057531e-03
-4.001597840044551248e-03
4.428450658114410632e-03
2.842952603339347819e-03
-3.576349512259446601e-03
1.221146076232658634e-03
3.610912588609228608e-03
1.490171285687403408e-03
-6.186351961952577146e-04
-3.690412214060280905e-03
-2.183717507975503624e-03
-1.347222649178100732e-03
-1.951516015551341826e-03
-5.278490531560339847e-04
-8.223399836152490939e-04
1.020873431644555651e-03
2.594667325528566496e-03
-3.897605748402316848e-04
-5.362811967553464745e-03
-7.199496280570234254e-03
1.253423674913186573e-03
6.850604437530222711e-03
6.931301760526229188e-04
-3.729701126116022770e-03
-2.491173501426888898e-03
2.440872844102628253e-03
4.160280844368065625e-03
6.692799777532508140e-04
9.723054104396606882e-04
7.000705385965119102e-04
-3.481470708084503430e-04
-4.132293182517651753e-06
-2.869592191361972945e-03
-2.804952302198686093e-03
-9.740495228610831493e-04
1.302296539026577863e-04
3.184789926407873527e-03
2.040928251627964138e-03
-6.229966968485651894e-04
-1.780303615665778131e-03
-4.140955766255863431e-03
-3.031050601001793014e-03
5.133593978546998303e-04
3.326492236947565639e-03
6.310679909992480269e-03
3.995665014227292762e-03
-3.850655235188917089e-03
-4.334852281125282925e-03
1.860084278382828638e-03
2.101112497682589616e-03
5.540038679760326970e-04
-2.871342658070609108e-04
-3.213816248455381684e-03
-9.390113696027272338e-04
2.556436362672957242e-03
1.890905402551529887e-03
2.109021445469309430e-03
2.235520938405346873e-03
2.213031200892022488e-03
1.245629739281305928e-03
-1.432911288852001816e-03
-1.330940782481237648e-03
-6.030443793793395296e-04
-7.745843534888169216e-04
9.316871855362857157e-05
1.003983174802627843e-03
1.326885669733603081e-03
4.794753899437835206e-04
2.321440527279411593e-05
2.436496593114472592e-04
3.461554061757250072e-04
-3.790178244577299444e-04
-3.848979618029731327e-03
-3.849100151090357504e-03
-2.944208952609857232e-04
-8.809106319527173091e-04
-2.594980927943506960e-03
-4.597749477092057634e-03
-5.481168972214120645e-03
-3.269763510513864439e-03
-2.144637884546512444e-03
7.045170805639541529e-04
-7.723361557799544603e-04
-4.968141659061980908e-03
1.826222095805776465e-03
4.552410107046358546e-03
9.240361693216302174e-04
2.953045114355413656e-03
-2.265033676811415786e-04
-2.943919332008636106e-04
6.728576231865773111e-03
4.900160186690379928e-03
2.099393804466395588e-03
2.959166515777206154e-03
2.656562040927821361e-03
2.136800554419401345e-03
4.983952866830393966e-04
1.532871248519701883e-03
4.197680131001866981e-03
6.344075457726050006e-03
5.219113229661322996e-03
-1.772527100549606705e-03
-3.186170161419656175e-03
1.160909099392009713e-03
3.595841208964596723e-03
3.471998497740247467e-03
8.237234327723138086e-04
-2.873471651451869717e-03
-1.685283021323599750e-02
-2.549093177357115991e-02
-7.731818043792943775e-03
4.118111696668721664e-03
1.881655802010919355e-03
5.895269024047959661e-03
4.425106695611457155e-03
-2.627231552632762739e-03
-4.209081564279783423e-03
-1.557305114758841249e-03
-3.810607125145420646e-04
-2.879284903622824753e-03
1.213792177310359506e-05
2.562918371004064243e-03
-2.554230050826394524e-04
1.429246735328103214e-03
2.883841587563294295e-03
2.075833369348108973e-03
2.243871082037857557e-03
1.356093549231709430e-03
7.059855647755526164e-04
-1.308663754685690950e-03
-1.746428704924142235e-03
1.475496373486601207e-03
3.154885509956642086e-03
2.389466851540968627e-03
1.500398381825261522e-03
3.907093981909139438e-03
5.241657142469661329e-03
1.417063117947869443e-03
-1.664805700824704363e-03
-3.020241625999475245e-03
-2.038277362956327551e-03
9.713539160458703383e-04
2.467560312428219299e-03
4.129375582939923996e-03
4.568728925934533239e-03
3.198341994281945783e-03
-6.443286930731780601e-04
-8.635377515507216412e-03
-1.008467805621075970e-02
-2.201677549193072070e-03
1.419080307161228825e-03
-1.527138137712373989e-03
-1.905832913434631851e-03
2.882241354230155313e-04
-1.096749515478193278e-03
-2.814226082098789539e-03
-2.929022976590155408e-04
1.387062016981290826e-03
1.730477312484757376e-04
9.557918236308876646e-04
-5.927399845215836744e-05
-6.654845890105128003e-03
-5.449752894446815640e-03
2.566874287808649114e-03
8.240452900096389456e-04
-2.517697460205524894e-03
-1.868985780078318004e-03
-2.490973894345667461e-03
3.482968697443547274e-03
9.001004262429012498e-03
6.510290310183909981e-03
6.024942895433390774e-03
4.698430362199496058e-03
5.984286204918784968e-04
5.238315704290880722e-04
1.404648510214369763e-03
-6.403269664944583398e-04
-4.109736443066026694e-03
-4.927812890035141238e-03
-2.851456299138833972e-03
-3.330153450401849690e-03
-5.160451366441746665e-03
-1.084265925283127733e-03
6.294189112599666083e-03
6.450198832447177032e-03
2.667799415074550030e-03
-2.197764506745645120e-04
-5.089823567636251635e-03
-2.990753187105053314e-03
1.679192078618070311e-03
-2.534157995435435025e-03
-3.071927805082739094e-03
-2.650610845851749937e-04
-1.660139507218487626e-03
3.509706549669648688e-04
3.040856422697851748e-03
2.239874280436584750e-03
-8.680470024435060013e-05
-2.491154241313630734e-03
-1.311396013923230453e-03
2.881163918180784612e-04
-5.909312294421142312e-04
8.380899686743987012e-04
6.693475857277262145e-03
8.294453863364253596e-03
1.595895547428050109e-03
-9.761145798581896075e-04
-4.544185625073191514e-04
-2.108689876882323226e-03
1.879422674840459234e-04
-3.275363319893239821e-03
-7.847061752057824663e-03
-1.360906303004704603e-04
5.324013458688011020e-04
-5.792418863919244869e-03
-1.417592341359357735e-03
2.667475411380669861e-03
-2.481116983518022456e-04
-2.313001087502820820e-03
-9.909725482629238962e-04
1.193102079688800402e-03
1.138846032454303350e-03
1.497681994035746458e-04
-8.704245107007503113e-04
3.930330488757733179e-04
3.679448239901168469e-03
2.647004256132859390e-03
9.507608317959769699e-04
1.066316616108526488e-03
-1.519587488380621078e-03
-2.152786201067768621e-03
9.353468940531025873e-04
3.386017834799087776e-03
3.019701841812386794e-03
1.283788027674441848e-03
3.927453608046427465e-03
4.963262152208602895e-03
-4.445174509494200172e-04
-2.118309736112473137e-03
-7.074853811357983708e-04
9.245741109165677611e-04
2.815808242792872552e-03
-5.754727801472915441e-04
-3.843566479004315462e-03
-6.066251911079669976e-03
-8.604437856426096209e-03
-4.434135255376447926e-03
-4.475389435612281029e-04
1.311353694226880971e-03
3.005932931369365100e-03
1.038153984512453108e-03
9.327849019753013931e-04
-1.791199765497790202e-03
-4.671298560236773582e-03
-2.435776586725233730e-04
-9.438690640100574122e-04
-1.634798282896571210e-03
2.120204632084162887e-03
1.432676889349592366e-03
2.078437761008908920e-03
1.753648799996935896e-03
1.648006427851484964e-03
2.795825227058214724e-03
-1.808665129500171536e-03
-4.952829073324336792e-04
2.417861489715835907e-03
-8.740334198246210023e-04
2.758014610362432076e-03
7.069127884353570111e-03
2.700575271807801724e-03
-4.186324910410821332e-03
-3.719000330800987814e-03
2.959335293701573482e-03
1.732934457694027420e-03
-2.931625914200852376e-03
-4.167887339431737385e-03
-4.264040376607654975e-03
-4.146915551337225915e-04
1.299539149551631875e-03
1.359308982368387635e-03
2.555143345188663415e-03
5.559591205432818867e-06
8.876968066038006715e-04
3.371823096845620853e-03
-1.976844460580080322e-03
-6.780438843094705771e-03
-3.300962343270907092e-03
-1.230894964344763287e-03
-3.690698333303310368e-03
-1.476103532920250557e-03
-1.682233032945628422e-03
-2.595397334758258595e-03
5.065408580342464599e-03
6.271907800207658125e-03
2.644315465483120312e-03
1.480995586866348844e-03
-7.047869585654901103e-04
3.566002201156717993e-03
4.373980359623039216e-03
-9.220533770312104409e-04
-4.311177870444923762e-05
2.300550285242823883e-03
3.925214545124199907e-03
-7.467434046031850648e-04
-5.842795122536510039e-03
2.471676876045534959e-04
1.546634833524152550e-03
-1.593920105117295699e-03
1.794645999296646827e-03
4.958180504848091683e-03
3.992159980571572189e-03
3.327430396434650443e-03
5.484264826336008279e-03
-9.674497636773901621e-03
-3.109889405603090753e-02
-1.815113051925209761e-02
2.139717719539233065e-03
3.962864180013393051e-03
6.371089597884298412e-03
5.224246888818556180e-03
2.952209026254342360e-03
4.290652902539430179e-03
-4.251375881854662806e-04
-1.516820111572855442e-03
1.300599497121828450e-03
-1.297702221732817407e-03
-9.997728324999668667e-04
2.139052510382443133e-03
1.430756524032630265e-03
2.458050277014270282e-03
3.893187953083536781e-03
1.965866604677998352e-03
3.386086949077376108e-03
4.314784923953080172e-03
2.198329071998450339e-03
3.760082412984803134e-03
5.613581602622467852e-03
4.656148187094043094e-03
-2.950848654248138143e-03
-1.252179037683499689e-02
-8.629849113965519514e-03
-1.695100776456586042e-03
-2.907962853198982432e-03
-1.435436625285842855e-03
3.902095901044576581e-03
4.964575471348924018e-03
2.011973779846001811e-03
4.213746158514919491e-04
-2.873790145145523403e-03
-5.630229341428526560e-03
-1.399623197301551195e-03
-2.317468810882963035e-04
-1.483675575469636842e-03
5.750492232404801410e-04
-4.510878443212573588e-04
-1.901501495309437448e-03
-2.168088409348458648e-03
1.765176709056592657e-04
4.409668860485834764e-03
3.382396460205331929e-03
2.065999976992855761e-03
6.380579944419798597e-04
-1.469107598068754772e-03
7.047776156250371319e-04
1.441251202951214809e-03
-5.092413826914100406e-04
-3.601043121907437222e-03
-4.450563801514460099e-03
-6.324093193819787725e-04
-6.032080444137570031e-04
-2.355006557113336133e-03
-1.120716811163600165e-03
1.403972948039767805e-04
1.857432634441515823e-03
4.864964366105823876e-03
6.577415843882109675e-03
1.958325352274783038e-03
-5.911059158585360096e-04
2.199986861126008303e-03
-1.611057203071229911e-03
-4.947085975192578970e-03
-2.057165741308899370e-03
2.395101887387470103e-03
5.415984869607243408e-03
5.133735610157272745e-04
-7.200457983016716156e-04
3.634544886343901889e-03
-3.589527958306606504e-04
-2.927845607894311811e-03
-1.977162979111024652e-03
-3.617127310606470594e-03
-1.607470602003415383e-03
-9.828382497731507142e-04
-4.612139865344353808e-03
-3.642259679729286433e-03
1.059074636197177748e-03
1.467718319151852966e-03
-8.767570604450392003e-04
-5.338757848738331967e-04
1.651319203559340441e-04
1.469530425386259128e-03
4.007384924526761691e-03
2.981051368930360840e-03
-2.069055535572381782e-03
-4.749110503350268547e-03
-1.623994135216447437e-04
4.442027565188321793e-03
4.753237036482681893e-03
5.630170429253420449e-03
4.558443944213118847e-03
6.501965296274730835e-04
-2.253814219737450275e-03
-1.555356296884701211e-03
6.314199908107273346e-04
-3.022769177378576907e-04
1.023976528588346497e-03
9.124623221655708653e-04
-3.345422002146707964e-03
-2.930858775531763427e-04
-5.661098613987550297e-04
-6.499785354453268063e-03
-1.671794974421484141e-03
2.263530980643457639e-03
-3.084714559427029126e-03
-6.218125206290984856e-03
-5.626105189598243524e-03
-4.038923966181775897e-03
-4.785906392276887767e-04
3.429096641388300511e-03
3.521416376094249796e-03
2.277473349494893006e-03
2.834770705770956779e-03
2.500995246835359224e-03
2.057795653881389422e-03
2.987721692811358670e-03
5.606398768840993758e-03
6.586540398713410481e-03
2.877045949694097184e-03
-1.345697609213100405e-03
-6.399595227956851422e-03
-8.672893856268531002e-03
-5.144449621272411712e-03
-4.210478954868719821e-03
-2.279813473496795483e-03
2.402975057194593582e-03
1.616472999449157641e-03
-1.395426804857494954e-04
1.403730297464744845e-03
3.571053196429034311e-03
2.791546088230663011e-03
4.959776740586385073e-05
9.809363569608292913e-05
-7.608479325545698495e-04
-5.270693291456229933e-04
3.179984235041681279e-03
3.518873657766815460e-03
4.453635933234128055e-03
4.244876808322474784e-03
-2.462410179691375007e-03
-5.310154580079979800e-03
-3.667131622158880094e-03
-2.521815942087337996e-03
1.010066808358974812e-03
3.074919649448278319e-03
1.389718750336529744e-03
5.479977236484467667e-04
