-5.590125874187155432e-03
1.000469624419545421e-02
2.402425405308254713e-02
3.132188709059413600e-02
2.949159112316310227e-02
3.319048959733787718e-02
3.716909224443722126e-02
2.407206935851843865e-02
3.557896487124248986e-03
-1.338225125849501311e-02
-2.281218812824589368e-02
-2.647639711472016266e-02
-3.371620078798179265e-02
-4.302596586260672845e-02
-4.832371629184881168e-02
-4.914592092207454438e-02
-4.559608321764054700e-02
-3.651134293386013724e-02
-2.063163444100333047e-02
-1.569717963645944495e-03
1.346070311919971875e-02
1.963056863735320942e-02
1.896283609873654352e-02
2.169001528654692160e-02
2.931397652062788309e-02
2.886614819823763584e-02
2.363966480183905122e-02
2.173063769344052085e-02
9.798859694432901848e-03
-5.191868547080557596e-03
-7.675180160333842753e-03
-9.407603196004376417e-03
-9.024426876330742670e-03
-4.334063239849947173e-03
-5.909594920334815087e-03
-7.964861839797065385e-03
-1.060700135811135612e-02
-1.194495439508515278e-02
-3.024775865406744042e-03
4.844232258755801039e-03
6.290571173984046797e-03
7.455893152857915457e-03
8.255201861785721115e-03
8.190195252992599900e-03
6.991600931136376061e-03
6.995670663219618821e-03
8.521508427642470601e-03
7.489660211605329160e-03
6.544714990917637962e-04
-9.885762359266147409e-03
-1.370151465635064195e-02
-7.219208390548603402e-03
2.137777069299382198e-03
6.486749546474455952e-03
3.902775016951270069e-03
-1.030659658011069202e-03
-5.196163929809836067e-03
-3.944460350584336195e-03
7.350266627479372112e-05
-1.516158545351662138e-03
-2.247453202352775979e-03
2.506797096364370321e-04
3.309051394124431144e-04
-4.767653494883748516e-04
-7.935941089478699365e-04
7.502326821452125856e-04
3.153491526462554994e-03
2.766828101495444683e-03
-1.811061549306465209e-03
-4.609442074215596395e-03
-1.580807303718925055e-03
-2.527099251123005085e-04
4.481206648335105819e-03
9.622046099552658202e-03
2.016938634684581171e-03
-1.634897777983424817e-03
-9.544453736530175442e-04
-3.738145859275212191e-03
1.432760458506665731e-03
7.226661576055316621e-04
-7.256092197993015656e-03
-1.061899467266014079e-02
-1.231382078885134325e-02
-3.996271615437498731e-03
7.701732155962615197e-04
-3.519273578274038309e-03
1.919866027315438864e-03
2.845388077115198686e-03
6.601232582576844251e-04
3.968691102919390777e-03
-1.427341745619968051e-03
-1.998548191904198426e-03
4.141324681616553177e-03
5.322006852323944714e-03
8.061315064077282863e-03
2.802518232916716666e-03
-5.513505494880351250e-03
-5.669827444912977667e-04
6.753478333353423249e-03
9.877577062317913215e-03
7.887983831871149543e-03
-2.525896552162082247e-04
-4.431691235697588806e-03
-6.645618990379778893e-04
1.298874489791218209e-03
-2.533717095763101008e-03
3.403138907881710562e-04
5.054146096201334905e-03
-2.557875006019996820e-03
-7.773434748801408105e-03
-5.648113175676002136e-03
-4.406564286320429139e-03
-1.490674166698333514e-03
-1.138700960476184566e-03
-2.967512489246469133e-03
-7.007294276907541884e-03
-8.791319594398803311e-03
3.159453713647773689e-03
1.316403209085918909e-02
1.573855013511445480e-02
1.478655408647875508e-02
3.135335414431087916e-03
-5.536161551776467779e-03
-1.596850450156737239e-02
-2.587222384952661894e-02
-9.731339105921383084e-03
5.384444582172008900e-03
3.345070854952232175e-03
3.429572904782943535e-03
2.173676115002776219e-03
1.991090697191236214e-03
4.402056428968393470e-03
5.177766182763634401e-03
4.381123657169467937e-03
1.315282087144261508e-03
3.561351261644902719e-03
-3.524519756548461836e-04
-8.796196306588309477e-03
-1.693177026446456056e-03
3.715428116576171245e-03
3.629259387785758496e-03
5.984485860577792513e-03
2.392607261631424145e-03
3.145726303725477659e-03
8.822839211078493732e-04
-1.040541004547218540e-02
-7.038846321579141432e-03
1.389314956553865847e-03
-2.571750527795018011e-03
-7.090176353855504043e-03
-4.683531964197207645e-03
2.230348621720093863e-03
7.516805389382969112e-03
6.865024462524885532e-03
3.901910804358389544e-03
1.980307023503834456e-03
-3.014267196159420683e-04
-2.140213230931285130e-03
2.024058069155000323e-05
7.743656785564064339e-04
-3.303617115667349842e-03
-4.194469928674461265e-03
-1.845930185719469284e-03
-2.823329414497575875e-03
-4.635967627571497759e-03
-1.724248194046805807e-03
1.736612186593467465e-03
-7.549147538575473257e-04
-3.829828604663323716e-03
-1.412778194889718463e-03
3.627669356351498255e-03
7.714755831014346969e-03
9.761360026861823705e-03
7.572722961348239343e-03
1.474885616892469831e-03
-1.790584745764097407e-03
-4.475500515635333354e-03
-8.338965216881027293e-03
-2.278349768840106856e-03
5.633958739545997033e-03
3.794250185771242453e-03
-5.023906294968004090e-04
-7.449263873026018903e-03
-1.004679143238693638e-02
-2.227996944118851991e-03
2.125065727311407048e-03
6.041291550495937746e-03
9.289740811213800450e-03
1.885515988148036420e-05
-6.276556148874171646e-03
-3.612161537462652526e-03
-2.308168573847303642e-03
1.963433988615080096e-03
4.809824069041914417e-03
1.670184948304862926e-03
-5.879548883587716514e-04
-2.948238791308912220e-03
-3.596440895399042898e-03
4.691545010558826581e-04
4.864550218638162733e-03
6.922304716933485452e-03
3.753827705230189729e-03
-1.335120269772847043e-03
-2.688359271766446994e-03
-5.698392461017413521e-03
-7.869512941539190745e-03
-1.297514618825511062e-03
4.497763445379997747e-03
-4.130558373842898473e-04
-9.017589537794461207e-03
-6.838050603210217918e-03
6.394396858299414288e-03
1.202242681781643015e-02
5.265074589023081841e-03
3.556288438551549465e-04
1.443213854388049507e-03
2.037287321968546481e-03
5.493753566246836187e-04
-6.746685709577012694e-04
-1.112328512474391150e-03
1.156776818155096824e-03
1.129570203748700083e-03
-5.163523008027686746e-03
-4.360159460739261583e-03
6.282504549749624466e-04
-1.697675746905240399e-03
-1.751737031368502152e-03
-2.354882685568050662e-03
-5.211979603137096954e-03
-2.634533892109722567e-03
-3.797921033454857483e-03
-4.098589291156079853e-03
1.142399379932887774e-03
2.618968603407977828e-03
6.308536051855712437e-03
1.112546817172994744e-02
1.039424968677348307e-02
5.659321663240277946e-03
-1.130625836515779508e-03
-1.563809533085275347e-03
2.405963480283042940e-04
-1.706498393912097688e-03
-2.483560974111284582e-04
4.837196443866935490e-04
-1.889119534663687323e-03
-2.271060192920147831e-03
-2.775728509482261810e-04
1.905552770740420732e-03
-1.126047895892408248e-03
-6.148242392439447201e-03
-9.035148124439888739e-03
-8.791721898217436798e-03
4.471871287956656876e-04
7.834411518568949392e-03
4.375735257496059585e-03
1.342239185590577474e-03
-1.848374929242154211e-04
-1.995554021019276241e-03
-1.411168311072375512e-03
2.986669049436376606e-04
5.678728328289506765e-03
6.018649023268029911e-03
-3.070248236355833157e-03
-5.277138993136610071e-03
-3.797646215523024348e-03
-7.276659465538379973e-03
-4.890391540934803036e-03
1.708422139501199460e-03
4.241474304459211600e-03
3.491377396350416398e-03
3.423028792561451199e-03
6.379481551245267529e-03
6.814933694079278008e-03
4.888214930945220318e-03
9.506632932628720231e-04
-5.881512482868124156e-03
-6.341818144528092553e-03
-3.942463640075476346e-03
-4.912820739732932061e-04
6.961527689561355405e-03
5.733593881099108974e-03
9.777352243830910762e-04
2.100101655828463202e-04
-4.447734694460573311e-03
-5.741599613244401448e-03
-2.599715151537722313e-03
-2.154118516687667916e-03
3.860744155837184566e-04
3.056470585379373814e-03
-3.787544531429294561e-04
-3.428171064316142512e-03
9.884563588445859604e-04
5.186124175824805525e-03
5.783085660949048405e-03
5.565736241615059504e-03
7.603516952952376565e-04
-9.888782858831245744e-04
1.139052350267085508e-03
-1.534719018540869288e-03
-1.005954776324614278e-03
1.489709857904264858e-03
9.958278596678615466e-04
-1.089943829588571351e-03
-7.847839674208361566e-03
-9.524237925611984262e-03
-8.419907234841485580e-03
-1.161772816237756877e-02
-3.408468066915047723e-03
7.353835582272085988e-03
3.728061603290557229e-03
-6.535318756907308128e-04
1.199195324005520994e-04
1.224643977521938046e-03
2.149223503799944490e-03
-1.451098376399695758e-03
-4.352842153943883678e-03
-1.256195300648454364e-03
-2.037986453895630160e-03
-2.747442563066410885e-03
4.473499861865633254e-03
8.913499215219226196e-03
9.590323587871761243e-03
9.243894657888995781e-03
5.613595502716902698e-03
5.341059517705187311e-03
2.867501423475901645e-03
-3.830741094244791145e-03
-5.845088591365654599e-04
2.272299911007978884e-03
-5.034426623607222116e-03
-4.018880461778474682e-03
4.626909970639886405e-03
5.428976038341967909e-03
3.708448232404938649e-03
3.526755408105305967e-03
2.097094306403275016e-03
-1.358306796383709075e-03
-8.064729209802713045e-03
-5.266583497972579866e-03
4.807298002602685208e-03
3.097466231347691546e-03
-7.173944346987222182e-04
-4.070047553774644444e-03
-8.689551173397499703e-03
-2.462973081336827710e-03
-9.117066732222652362e-03
-2.509759855825617267e-02
-1.395788138588471665e-02
-1.662296888259076600e-04
-1.670113440056231993e-04
4.753403466541046909e-03
6.522960173532254061e-03
4.494140920503274933e-03
7.955738294218347995e-03
8.179111944963979655e-03
1.270817391769509886e-03
-3.108282252692725657e-03
-1.227587922380625690e-03
4.776105598297696758e-04
4.254527939293858106e-03
1.049657157780778914e-02
9.346454417682170668e-03
3.939952194215776311e-03
2.148213949096697446e-03
9.590765812221675127e-04
-2.056759307227621833e-03
-1.872324492966465689e-03
-9.951795185345381229e-04
-5.448864520762009347e-03
-6.727922432057821707e-03
-4.434845011993886546e-03
-3.853682683632287699e-03
-4.611626392210946626e-04
2.924507280669635771e-03
4.591033358257764173e-03
1.568142679444400282e-03
-4.824310270514994142e-03
-3.881970951699220077e-03
-1.059425934491901953e-03
4.328521537179103387e-03
9.813466318557581211e-03
2.975225398031330730e-03
-1.715765403884254338e-03
-9.220987314954648883e-04
-1.426842448780169057e-03
1.653522079133045862e-04
-2.582226733527668368e-04
3.260523168083164121e-03
4.023990411067737867e-03
-5.221103866924460546e-03
-9.481726517383368136e-03
-4.571443004866296289e-03
1.027852866961707218e-02
1.478076429340560542e-02
2.599588450459310810e-03
1.912890481039085074e-03
1.452966859346774275e-03
-1.870073912620787734e-04
-1.862925975517372478e-03
-1.993503461930913601e-02
-1.510113074010249398e-02
1.203042935015411321e-03
-1.065968976636185762e-02
-9.690357238508775367e-03
2.519866964376655735e-03
4.622863180083854246e-04
7.148604829681265340e-04
3.973272779378114370e-04
-2.620026767791010800e-04
1.142330004976873075e-03
1.262228498506045042e-03
6.871296064896798700e-03
1.039599084625498875e-02
1.037227049003064741e-02
8.863341007229741386e-03
1.767320522033585372e-03
-8.176496913612637477e-04
2.756641161540071571e-04
1.097832283788854153e-03
7.788799412815560277e-03
1.035056983806372476e-02
4.379507571431867467e-03
-2.994564594917244280e-04
-5.817932203566589418e-03
-1.053110310376772357e-02
-6.999409489561879590e-03
-3.949685572487853652e-03
-6.798920160821397829e-03
-1.011005013334554878e-02
-8.717194046551515405e-03
2.026272106608843250e-03
8.654611903843985321e-03
3.612155878752444649e-03
3.385188316350998261e-03
4.159511735450182809e-03
-1.028008966637476620e-03
-2.699603070344186711e-03
-4.957698831443926694e-03
-7.353621474351550516e-03
-2.602958812906370524e-03
3.316058303130847880e-03
6.199793637419412709e-03
6.542369659499816872e-03
3.318327011471918289e-03
-1.008061188974164208e-03
-1.164042971456768442e-03
1.639103780515821073e-03
1.279819188436472121e-03
-1.497879901969191097e-03
-3.176012711479521324e-03
-3.378607954421016229e-03
-3.087247831329963631e-03
-2.398182664172110977e-03
-3.042585030500699833e-04
1.397487952365696496e-03
2.265389075549325507e-03
2.906516520620864175e-03
2.700160206456872491e-03
4.213009929067518429e-03
7.259969431618392734e-03
7.492559305837042521e-03
3.603084428554713305e-03
-6.790395737998777175e-04
-3.350229162033733360e-03
-6.478915212499413920e-03
-7.181919453657202232e-03
-4.313126830909574244e-03
-1.151063348113389589e-03
4.756523464808170383e-04
-2.267642720394592772e-03
-2.328399598271871374e-03
2.184425578668977141e-03
1.665420261056627192e-03
4.329158921136258033e-03
7.924577015264267638e-03
7.127528031129165380e-04
-3.916524225523759610e-03
-6.550771731569440814e-03
-1.065497647378444400e-02
-2.304371296408595955e-03
8.984318740070721537e-03
9.165109329439723174e-03
-5.854696208939421916e-04
-1.064891555691433941e-02
-7.618826373286073476e-03
-9.173634626900098194e-04
1.751605611199134698e-04
3.050136718252510152e-03
3.937118166866225566e-03
5.986174776089099592e-04
-6.673235923672273667e-04
1.221013511867935150e-03
3.042889902732823400e-03
2.478334454142938539e-03
2.814337751949848830e-03
3.381593129623607433e-03
5.081109276793905390e-04
-3.714478687428962068e-03
-5.285715035828390460e-03
-6.681245746367792159e-04
5.240155085648478574e-03
5.886756890746664729e-03
2.687200077525658468e-03
-2.402377262170923237e-03
-3.863551429915181804e-03
-1.291427585891211137e-03
-2.118346177998677547e-03
-2.598555372015328487e-03
5.963990960060360814e-05
-1.716457988768046398e-03
-5.711128832574871236e-03
-2.688202863914298819e-03
4.594651620357589027e-03
7.772569183682832838e-03
7.447701594322765628e-03
6.565491445807715085e-03
1.971007186200425618e-03
-3.647087193908722658e-03
-2.970025397634741375e-04
4.679912395920369020e-03
2.319381100545732030e-03
2.956677248364142190e-03
6.520145618064529438e-04
-7.961911210050324691e-03
-4.557892627095612437e-03
-1.504143458319328122e-03
-8.990506695558411754e-03
-7.229357323281852300e-03
-8.802924471103466516e-04
-6.480376864045607564e-04
2.945112112372722836e-03
8.432562829899476614e-03
-2.472746437984659450e-04
-1.581756770729155631e-02
-1.028448483487142545e-02
4.286569203048870742e-03
3.099245908122067600e-03
6.238728680351226553e-04
3.610534342538967555e-03
4.333803084196711022e-03
5.580515803394077261e-03
6.401778943117146341e-03
1.896586944004223767e-03
-7.078998508615233672e-03
-8.000805102149502121e-03
8.469745367873577398e-04
3.147791750935029480e-03
-5.785199207427444128e-04
-4.251025386578933217e-03
-8.019502341205998752e-03
-5.259600723437079031e-03
3.025376190200968450e-03
1.022478421004118822e-02
1.229090420103274087e-02
8.550092697152598259e-03
5.664932097594171587e-03
2.675924970637510569e-03
-4.303325118163476605e-03
-6.944840830130488522e-03
-4.825048377947070092e-04
5.710434053800092329e-03
3.974475335451380098e-03
1.147952745048339256e-03
3.801927462827333183e-04
-3.496298681610824320e-03
-4.135292684025321241e-03
1.767388595629296047e-03
4.749795647731443367e-03
-1.133445993175417620e-05
-8.344320385087613395e-03
-9.981659172470642299e-03
-6.311765034608345266e-03
-4.121145401634834435e-03
2.996744555847879847e-03
7.493173036198552510e-03
2.568171494934782129e-03
5.017524437045953667e-04
-2.869114354919414904e-03
-6.823298013277988294e-03
-7.646374245240707135e-04
3.451047085365906240e-03
1.486199579757293068e-03
1.894096873507537630e-03
1.401573061936873307e-03
-5.172125696479701676e-03
-9.138712086645441046e-03
-1.010911098656081105e-03
4.030906832090645417e-03
-8.561934402423885442e-04
-2.870973379464479992e-03
-4.678075968794554416e-03
-1.243732941472002569e-03
7.775359750678252982e-03
4.289414824059413663e-03
2.589675833881317779e-04
4.855703635491214615e-03
3.604339375401667024e-03
2.182324282368633492e-03
4.625237939774966972e-03
2.264125974387496548e-03
-2.100296862306659106e-04
1.293661305047185198e-03
2.457564125810855413e-03
1.325940763620778000e-03
-1.108941092971761373e-03
-2.289712525532301441e-03
-2.612780244556608348e-03
-2.574741588153890790e-03
-2.063675207148575694e-03
-3.492029022355728606e-03
-2.941953650200685149e-03
2.297915100403582242e-04
2.954833034168631058e-03
7.375885015775912254e-03
5.452633034134061162e-03
7.125471421481717124e-04
2.785826278449769679e-03
-2.667812264926629120e-03
-8.281009456906254784e-03
-2.008626412980043727e-03
5.777967115656884199e-05
2.534316551967009099e-04
-9.424159529316952994e-04
-9.031485617543385039e-03
-8.083101321516586446e-03
-2.293567408690622839e-03
-3.997223585314775215e-03
-3.182604701984344687e-03
1.004338904378405516e-03
-8.376613205457721784e-04
-2.145916997873069214e-03
4.885116753495793648e-03
8.484790858609177547e-03
6.882541727063387627e-03
7.854750971780531665e-03
3.988706750640914726e-03
-9.531508220163755884e-04
-1.383185341352763864e-03
-1.950932051770057699e-03
2.814851741325374076e-03
8.332533363512277177e-03
6.444085088558093588e-03
1.968080610098007360e-03
-3.338299889259904729e-03
-6.548656129273640325e-03
-4.801240421465413806e-03
-4.191583527295284070e-04
1.301387388992667057e-03
-2.081258765932474455e-03
-3.509914475823588259e-03
-4.687936239806182043e-03
-6.283148224937469377e-03
1.814809913052400307e-03
8.678491003161271575e-03
3.479222853538212461e-03
-1.622615513187771787e-03
-4.125977665129251445e-03
-7.673079090937719345e-03
-6.096831337717006742e-03
1.188425003471957645e-03
7.866874501877929235e-03
9.243657447751834483e-03
3.786198283019466971e-03
-3.223944629336771787e-03
-5.830178491946122823e-03
-3.738630412714476908e-03
7.817271209374406903e-04
3.133627767635411014e-04
-4.254935473750237444e-03
-7.171234328833103180e-04
2.453564577526435621e-03
-3.850918942931613048e-03
-4.771008947584304619e-03
1.606074445442180624e-04
2.916752039818672551e-03
6.101847949206318233e-03
5.498439103808277877e-03
2.538832034114393149e-03
3.034315002353221453e-03
4.002020954476366230e-03
4.677958525879767106e-03
4.882495960468751992e-03
2.487687335105803494e-03
-3.515408263426404202e-03
-6.520533264313636314e-03
-3.504317381433901674e-03
-3.396727900229395795e-03
-1.038040465965569354e-03
3.823962826366848408e-03
-9.866507040403337848e-04
-6.479630915891559755e-03
-4.884651110030606425e-03
6.320758539739904352e-04
4.359176246410074833e-03
3.696763923300600517e-03
6.786828109644182580e-03
4.353355689110117652e-03
-5.230562041489492629e-03
-5.793595239596107185e-03
-3.467881298779234775e-03
1.987202190824615311e-04
3.146436156977962598e-03
-1.357170665008850061e-03
-1.029441668027439652e-03
-7.150308003703163178e-04
-6.185873749296104049e-03
-8.389936856700036180e-03
-8.087751338380492691e-03
-2.136333080527735330e-03
2.986443659265667749e-03
2.456759685178395449e-04
-1.219841591125675798e-04
1.401915114927971976e-03
4.083829674338269010e-03
9.019845323268958770e-03
8.368720526820985772e-03
4.422774172808919060e-03
1.720996705387150844e-03
-2.422599290637492912e-03
-5.306160930621437420e-03
-3.066287685792509592e-03
-9.638900375896585068e-04
-1.999408927284577944e-04
3.662208914607258982e-03
4.900104802716772137e-03
3.038974404204870805e-03
2.575955565939674029e-03
9.710418585570372747e-04
1.616965815666386802e-03
1.931353817696075583e-04
-6.375134253478171795e-03
-3.213623110073332480e-03
5.247992680518332592e-03
5.942499791980073061e-03
5.406026709444064667e-03
5.165397603554696196e-03
-7.938341745524660036e-04
-1.146019325916661398e-02
-1.428165638187668326e-02
-5.433235382836049988e-03
-1.114280319138956192e-03
3.947271144224430602e-03
1.268709733193902969e-02
6.164030123898711633e-03
-1.389993477918066407e-04
6.717974442747089462e-04
-3.822342654643973419e-03
-2.220839778150338387e-04
-6.785364147920332559e-03
-2.629103550953251767e-02
-1.508842723701445641e-02
5.194788421795350913e-03
2.920495043112671368e-03
-1.235553839463005314e-03
-2.589417834891014503e-04
4.575143997244346394e-03
9.843859143345097887e-03
7.758979175027587959e-03
4.257223310883359937e-03
2.755873672021153832e-03
2.807071057264276612e-03
2.229471417406688437e-03
-9.006373730141882528e-04
-4.882748612930662944e-03
-9.465564207026934754e-03
-5.547436187234467721e-03
4.653375121477694616e-03
5.586420051564015138e-03
2.875294240485638374e-03
2.737569635066072673e-03
1.995321143551464973e-03
2.588388848316956238e-03
1.927070150713743914e-03
3.271379494484352810e-03
7.200599622276282821e-03
2.462246147572937777e-03
-2.886945552425332177e-03
-1.692623592003233415e-03
-2.404253909132958011e-03
-1.521562258322169928e-04
2.919996294357335605e-03
1.641480656336225885e-04
8.859576205124211103e-05
1.439391237709059836e-03
-2.303964573520720423e-03
-8.128683167494980821e-03
-6.557272074625128400e-03
7.899302213216843893e-04
1.131253874166863766e-04
-2.796649816251379865e-03
-4.923346155214399812e-03
-7.555561995701167051e-03
-3.796074625729004069e-04
4.954755316699814734e-03
4.638289737616587034e-03
4.569157413067488974e-03
8.933421372775618083e-04
4.968371482358452298e-04
-3.552180904868974289e-03
-4.651368039993065626e-03
2.619197094960914324e-03
2.281758517811942246e-03
1.112854126661919248e-02
1.226684584147624303e-02
-4.121800076676637378e-03
-4.488602283543901422e-03
-1.841703516513934144e-02
-3.024136106598271714e-02
-2.984845769386024368e-03
8.381089605406257664e-03
1.232521182085485672e-03
2.386593224673673116e-03
2.213246456959844840e-03
8.005249089777935825e-03
9.462268520213810638e-03
1.876466004954071903e-03
-2.554699613400270367e-04
8.406225045655905514e-04
-4.223464656920261043e-04
-1.425414983187768027e-03
5.810725552844064890e-03
9.693039324588917025e-03
6.298043748062047767e-03
5.274538830543919719e-03
-2.502127088900045569e-03
-6.341252726451340402e-03
-1.141459443694344553e-03
1.302957444388940997e-03
4.896988720838072080e-03
1.677326921847060092e-03
-3.467283210213856562e-03
-3.541943340884819592e-03
-5.799125179061157855e-03
-8.202411294383434893e-04
4.743726973643232203e-03
3.774114693012317525e-03
1.708008453401876382e-03
4.554627553564863005e-04
4.981573481122077499e-03
3.412572446225228644e-03
3.062271256494925216e-03
6.887123355727556989e-03
-8.570803493782492427e-03
-1.651653448418655135e-02
-7.004907145061428468e-03
-5.719837076982436236e-03
-1.971654081862819676e-03
2.691055924226320615e-04
-4.056544347321223466e-03
-2.639822135261978269e-03
-3.233882577904139029e-03
-5.663732997635451995e-03
-3.095272152982156931e-03
3.873452030683459564e-03
9.108049751132916289e-03
6.065926635117777944e-03
4.609457296912537055e-03
7.133502567036768133e-03
3.710897543470324193e-03
-3.497047739098866400e-03
-1.931893336162248493e-03
8.758167098513803747e-03
1.141984481370072503e-02
8.810979951203322738e-03
8.396186715354875957e-03
2.069219299206711236e-03
-2.591098047157223451e-03
-4.750679420303720486e-03
-1.037597116068644625e-02
-1.347876841418409709e-02
-1.702558955387502640e-02
-1.954665874988862490e-02
-1.614545262482158794e-02
-7.722074102366128373e-03
2.740074683542916174e-03
6.356249546807106986e-03
1.102129953939862822e-02
1.998159121764612328e-02
2.169294912384507265e-02
2.252118603402120112e-02
2.261414215175418935e-02
2.099467779101287304e-02
2.024396224804225417e-02
8.349104116140003418e-03
-6.378986189398404630e-03
-1.179564041503396860e-02
-1.434961863566894778e-02
-2.063753440233603853e-02
-3.201465516837759262e-02
-3.094235211446147785e-02
-1.979813541825936954e-02
-1.636364197236757703e-02
-8.785331455655954330e-03
-3.908901973806848743e-03
-6.553766249895149644e-03
1.328628972386585849e-03
1.074977708161554621e-02
1.571680020354724455e-02
1.230752713836866588e-02
2.185450518509287395e-03
8.989037794212872620e-03
2.364301474829812177e-02
3.301693475562739871e-02
3.538927036976249191e-02
2.079943671101727037e-02
7.565255674603649748e-03
3.129831765568992768e-03
-3.722539715924526663e-03
-7.990385314710236192e-03
-1.627906495298924242e-02
-2.947364156340057453e-02
-3.433771594760750417e-02
-3.201955529023446656e-02
-2.573523592079682634e-02
-1.519967453082841230e-02
-1.332075334470395403e-02
-2.271432382857894311e-02
-1.853258738169180977e-02
-7.185937547744959512e-03
-6.079887580063569191e-03
-3.085561417759697181e-03
-9.682924870753699051e-03
-2.440176925602163469e-02
-2.110955710164478388e-02
-9.781642633562778744e-03
-3.073759163182429067e-03
6.169491221927016732e-03
2.432181089305008453e-02
4.617885676090908303e-02
6.724721833660683712e-02
7.836117811056675375e-02
6.416843008556971650e-02
5.615702175728842782e-02
6.306163051329935487e-02
3.783412679929368250e-02
-1.036418315812894647e-02
-3.989975313587293404e-02
-3.667478308130647791e-02
-2.509838289287574450e-02
-3.257868336031628093e-02
-3.377078318654740119e-02
-1.079368984803287523e-02
3.317511814581988044e-02
6.350063340369097031e-02
2.497537555876363710e-02
-2.459431325797946724e-02
-6.415794484345704006e-03
3.637951206027378176e-02
4.130562779302746762e-02
-1.439480261886831103e-04
-5.220031293526340710e-02
-6.334651436350413611e-02
-3.328007360598132791e-02
-5.229651247127079308e-03
-9.472751052517280413e-04
-2.147233891725191385e-02
-2.978259325592675852e-02
-1.240456467975389193e-02
-5.301566151755249950e-02
-1.209575807437687223e-01
-1.390111999069011672e-01
-1.660092830792266605e-01
-1.706892133910102305e-01
-1.388081024444796086e-01
-9.349072126222664203e-02
3.848548072832144035e-02
1.320226929082151390e-01
1.354870189044879436e-01
1.808287660679827324e-01
1.932193588856240263e-01
1.802719199482021306e-01
1.674889767866999946e-01
6.612903236652775685e-02
1.329267122397079053e-02
4.702834300677426194e-02
4.701696429143061018e-02
4.019112526777759986e-02
3.465174532083767356e-02
3.618809776580933502e-02
5.977598454929477362e-02
7.150437711783083627e-02
7.447576774967486213e-02
5.844200244056860227e-02
3.135157928098794566e-02
7.945944230003901265e-03
-3.808347985110928369e-02
-9.872944968859106996e-02
-1.634356479032756659e-01
-2.118118051752770070e-01
-2.349984257371952323e-01
-2.591785989150599545e-01
-2.509107286489286048e-01
-2.027931926148593411e-01
-1.379138105201941356e-01
-3.037050183432101272e-02
7.709364999009353514e-02
1.330371908160810912e-01
1.575037373414044373e-01
1.515517483962856848e-01
1.363073328533208339e-01
1.290695199591746223e-01
9.769323037556622291e-02
5.339885140854699203e-02
2.283698015038478427e-02
3.279390418033076553e-03
-5.419760650972425299e-03
-6.382217030333750193e-04
8.900466101682453363e-03
3.187764556453558085e-04
6.758396429929930914e-03
5.384145099813398422e-02
6.524285784506812791e-02
3.329731217599252863e-02
1.611631590787430263e-02
2.954802387654791376e-03
-7.929760577631825291e-03
-1.002545779676028773e-02
-1.619635882390001169e-02
-2.730749625685377491e-02
-5.212071302458338995e-02
-7.770568125758031686e-02
-8.452395894750454330e-02
-9.138672027179566004e-02
-9.432342712072157298e-02
-5.681605986709418327e-02
-8.888165652484571536e-03
7.064904060667619688e-03
4.837933956337716473e-02
1.177882237033062857e-01
1.262269929188892803e-01
7.955829806307281038e-02
3.160333965808445611e-02
1.957492998800337922e-03
-5.841122259351434233e-03
-1.262475509666168873e-02
-2.089014856167695916e-02
-2.206202467753586027e-02
-1.921539465187099838e-02
-1.365158376815686289e-02
-9.690595684562378770e-03
-4.674763338817480331e-03
-2.663499730280651651e-04
1.964223349234706009e-03
1.487856724683201109e-03
-1.025463074202933624e-02
-2.278184940622478630e-02
-2.280447642878690936e-02
-1.023987551591626355e-02
6.931233193737502355e-04
1.158397600021818718e-03
1.400600967066313422e-02
2.520648241606292944e-02
4.907555211402890930e-03
-1.839064512461030185e-02
-2.434111827646287182e-02
-2.102635210851539621e-02
-1.034285670658154251e-02
4.933399548899077003e-03
1.734473700369274299e-02
2.010110716524758992e-02
2.407213484473571044e-02
3.113743800661740446e-02
2.700150797294654723e-02
1.890368303873842665e-02
1.087181593145363639e-02
1.640956521744683537e-03
-1.942704672608880660e-03
-9.044184302526549202e-03
-1.775675982161843691e-02
-1.873831964771706035e-02
-2.487826943060788415e-02
-3.123913864204359847e-02
-2.488946417215593884e-02
-1.762624908908770605e-02
-9.345279825501050935e-03
2.327500844512625337e-03
4.860934408839896748e-03
3.508111721657040504e-03
2.095969360838409977e-03
6.071731879784491540e-05
8.888895074804736146e-03
1.767690555625492377e-02
1.422925752190909270e-02
1.026107229067296615e-02
8.075200337273078649e-03
4.912711993854830192e-03
2.848413379497336060e-03
-2.983863695934312575e-04
-3.293509057384944472e-03
-2.254201197855026147e-03
-9.415773348455570716e-04
-2.017190927981585540e-03
1.326619553931806259e-03
6.635919597994521628e-03
9.850672878578827299e-03
1.697400444043512327e-02
1.842724290332480724e-02
5.882050902846051171e-03
-1.115680253182748174e-02
-2.417086019579355385e-02
-2.446534593718682413e-02
-1.566851688398409465e-02
-6.702227390269617675e-03
2.146919258202617878e-03
4.729748977268696288e-03
4.520983182943760087e-03
5.197512320888122116e-03
1.217434989010110231e-03
-1.081066587464225479e-04
-1.289888654782149393e-03
-5.461611706862191939e-03
-3.968562134800334221e-03
-2.541893068920683760e-03
5.614952460711078973e-04
7.273181910940720515e-03
7.219604204903360030e-03
5.049849117808135127e-03
3.025855235291183276e-03
-1.855373457388566751e-04
-1.499267928872127743e-03
-3.521590051679151633e-03
-1.872958273505493515e-03
1.743430030409151565e-04
-3.532947291957262009e-03
-5.108912385143458100e-03
-7.018218115014799446e-03
-8.631511310785591404e-03
-2.481094344452546008e-03
2.475644544431770868e-03
2.841869549569285493e-04
-1.686034917099957058e-03
7.200476093126729343e-04
1.473936812422628646e-03
2.470676430783167593e-03
1.125641356051465189e-02
1.445383804436896347e-02
5.578813236375925952e-03
2.271471209253191764e-03
7.332252785729159728e-03
5.667428065101803684e-03
2.515107595709301265e-03
1.143719893803149534e-02
1.615324557733262278e-02
1.193918242246594028e-02
8.975728249751825649e-03
-4.333821480194364160e-03
-1.337337072351119441e-02
-8.370133505169824462e-03
-7.692519787672472478e-03
-3.357426150465924602e-03
-8.955132806306630167e-03
-2.890954602074837995e-02
-2.319762574011323755e-02
-7.193136297665160897e-03
-8.487771441627330049e-03
-1.225945746861634329e-02
-1.441350349662066412e-02
-9.430067415101850772e-03
3.137946542315983318e-03
8.064582835134058089e-03
8.663397821417027911e-03
1.539244524955489003e-02
2.082115455532412146e-02
1.273951717486677439e-02
1.304460476711968853e-03
5.697054084858230692e-04
5.129525677413437207e-03
7.624225601736468044e-03
1.954229714108768248e-03
-4.918518183140544592e-03
-3.586836780461431524e-04
5.225081114608677493e-04
-5.910023804431086339e-03
-1.774759831028851955e-03
3.293321236123116381e-03
2.342467285254973275e-03
6.090451791509084167e-03
4.712413052582979135e-03
-2.037556309941580910e-03
-3.180722608464304742e-04
-2.805940041160766784e-04
-1.137810712910559312e-03
4.689821481356255470e-03
-5.597729814679741059e-04
-8.074935255705352824e-03
-1.627248817794156588e-03
-2.580571418906734207e-03
-7.897744836073755312e-03
6.942889129070238920e-04
8.707608063731752876e-03
8.778147238708542549e-03
6.306142138664311628e-03
3.894293002828954145e-03
6.047909946045650423e-03
6.524966012013020018e-03
3.373066889670801091e-03
2.226660203092024198e-03
2.130989133904163599e-03
1.540039809799718593e-03
-5.989867041414002717e-03
-1.163884797551846886e-02
-4.469510190508575384e-03
-9.171694198584663671e-03
-2.437479000504456234e-02
-1.449267866977816885e-02
5.197782957411046893e-03
-5.029456204836827912e-03
-2.687990106000474541e-02
-1.831869434960262805e-02
5.318018347812977081e-03
1.422693743262093413e-02
1.375070306324320014e-02
4.464899676216527689e-03
-1.480069905615404805e-03
7.079809102729948088e-03
7.881104241256754045e-03
3.384559019622910159e-03
5.583025617729248970e-03
4.903443057154752670e-03
1.198140880803060795e-03
-2.258166049497896920e-03
-7.991953255587171860e-04
3.251809869747416919e-03
2.538642332900125243e-03
2.440837646480824123e-03
4.057641517940487226e-03
7.853636064430159769e-03
7.996740211510972376e-03
-3.205075306366888719e-04
1.082319921470546991e-03
7.524482509170203268e-03
2.555508600625369274e-04
-9.614193350387769191e-03
-9.871980482483817473e-03
-1.265291701747061921e-03
6.346384959138626214e-03
4.144583383189332122e-03
-7.958120579426144819e-04
-4.162544802460964657e-03
-4.596181341004165408e-03
3.239732182628521188e-03
1.241655756307004019e-02
1.535301445629560536e-02
1.281026149842134920e-02
3.796853082337432218e-03
-4.912546469253303155e-03
-1.303497234672828207e-02
-3.056605408068552993e-02
-3.989565661151176640e-02
-2.674015641843314334e-02
-1.061895600673128451e-02
1.203594262850052647e-04
8.602565057887900588e-03
1.136578174390771856e-02
1.018916462743666047e-02
1.151648375712641115e-02
1.464937121882068337e-02
9.716233019214958952e-03
3.280109164212177946e-03
2.343727505478244207e-03
-2.193522916182421862e-03
-1.921852843288844289e-03
5.380826121737528273e-04
-6.327489446894420284e-03
-6.166095694945427502e-03
2.724082580463479323e-04
2.536225637945259143e-03
6.631397315216130788e-03
9.953650647303359869e-03
9.183517378081838822e-03
6.000061754587092573e-03
2.284160707636223413e-03
-2.764402814763463733e-03
-7.949930835040188923e-03
-5.351304517137306371e-03
2.501997069666550251e-04
2.916175839194942720e-03
1.277650858531565034e-03
-5.934418950377791553e-03
-9.772559699521432205e-03
-1.154508668174494997e-02
-6.396629197281653717e-03
1.145515691110234567e-02
1.793118841562329688e-02
9.680859393987811118e-03
1.245959790467184155e-03
-5.044326883418302938e-03
-3.554288359059252448e-03
1.338066838645414350e-03
3.803080313382673459e-03
2.954715169541733202e-03
3.644010791095804794e-03
9.641375318667582545e-03
1.701207751520376465e-03
-1.324842006582704554e-02
-1.618710157071320821e-02
-2.017447880489719667e-02
-2.143438788093671860e-02
-1.570714929867591050e-02
-9.644326925134732650e-03
1.536126029211027548e-03
1.200284180879299285e-02
1.920786399685220358e-02
1.682300037081698244e-02
4.736854876219837550e-03
1.885848240564244171e-03
-5.682695074647725044e-04
-3.736736422829874463e-03
4.203248879901310374e-03
8.419287411496757800e-03
8.899657500995717188e-03
7.964307774546394367e-03
-8.322447225992037761e-04
-8.017199314563660736e-03
-8.688027949966346114e-03
2.404452331880817598e-03
1.759325401592040997e-02
1.519625580259385995e-02
4.839371783944244887e-03
-1.335367135451013588e-04
-5.018256405999903420e-03
-3.005006039282358352e-03
6.276275055502831927e-03
1.894610894568935769e-03
-1.459385430025525454e-02
-1.922457359989346998e-02
-1.559584148639412034e-02
-1.657847646721576432e-02
-1.426621272872541715e-02
-4.680936616184756122e-03
4.324705726140258902e-03
4.132090525734227575e-03
6.244190196177896784e-05
2.290152290081482866e-03
8.410341453422932878e-03
1.572887689616319848e-02
1.072101096943317566e-02
-4.336426273840508425e-03
-2.024193633606070474e-03
3.798927347906880074e-03
6.439241042098223407e-03
2.076798751335869747e-02
1.614617665979905733e-02
-2.988030596967720075e-03
-3.619087712850251048e-03
-4.615876246098715718e-03
-9.494381817707850738e-03
-1.084597066543255446e-02
-1.815578984302762891e-02
-1.798494544014244551e-02
-9.907372343203976750e-03
-6.138174403502698849e-03
-5.317087238397135221e-03
-7.127534306009561046e-03
2.020833763747676738e-03
1.722630514992079531e-02
1.493747796197771906e-02
8.140932905897336341e-03
5.126043140595291751e-03
-3.105035163726275506e-03
-7.200764921533547511e-03
-3.352773630710872282e-03
6.473156443034449280e-03
1.515030946312865591e-02
1.130728810271058871e-02
4.533072854772514024e-03
1.397682220470675488e-03
1.764334064041046335e-03
6.839135117682970666e-03
4.889872007992257866e-03
-1.260515846238849857e-03
-2.693867644207170644e-03
-3.839549754692037856e-03
-8.819402005572355352e-04
4.268980489049837429e-03
4.729515407100597264e-03
2.339974475810916582e-03
-1.293568000747532826e-03
-2.034617942039520892e-03
-6.906033064523833982e-03
-1.574439431868647488e-02
-5.734188940186897392e-03
9.444349589702973405e-03
-3.165162674934760435e-03
-2.480174496787901708e-02
-2.396909369935399173e-02
-1.258414075898464830e-02
-7.590169919250162878e-03
-1.332511353563164622e-04
8.597194186939048285e-03
8.869145961051894470e-03
5.820272264695181171e-03
1.198645240790558418e-03
-3.607010338994660371e-03
-1.473200283145562582e-03
6.199674705467708193e-03
1.220351490060933748e-02
1.012086346265993024e-02
5.723316332873698217e-03
6.388810181275566581e-03
3.916429628459241162e-03
4.257574513066354240e-04
5.501617965249673038e-03
9.290643987741393356e-03
4.092288826674176511e-03
-2.457233430431740454e-04
1.952779307511482397e-04
-9.594500592227463197e-04
-4.395378076222961235e-03
-6.699257233977305541e-03
-6.400962160868335638e-03
-6.643800851488116180e-03
-9.840010222882703342e-03
-6.978135024593028896e-03
8.995186902812949900e-04
8.693707917685532336e-05
-1.962660834704751684e-03
4.582028974946141323e-03
5.616165623824597233e-03
-2.593579539701228957e-03
-2.021816192325565260e-03
7.858186318666736739e-03
1.213418771514087821e-02
1.209745764466303719e-02
7.742920723744981838e-03
-4.376566166594477933e-03
-9.992546754356894378e-03
-4.914045952019831590e-03
-1.509614348662650669e-03
-2.178656712014563797e-03
-9.950781004987106337e-04
2.116916017682964404e-03
2.055365727005931120e-03
4.362121860768217174e-03
9.148134386442432348e-03
3.565729390523608364e-03
-7.766388768043702359e-03
-1.947940048388627915e-02
-2.896699004790972629e-02
-1.832341957106492156e-02
1.975153347338679845e-03
4.882537370533516358e-03
2.081880273455734547e-03
6.274610169642383384e-03
4.663810415037984020e-03
2.680816018965288035e-04
4.402989021996882996e-03
9.680933372419193647e-03
8.881237888442894066e-03
4.799233634726837033e-03
2.250614145707464497e-03
1.337607850203524542e-04
-3.255209579712375553e-03
1.849514567086538554e-03
9.691626883474106433e-03
5.260832319311075853e-03
1.232509903936787957e-03
4.362538481078230210e-03
5.034434126337742309e-03
1.760015639643508923e-03
-4.129130820592488010e-03
-3.483774036136543656e-03
2.378770377878263072e-04
-4.255255180048669005e-03
-5.275092313391443327e-03
-5.113925020674470884e-03
-9.608719022395585327e-03
-6.694056915720099886e-03
-4.266795068444790076e-03
-5.350767998154001490e-03
-2.730125997487376898e-03
-2.432723955601598636e-03
-3.072290313904574733e-03
-4.350448368487665543e-03
-1.552440016537570341e-03
9.911106182156369238e-03
1.381925157422247107e-02
1.017959168960935745e-02
7.734535904631376600e-03
4.027563450088696845e-03
2.114449603633896356e-03
3.499162205018878824e-04
1.157326588369801419e-03
6.169557650677212624e-03
3.930951042793680295e-03
-4.812612849598167826e-03
-9.267737250398368556e-03
-5.183127514830693748e-03
-2.870040643048376618e-03
-6.434854813884977910e-03
-2.998284014612431422e-03
1.259678936159660612e-03
-8.896458711461161786e-04
-2.497811909020612210e-03
-2.049548599100817561e-03
2.974809265297751783e-03
4.616269947081523550e-03
2.441944733489633326e-03
5.580477293244631189e-03
3.346264439319307765e-03
-7.041384356262080525e-04
5.112118652771726343e-04
-1.249894123481843766e-03
-1.330413861541437925e-03
-1.075134172122520822e-03
-3.836138782729881565e-03
-3.474944841737390936e-03
-1.341102961039107935e-03
-2.384348995709449463e-03
-7.846430118356754677e-03
-8.582293833072482045e-03
-5.946553156148370531e-03
-6.466985233511688032e-03
-1.810610151107537981e-03
3.274566029955600956e-03
9.281145003588666884e-03
1.671439377904295268e-02
9.808449151194043730e-03
2.869372250536934756e-03
3.361718914471898897e-03
-1.687455992510784961e-03
-2.466517992871669531e-03
2.316377717013167262e-03
5.588169211927479507e-03
4.908200596529966632e-03
6.345900546892827053e-04
1.820369785557233912e-03
2.702096384527696328e-03
1.681242167786654472e-03
3.496013395754411519e-03
-2.307384110414993986e-03
-9.208632442576454233e-03
-7.671253392344260652e-03
-5.587507074909327243e-03
-2.114644544607514193e-03
3.979486069652059255e-03
2.437630751323514346e-03
-5.275390341812073898e-03
-5.614642734889312148e-03
-5.245615949746445031e-03
-8.347224856061536205e-03
-1.459958349146150275e-03
4.751977406292488479e-03
4.542892116241646280e-03
5.254001011265031773e-03
-7.365298149713553561e-04
-4.942626157312376110e-03
-5.293797961812391276e-03
-8.943888937976348166e-03
-5.311589905776307498e-03
4.393545021056910992e-04
5.194689735098462734e-03
1.029906221151799181e-02
6.042838613440774768e-03
2.104736967185307384e-03
-2.027406044853934629e-04
-8.115619566640946969e-03
-6.163381272986817074e-03
8.239486935914020621e-03
1.420815085680291953e-02
9.038147441925648701e-03
1.262891111227760869e-02
1.064834326024596649e-02
-1.131619784851385126e-02
-1.317424214889833384e-02
1.768706906518630224e-03
-2.253083313759494857e-04
-3.476672768164485242e-05
7.789487723200171077e-03
1.389107508123486184e-02
1.241262566590860955e-02
-9.525786244258423879e-03
-1.952831449071242009e-02
-4.976915809780949919e-03
-7.053160636054156551e-03
-1.548034733310305402e-02
-2.828845888928189709e-03
6.563554802176946486e-03
-1.254735786004475360e-03
-8.069479578654840252e-03
-6.912789091343287014e-03
-3.357721018803296736e-03
-1.116321592873284626e-04
2.616025055598052759e-03
5.572293616146284899e-03
4.730871150882682424e-03
-1.109387754208677156e-03
-4.561843702374872994e-03
-3.740702556362310218e-03
-2.279191128434551912e-03
-1.655308966469220926e-03
1.818610905385609005e-04
1.969947666287184818e-03
7.255055468620858752e-04
2.668917963129534277e-03
7.292760174329898301e-03
9.686294399216663006e-03
1.135242910308559977e-02
9.440201220780370175e-03
6.783218661975599917e-03
3.283490094780611331e-03
-1.933923784174037923e-03
1.543697738093170692e-03
3.563141099217316358e-03
-3.034542450477084770e-03
-2.632295679042187270e-03
2.676103683270464285e-04
-3.325785892697848741e-03
-6.313463996765048165e-03
-5.402487556344434151e-03
-2.579095471809745785e-03
-1.119226897615477247e-03
-3.446409159715167845e-03
-5.120855584416482767e-03
1.050102141705808569e-03
9.208545310352396832e-03
8.449676176204070147e-03
-1.698492164235468338e-03
-1.098664418713127602e-02
-4.692481422084944336e-03
2.487720441918480664e-03
-5.290370857044216814e-03
-4.619540113507143893e-03
1.525606539982119012e-03
-2.521035913574030257e-03
-2.451216093934881560e-03
-3.905648502709523160e-03
-1.032032378742736567e-02
-8.504073358272089961e-03
-3.405114982083984332e-03
1.081443350843440745e-03
1.124043671542983465e-03
-3.418046892427621490e-03
-4.070880681248023950e-03
-3.167021154154737485e-03
3.692175713779696604e-03
1.553746073353790350e-02
1.755528744810446254e-02
1.347121525958853983e-02
9.759653519254389564e-03
5.104287467108916537e-03
2.245850703813485113e-03
2.985381329693139168e-03
7.261190299879078866e-03
6.917115246925287231e-03
4.666821545405891490e-04
-1.037046249489587645e-03
-1.384208583564565430e-03
-3.601667681456217646e-03
-2.778548191963956925e-03
-3.587911583865086539e-03
-1.144705823549978197e-03
4.463908812967098093e-03
-1.162004578418556660e-03
-9.685562087513482563e-03
-1.230672365731291275e-02
-1.494612681003141576e-02
-9.788770806083800860e-03
2.536855387242528161e-03
5.105974613193595829e-03
-1.692985527689538916e-03
-4.733667700576251955e-03
-1.873558637895264599e-03
1.785368136447364326e-03
4.766164939369234993e-03
2.002323381839982673e-03
-7.185304168488066377e-03
-8.835136406550054416e-03
-1.227053184116484079e-03
3.562627985017382398e-03
5.480411528720539709e-03
6.450133969812388637e-03
1.143365889865619045e-03
-2.783733683758308694e-03
5.171982425366479334e-03
1.102637332642351746e-02
5.251196209875969544e-03
6.145474736870493388e-04
2.064177388151167830e-03
3.350076874371608546e-03
-2.878114252445353443e-03
-8.963387308711857904e-03
-4.790447932809194448e-04
6.280581095505778123e-03
-7.030781458597331387e-04
-4.319194613864710958e-03
-1.485283205652747004e-03
-1.749863486424111433e-03
-4.839690495302456825e-03
-2.144953267795898094e-03
5.218755200986370177e-03
2.985238510297406628e-03
-5.120250259771371749e-03
-6.462152543404671608e-03
-2.096898154072936952e-03
3.686566648757389451e-03
7.962216345114955102e-03
1.011972517780733265e-02
7.746315964663617361e-03
1.717191308838936052e-03
-3.060046068093373248e-03
-5.150871803405562138e-03
-8.452540650542037046e-05
4.687472972016636270e-03
1.848179187119040456e-03
-5.124381033307279145e-04
-4.030795110915692640e-03
-4.448693835487676530e-03
2.957485987304802081e-05
-3.390270835905713053e-03
-5.730946006816371903e-03
-1.124836204012411500e-03
1.103681769402316184e-03
-7.101527527350146463e-04
-6.663192865600214843e-03
-6.981920886133511153e-03
-1.033075590194453691e-03
-5.089703521754236713e-05
3.089465521589483850e-04
-5.231311935798421816e-04
-4.304669646330054264e-03
-1.329663357674340692e-03
6.949819017704817088e-03
1.169776540156522437e-02
9.826754184079227600e-03
3.145815393326301806e-03
-4.122001587420924540e-03
-6.163471401663903754e-03
-2.321287637745007848e-03
-1.101748989717269344e-03
-2.793400217289592272e-03
-1.877582138736094480e-03
-2.063208531248372085e-03
-3.208320315694035765e-03
1.257457109726400728e-03
8.127669377156150621e-03
8.185680561128984289e-03
5.307663119353778387e-03
6.006652904010281908e-03
4.780651495920065774e-03
2.056646335725385074e-03
-3.763635843170365434e-04
-3.257566331457134243e-03
2.058757440578954431e-03
8.981058738045789511e-03
2.178726236173331946e-03
-8.746333079621696621e-03
-1.155260946634761345e-02
-9.279177131145729257e-03
-5.727663660028754766e-03
-2.783079497707087284e-03
-1.091016965190136356e-03
-9.531919837460355212e-04
-2.693908990436337612e-03
-1.805133656223531025e-03
2.234489909678514900e-03
4.984181024554878818e-03
4.676760109390790121e-03
-4.960710805116612387e-03
-1.639775208246304142e-02
-1.224830972387913434e-02
-9.470724006812716650e-04
9.090307264997923506e-03
1.450728618806908059e-02
8.005009507660454035e-03
5.394492864432332870e-03
6.073453246449720365e-03
-1.855836877707613651e-03
-2.347721239523225135e-03
1.012021919811771338e-03
5.628106165421110528e-04
1.524982667872233025e-03
-2.851158358215575596e-03
-2.529987308880218746e-03
1.089128761186085054e-03
-2.301561679497866972e-03
3.447115535463663154e-03
1.058878094401018675e-02
8.624651795229480028e-03
7.058992669842551262e-03
2.621292251039113869e-03
-1.397985991078467584e-03
-2.954600385477261157e-03
1.363172350747272107e-03
7.377231724509719299e-03
-1.222920952511168460e-02
-3.022278729345858131e-02
-1.481657936304517018e-02
-2.998291354669178725e-03
-4.381410112099503045e-04
7.363446805453066277e-03
4.663391249301634262e-03
-2.127209116524038813e-03
-2.541071932662744125e-03
-2.306725289234954051e-03
-2.069271658449906275e-03
1.201265979605985711e-03
8.362599187721442631e-03
8.189297558318155493e-03
4.755614616682859530e-04
-6.754127515210212127e-05
2.550072426422196181e-03
1.239117723439521696e-03
-8.733139322430459074e-04
7.863464552268534420e-04
6.105268764231455529e-03
3.456912911882930629e-03
-4.137393320928694704e-03
-5.127307024649605492e-03
-5.665335643617436766e-03
-4.291204307017720126e-03
8.155379148227959347e-04
2.363136583130284784e-04
-8.599182745676688285e-04
2.423516336692803971e-03
4.060179566725435375e-03
3.605520171233400802e-03
3.695838584199038438e-03
3.354359720693160431e-03
-9.960341514873717172e-04
-6.312881935987535095e-03
-5.196136868602595736e-03
1.729974301699170212e-03
7.890795786150038224e-03
8.121714462999023165e-03
5.484297886272507597e-03
2.799456687188114652e-03
-2.285007770303621160e-03
-5.240853914968248047e-03
-4.702929802261834012e-03
-3.141186237993743007e-03
1.772127268833436329e-04
-1.516626719936106692e-03
-4.936123515546538346e-03
-2.872046060111058227e-04
3.877685691033279716e-03
3.682868758185238282e-03
3.245621469725189050e-03
-1.024446450200078209e-03
-4.968736201885914743e-03
-5.349303787751550320e-03
-7.553204204943669668e-03
-6.427354914533906644e-03
-2.312759959298644162e-03
-4.358929803341042228e-03
-3.903677944940985630e-03
2.912462624048931231e-03
5.635165227172058214e-03
6.700609199838111069e-03
4.488136236082157504e-03
-4.381319921461288187e-03
-4.839458097151323919e-03
7.163002954841223143e-04
-3.173365194077670641e-03
-5.910992378631247345e-03
1.496555182373846818e-03
7.139965231621027766e-03
7.020075494291819901e-03
4.836492784885827734e-03
3.527523507792332778e-03
6.659803708481283786e-03
6.691589539637081939e-03
4.788006804593820422e-03
8.209210771881683341e-03
4.905863874505390736e-03
-4.585601830345894386e-04
2.540336676831882233e-04
-4.500075363391762076e-03
-6.940928235470476305e-03
-6.482659976103909497e-03
-8.448554253097737693e-03
-2.555890668709951460e-03
-1.464921430214331279e-03
-7.498746250673314281e-03
-6.999909940340514995e-03
-5.659717451272382183e-03
-1.500453240950898456e-03
5.425130108804545465e-03
1.052467680920682672e-02
1.113569782677790304e-02
-2.155323353307169116e-04
-6.729167607410773896e-03
-3.245835665375416848e-04
3.204766717716749265e-03
2.556783772094694575e-03
-2.676273629527524574e-03
-4.847611016019587500e-03
-1.450220261574133992e-03
-5.496506479609994909e-03
-5.356802443100532746e-03
-5.704187373033066779e-04
-1.769318180911019214e-03
2.449291597700153727e-04
-2.533442509585249764e-03
-6.614474949019106750e-03
2.953784530614616145e-03
1.015744700436835984e-02
9.734778395448218796e-03
7.691688304304117839e-03
3.675908243794137956e-03
1.482355884651558476e-03
-2.044762113239114148e-03
-2.822856563234770778e-03
2.245339607247633963e-03
6.633429332819209406e-03
7.789285796814771241e-03
-8.479042326985802586e-04
-7.855311813162811629e-03
-2.734458680957964002e-03
-1.599372934413991441e-03
-2.779341218445646831e-03
1.455975405544366729e-03
4.372062287862991600e-03
2.106544277508521495e-03
-2.511386898027812703e-03
1.571920733630977236e-03
5.901846013346872741e-03
-1.675937079211776200e-03
-8.908227837963144519e-03
-1.443125460669833666e-02
-1.806405761897747833e-02
-1.429181354128304660e-02
-6.695880719465556116e-03
7.086321365638397624e-03
1.751254516118125326e-02
1.560096909540107518e-02
1.085018849762748455e-02
5.173798928681346519e-03
1.181219006743619831e-03
-1.358690335127704088e-03
-5.372591506867994103e-03
-2.288471223079862563e-03
1.457107803067035200e-03
-3.800711422656644946e-03
-6.558064286284949473e-03
-7.289038122872403295e-05
6.029743167315291565e-03
6.278572186220993979e-03
5.259129471191543656e-03
-5.708586698464201276e-04
-9.985791933633950471e-03
-1.026333934066204351e-02
-5.517965376421140461e-03
-1.342440791978629895e-03
4.408188999583057335e-04
-5.325868062762535715e-03
-3.920048498317015018e-03
2.065075098019056830e-03
-1.610594245928432915e-03
-2.498273823541593934e-05
5.762958616945441231e-03
9.520626903989313009e-03
1.639685476028584013e-02
1.504996220708411381e-02
6.941715288043135562e-03
2.760045784033938500e-03
2.581895069208575352e-03
4.015189628200974484e-03
1.699247277223075742e-03
-3.689633891101182315e-03
-1.079724950865417268e-02
-1.616587481102309959e-02
-1.430005225433108977e-02
-8.442298779169885720e-03
-2.830699917171154451e-03
6.166141493029835257e-04
7.036743591502914175e-03
1.097300916310849084e-02
9.609402978578703708e-03
1.491440968660229932e-02
8.886088678075231700e-03
-5.028122611435061756e-03
7.431236938089738620e-04
8.672912613887874198e-03
7.922408250065751667e-03
1.943391925684219423e-03
-7.313410949428364276e-03
-1.303068928103479594e-02
-2.377296510848985259e-02
-3.274515026749606067e-02
-3.469372737252560124e-02
-3.510241029049398359e-02
-2.859825229429728555e-02
-1.887187283013071898e-02
-5.725601153195756729e-03
5.425177883290217655e-03
1.410376034593745047e-02
2.561632611546118404e-02
3.160278233877810566e-02
4.125522224843881230e-02
4.583583951930891159e-02
4.228892166042173134e-02
3.886103232909711436e-02
1.798551034409407931e-02
4.501131156991746221e-03
-6.110838779552102071e-03
-2.397074172499780859e-02
-2.517092611629257945e-02
-5.100514803530226821e-02
-4.114895130649483257e-02
