3.670747776028073211e-03
1.387895240610148009e-04
-2.286353990790108461e-03
7.002798231182522093e-03
9.495935165438548764e-03
6.181606885018328668e-03
1.230713500737333575e-03
-5.431012831050099215e-03
-5.068531718442012730e-03
-2.355308810181546818e-03
-5.876840171636673986e-03
-6.450408286761478635e-03
2.638819545811936160e-03
1.101385073281164681e-02
1.077350961928538915e-02
3.585225457967633911e-03
-6.891210250294796218e-03
-1.011277070777039794e-02
-6.569140088544597874e-05
1.110525987463108384e-02
1.124278976912945066e-02
4.253187519167689161e-03
1.607036597480059840e-03
3.453816823222172466e-03
-1.740598683323109569e-03
-1.368018057862761816e-02
-1.837227273201357328e-02
-1.292718968585948765e-02
-7.520914489119015327e-03
-5.657186341241776835e-03
-2.574717444770168416e-03
1.083656295432316096e-03
2.422555369092444389e-03
4.810985459688881839e-03
8.788769038417071702e-03
1.218443647063253976e-02
1.416422499189319735e-02
9.626073999878623222e-03
2.606381297882029869e-03
8.650541134686462377e-04
-1.927740537960658277e-03
-5.045349446100561193e-03
-6.122485227810281266e-04
6.715506743767180216e-03
7.352073846861126132e-03
-1.180390827511644189e-03
-8.684041196791045247e-03
-7.243499967226520696e-03
-3.524983380515221525e-03
-2.686818478379729164e-03
-1.254094328552098590e-03
1.626480642906866876e-03
1.722234950542556996e-03
1.779617331671896376e-03
2.651981811532537654e-03
-6.388060824320232391e-04
-3.016974686229570955e-03
-5.715080809200429740e-03
-8.512402891442618150e-03
-3.120220129661451219e-03
6.100734039753406314e-04
2.689696849786036344e-03
7.606556533200779097e-03
4.084609253771405261e-03
-2.527557604931049201e-04
-4.550954673459288620e-04
-4.553667539715954178e-03
-7.434085717320086141e-03
-5.032842936591027001e-03
-2.082801857362638794e-03
-3.373771039310575863e-03
-1.667074021620220748e-03
4.658506108096338930e-03
4.881635066795405632e-03
4.730945040898834955e-03
4.818727171371302645e-03
5.199551852943215579e-04
1.131083655095232440e-04
2.084361691719630212e-03
3.396813142963617336e-03
1.713205696123214173e-03
-1.502421613120871876e-03
1.403450430471160767e-03
1.864547467099642421e-03
-1.505772955648458427e-03
-1.212591032664161583e-03
6.366637980623564199e-04
3.679396797779206554e-03
3.973727166373567515e-03
3.128159315131907262e-03
5.335635760399467381e-03
6.357426787123940035e-03
2.379029276369412551e-03
-1.011172989728722701e-02
-1.783773910794330536e-02
-1.293268924127088070e-02
-7.293194495619008746e-03
1.557322328400713180e-03
8.097355684142992782e-03
5.386362236986757049e-03
3.383437972185393810e-03
3.931749277400428699e-04
-2.120235129606260556e-04
2.552407594814309812e-03
-2.782387505322789461e-04
-1.515350852986267934e-03
-1.774948412252663039e-04
-3.812083252853720023e-04
-1.441868797516987358e-03
-4.031963765803082793e-03
-1.811812775816840573e-05
5.055919215475780312e-03
1.303205366698079442e-03
-3.363741974855107074e-04
1.547453107303247083e-03
5.317291342392663678e-05
4.294611643894631018e-04
3.267054933802729291e-03
9.625609934510080895e-04
-2.465836761377390284e-03
-1.313295607768408431e-03
-2.515966625580156810e-03
-3.635554511168681644e-03
8.552493301842351882e-04
2.625281243453841430e-03
2.523595965671883499e-04
-1.492811396259050884e-03
-9.782605188793558251e-04
2.963880673704903830e-03
5.119068614441476053e-03
2.566542231405939331e-03
1.789746704379714323e-03
4.577411268636738702e-03
4.230040549266821277e-03
-9.985687518623623249e-04
-5.865264902056526938e-03
-7.954987315040682946e-03
-8.394753801418295899e-03
-8.477095022715253753e-03
-5.211689788451294089e-03
1.167181840533934465e-04
-1.663634081187777844e-03
-9.157266470742321486e-04
1.099005426764142548e-02
1.297690130897422023e-02
2.386032746209096854e-03
1.291947058689687003e-04
4.434222533609507959e-03
5.028743206335031975e-03
5.956991798424611170e-04
-6.679764573146749172e-03
-7.954117047822501299e-03
-3.827029924161031577e-03
-2.941601121524629620e-03
-1.964278459825915483e-03
2.420227314953523495e-04
1.473599499130672907e-03
4.346135202519188154e-03
6.126566853769233219e-03
5.643550103632328195e-03
1.688635444380794928e-03
-4.877175058186667377e-03
-5.367307508065358862e-03
-1.922364212998468880e-03
1.230801904625816864e-03
1.711823483544277222e-03
-2.354028304566104304e-03
-1.057087359900241511e-03
2.881438096783235994e-03
3.417354446377056897e-03
3.839515921052256975e-03
8.140358847562788281e-04
-5.869791562992809778e-04
1.428744137345717069e-03
3.129389906244275585e-03
3.570595255164041998e-03
-8.256576644267151844e-04
-8.957005236002650670e-04
1.991674061379324501e-03
3.525796413815490866e-03
6.550688284914394852e-03
3.978185083726387336e-03
3.966970788768974833e-03
-8.888810605352156016e-03
-3.462605593587254199e-02
-2.370744640939790107e-02
-2.807479185349741075e-03
-1.044498295711560098e-03
5.108926231901917553e-03
1.021977535401025466e-03
-9.839284535954354526e-05
9.416671987330385574e-03
4.379780047971571812e-03
4.595493648129169231e-03
7.741804857960278043e-03
1.491230880826919071e-03
5.868206296926720784e-04
1.528911181125660896e-03
2.581565633120675753e-03
1.944635068450082955e-03
1.022033412769401874e-03
2.850513302058227654e-03
2.195157872726897358e-03
5.616859333470008639e-03
4.754648443728306910e-03
-2.277555259232036562e-03
-2.495004212512345713e-03
-2.781629761766729863e-03
-1.955746706745205721e-03
-2.649358314636032167e-03
-5.631890165580663403e-03
3.566854125435634697e-04
4.230816414078298650e-03
5.179120946213450205e-03
7.489588618521908318e-03
5.544740989025154134e-05
-1.041917873801721274e-02
-1.362848361830274434e-02
-1.048906747302295536e-02
-2.521970409095482431e-03
7.581147795194038107e-03
1.079862678087980740e-02
5.632286901546535579e-03
2.504599478944280217e-03
1.074505301350556176e-03
3.112534840684556825e-03
4.275241338387647701e-03
-1.008127302801680152e-03
1.786494378700430406e-03
8.557404112097785924e-04
-5.164401603223019166e-03
1.885703994293803833e-03
3.687647679861754627e-03
2.012341018200135799e-03
3.736899803572741024e-03
3.603678009510260551e-03
5.351579664768976383e-03
-1.811817024361463829e-02
-4.256167450586357398e-02
-2.055372452941940653e-02
2.797010744440313595e-03
4.554234272734193623e-03
1.145824582200289689e-02
1.471988417986623207e-02
6.677260912302895521e-03
1.617757289765492682e-03
2.450473784590120625e-03
4.251365649187106638e-04
-5.705575683759382937e-04
-7.865437841115475092e-04
-4.649010626641051844e-03
-3.431489174593482273e-04
5.396120112702075013e-03
5.737748073829531011e-03
7.209778324557917020e-03
2.970349555282498968e-03
6.964645106262780687e-04
3.797988133333462298e-03
2.401238140153396251e-03
1.688221294860910594e-03
9.817536476722566775e-04
-3.315513715470866330e-04
8.006507895904757934e-05
-4.382324991839954510e-04
-8.241059654697139398e-04
-3.655821897136415140e-03
-4.607090209484648695e-03
-3.743802692279767758e-04
-6.708405816146342966e-04
-5.125206650205708925e-03
-4.595178217553799738e-03
1.734240969434450370e-04
3.327989836867903698e-04
-3.131599875777765947e-03
-3.032030352944038373e-03
1.065762767815790811e-03
3.999089643746553402e-03
-6.305061645059501733e-04
-3.689425168744470303e-03
5.928032900184252189e-04
2.451026097612077521e-03
3.228426274879740883e-03
2.861872749927097531e-03
2.027480724746039999e-03
3.756954700677194500e-03
6.424570537676750235e-04
-2.102701124226053712e-03
-9.006212550538050029e-04
6.286002845007969365e-04
1.847755547648088090e-03
-2.043400896716292270e-03
-7.570404826600571607e-04
4.394347436740986095e-03
9.885479742224908672e-04
3.479666830291443204e-04
-6.963858617441587729e-04
-8.197164629608693145e-03
-8.782153087757519141e-03
-2.472518781835190277e-03
2.353491702008109285e-03
3.458507905376106647e-04
-2.947975760004975000e-03
-3.387686212452934147e-04
6.393162917483676683e-04
-3.611827835541738408e-04
1.238997492285338073e-03
2.380041352204706646e-03
2.400890640898662842e-03
2.366810630151320455e-03
3.994993841284998765e-03
5.191475059418160579e-03
4.047499759261405567e-04
-4.175516357575161965e-03
5.860018857992211391e-04
6.565193616634899809e-03
4.335883237195708832e-03
-1.560349809204275790e-03
-3.452241034603386553e-03
4.363588650271403298e-04
-1.559420064768838406e-04
-4.061687718548819860e-03
1.747566682673667906e-03
4.918171476000978912e-03
1.448277328942205924e-03
2.345735115450399942e-03
-1.846326936610299865e-04
-3.963891513741298403e-03
-6.460734280267822933e-03
-8.040575349421655998e-03
-1.474175523077274948e-03
-1.029471780088144807e-03
-3.597577618478667392e-03
3.932323000495522615e-03
3.490021097740669126e-03
-7.594417014696324027e-04
3.187844511739978959e-03
2.118923084489790151e-03
-2.735605907549825983e-03
-2.554164191894553460e-03
-1.509059071487627978e-03
-2.236044819285633659e-03
-3.962993256796970998e-04
1.692882675013515506e-03
1.843264466788758745e-03
5.345562696705657459e-03
4.858163422662840035e-03
3.927055318072938147e-04
6.486156433570182227e-04
-1.625767906413859518e-03
-1.331278345034568383e-03
2.006853063378512790e-03
-2.843416064795624247e-03
-1.361002669611450751e-03
6.490352729479892738e-03
4.706240754988612850e-03
1.238649758399938856e-03
2.065106761428950636e-04
-1.668274364978434383e-03
-2.439631329087251638e-03
-3.700189541740715651e-03
-4.840263579992983359e-03
-3.992055618961310587e-03
-1.435627596664704924e-03
1.556744640633499471e-03
2.248882765105762824e-03
-9.772912504060593097e-04
-3.219546912202085782e-03
5.585381332981113976e-04
1.420847934968909191e-03
-2.367791396844645853e-03
-5.947288933406136031e-04
1.608461720795482811e-03
1.695194046641680880e-03
3.046290021550887486e-03
-4.962884107311877789e-04
-4.125555738254728551e-03
-1.518319261361283272e-03
1.013239756818884235e-03
2.390564636106367203e-03
5.615041792394701373e-03
6.492786179896915463e-03
1.510737633151344782e-03
-1.767724088275170842e-03
2.772557708030249377e-04
2.447446442685113650e-03
3.780600325182201758e-03
1.773530647449253657e-03
-1.532346999384744254e-04
1.031670183235276284e-03
-2.948085123593958880e-03
-3.904800600048598854e-03
1.780781664579538046e-03
5.079903789547004578e-04
1.220976554629247884e-04
3.737146262307206989e-03
-6.363699615950245457e-04
-7.063741137185224235e-03
-9.157222254649188473e-03
-8.575994162090816442e-03
-6.258710105724110684e-03
-4.588794465455054913e-03
-1.333847974952603226e-03
2.425036033038273278e-03
1.841303368757892791e-03
7.309387007406772767e-04
2.670988065318538347e-03
4.409484291626541465e-03
2.192985863244450474e-03
-2.829152180763534817e-04
3.408579896749898853e-03
4.228616308821521452e-03
-3.033911638213836626e-03
-1.381033880392771749e-03
8.170472040952808657e-03
7.097116859222905166e-03
1.450679190581730810e-03
1.225403986289124716e-03
8.696995546777862686e-04
5.580290928843586584e-04
9.474266785690802308e-05
-3.777170542778396714e-03
-1.967644202756085522e-03
4.301957249709766236e-03
4.962519942509533398e-04
-3.944684726847103723e-03
-7.497511249360169338e-04
-2.970791906509203176e-03
-5.579588690487738943e-03
-2.310640058671443228e-03
-1.211060801050455483e-03
-6.054124753329841787e-04
-2.191512508805650640e-05
2.422633092345998461e-03
5.899124309596868489e-03
2.811335542451173265e-03
1.544154890155306076e-03
2.185309404458817429e-03
-1.155655668086055668e-03
-2.403343124263695747e-03
-3.859599199670234355e-03
-3.465310372965661918e-03
-4.664852348662598940e-04
4.312547775145443942e-04
2.893329247705261290e-03
2.177871232408387300e-03
5.583907826069546901e-04
1.880283592802311533e-03
-1.589626909607761741e-03
-2.647473614750347429e-03
-1.943993685834761358e-03
-4.921777922020621754e-03
-2.341887964441478030e-03
6.597610810436470817e-04
-9.416669158339697435e-05
1.417370486763176035e-03
2.874325149430379152e-03
1.201521790147257185e-03
-3.800613963386721087e-03
-5.655713054339468401e-03
-3.051218668541472254e-03
-1.601397716238825908e-03
1.975666169522687608e-03
3.797541452822428189e-03
9.021651832326389340e-04
6.404506458257239361e-04
8.270114590038595524e-04
7.981528069659321167e-04
2.834151165556087100e-03
3.489085555184540111e-03
2.409825785003344434e-03
7.690356341344343604e-04
1.226391434345370937e-03
2.756490447787693972e-03
3.509185859335274549e-03
6.238585261733144323e-03
4.063178971110728913e-03
-1.406652334330206738e-03
9.930521884125909950e-04
2.835337835930834376e-03
-8.004389323791586850e-04
-4.483669190274043072e-03
-5.882830284870420139e-03
-1.408227683135548089e-03
1.508058379966011617e-03
3.064057764249279226e-04
8.154021447521266367e-04
9.675058025061104069e-04
3.989165881619181550e-03
5.894439899911096611e-03
5.008897755248866053e-03
3.440441659414642927e-03
-1.668959177808451017e-02
-3.523082801569015626e-02
-1.906014175372943223e-02
1.389217933958063764e-03
5.337135999468843421e-03
7.158270790409408495e-03
5.929667105321159357e-03
2.553410668120812028e-03
1.944332255891522169e-03
4.827813548367420183e-04
-1.645757791310372559e-03
-9.070122618309974308e-04
-1.968048179402753198e-04
-2.759490222067910795e-03
-2.775657449359477096e-03
2.522202679607148904e-05
6.486221711228307065e-04
3.081032618098091414e-03
9.180442177287521932e-03
1.151575928780664698e-02
6.530617283909327317e-03
3.697024317936625521e-03
5.673690589036703424e-03
3.802871476293050775e-03
9.265505245174956777e-04
6.971934571053034014e-04
5.821179366072226028e-04
-3.366638782082453409e-04
-2.001359254697969610e-03
-8.608827833113651953e-04
-8.445920358145456858e-04
-2.897406318077015621e-03
-1.175609961111244613e-03
-7.444527466000471329e-04
-1.343344295015794785e-03
-3.296227136459095207e-04
8.293622817305279504e-04
-8.223576498121791230e-05
-8.936678949500094851e-03
-1.137948337904777507e-02
-6.774766535765427023e-04
5.319457143099315909e-03
6.922181203524143192e-03
5.039005339810720407e-03
-2.917772267401059095e-03
-6.836372603031269299e-03
-4.803120703029945156e-03
3.680629457685792843e-04
2.258369331956053879e-03
-1.659229656454033839e-03
-3.236792077523061376e-03
-1.031099424887866592e-03
2.982298605660781924e-03
8.318827005372180124e-04
-5.616963218237127145e-03
-7.291776396765875393e-04
3.466968974750806506e-03
-1.104947162063358180e-03
3.638338548709545541e-04
-7.976292220588756848e-06
-5.384637420246393517e-03
-2.606329120424487767e-03
7.347785052381867413e-04
-3.745773267827077883e-04
1.584318703817135790e-03
4.102257986785911442e-03
4.409049276114073400e-03
2.998497038109117132e-03
2.081675226976801782e-03
3.532566157293204508e-03
2.965474481508199259e-03
3.340052063663986014e-03
4.715133766282197242e-03
1.638081356052781224e-03
1.935081453381748981e-03
1.744467188682770342e-03
-3.097502504845147699e-03
1.819706308052531979e-03
6.699108462327084228e-03
-3.145050908196322763e-04
-3.473061617452915129e-03
-5.310134342867201852e-04
-5.825558715177876334e-04
-2.474957925144295225e-03
-3.435913689638940213e-03
-3.146679063059114236e-03
-3.810908867503800569e-03
-5.338555930290349132e-03
-4.918554801379442301e-03
-3.840843980046328415e-03
-3.884838570026684108e-03
-2.841496080039849093e-03
-2.137364969764111024e-04
1.800150649743323741e-03
1.203553721119334169e-03
-1.513232316144228406e-03
1.267018584147924006e-03
5.525062739124015319e-03
1.167433026475165649e-03
1.058354699689039629e-03
4.900187806731008677e-03
-4.233475454343151967e-04
-1.060082863647593930e-03
5.026715527745495918e-03
3.375860641114134496e-03
-1.494243740123291564e-03
-3.069182229705143521e-03
-3.374377291448499034e-03
-1.504411729372595076e-03
2.580145770128122566e-03
9.062510077116316337e-04
-2.095081898043180558e-03
9.430543320292347547e-04
-2.004202232565714149e-03
-4.528003883840342990e-03
-4.273513253824759222e-04
-8.481578124741085984e-04
4.611771835393983776e-03
6.596199005049640032e-03
-4.524431187667867990e-03
-3.083219166057237295e-03
3.633344365693673417e-03
4.137953882280543533e-03
6.706030376381980247e-03
2.092999467185916590e-03
-2.605787230932307599e-03
7.152844627856691387e-05
-1.859685474644958130e-03
-3.770178665795969469e-03
-1.477029460706370118e-03
-6.358334020628654592e-04
2.607198238612482201e-05
6.836315717428067184e-04
7.108899302928955912e-04
7.059555383551214137e-04
-1.172821484063507917e-03
-8.797811950919216199e-04
2.961470307398766499e-03
1.547739279057612103e-03
-1.624049625261295236e-03
-1.993790956890714727e-03
-3.147279754379910758e-03
2.720560589173136941e-04
7.224179247805917773e-04
-3.019568579812684228e-03
2.751910203372748970e-03
2.317186147233641236e-03
-3.849186392570635388e-03
-1.433485342212535620e-04
-9.167886966503711573e-04
-2.486510574945504227e-04
4.821695317004038445e-03
-9.454778621567196204e-04
-1.570165506865406303e-03
5.082292226732577564e-03
4.721095088259457707e-03
1.044838332841519510e-03
-5.165228731308695032e-03
-7.256465498766861283e-03
-3.297970672484280396e-03
-2.018122979411996615e-03
8.929053495776316431e-04
3.363770224600974839e-03
2.209755256414951217e-03
5.547836404406904232e-03
5.792644773308031764e-03
-2.804885426499903554e-03
-4.085981419836765861e-03
1.067253370776403715e-03
-1.974607082739832098e-03
-3.567923876052180206e-03
3.867204233603203358e-04
-6.713570702646192399e-04
-9.693755449730954814e-04
2.649797999931883781e-04
-4.999712281559832430e-04
2.420475166576866073e-03
3.085415941255267077e-03
-1.285323213489391854e-03
-4.655139508410201937e-03
-6.588836960617105651e-03
-2.664836498402510523e-03
4.557082582345436256e-03
4.738834106433588433e-03
1.757930672925098236e-03
1.676655903602501186e-03
3.054366406783946136e-03
5.070033049753937780e-03
3.164759938645491689e-03
-1.448881873726183371e-03
-1.441544747493418623e-03
-8.405507544391162354e-04
-1.377013319406446019e-03
-3.930518700809735254e-05
1.766536982772087643e-03
3.913511107635559913e-03
1.320259743629330698e-03
-1.617244591691339040e-03
2.198063445690873197e-03
2.821974405179153130e-04
-5.958563472385815414e-03
-3.868281387209599343e-03
5.341755999104465941e-03
1.098474441020043206e-02
2.845743182201955317e-03
-4.698837189384355399e-03
-1.023507468163914989e-02
-2.663126661963729006e-02
-2.616935088156219572e-02
-5.136783416649425699e-03
6.028114419830945397e-03
8.240971522766911070e-03
6.948646907241213741e-03
4.711526831305740126e-03
4.816270683779688352e-03
3.522550468710864552e-03
3.469419041572582244e-03
3.682995251679309877e-03
5.123339291659393877e-03
6.222732325433824770e-03
2.917157879396062563e-03
3.793195903167755068e-03
6.641616368673381246e-03
7.205943660204417421e-03
6.529292554050653355e-03
3.181322576748643518e-03
3.457448250006078024e-03
1.218795381987588210e-03
-3.458902032295677227e-03
-3.192750001848471738e-03
-8.785494063129426628e-03
-8.387558897955815426e-03
1.150475985170516758e-03
-3.682606872166296593e-04
-5.211923241326338937e-04
-1.530760200318719499e-04
-9.247566693754346104e-03
-9.399210739689944569e-03
-6.126273412158303802e-03
-1.030640028531058447e-02
-1.117218604198099569e-02
-6.554817313886303343e-03
-1.855616606330702262e-03
-2.212707035910583056e-03
-7.064913931271569764e-04
5.738013197234831039e-03
6.520204471508517924e-03
8.033693336201073662e-03
9.345008041224544745e-03
2.727235131782983560e-03
1.466597647163485167e-03
3.903898202602877881e-03
3.609093836424663321e-03
6.591898936210874131e-03
9.348924183064570223e-03
1.047969326875265207e-02
6.829176365798299807e-03
-7.333512377405554655e-04
-2.772746537419942727e-03
-4.332300644543454066e-03
-5.213450533476804080e-03
-3.941468489529890637e-03
-4.255289451060711124e-03
3.261683169128238788e-03
8.809889261622166207e-03
-2.561423095821184059e-04
-7.147391842607905658e-03
-4.986998534215085661e-03
-4.685728483310362333e-03
-1.039494328446633094e-02
-1.100409929276470467e-02
-2.742636717031458633e-03
1.718444490897545881e-03
3.099972179199763853e-03
2.376877077022023638e-03
-2.825667400663079234e-04
4.141342722537194251e-03
5.228821778637705343e-03
3.989995435505054198e-04
1.260203494293647567e-03
-1.295969199408688677e-04
-3.300252573278202300e-03
4.425715975353167197e-05
2.163006432296855734e-03
7.033928765610689051e-04
1.861874140621899015e-03
3.229608740052869811e-03
-2.521184013893143787e-04
-2.917629067128567604e-03
-1.529818500060493077e-03
-1.950563942467447394e-03
-2.313025163482641290e-04
3.034504742169605220e-03
-3.310084483337384035e-03
-8.168153705332819106e-03
-7.551212300187406905e-04
1.649045529846506972e-03
-3.592633232818052188e-03
-6.081715928146229268e-04
4.850149493994261075e-03
2.713765561922939096e-03
2.246926956003092880e-03
5.312969406458948815e-03
4.076493438392130367e-03
5.149909710521306978e-03
7.832060012440692637e-03
1.746705064813159269e-03
-3.750828141151199557e-03
-5.148477267191257228e-03
-6.112222513604091169e-03
6.028121753400319778e-04
4.565733414768568220e-03
5.743091611440293877e-04
1.359570157020605335e-03
1.498787009314956264e-03
-9.249890874188006901e-04
-1.340575067308663138e-04
-2.405537290698768569e-03
-5.794031148235483618e-03
-3.797974677870615944e-03
-6.735713009031276972e-04
-1.361152919491872421e-03
-2.230208166556973959e-03
-5.088241530967083310e-04
-3.187730907975859810e-04
-5.060096083435845727e-04
-7.747764840085912593e-04
-2.006271603307315573e-03
-7.687186090713947137e-04
-7.665384297241470933e-04
-1.177577620866912967e-03
8.329047131435731452e-04
4.332917732418356690e-04
4.996250817855770777e-04
1.258743896730342860e-03
5.246786484636441032e-04
3.576684537721438236e-03
6.647324498085136098e-03
4.236551477274743890e-03
1.148901027139790330e-03
1.511057845378911083e-03
4.535775198190536601e-03
6.923757531551396650e-03
4.953945240988981771e-03
8.808817584459050637e-04
1.250418674223396833e-03
4.406582445187156270e-03
4.658006016338015268e-03
2.338309303534124705e-03
8.146008523457536152e-05
-1.745526710913713380e-03
-1.514495918603488015e-03
4.388364030380129469e-03
7.099278973534449769e-03
2.957135195782229897e-03
5.182383962917961988e-03
6.262163383310316925e-03
-1.327234864888348926e-03
-6.645192649296000065e-03
-1.097500173185197818e-02
-1.303704722714828755e-02
-1.219482270351916753e-02
-1.301246571263861909e-02
-9.771736391103715003e-03
-5.008510232697964068e-03
-1.188934919076725097e-03
1.125063970761480247e-03
1.141825374709839504e-03
3.238584225194468189e-03
8.374769611797987061e-04
1.472745749334488253e-03
6.115195204364275855e-03
-1.163393580762359623e-03
-2.783446910179024347e-03
2.039564635453330150e-04
-7.068907698424236122e-03
-4.844924198991050653e-03
7.887561490895054388e-04
-3.971831751384395995e-03
-8.064910378866916793e-03
-9.337841778122728947e-03
-7.572454507290058215e-03
-2.420076576222855626e-03
4.971935256608401438e-03
1.010424844376843663e-02
1.036176554853813353e-02
1.633692087636348655e-02
2.274983017140782063e-02
2.177760749007833993e-02
2.189741294015797382e-02
2.240271636662002214e-02
1.978211446726814426e-02
1.149779784754234417e-02
1.167378735678790188e-03
-6.157124315193792871e-03
-1.880931347360538172e-02
-3.112236872558755973e-02
-3.801973018091796275e-02
-4.564543418617594828e-02
-4.318261032436829933e-02
-2.951140030946386786e-02
-1.482062865120603069e-02
-2.395589282568994297e-03
2.351884419740679112e-03
4.986585597194226338e-03
1.236257026728570727e-02
2.050962569977897096e-02
2.224482672154655394e-02
1.550079507137499570e-02
1.647612291333108020e-02
1.958997489915091997e-02
3.842580044208793698e-03
-6.990903680266142596e-03
-5.774162817295265537e-03
-2.009595186259015634e-02
-2.842018088380171559e-02
-1.017735664393573138e-02
5.737802002694804412e-04
-3.495638660602578846e-03
9.015725781136168376e-03
4.335951626441996581e-02
8.391494107069187580e-02
1.103026444381559334e-01
9.740638627958832230e-02
5.495471826589886505e-02
1.798134613307961552e-02
1.531987363083911740e-03
3.770761196895577178e-03
-9.275461603021903714e-03
-6.072956435610793458e-02
-9.263440769998856905e-02
-7.795564484404216010e-02
-7.502015565797348629e-02
-8.609193239086510019e-02
-6.391489374997776085e-02
-1.429245865135155696e-02
3.781801576219263189e-02
7.345730954582008199e-02
5.185658471616408360e-02
-4.093727045264376752e-02
-1.323122687447172985e-01
-1.474274506192160827e-01
-1.127503965381872059e-01
-7.713639903603378145e-02
-3.099221436006920072e-02
3.385411415680881358e-02
8.964604647998626608e-02
1.121176882795341528e-01
9.390585111732865919e-02
3.972666484144914134e-02
3.320646482850173921e-03
2.343161929493875126e-02
2.839596790058199552e-02
-6.396083415730076556e-03
-6.595480175975097260e-03
1.006355760198512743e-02
5.343367846076731154e-03
2.877007303065415647e-02
8.162884583403862138e-02
1.110082698310754651e-01
1.007986856377580120e-01
6.372974719337352878e-02
3.003199161125181399e-02
1.739081294202151143e-02
1.439531903148649240e-02
9.254924393320557857e-03
-2.123845037392452575e-02
-5.831134552637796953e-02
-3.539877747329291113e-02
8.373740368270772561e-03
-3.822959519099481079e-04
-3.252548517750891710e-02
-4.034771523861008236e-02
1.093786661998114723e-02
6.758961525662345038e-02
2.688807772254401401e-02
-4.588202700384768490e-02
-6.551778868062213546e-02
-6.957416083565375053e-02
-8.052823670854304672e-02
-6.742136295030355664e-02
-8.268364015427976874e-03
2.759853239566126618e-02
1.872508540241083971e-02
2.215728472031865820e-02
-5.509399390002820557e-02
-2.244593586675336649e-01
-3.256185124403347397e-01
-3.384019931606115916e-01
-2.607983843308201988e-01
-6.155673902654825586e-02
1.355640707763429709e-01
2.196155266621041269e-01
2.659147234453800301e-01
3.414247475494208706e-01
3.221438802483367336e-01
1.677164491000854851e-01
4.457156104195928586e-02
4.931965994281310023e-03
-4.010552890164023783e-03
4.201052640361545298e-03
9.345944218278532528e-03
1.673906446715630117e-02
3.038119494516586250e-02
3.130427283264029109e-02
2.694584847188618432e-02
2.970096409116276467e-02
3.129027909174943861e-02
2.422183270687975828e-02
2.738571643925604218e-02
2.546233354519449391e-02
-1.526124502252956296e-02
-6.378406255436180894e-02
-9.550284648269147247e-02
-1.135765993502451943e-01
-1.194068964690652990e-01
-1.215127511417080641e-01
-1.084604101453880282e-01
-8.422912376671322365e-02
-6.411630284630900900e-02
-4.273022403200070485e-02
-2.086189499724367888e-02
6.757985204491157721e-03
3.477225533849580968e-02
5.148435167493897735e-02
6.291132448013561640e-02
6.435830576815788906e-02
5.937571652232163238e-02
5.473919999286375182e-02
4.059405653662381819e-02
1.798024790816511731e-02
-2.018184493173489150e-03
-1.385744148093673127e-02
-2.755504247545513888e-02
-3.972750335336736743e-02
-3.630620739834028443e-02
-3.436840259421196364e-02
-3.536209713981681296e-02
-2.426686345798453187e-02
-1.118103786809413781e-02
1.648593172424979089e-03
1.630667333275289885e-02
2.921948324031018243e-02
4.066435542033232375e-02
4.758081470641752075e-02
5.129955252385775405e-02
5.267716130897509563e-02
5.057637418523261430e-02
4.082011279256145958e-02
2.070044640386979259e-02
5.330197575137969428e-03
-3.097326344653163286e-03
-1.564601020021302857e-02
-2.337809741408257425e-02
-2.501408241190756360e-02
-2.793017823144682693e-02
-2.523972947382008628e-02
-1.901614287399053596e-02
-1.605843925817109635e-02
-1.283568580460951042e-02
-9.532135340260101952e-03
-6.501678091089782736e-03
-1.458208882687140728e-03
2.441853468201028092e-04
-1.137211986950155407e-02
-3.478200276281750991e-02
-5.490200375947308642e-02
-6.302361307425831394e-02
-4.542864128159840309e-02
-9.550199913207614664e-04
2.783795089220750599e-02
4.261973353726058317e-02
7.043523483471146596e-02
6.592253245976004150e-02
3.109780033784733527e-02
2.214555458216119904e-02
2.139150665132034945e-02
1.151210588307878362e-02
6.160006231419080068e-03
2.827524140087625624e-03
6.129420076590064593e-04
-1.247588260005879886e-03
3.285257604087772620e-03
8.397105270244476297e-03
6.093526419848544970e-03
3.636991681435775003e-03
-1.668951400834027543e-02
-4.344816723040783452e-02
-5.324371216397762174e-02
-6.366250880985184490e-02
-5.713954593240947594e-02
-3.314178368798573193e-02
-2.032361093277942204e-02
7.385454119566046364e-04
2.311754017993537455e-02
2.443153195271268591e-02
1.647797935925651019e-02
6.283242022818747406e-03
4.655655445631080511e-03
1.306103688401917713e-02
2.188137729022723160e-02
2.854864512574552260e-02
2.921840750399710973e-02
2.768560146222342339e-02
2.137041808573239554e-02
1.496313051562328869e-02
1.793948735525992613e-02
1.359095845739171325e-02
7.155078509688902674e-03
1.084731023133934588e-02
6.125288150341795003e-03
-2.571674386748089205e-03
-2.339726973363005953e-03
-7.128843378870288600e-03
-1.602807647503920116e-02
-1.716107324700406889e-02
-3.036193857639464186e-02
-5.356376224939623371e-02
-4.327546546676841466e-02
-1.435862115423383080e-02
-4.904743154915455934e-03
-1.777962170448491811e-03
1.434846446889751371e-03
5.440768975167814894e-03
1.302870452435457571e-02
1.049651842593035504e-02
3.641550831633210122e-03
4.449540944894368570e-03
8.910923241020151167e-03
1.018663905733868842e-02
7.505777713075327887e-03
7.327600432633111713e-03
5.698554450659259682e-03
-6.546848408905339570e-04
-4.036839129032322553e-03
-1.955643864591535375e-04
5.854008968978183236e-03
2.704011812476884904e-03
-1.983973259328202995e-03
-1.107087383720918626e-03
-5.052916663323908132e-03
-6.037778807237041689e-03
-9.436597775468137314e-04
3.055224742230236087e-04
2.963103460962618254e-04
6.560119228154154096e-04
3.586804472079794387e-03
6.190278643741740049e-03
2.078055008778530079e-03
2.836895447259017559e-04
3.761392728257807044e-03
2.727127520232663568e-03
-1.049308311349883690e-03
-9.514322699944211285e-04
-2.715902322216022166e-03
-4.118882854132490355e-03
2.130064464051856926e-03
3.817191847945464005e-03
-1.099448178975966041e-03
-2.239576063283670471e-03
-1.022462410750229209e-03
1.137506914808829534e-03
1.159257996656920097e-03
-3.256346605107349667e-04
1.969560407699350382e-03
1.585529146267264378e-03
-4.291573742376956699e-03
-4.335629392317546203e-03
1.906972241214884923e-03
-2.437003635784870475e-04
-4.129208458894357940e-03
-9.274550179487599808e-04
-1.238890733788191971e-03
2.702696254872149085e-03
8.526321195965674143e-03
8.584077476236726123e-03
6.876939978526813713e-03
-1.497145163995860888e-02
-2.143488365082009059e-02
1.258935997898547043e-02
1.524988802128168959e-02
-8.278696385870506005e-03
-8.407824399205322818e-03
-6.452874552325117870e-03
-1.109141988113693418e-03
8.581288395879826600e-03
2.349006148552087135e-03
-3.562645214073495176e-03
-4.151990391627281753e-04
-1.541032079433023866e-03
-5.259409347141744649e-03
-4.254450458467106191e-03
-4.111732514376307927e-03
-3.643870489223635569e-03
1.636237804088006269e-03
9.435337187968978511e-04
-1.722421084773429183e-03
2.044040123316716653e-03
4.447706600006496799e-03
2.486122753709571215e-03
-1.101619883276730699e-03
8.494459170124851483e-04
1.849991584693651617e-03
-5.190739654004000031e-03
-7.000131383850198737e-03
-4.652459786398987010e-03
-1.003561522602355741e-03
2.843000865626088645e-03
1.121897815045384003e-03
5.795375251008192709e-03
1.351527091573005192e-02
1.235547880378764368e-02
3.127421659257908267e-03
-9.637127838888310052e-03
-8.845567772418266861e-03
2.022261604414607797e-03
9.632343202189166259e-03
1.476520447147871597e-02
1.094814915017176815e-02
5.551268646326381132e-03
4.158216141117308112e-03
-6.499489030688989223e-05
-3.149815827950485769e-03
-4.358411702525095792e-03
-7.767126636133795661e-04
1.290867071254358980e-03
-6.276288917594389019e-03
-8.891863826904811835e-03
-5.487289811154721746e-03
-4.911250799208208978e-03
-8.727592861835973409e-03
-1.253819319326858472e-02
-7.646780978568274746e-03
-4.730732852585810624e-03
-3.795276642478382766e-03
3.239245230529226756e-03
2.049973100200823406e-03
-1.127338384536777935e-03
1.053366420995327816e-03
-2.214374622480215667e-03
-2.723447455471518942e-03
-2.726885132475138137e-03
-7.842455367164798477e-03
-2.935327475340632360e-04
1.244664585348818561e-02
1.028204586756454805e-02
7.306750725104736548e-03
1.383484405732609418e-02
1.339899640127945220e-02
7.248564917985893339e-04
-1.335616600767952807e-02
-1.739462593054418374e-02
-6.983074753643878779e-03
2.436627646189799389e-03
1.604746586438267082e-03
1.540968621339409159e-03
1.753462226034279954e-03
-9.682108861837732290e-04
-3.655109759020915483e-04
1.715334542558303243e-04
-6.264961769970424973e-04
1.319383969252191239e-03
8.185735426337563533e-04
1.303386356108012997e-03
5.922970008629189868e-03
2.284920077267914903e-03
-2.834265786525483940e-03
1.169574478836064597e-03
4.927820842042726635e-03
9.327196996939178184e-03
1.141309311997143819e-02
5.149333641216368926e-03
4.374015060000625323e-03
7.139257642283465544e-03
2.449616954205438568e-03
-3.047220945573594041e-03
-5.250169239333993439e-03
-3.649079955935405437e-03
-4.465224561338267811e-03
-1.304905484272828563e-02
-1.625937809836800613e-02
-1.163278061260296023e-02
-6.850916754163937326e-03
-4.360044168713120825e-04
4.034266924667092788e-03
7.303600680942918741e-03
1.024170426181895098e-02
6.950798220004182626e-03
3.022700833574162079e-03
-5.400757588828575262e-03
-1.942310318039427303e-02
-1.768843731396584767e-02
-6.660723611991794385e-03
-4.162608577182642759e-03
-4.149004208772775842e-04
6.471995665432564437e-03
6.027251074606505832e-03
-4.739327501325930198e-04
-1.564268734506021278e-03
2.772760005818083844e-03
3.302663355077205005e-03
3.069791803515596173e-03
8.014985698943012269e-04
-1.631413753500992898e-03
3.357420877254142007e-03
3.783127377382616754e-03
-3.569837958165747557e-04
-5.017278999726630054e-04
-5.999826822722835809e-04
1.489212286756217687e-03
5.095779683058315572e-03
1.326307709584641746e-02
2.167019007215289367e-02
1.471798951206064639e-02
5.217343146733109324e-03
2.996535027080655250e-03
-7.234832819494969782e-04
-7.241881976486076169e-04
6.973088723139310267e-03
1.149394724374895940e-02
5.630335118196194352e-03
-2.774654422866819348e-03
-1.918211588707093018e-02
-3.795750943398971955e-02
-2.326131524472418999e-02
2.896835695410875967e-03
5.585241407644462794e-03
5.838800054772072187e-03
3.432212431318771087e-03
-8.917199725410633257e-03
-1.936612489636918219e-02
-2.400786437031211112e-02
-1.647975337522985390e-02
-8.822724347220539318e-03
-9.329857903891207102e-03
-1.126542983045756684e-03
1.171690872352239808e-02
1.799930945808631347e-02
2.023983650916822211e-02
1.698143162447658325e-02
1.009976676057907675e-02
5.481868607893043178e-03
3.471765659073008763e-03
4.559898267705243986e-03
6.239673633335948190e-03
3.773919777796952424e-03
1.588774708792067836e-03
1.377614217188066021e-03
1.858672762648948729e-04
7.043170694199037303e-04
1.706223919940070720e-03
-6.364321409028942051e-04
-5.948870204556224589e-03
-8.100523038292756217e-03
-4.988799907715197636e-03
-2.879218862411158774e-03
-1.260339815828444429e-04
1.030963594987745246e-03
-8.516935937753430681e-04
1.567635155850276209e-03
2.826646741066338436e-03
2.526077851440149558e-03
5.543209557572518435e-05
-7.632417161644774670e-03
-4.602464967273283726e-03
6.147296331908681973e-03
7.750151718020217330e-03
3.769553506773233326e-03
1.446860573548150713e-03
-4.838770389894219391e-03
-1.671552638793248613e-02
-1.404568434545832613e-02
-1.722104400589200609e-03
1.115282953796789154e-03
2.679483125627786684e-03
6.962915260719494898e-04
3.217361213533545192e-03
1.175750958423460099e-02
6.810231735029985585e-03
2.869547335191304904e-03
-1.027892080383744321e-02
-3.111007844799200048e-02
-1.766777618600753191e-02
1.625102173315560485e-03
5.234659297544752739e-03
1.166520489601196968e-02
1.195870045757548884e-02
1.433872893880132685e-02
1.875343378047000104e-02
1.356836134065505552e-02
6.827749067739180729e-03
-3.443082956402564870e-03
-8.063694997750753268e-03
-5.110004068713166689e-03
-6.658404880577744114e-03
-2.148976691189131462e-03
3.346698806376716216e-03
1.451960840072469673e-03
2.055794668853817061e-03
-1.734113974094663238e-03
-8.960129094340600273e-03
-7.326283638577515793e-03
-3.354158841445183808e-03
-2.971192672225906554e-03
-5.304584121475970984e-03
-8.708361114640256889e-03
-8.820676766452989134e-03
-5.048611630097638719e-03
4.050139563098932409e-03
1.126231801855894291e-02
7.528584520619312909e-03
3.106012434943157020e-03
1.249232815746730441e-03
5.440357541340345212e-04
4.696773100346190132e-03
3.595290796674175532e-03
-9.823492266552370420e-05
2.403811520797439517e-03
3.449257168484065952e-03
1.892918771165324901e-03
2.063416259493789512e-03
5.698390038006663147e-03
3.885743256067701861e-03
-3.274841406834289471e-03
5.247241034310898234e-04
4.627257154761432040e-03
2.560564910185076162e-03
4.102771500643214450e-04
-7.017492220886239161e-03
-8.339667118130165632e-03
-6.667366324003666002e-03
-6.089238477828325807e-03
1.546528405522904024e-03
-5.237030826023253427e-03
-1.646837063395533568e-02
-8.360016924742041250e-03
1.484086220128662281e-04
2.110465641917108615e-03
8.995824383608499054e-04
-1.311459681213712021e-03
-6.252219458941171790e-04
4.773237760393277801e-05
4.419085521829584431e-03
7.687699599332117883e-03
7.968976243681638247e-03
7.918447779053455760e-03
2.385335718149119745e-03
2.712175271253441087e-04
1.414232154617785881e-03
-8.604472874744905795e-04
-3.531726191536631396e-04
6.069335894493812708e-04
8.571307987291464092e-04
2.696738651092762127e-04
-9.292864857100436703e-04
1.161074659388682115e-03
1.963637722308202247e-03
2.329365242013372358e-03
2.787238277767242409e-03
1.743569830651433856e-03
3.013222448878143285e-03
1.152949069642433648e-03
-4.806426357351430492e-03
-6.930814282168269204e-03
-2.015988223423425402e-03
2.477928636470742331e-03
-3.969062564411586025e-04
-1.029025707895535845e-03
4.156325028407666187e-05
-1.748472062572903503e-03
-1.937445868445419623e-03
-4.702918348186598853e-03
-3.751731014359275390e-03
2.362499390942602619e-03
5.544990803712089578e-03
6.154213315113597933e-03
-9.928642513135441799e-04
-4.083790459227384755e-03
1.627603019001886689e-03
-8.111674939172001161e-04
-2.928327885647062732e-03
-3.501742344886752366e-03
-8.643660941211163753e-03
-6.451607338201509161e-03
-1.434104646970995288e-03
3.801965720797599374e-04
1.457842369265765960e-03
-1.571432455817183688e-04
-1.784060066831228992e-03
6.411115769069201118e-04
6.041270903094805161e-03
5.288827410615821144e-03
7.697768085003285458e-04
1.691318326703615147e-03
3.833296171901265500e-04
2.085346018102652291e-05
5.197709912084272701e-03
1.378902197741569855e-03
-6.837496167215616552e-03
-5.906222822901588052e-03
-3.329410351798350529e-03
-1.755497388346914048e-03
3.849502547805068974e-03
6.624479073978991293e-03
7.199524777621158118e-03
1.249465877483877871e-02
1.542222847399319328e-02
1.213268627618464823e-02
2.377638833448043713e-03
-1.236429666187333423e-02
-1.705144682456111865e-02
-1.146162178528594908e-02
-7.837313760269913263e-03
-2.253893641759997877e-03
4.041362028313965488e-03
4.161869448371143497e-03
3.882743038816968435e-03
4.226373283580449336e-03
3.967111052671577764e-03
5.004320294656737847e-03
1.593527170143134355e-03
3.364453557214349961e-04
5.130648572132437586e-03
1.809408569289697828e-03
-5.027842977275214995e-03
-8.019929198025771422e-03
-5.766360993929998957e-03
-3.987760973375083576e-03
-2.370261035162907204e-02
-3.109397948266174119e-02
-2.805328772532393686e-03
8.723079488568685411e-03
3.322603586450604586e-03
5.461168965056194431e-03
6.021595810566815303e-03
7.900938620856645320e-03
2.354043791541189038e-03
-1.559129225671165159e-03
5.414058394625637961e-03
2.070701617974449269e-03
-3.137123155405912222e-04
2.760989269678131540e-03
1.763339104622196592e-03
3.908317269971079040e-03
2.254175258892738599e-03
4.705240635463383268e-04
4.506985682707694875e-03
5.410749171443221019e-03
2.100603212705945237e-03
9.481030340739096272e-05
2.013399050039448197e-03
-2.613111692443847479e-03
-4.468384944545236888e-03
5.235402546988151933e-03
3.639439616592281095e-03
-3.561726349147743137e-03
-9.021958972622388506e-04
6.085805953725678848e-03
6.899148910241997140e-03
-1.723950474665259707e-03
-8.691658852940140718e-04
-7.592624459333496226e-04
-1.155644292471096415e-02
-9.538373039398112541e-03
-2.405554775451267287e-03
4.389629457435180807e-03
9.755127821764518134e-03
2.745395322318621746e-03
-1.968313719544396198e-04
1.380651542847824952e-03
-8.765296069090457208e-04
-2.247642747784216275e-03
-3.018854310224217477e-03
-4.476893279368452869e-03
-7.091254481346748011e-03
-2.404919756092999833e-04
2.996272585759654668e-03
-1.382631064698026718e-03
2.308557823380027497e-03
-1.953670913283439906e-02
-3.699135590680699415e-02
-4.734909438334545563e-03
1.122573970058841734e-02
4.777226710584352512e-03
1.034205201615822842e-02
8.310932184804012413e-03
8.979196369607353456e-03
1.050591076586132773e-02
1.316117839118578553e-03
-3.499044438817725412e-04
1.643231274557960340e-03
1.598880710919680986e-04
4.807785560177697598e-04
3.378334418929083028e-03
4.635762265893519744e-03
2.572922433048544996e-03
5.337180424205190468e-03
7.440332961454125538e-03
2.355951606807806485e-03
-1.446084159821855661e-03
-9.518036763180653340e-04
6.720451133894882493e-04
-2.639219802096334170e-03
-5.760200040157988956e-03
-1.287577828628055530e-03
5.321908148370769207e-04
-1.027073854383647473e-03
-1.115884321568826618e-03
-4.166876806022116152e-03
-6.096056609539657334e-03
-4.963714011135232640e-03
-4.507557504355564834e-03
-1.991768610949795626e-03
1.476972535579164142e-03
2.105743795381316997e-03
5.270179252148605217e-04
-1.283143067383993828e-03
3.038812765044683422e-05
1.987193818770762940e-03
-2.447210748341614815e-04
-2.106039052655341980e-03
-6.842654252953645812e-05
-2.613050120400295427e-04
-3.309221796072870595e-03
1.912862554924129850e-03
8.736275660035121987e-03
5.444609208625935531e-03
5.152225355686233799e-03
3.251045061155456717e-03
-4.510104034542563277e-03
-4.665245815216411242e-04
9.843001120616507761e-04
-4.751201968465991465e-03
-6.232688743450320520e-03
-1.044210906711332855e-02
-3.395740443479650095e-03
7.059709765018335956e-03
5.378953749173073957e-03
8.919566919464643612e-03
4.256843646353483494e-03
-7.362327500087872262e-03
-3.025677062870193480e-03
1.610410177547813527e-03
4.024298093139075491e-04
-2.129326011540171558e-03
-4.448608479907261229e-03
-1.596350816864335357e-03
7.823350332325836737e-04
2.712095072784259826e-03
1.637406915832920456e-03
-2.007744219390312449e-03
4.975374611918062246e-05
6.227247712711921589e-06
-4.689230957190235888e-03
-5.647053968354181532e-03
-1.180174918869452728e-03
2.873894702009537842e-03
4.481853007567091103e-03
6.573116311614471581e-03
2.351197822887728626e-03
-3.339183213579786577e-03
-1.651966767515725175e-03
1.910727593353427674e-03
6.153022565790031324e-03
4.387893257766209767e-03
1.895053666286183186e-03
4.661603186084293214e-03
-1.362678836567144530e-03
-4.975928984754935704e-03
-3.091620143340501146e-03
-6.817279057548673166e-03
-3.522644488100350191e-03
-3.316617268284164581e-05
-1.350024613938063597e-03
2.866517876670561949e-03
2.427294458463577845e-03
-1.281172426093914619e-03
1.376751110852889211e-03
3.924064015924650164e-03
3.018648884685358035e-03
1.591142428231956656e-03
-3.459662246772702654e-05
-2.652837176527571110e-03
-3.399934963867176467e-03
-4.717421613523994049e-03
-4.839439445006513477e-03
1.574844047126285670e-03
2.960212297078213418e-03
4.288440301937134717e-04
4.266756446334842370e-04
-2.841500025706049110e-03
-1.529635345781449590e-03
2.290130079920666036e-03
4.115205136570448778e-03
5.618709428405819009e-03
-3.033441531047379684e-03
-7.338017629896578103e-03
-1.173864857522563532e-03
-2.660079848574417420e-03
-3.688533029343668036e-03
-7.725176166291643047e-04
1.001632374692869879e-04
8.568503056416838749e-04
-8.770401036775688549e-04
-2.287212470676868738e-04
4.154307536762125836e-04
-1.937974223017107896e-03
-7.105030497063465934e-04
5.956497062387306526e-04
1.642661337499019521e-03
2.661784813028225411e-03
2.280057250156445302e-03
2.004073597942395129e-03
8.270321632848938584e-04
2.819134027334679275e-03
3.205331693525974562e-03
3.850712862360629145e-03
9.693585980843915859e-03
5.381119196816093984e-03
-4.846958207473456228e-04
1.263094541069244943e-04
-2.276983961893763210e-03
1.107059923824919422e-03
1.707171321983172712e-03
-2.917521991531632584e-03
-8.737653419665927725e-05
-4.740861177203480915e-06
-6.477068660231152623e-04
1.020301025166906687e-03
1.334596601102298972e-03
1.875937074022771250e-03
-1.240695622021704102e-03
-3.839452048222782680e-03
-1.863001912423281267e-02
-3.454748825735404205e-02
-1.435790310053646109e-02
7.608030052117906346e-03
6.350542928253976108e-03
5.632784213151835646e-03
3.266398019078921387e-03
3.208626996711222250e-03
4.187191006207864781e-03
-9.831858176598626958e-04
-2.697606708764268592e-04
3.798803829321412254e-05
3.692975525455471702e-04
6.231809960554350949e-03
6.530894593437534118e-03
6.391171290328821926e-03
7.285526066978153560e-03
3.383333003546252354e-03
2.249202166677069775e-03
2.658308355782299306e-03
-7.183949332933819423e-04
-2.471058033784116932e-03
-7.867149640784428270e-04
2.461439153060115308e-04
-8.733818371647461955e-05
-2.031425725014568244e-03
-1.922685347588216388e-03
2.724254111027553642e-03
3.477809193257508629e-03
-4.489427261126812925e-04
-4.329754276630431997e-03
-5.744763423906476714e-03
-1.481101335353385545e-03
1.271231532085505484e-03
9.458547180927921391e-04
9.420568139546610853e-04
-5.855876515178174953e-04
3.820300113962923298e-04
6.276699240359475546e-04
-1.133355398057623491e-03
-1.031702133192124440e-03
-2.755039271433896552e-03
-2.633501230919996564e-03
-5.922002491188172379e-04
-1.225927506746257506e-03
-1.185295137442192448e-03
5.354505379648843684e-04
4.927690188679343395e-04
-2.157024193587795541e-03
-1.276696292500210592e-03
-1.436393879266182217e-03
-5.400987427747488794e-03
-4.897019692978721132e-03
-7.839780060228274811e-03
-4.926549783937668806e-03
7.142678832378141635e-03
3.872699826917860421e-03
1.235366881280884318e-03
6.072001620525247986e-03
2.351515656362711346e-03
3.692051953957214885e-03
5.873009482531144597e-03
2.646495667333594645e-03
1.965617888543622158e-03
6.095626486304824574e-06
8.994437169504542872e-04
2.197339068061274475e-03
-3.604915986674806080e-05
5.196378502640311512e-04
1.989479951541686751e-03
2.366866247775970336e-03
-1.788198402149630245e-05
-1.360945487148741391e-03
1.020998869786976965e-04
1.824145925674864992e-04
2.330339670274085648e-03
8.620931607092304026e-04
-3.031726971565333606e-03
-1.983500760921857661e-03
-4.147693564530327906e-03
-6.756787260495663444e-03
-4.861588395779429216e-03
-9.603290653665445343e-04
2.480126656782210247e-03
1.504676991247366237e-03
1.291009807182369852e-03
1.802914965790381342e-03
1.226384526385788541e-03
-1.740510425740824881e-04
-4.816806697251557572e-03
-3.766029203066960547e-03
-6.441646430405032452e-04
-4.197306259137222138e-04
2.905077456709404937e-03
2.068058027621563245e-03
9.969709406029568684e-04
2.137004323144747362e-04
-6.645949675457575243e-03
-7.721883963244244482e-03
-6.324869911490106807e-03
-4.976936996546938233e-03
7.630980016387449438e-04
2.379878563219977369e-03
4.045999300676073225e-03
6.435529284201344478e-03
6.623237593795630422e-03
7.688648969438095955e-03
3.005644333753993216e-03
2.806711548077564814e-04
4.701131656161003890e-03
4.190770864720056756e-03
2.568482373866798709e-04
-1.681517748090227129e-03
-1.317892938951416434e-04
1.654528051385280307e-03
-9.778467379964726237e-04
-1.496207600882932436e-03
3.427041546274785092e-04
-1.585071838114680484e-03
-4.272210908753209212e-03
-2.082452425673442069e-03
8.396584444616127674e-04
-8.586815509318483468e-04
7.632261335139120442e-04
1.634087869228216744e-03
-5.101771010079737996e-03
-6.241154994927993784e-03
-4.553974724579166328e-03
-3.976794408569355940e-03
2.159480380136864774e-03
2.413733311430871047e-03
-1.256479894747593740e-03
2.416182287531396054e-03
4.949279284259628861e-03
3.357750956466589148e-03
2.013152317210780036e-03
1.103840909458848971e-03
1.209894742331825120e-04
-8.672267843266554021e-04
-1.355668467939469268e-03
-1.394093220581740051e-03
3.901832758251208284e-04
1.084767193774436754e-03
-7.927695294643416989e-05
1.065344544192057706e-03
3.209252532870815293e-04
-1.599392100968279355e-03
-1.376733213234923418e-03
-4.109385180116951856e-03
-6.295681314079301649e-03
-3.975061398028160130e-03
-1.112348490499659101e-03
2.191534197694809932e-03
5.565845448209445941e-03
6.873982904829359711e-03
6.077841455384613324e-03
2.904492949648480784e-03
-3.402393778013390775e-03
-7.562924631269729581e-03
-4.333945989279868599e-03
3.112800882373711192e-04
2.120454978646716965e-03
1.712812241138016644e-03
7.129874283646065857e-04
2.736258948191674575e-03
4.226006011445569352e-03
3.250632743419878436e-03
1.515672839441508084e-03
-7.454425821935681176e-04
-1.849239254745402967e-04
-2.018425865372582662e-05
-2.026861761839440952e-03
-3.011388428327571153e-03
-3.666349388923182458e-03
-2.177286015035210121e-03
-3.559552831744574371e-03
-6.309377704772505674e-03
-1.638739789422557873e-03
-2.204007106525920478e-03
-7.726059972145394965e-03
-2.444994259004168620e-03
3.684527685431628497e-03
2.905525171909487461e-03
3.448200428968253503e-03
4.614405873820288072e-03
3.601640896261888193e-03
3.187083703590561957e-03
3.076445129275677103e-03
2.876464868982880462e-03
3.632663088841884321e-03
2.647112656435246514e-03
1.460204495409685600e-03
2.211462691900881617e-03
2.169968191283762685e-03
2.215970686232587947e-03
1.494052207242676849e-03
1.078354382394582263e-03
6.385974614223407370e-04
-3.824756329653492774e-03
-4.650251512814271293e-03
-2.925062630096881763e-03
-2.269370434021075907e-04
8.347963799806014731e-03
5.491098679188407584e-03
-3.063059364775487080e-03
-4.904089971161112831e-03
-2.215540641571804581e-02
-3.172081463079106517e-02
-8.207199682512213504e-03
5.504396817382300675e-03
1.816573293313990213e-03
6.379717721196199141e-03
5.613515772667195328e-03
5.002140687423518904e-04
5.287858812090155854e-03
6.916541435831366665e-03
5.014049655796448852e-03
6.499940574608429472e-03
4.312174379095611021e-03
5.567015451761535109e-04
-1.643105316457910180e-03
3.823978929607095307e-04
5.797089253223431868e-03
5.608364411340482740e-03
5.039042288514982391e-03
3.501703734077337218e-03
-1.394284295534888420e-03
2.014538394889515364e-04
1.137485917825562009e-03
-6.722916224433600832e-04
-3.023719773292709613e-03
-8.337004180941980439e-03
-4.196403259900044654e-03
-1.960297747894507669e-04
-4.418944212473379339e-03
-2.391020124005830989e-03
-2.632632355271285682e-03
-4.856874479078818023e-03
-1.441920825075860950e-04
1.482778696191490225e-03
1.097931265218216436e-03
1.065676998609285967e-03
6.967388952699175766e-04
3.100789833997734217e-03
3.405572797081967643e-03
2.354958725073584818e-03
1.912209389930685181e-03
-2.430173713487930511e-03
-6.882118603389305971e-03
-6.409097875993794748e-03
-6.797075695769858039e-03
-7.879110689753851191e-03
-1.915369871846676550e-03
2.795078487945389274e-03
1.547477367541470576e-03
2.562222520133366783e-03
4.031766234181968951e-03
5.873753266201142513e-03
5.133247683465050684e-03
1.787983802028695994e-04
3.130327972390717448e-03
8.522846563980250242e-03
9.952114415538847875e-03
1.118078281080883002e-02
4.983830250095435538e-03
-6.613225549374655496e-04
9.561877452720100650e-04
-2.720275364674499229e-03
-7.571884731884823659e-03
-6.148909943787145803e-03
-4.386030161359752780e-03
-5.261190459337426392e-03
-7.413983853451194123e-03
-4.586381582043585689e-03
4.751735476227681408e-03
7.000294447579512302e-03
