-8.215518138933657760e-03
-2.991860197142785435e-03
5.069445646810702769e-03
1.470880067491519422e-02
2.590354858917414890e-02
2.602066735286921728e-02
2.803593020655490223e-02
3.063731556760087085e-02
2.320451619004404095e-02
1.265326545376135869e-02
-5.993861882723493760e-03
-2.201120105552366660e-02
-2.449066297799049399e-02
-2.871232585498272386e-02
-3.230887490928453093e-02
-3.305219519127357980e-02
-3.648342462731672675e-02
-2.909552208945054980e-02
-1.123888893634964609e-02
-2.038269394977366023e-03
-1.277609145819231986e-03
1.468041823722070595e-03
2.402191109460627329e-03
3.487869954423461483e-03
1.231743339746511554e-02
2.039900714107037091e-02
2.250833231349522179e-02
1.869657778048268784e-02
1.245428792665279234e-02
1.177196735142894621e-02
4.502523131162461563e-03
-9.336448890609614498e-03
-1.357786647850251806e-02
-1.456795083654094554e-02
-1.383370422525676685e-02
-1.119870818220079084e-02
-1.157803096623317811e-02
-6.566197434257253600e-03
1.117973096306083304e-03
4.412942585994416612e-03
5.096540431154237411e-03
5.389821012216778305e-03
4.709027074487943769e-03
-3.028085110749105871e-04
1.923541953225554879e-03
8.944585050966041839e-03
7.747075293383635930e-03
1.211152134409196682e-02
1.318846776065828001e-02
2.750842966734467522e-03
1.196935458257998054e-03
-3.970083671640648598e-03
-1.311445552696046020e-02
-6.471612546462707401e-03
-2.816246898514511605e-03
-4.733561477751797170e-03
1.177756504673920781e-03
1.953865827100218985e-03
1.922937751041366031e-03
8.904092020441045294e-03
7.288673908591200394e-03
2.131342515641004767e-03
1.296043256669803662e-03
-3.665222043491793164e-03
-3.556544412669384800e-03
2.082037641915328308e-03
1.917180648433631542e-03
2.445230568189255037e-04
-1.691981859037100305e-03
-1.923999063609424173e-03
-2.378967663242283204e-03
-3.134334957804302789e-03
-2.120222987925262812e-04
-6.689954513543084486e-03
-8.117557978827218135e-03
2.555245755168910737e-03
1.821233534128949630e-03
3.893109706347617615e-03
6.098021669446704145e-03
4.283338039405667347e-03
7.839918981642737122e-03
-1.850758311588240196e-02
-4.068801683486490683e-02
-1.542702343719638131e-02
2.054755559697719284e-03
3.274697219749797810e-03
8.429605231511504149e-03
8.031399984158370947e-03
9.157109962978849521e-03
7.019331079191979544e-03
1.585697050093820212e-03
3.476880044263901581e-04
6.942702406822690150e-04
3.041003881043263975e-03
8.168456005903169167e-04
3.427918196952759074e-04
4.722719291397015247e-03
5.631273424474729679e-03
8.880645585748045065e-03
1.017331145534918456e-02
6.133906734242705432e-03
-1.082571795775240028e-03
-1.084907706866650341e-02
-1.128469794715283858e-02
-7.610246177125070885e-03
-6.169205404223676754e-03
1.363824814623835428e-03
7.752452623940661244e-03
6.025260788421599005e-03
2.225094424161917772e-03
1.181235952361643637e-03
1.318972125186200126e-04
-2.333986116111724969e-03
-2.738367321169360002e-03
-3.448570516555823917e-03
-4.810789277840401071e-03
-4.070537133652419801e-03
5.429142618962981863e-04
4.796201423986351173e-03
3.095083878585013545e-03
4.942708689710440320e-03
4.846650302848419176e-03
-5.344331682560750016e-03
-8.434887854288388581e-03
-5.595931851434958297e-03
-3.841489096732539528e-03
4.089421020539281090e-04
1.807173315662707804e-03
8.005109757505100582e-04
8.415718278976458888e-04
3.113489607928629412e-03
1.290448140623694142e-03
-3.204969235251976974e-03
3.369141444447015950e-04
-5.763572190213500993e-03
-1.411657976636485762e-02
-2.921819898402573234e-03
3.919724521971063025e-03
8.415034905004220925e-03
1.659943800409540565e-02
9.809699740024373227e-03
2.717296997004449606e-03
-2.254728539467086134e-03
-9.997257237286616416e-03
-7.058297344886242664e-03
-3.650390306201060919e-03
-3.539653438704384696e-03
1.072817260890867718e-03
4.571918882159118659e-03
4.752657560351487842e-03
2.396782212030847820e-03
-8.397051425040066939e-04
-3.155951661077332354e-03
-1.848729609086834482e-03
5.505587137679336836e-04
-4.680305151879816071e-04
2.812941420855695138e-03
5.720541766738831274e-03
4.427619903045844525e-03
7.132051684968109505e-03
4.384010605044626196e-03
-2.113403053709363155e-03
-4.579587309255160089e-03
-9.660497155577867090e-03
-9.425120658328373091e-03
-3.491652572605327774e-03
-1.936194364632741775e-03
1.389118021213824701e-03
6.167704376777747438e-03
4.715011953467203483e-03
4.954651726101480178e-04
-2.551120897436310198e-03
-5.130090227003466716e-03
-3.742191382839536729e-03
9.365694348908186126e-04
2.591513380665100286e-03
2.927977234784987469e-03
2.305978844238147033e-03
1.379998418818450742e-03
3.845224351057502463e-03
4.447585023674519369e-03
1.351176966149540085e-03
-4.803848094917455291e-03
-9.576742438883002057e-03
-5.914287079572200234e-03
-3.414773247474796151e-03
-2.506160242069675401e-03
1.630822811392259675e-03
8.574958651248309333e-04
6.468450896386418372e-04
1.701629423691639574e-03
-1.316475367613134922e-03
-1.414396851460775206e-03
-1.204070548731208485e-03
-1.735358458634471976e-03
1.682692354808215749e-03
4.459834175497410201e-03
2.757787953490505994e-03
8.233162031635416975e-04
5.649065985890482956e-03
8.372304608092238573e-03
2.648284411950999236e-03
1.254220850208027146e-03
1.183844616868074285e-03
-3.007352968564337703e-03
-4.129819323996727735e-03
-3.854794348979865767e-03
-2.085917602794018760e-03
-6.792199584876345338e-04
-2.340547673480734836e-03
-2.091380942930516542e-04
-1.794344899189989411e-04
-4.307575730419709210e-03
-1.631283142298656230e-03
1.197546033208243300e-03
5.546867065159835023e-04
3.041534541971202543e-03
2.298611732095294860e-03
-2.767518673765589714e-04
2.707682014936420908e-03
5.400558449036610593e-03
3.710270044555692790e-03
-2.193240805390001599e-03
-6.400040964845900293e-03
-3.653077505794536262e-03
-3.499585962230657935e-03
-3.910677144105896043e-03
1.940093850057008447e-03
4.245228463704449166e-03
3.749893592318953237e-03
2.718879065090631670e-03
-1.441272125481735849e-03
-2.512586711292113129e-03
-2.907903215485628783e-03
-3.605735119081355123e-03
-2.167148640711241692e-03
-2.990088504622609011e-03
-1.388040623992367216e-03
2.826672119285248471e-03
2.775767543480421422e-03
-7.233322298289661129e-04
-4.001429809263724532e-03
-1.500917616568979299e-03
3.793156481206453375e-04
-3.975008701881911459e-03
-2.577429966350526947e-03
2.118943648417773336e-03
2.520576103926596562e-03
6.214236291166983471e-03
1.038582269139795219e-02
5.718417563049717038e-03
-3.146813751407840070e-03
-4.465824620800455495e-03
6.357259862180837228e-04
5.422896153679983636e-04
-2.576989098085725322e-03
-2.538177565746415829e-03
-7.045400269507210876e-04
2.624820103107037596e-03
3.390414523442368024e-03
3.312040932507050780e-03
4.917999104388131974e-03
-3.427636083632355996e-04
-8.022585570403971064e-03
-8.363203485558195691e-03
-4.647083407938732043e-03
-7.476847152327044214e-04
2.351669349035813948e-03
5.425301755668691245e-03
4.716510587466366498e-03
1.669198497682526910e-03
2.490452548288689828e-03
-1.006358472697645081e-03
-5.182790779219617269e-03
-3.407172355453126980e-03
-2.410282780297156452e-03
3.216540271929489714e-03
6.184723796362175466e-03
3.179016764185423494e-03
8.649727391553696867e-03
1.241377830592125912e-02
1.064531653317096413e-02
4.347627108995891915e-03
-6.903317496653859492e-03
-1.095899942693198334e-02
-2.610113083758804423e-02
-4.093232149821870308e-02
-1.796895066236011210e-02
6.293264135325383514e-03
8.140127667743893639e-03
1.114454032051587738e-02
1.027973370779391993e-02
2.410949232120495906e-03
-7.891779166569797693e-04
2.079662663404869584e-03
3.829934573228046743e-03
2.076368170880670602e-03
3.424002309017365724e-03
5.940093592666724313e-03
9.636504512580598356e-03
1.205367977020433377e-02
4.624935702110435053e-03
-2.275683444982544001e-03
-3.754710793886777576e-03
-4.879220862728486825e-03
-3.678822612500058913e-03
-2.006764497538851121e-03
1.028962976313707632e-03
1.046779965025837521e-03
-3.777928002177640288e-03
-4.035184611966943953e-03
-4.538743097528171767e-03
-4.422826790554800803e-03
1.406385482947792665e-03
1.800449982702050349e-03
-5.885546866931693714e-04
-2.787932355394305149e-04
-1.358971992390398641e-03
4.030787405077090988e-04
4.322915891515406728e-03
6.948126322834146350e-03
6.505239738530921648e-03
8.723375386051846966e-04
-4.769421117951801355e-03
-8.214176023605487473e-03
-5.576963161204906948e-03
2.600415055239454088e-03
6.063444926503650141e-03
7.854308195064900813e-03
6.810530160576144798e-03
1.997119677145858807e-03
1.975530136006871428e-04
-5.426902196040963786e-03
-5.720078555165898464e-03
-2.055110677973127041e-04
-7.790411419957758796e-04
6.691131166447744812e-03
-3.417612298457563778e-03
-3.227501524201038807e-02
-1.975413540055767983e-02
5.602897732343493920e-03
6.604983526941986607e-03
8.756452142085577317e-03
2.398467183551775388e-03
-5.401305644577262567e-03
-6.632403484253212005e-04
2.555461349393705456e-04
5.099580661881871618e-03
7.886408630999661509e-03
4.369855737067235985e-03
5.734147757473720235e-03
-7.010962241781596620e-04
-4.698166141302600844e-03
1.438273301289975286e-03
1.753082289510038763e-03
3.594948563442963013e-03
6.479382216945434383e-03
5.164346961614866074e-03
5.146345686711317237e-03
4.132596641259062009e-03
4.276697376555830231e-03
1.183205648940829783e-03
-4.989194330046066612e-03
-6.440666446625370641e-03
-1.055434721219962284e-02
-1.194862571574871815e-02
-7.626901714374723605e-03
-5.198763565763793795e-03
3.471641606465191571e-03
8.216715659113508000e-03
2.885884976172482927e-04
-3.020743884464636726e-03
-6.847467476534785900e-04
6.396794932748395800e-04
-8.296487705086858216e-04
-2.380465991410194403e-03
2.183376951737675976e-03
3.190265300047269870e-03
8.586090064824016162e-04
5.046578577284293633e-03
8.746706274139615447e-03
7.769003594502567854e-03
2.162804677241971104e-04
-9.011418460268533562e-03
-6.265606212517184359e-03
-1.199531138237916982e-03
-4.110122603027200130e-03
-2.899625825943827947e-03
3.274812718816901176e-03
2.625526598676844632e-03
-1.351592248360634777e-03
-1.281528559867716084e-03
-2.802784284695382291e-03
-3.486057765624070957e-03
1.554188637956917078e-03
1.367106037787193173e-03
-1.366205309800974481e-03
1.493581765355301173e-03
7.583384686717743522e-04
1.460563960779857375e-03
8.585280941012343389e-03
5.657111934802346032e-03
-3.507523696555930361e-03
-4.337161662429245106e-03
-3.689729681334831101e-03
-4.474685459181423734e-03
-3.060048010970037920e-03
-1.409087064391986374e-03
1.542030028263392718e-03
4.293059132609878051e-03
3.197540857766344950e-03
-5.230912211215716246e-04
-2.709871493163183015e-03
-2.926462422677584239e-03
-4.771312256775884185e-03
-3.053868512520024631e-03
1.816879828269192792e-03
1.455229210896155732e-03
2.889747598550009705e-03
8.081948046810581709e-03
9.619955743601405623e-03
6.390501508917091449e-03
-1.481060275201990292e-03
-5.130953290243983091e-03
-3.445663159186647222e-03
-3.721441298123791524e-03
-1.017837555025908648e-03
1.305331276700096499e-03
3.363652734360831655e-04
1.911881171329548679e-03
1.134461436162483754e-03
-1.716574595407862345e-03
-2.853805001274750328e-03
-2.719567625782748962e-03
3.419611099993953357e-04
1.469120471173632528e-04
-2.750777947852572295e-03
-4.255007296391963810e-04
1.507607655748196412e-03
1.983051566557965471e-03
5.123006152369669226e-03
5.191129505982265691e-03
7.451279572344909419e-04
-5.098995702778796359e-03
-9.604677790365345053e-03
-8.007695079481156469e-03
-4.154864806110854583e-03
-1.353949808749448612e-03
5.914069534487540261e-03
9.730400893811984656e-03
2.545597716469926060e-03
-2.509808648784815025e-03
-1.900555888458780240e-03
-2.451691355091411770e-03
-2.391403524321399077e-03
-2.051410409840716959e-03
-7.360749899979312626e-04
2.393755903909897467e-03
4.826376599635197676e-03
6.705563019703518653e-03
5.938111539289878636e-03
4.518951666991724223e-03
9.839860972844444512e-04
-7.450784686804337587e-03
-1.037524944645068503e-02
-9.926541422317648397e-03
-7.556991257003798333e-03
9.511543433275010395e-04
2.153335146342123894e-03
2.251112779576759908e-03
6.883636116042096340e-03
2.427811470339610346e-03
1.222078288763240672e-04
4.387794335156580856e-03
6.075165834831397146e-03
7.524135737145272278e-03
6.409473177661259569e-03
2.545913549071630519e-03
-1.902882617930148077e-03
-6.026148321957372489e-04
4.714112024425247752e-03
2.665085673300798125e-03
4.631676887512735765e-04
-6.836288850255257954e-03
-1.611710394276385030e-02
-7.356474092870280909e-03
9.657408565257978583e-04
4.619573419179011896e-03
1.046487507527175086e-02
5.922073066409767363e-03
-2.700666233293237597e-03
-2.147602487180508279e-02
-3.238983845671949968e-02
-8.403082313056550387e-03
4.199537424063431654e-03
-1.797337415856412220e-03
7.903293262617690218e-03
1.232506132046763334e-02
7.552291119405022367e-03
7.993626859165202728e-03
5.769854027313759369e-03
3.536511377864773320e-03
2.701984122166645880e-03
-2.162828572492612555e-04
-2.614426571870524449e-03
-5.148792556177980533e-03
-4.715941141901654893e-03
2.055518398400328888e-03
6.997236737246627022e-03
6.860920178853376072e-03
8.685384921149976595e-03
5.630713232796356708e-03
-4.703621477450818308e-03
-4.963746811662172152e-03
-8.556860704143900639e-04
-4.272689611226047728e-03
-2.577246854551407985e-03
4.450026489635878438e-04
-1.602823320664506414e-03
2.924394759426482936e-03
4.152279516481282261e-03
-2.921980092728100175e-03
-2.611237180903079602e-03
-2.511259938725193125e-03
-8.355522472796491837e-03
-8.645830019383305906e-03
-2.777649059985765577e-03
5.666190093041624520e-03
6.277583224439306324e-03
-2.211635109506484599e-03
-1.957778889734301288e-03
2.469869585562280492e-03
-5.968825945155086226e-04
-1.722417179617948511e-03
1.151632528772810566e-03
9.241438822976695945e-04
1.471829061302000604e-03
4.758776671693893366e-03
2.568289691728944165e-03
-6.445975446961522319e-04
3.099268211301286439e-03
7.140177710210544176e-03
6.262579946394486972e-03
-4.144194541975851701e-03
-1.500809372981569238e-02
-1.012101064301027149e-02
-3.341776847815907617e-03
-2.048937541014594042e-03
2.308993079676533670e-03
4.002196140081193572e-03
3.493340602458041080e-03
2.827171510111204430e-03
-8.054012399309279585e-05
-2.032346591291653206e-03
-4.175730305978297930e-04
5.615990116683743788e-03
6.076412255274851390e-03
-2.657706178934111582e-04
-2.287675644157073467e-03
-8.424470915738193483e-04
2.952021336324549793e-03
4.223895255520638582e-03
1.817701030984631870e-03
1.285245702650222258e-03
-5.850196434836202851e-03
-1.171722944644995427e-02
-5.863849904618106956e-03
-4.996688314392646463e-04
3.699143273022138106e-03
4.452447663229529458e-03
-8.199614605941012895e-04
-1.632115920982384061e-03
-3.106905767662113647e-03
-6.238482222889016326e-03
-2.219849389420848300e-03
6.506545820453152329e-04
-4.111735004524199851e-04
2.225636416243148043e-03
3.925772286808049648e-03
3.084507051518119852e-03
7.487956731842388379e-03
9.120948509608236068e-03
1.356380707459749983e-03
-3.493538409825514696e-03
-3.948273668742583419e-03
-3.974490515256152642e-03
-1.710880557444954255e-03
9.814774472741091566e-04
4.878737461880148889e-03
6.144944882221224300e-03
4.227226921117223021e-03
1.846347498230207877e-03
-7.168263455302631773e-03
-1.153656491910677769e-02
-3.087614089569286260e-03
2.292354727542130627e-03
1.438919144166682590e-03
1.038806301458087200e-03
2.968872404328037635e-03
3.988292148246085599e-03
1.676066379055027528e-03
1.579506068734092689e-03
-2.347352181166654302e-04
-5.212031294286091805e-03
-6.081438012543883241e-03
-7.763944059252732982e-03
-9.470233033663635891e-03
-3.295968545815373182e-03
4.644413030268963564e-03
5.600242403483299790e-03
2.167365777304920606e-03
-3.826381651634896876e-04
-2.464483587362066921e-03
-1.614414170034183995e-03
1.748350772722136680e-04
-3.025169009635654983e-03
-1.784033917460840996e-03
5.576544544535808924e-03
6.166198612468492060e-03
4.749280341300106054e-03
9.172512352398295293e-03
9.072102594717759705e-03
2.122969650345080898e-03
-1.346386883408169947e-03
-3.449389670639008924e-03
-6.500342023986050224e-03
-5.081077119421873248e-03
-1.029860215854733457e-03
2.829818910757980321e-03
2.242492813187867747e-03
-1.274875678043884027e-03
-9.644103060833174009e-04
-1.972365046855277700e-03
-1.136344318372629544e-03
1.334026891285884382e-03
-3.202764473620920566e-03
-2.099106922866439406e-03
2.472309057057295745e-03
-1.577585599146500914e-03
-2.065226453181002141e-03
3.006485955690573267e-03
5.399722682706839007e-03
3.972505193229263626e-03
2.240811638727375349e-05
-5.197299257628342981e-03
-1.172885179868946894e-02
-9.223846059646054543e-03
8.168076203754198869e-04
4.025278606723655880e-03
5.895232810818253066e-03
6.671093899353519943e-03
1.412917068678734220e-03
-1.099197417026043580e-03
-9.001927817954216574e-04
-2.469661928527929189e-04
8.048231584031044104e-05
-2.534903816076935872e-03
-2.217219675401562243e-03
-1.455624431210369746e-04
1.460191933248782730e-03
7.274654261219841954e-03
8.894508225656242578e-03
1.910591067110596489e-03
-5.009777432110774226e-03
-9.718019447787096948e-03
-1.054393351799723030e-02
-7.599835226838673810e-03
-3.987164293480793126e-03
5.654474635577260138e-04
1.611540938790387723e-03
1.289452512813800932e-03
2.385144068230040174e-03
-1.009738961900602614e-03
-2.141820352771577150e-03
9.338278839480164840e-04
2.643551054782350591e-03
6.207150663781646656e-03
6.549086032454127897e-03
4.295106991438041831e-03
5.455866282900147073e-03
7.990248421654733840e-03
1.124278234639122277e-02
7.824326387526003845e-03
8.081529667348507241e-04
-4.250174927313683099e-03
-1.165632590843380598e-02
-9.193777557939035450e-03
-6.330134464954579893e-04
1.290809781385332490e-03
2.620579915774716526e-03
1.816759654119736822e-04
-1.503537971202230502e-03
-7.562774636515072393e-04
-2.717390584638184302e-03
-1.376592107094978552e-03
-3.453611495115361998e-03
2.479303286370380076e-03
6.411258460387355383e-03
-2.375227333290652956e-02
-3.253537968056977731e-02
1.847382839648147078e-03
1.434637973928853602e-02
6.021192738285475153e-03
1.778574813534440982e-04
-5.257482794304331464e-03
-1.626233078113287038e-03
9.437516998886262727e-04
1.104034565198831687e-04
5.373013038727361863e-03
7.301775942387714671e-03
6.736180657075402367e-03
7.214478845177780923e-03
1.539918095669121426e-03
-3.190608676978720637e-03
2.023091341680273458e-04
2.964466517944549899e-03
3.604914794114801556e-03
5.241726793642758654e-03
4.539587126650607846e-03
4.230850671126220111e-03
2.437605500271160675e-03
-2.827019239300926357e-03
-8.319785256456341520e-04
2.200992025332435507e-03
-5.185648468982874404e-03
-1.001903471822846066e-02
-5.964238056957719102e-03
-2.709401164636345959e-03
1.802732072689556609e-04
2.719182571612100210e-03
-3.886034334987359916e-04
-2.953051745843279438e-03
-4.165023171066799951e-03
-7.033232631043939698e-03
-2.507567858323997423e-03
5.446659619524071329e-03
6.962030966272556021e-03
3.442012519703269505e-03
-1.223905234997110271e-03
1.298476719303729441e-03
5.964554385828254278e-03
5.395702702918024618e-03
6.775584367161293850e-03
4.059462318622047809e-03
-4.644615191377297198e-03
-9.456570493307772315e-03
-1.182234313272375985e-02
-9.287050057352634613e-03
-1.550097096889768407e-03
1.116301164672109814e-03
-2.443459128010701253e-03
-3.419745957395027482e-03
-7.499069038353846275e-05
5.150588294475097950e-04
2.142480782779762442e-03
3.721993591045469774e-03
-2.670350335502231186e-03
-2.452894211961778592e-03
3.307615367819434927e-03
2.295252718525620742e-03
7.367971919449226893e-03
1.124267518061586139e-02
4.108010246077114028e-03
1.446748526780223046e-03
1.022216033040242254e-03
-1.286600457078087342e-03
-2.484694870760203490e-03
-5.640751182826456503e-03
-2.757155422744844622e-03
3.949234423995781444e-03
5.154624116948610529e-03
3.279815238354715466e-03
-4.154163948512162689e-03
-9.104668528343009756e-03
-3.401126857364478000e-03
1.424766425789435881e-03
4.382563633156271246e-03
5.877586942831211289e-03
-3.138288514203850868e-04
-4.882949057052043788e-03
-1.191075005131125766e-03
1.653443427125447741e-03
-8.079656523018400455e-04
-1.128854431287855571e-03
-2.553881841944150282e-03
-1.007651416134327203e-02
-7.380074340989133987e-03
1.183366406878088879e-03
6.994734845377472083e-04
4.806163960873564324e-03
9.004901229192972811e-03
4.450830500107248386e-03
3.053256806162306901e-03
-1.713260487272397648e-03
-6.569838415870240741e-03
-1.008787307479582299e-05
3.062775353594125120e-03
1.448309861355361224e-03
2.846540643871544023e-03
1.087245670053132692e-03
1.762024685607808646e-03
6.657369322610991527e-03
5.328349376686037850e-03
2.376956052670587023e-04
-5.839216339136947195e-03
-1.122675672606837476e-02
-7.563487491698644288e-03
-2.019171589196491669e-03
-6.674457661701663908e-04
3.470378220252696381e-03
4.671416461512234962e-03
1.074996669386867922e-03
-1.546834088039776393e-03
-5.611183233584457822e-03
-6.272336510769557609e-03
-2.109662026055798573e-03
6.243724458941518878e-04
7.798532744336313669e-04
-1.476504367573426568e-03
1.656348569343062257e-03
8.653735080482161807e-03
8.487583140786150032e-03
6.704315768834960727e-03
2.401397443529398098e-03
-7.396703194852041752e-03
-9.536435950323359292e-03
-5.803039341470057379e-03
-5.718278619110529586e-03
-5.276750420729799280e-03
-1.681348972325824717e-03
1.999048069089920214e-03
4.428808839811572504e-04
-4.951611131669701044e-03
-5.497332323281854151e-03
-1.208081866597731898e-03
2.291012817158528166e-03
3.467464901757546635e-03
5.080250042991344556e-03
8.821625197513780978e-03
1.031390819022591672e-02
1.076102742873545452e-02
1.463491331675199209e-02
1.538360798792035890e-02
1.058403974200309086e-02
5.263496704620649475e-03
2.837800248263118745e-04
-8.059507285348927255e-04
-1.144543056452484758e-04
-2.707915359737243875e-03
-1.988799375268124163e-03
2.062713103787334502e-03
-1.291404165114151475e-04
-7.349444526619557973e-03
-1.003170450114976991e-02
-8.547176410923468942e-03
-1.195776602353757802e-02
-1.571623334411704695e-02
-1.405857468829009929e-02
-1.519336641184924896e-02
-1.540731842927809195e-02
-1.010931169567792602e-02
-8.680439368142597867e-03
-8.041160816039756923e-03
-2.542528790537853123e-03
3.030411026381363022e-03
4.831366306904645060e-03
3.088429100192924444e-03
8.241867920206676426e-03
1.998315863044015581e-02
2.174944975026203015e-02
1.533818153228408074e-02
9.251063568508069088e-03
5.076645133107370901e-03
5.531231640245718589e-03
6.595097761614683932e-03
8.437410242798809926e-03
1.328241210245751508e-02
1.592132345761107515e-02
1.577705194144232020e-02
1.599869691595390275e-02
1.930240477285461928e-02
1.992205947499790797e-02
1.206529842292010206e-02
1.600131722530129773e-03
-1.142023678720941599e-02
-2.291012524039896109e-02
-2.752948939778613463e-02
-2.988474039451285980e-02
-2.550979209288234406e-02
-2.012848696473134094e-02
-1.977379972577146539e-02
-1.485550036443382058e-02
-1.032963523801645744e-02
-7.361698991016822277e-03
-3.772406139028188551e-03
2.386102623238449318e-04
1.161657835499795184e-02
1.878419179830845970e-02
1.991190560342493560e-02
1.629046147595161753e-02
3.246219471434314170e-03
-7.384852408501177239e-04
-1.056325378544100031e-02
-2.425289202248760018e-02
-1.098984827158322117e-02
-8.571124898925397070e-03
-2.050170939598545267e-02
-1.563863257187139352e-02
-7.918590052304677607e-03
6.457604652113568475e-03
1.530561993012746758e-02
1.338738609988413680e-02
1.753294918569408764e-02
7.103747257552670696e-03
3.404189996878567281e-03
2.005074266770971031e-02
2.143706772055831503e-02
2.017189761246500693e-02
1.870615911193082917e-02
4.235506537462354996e-03
-9.015194746523211983e-03
-2.013377149144987902e-02
-2.435260306996587382e-02
-2.668077098130678532e-02
-3.748827062078805006e-02
-4.370813183590263606e-02
-4.077832867959518132e-02
-2.937624490010810885e-02
-1.722865455551444991e-02
-6.388103365786331790e-03
2.291054793575266271e-02
5.075182084237406244e-02
4.355024927695012871e-02
2.791636962826327811e-02
2.870372647017206680e-02
2.613270243690327121e-02
1.790949649872500271e-02
2.011017429871387457e-02
3.068455657105605139e-02
3.683156246336954931e-02
1.771596217773818357e-02
-1.431015178038217740e-02
-1.880376547366213041e-02
-6.117047190672670817e-03
3.178477918757854383e-03
2.127879342295717346e-02
4.711483343287257292e-02
6.310384404859953333e-02
6.850551535837356987e-02
7.586221871334110356e-02
5.298587318573568655e-02
-1.842513046912609698e-02
-8.087945265383840454e-02
-1.252181274924462628e-01
-1.717934653931484368e-01
-1.793102063142868741e-01
-1.309927341998108064e-01
-8.029946675686330804e-02
-8.365138711421687967e-02
-8.608597245788819630e-02
9.034854137293359339e-04
9.210664254455294686e-02
9.722947996399400328e-02
8.857129463496626887e-02
8.622222877018805021e-02
5.565798716488661729e-02
4.496907852228627933e-02
3.495239484662775176e-02
-2.459292605730141121e-02
-5.731598765809230861e-02
-5.305748544841975417e-02
-6.327785626772480798e-02
-2.860345392375515661e-02
4.264005748215719122e-02
8.262079049611685544e-02
1.102386072448079402e-01
1.117120420275106163e-01
7.773984812329458316e-02
5.111441338592119521e-02
2.305255709790666671e-02
-4.791428605228229215e-04
4.923418835296415087e-03
3.090771311552626115e-03
-1.463479880611413472e-02
-1.921481637292379516e-02
-3.198157777322567508e-02
-6.045408781608110904e-02
-5.999311171992065955e-02
-2.163823447526808455e-02
2.463959963431534492e-02
4.621016597799706277e-02
3.561788286135878639e-02
2.363883532378101282e-02
8.657565487261981293e-04
-4.636348345399928655e-02
-5.671049733434315593e-02
-1.547229067746164373e-02
1.057550599857111535e-02
5.953737874711518240e-03
-7.302992546511140066e-04
-1.345880503311166175e-02
-3.607990437509727560e-02
-7.086366363719791284e-02
-1.146252583150491611e-01
-1.088857129237441462e-01
-5.941035112645905863e-02
-4.048074996898239075e-02
-2.454059786689085851e-02
1.994537064744257571e-02
5.698914354889764167e-02
7.390735546086590890e-02
6.663541689960440773e-02
5.214842022763471058e-02
4.689506688460134964e-02
3.539503358090567708e-02
1.987081437141779983e-02
2.521888068881917005e-03
-7.292225647516682036e-03
4.743831815101580418e-03
2.092954946615600137e-02
3.689714090281872444e-02
5.432525882727479855e-02
5.318240297340688649e-02
3.241076485147437874e-02
1.349304011783624205e-02
4.075160344855593281e-03
-5.079254611846430352e-03
-1.295544241238110947e-02
-1.556086665263247022e-02
-1.440061486462042468e-02
-1.151105661892775668e-02
-1.388267595736462738e-02
-1.859893457252084770e-02
-2.392556927556738211e-02
-2.605373995513628194e-02
-1.903268416624411333e-02
-1.928378735051623424e-02
-2.224894101274711711e-02
-1.926645688870953083e-02
-1.961244055677574191e-02
-1.012038614491789223e-02
3.561671695637531280e-03
1.381532812634374795e-02
2.699790759713371902e-02
1.964588368225213613e-02
-1.895105390259088293e-03
-9.694837572032924053e-03
-7.408253279452733583e-03
-4.072898214246748957e-03
-5.504866273875369184e-03
-5.137577859294511357e-03
-2.163675095549694345e-03
-1.873816157381938581e-03
3.501443045293838041e-03
4.891328787597044349e-03
5.375387698024628250e-03
1.468491791799377867e-02
1.502815051369869696e-02
1.062415438700647224e-02
1.156381556608773210e-02
1.034768672461354629e-02
9.681586085717782536e-03
9.279122143391070610e-03
5.920339295032728440e-03
-8.517956374204301582e-04
-1.065411620720663546e-02
-1.480063109597200971e-02
-1.344923186636304627e-02
-1.252578168694102809e-02
-8.562553819678306657e-03
-3.657989221229528565e-03
-2.223026688879805104e-03
-3.436239886306247798e-03
-8.945077517436129597e-03
-1.481525261664820743e-02
-1.467590365476913704e-02
-1.145715823833585480e-02
-7.305886799059679686e-03
-1.018344931871012016e-03
7.171551245397275384e-03
1.666070461084316612e-02
2.148602469184919886e-02
1.546590510108218283e-02
4.870801149168698350e-03
-2.528902254427881080e-04
-3.259479558854949319e-03
-6.239358602108330612e-03
-2.089848342444420096e-03
1.686585277280663701e-03
1.306318471808192447e-03
7.147538960887637842e-03
1.285895762749629002e-02
1.175717497559574526e-02
5.918287239021955380e-03
-5.211534273110106884e-03
-1.024756398119388255e-02
-6.998513950607790010e-03
-1.087354219063102478e-02
-1.330153563167102947e-02
-1.103488567267342383e-03
5.149413906444320031e-03
2.730614411887125233e-03
1.053781778448283774e-02
1.151782196665746688e-02
-6.607443964316431564e-04
-8.926235476515057693e-03
-1.498675290562716082e-02
-1.434183719538788086e-02
-7.443339161897950113e-03
1.021765777514495495e-03
1.014693502669376454e-02
1.223895780314996490e-02
1.559305516733658706e-02
7.056066002586677995e-03
-5.352942528748236457e-03
8.821277332836207144e-03
-2.481094954341707317e-03
-3.042012878817327431e-02
-1.240210016278480570e-02
3.910416193153290997e-03
2.788116194266122057e-03
9.077144535021326385e-03
6.972374084256195703e-03
5.165584572146698916e-03
-4.652281784397447359e-04
-1.067041584458291309e-02
-7.965241570666040105e-03
-6.151842853855091914e-03
-5.537257457107713082e-03
2.380988011946324687e-03
1.003740038804137522e-02
8.355670842518521033e-03
2.097526752247906925e-03
5.780511099142714333e-03
4.457336118662413339e-03
-2.668252203116065497e-03
1.426562522594219777e-03
1.631805114174239568e-03
-9.449104273345058664e-04
8.313895161833923398e-04
-9.006766774676554276e-04
1.081962870241853954e-03
5.116044797533312975e-03
6.300650699992060497e-03
4.713160657695000116e-03
-5.101593644393226032e-03
-1.318102504466373871e-02
-9.537401763397410429e-03
-3.153114705036436614e-03
4.142529332051920945e-04
3.982788565274565130e-03
3.800821257564228426e-03
-4.961355704680523327e-04
-3.046260153371887960e-03
-5.435082124836600193e-03
-5.311365354108388628e-03
-1.652666530806666534e-05
7.081376555697941125e-03
1.218142662998980379e-02
8.960126538890292314e-03
6.492370531799903505e-03
9.036913146911414174e-03
6.466941973304040150e-03
4.274286927906439590e-03
-2.095190781919918817e-03
-1.479328280905489908e-02
-1.711973158944655668e-02
-9.947755028621102849e-03
-2.248960330233803345e-03
-5.494292586959400801e-03
-1.109967851316093733e-02
4.175611124462593848e-04
4.241019596308580157e-03
-3.652488337957000668e-03
1.053951397734575112e-03
6.032081805064763019e-03
4.087021385662021992e-03
-7.261917415735271407e-04
-2.172134834051985507e-03
5.102767878563890282e-03
5.255010115793829449e-03
3.715907350369951432e-03
6.512582480652502441e-03
2.093406627322439133e-03
8.616781659148128663e-05
-2.986179950355917923e-03
-7.899664777958684270e-03
-3.848993203827214861e-03
-1.607247873558049264e-03
3.322889570824988283e-03
8.272652456825254838e-03
2.888128576406802719e-03
1.278085036452580522e-03
-5.910525555658247953e-04
-2.676045698914230903e-03
2.996289304244404805e-04
-2.950849107407417342e-03
-1.232138123994463812e-03
4.626923565588403169e-03
2.034436823722998808e-03
2.332366957671496571e-03
3.119607026916328910e-03
1.879956714177149829e-04
1.597601605123104545e-03
3.167816390466527982e-03
-7.562044121402287499e-04
-7.532710715196951762e-03
-1.064256770096651435e-02
-6.133249661147470444e-03
2.073333609677992673e-03
3.988331535118823726e-03
9.042234510340764128e-04
3.920821243307757303e-03
3.353428651604459503e-03
-5.501969811765078551e-03
-7.811321125059903815e-03
-7.005991731431238968e-03
-6.389053506606737903e-03
4.609238753595353640e-04
5.143690406987229749e-03
4.074091067321619804e-03
5.568419884366378539e-03
7.929786991624152015e-03
6.071165492441588270e-03
2.947423612225044762e-03
-6.896729372845986821e-04
-3.280910367370790202e-03
-3.975780548732028505e-03
-7.062084216725714354e-03
-3.318120531623117413e-03
6.944448727178193295e-03
6.359784385306153573e-03
-1.183152047989067396e-03
-8.052907427302696472e-03
-9.352251512981734141e-03
1.059854068537848838e-03
8.049525163666682720e-03
5.008182555139173257e-03
1.249905111616268251e-03
-2.855247468656201514e-03
-3.596135483050401198e-03
2.481902462728928765e-03
6.996044920759522320e-03
3.913655652160163805e-03
-3.980669568212053086e-04
-3.507410870535149477e-03
-6.538924550323625857e-03
-4.186102545435402278e-03
-2.251125766821762859e-03
-4.149836272586762687e-04
8.048378568321351914e-03
8.648183085373604279e-03
1.199395050339818270e-03
-1.302205029246304019e-03
-2.114934518990938071e-03
-1.359600719870268735e-03
4.604061912952428395e-04
-9.012859306610173683e-04
-1.886076615824211489e-03
7.640649340458896869e-05
1.879009696371938039e-03
2.270722332237746187e-03
4.955545610469890352e-03
4.267558710995754748e-03
-3.523590407147318953e-03
-7.786854826380695815e-03
-9.742962364660425964e-03
-1.052823481990436232e-02
-4.477317805309528019e-03
6.031816103397749738e-04
3.758639031030731621e-03
7.219675873766316296e-03
4.967095535732696417e-03
4.843740299088062067e-04
-1.049919256945625870e-03
7.649078398225418046e-04
2.362820321256921957e-03
-2.609134608278493371e-04
-1.207511929433887363e-03
-9.562777078308919414e-05
-4.659286820670378881e-04
1.922561608828080981e-03
4.086762584941375578e-03
2.427414014735930492e-03
-2.751911917533639892e-04
-4.701566645657058105e-03
-8.928716737556709887e-03
-8.174114742652154736e-03
-2.300738782622731467e-03
4.152554251827333433e-03
6.674440626346641453e-03
5.253350552041956799e-03
2.971465666640304981e-03
2.145040235429136223e-03
8.321265268076734204e-04
5.971494305379743562e-04
2.799804185362215515e-03
-4.883709048735856897e-04
-3.491652201480734477e-03
1.144132005509290902e-03
3.651403046731148579e-03
5.521061242636887863e-03
9.641666418880178932e-03
1.159396397651279650e-02
1.004540905065625864e-02
-1.543305350485878408e-04
-9.917193991006616541e-03
-8.134542835228946583e-03
-3.189877071871395804e-03
-1.605432440336636030e-03
2.169011818141276663e-04
3.392712422758128402e-03
-1.064469693495448226e-02
-3.381302460568939156e-02
-2.434415996215506806e-02
-1.774740541252417146e-03
2.124449903331302597e-03
5.421659020582962965e-03
6.592974848701569669e-03
2.774001722701739062e-03
4.008381138759727763e-03
4.265437120667629929e-03
7.044628684701736109e-03
9.639118550893895077e-03
4.601776377197879832e-03
1.048084365795223447e-03
-2.699957435896935092e-03
-7.061910482717285650e-03
-4.238945243927176240e-03
-6.395570008627311266e-04
3.426890872217772544e-03
9.988950831027765612e-03
6.870054738378317261e-03
8.289000881311491160e-06
2.039373875066093945e-03
3.255589672747987665e-03
2.470613769255412383e-03
4.978540256054538732e-03
4.924147517963862151e-03
2.241293099158827955e-03
-1.410386523613926541e-03
-3.533527395817300226e-03
-3.701556627166936383e-05
4.118725335455148198e-03
2.073790915871733757e-03
-5.346822068923151247e-03
-1.127208910797969539e-02
-1.460290482605374786e-02
-1.159606764470989815e-02
4.386355893519532437e-05
5.150777362070545033e-03
5.041528116675166905e-03
7.690892804254701419e-03
3.602920177336681705e-03
-3.730927643432801599e-03
-5.738861732213083183e-03
-2.030015463794458165e-03
3.302656893852145463e-04
-8.929804606825805487e-04
2.637704575604138835e-03
1.222344465957089961e-03
-2.683536828488617375e-03
2.833354092278789812e-03
8.156562784483354159e-03
1.220179391801889945e-02
1.537320065373906815e-03
-1.787325929096983748e-02
-1.175037800868615478e-02
-1.656425097758473190e-03
-2.296966014338264628e-03
1.590053695747457819e-03
9.604597308081462993e-04
6.314661469752027483e-04
5.671600360948513215e-04
-4.402213314052143972e-03
-2.095344233020378019e-03
1.729929362352529984e-03
2.773102272413812807e-03
2.006927217630277011e-03
-2.750692268573820196e-05
5.574507127514321397e-03
8.015875275380357837e-03
3.448239305670826836e-03
5.490072805417041575e-03
6.035048776411558631e-03
-3.220253201526546063e-03
-1.069380948917099741e-02
-8.816712226378925141e-03
-3.837613311958239758e-03
5.568097751839798468e-04
5.155891906189286056e-03
7.691548551543980934e-03
7.915280427151045670e-03
4.536251871471788655e-03
1.387726954196457241e-03
6.026934136207123989e-04
-2.735315333907675263e-03
-1.235650772506556583e-03
1.798058473805753694e-03
-3.460714024650643223e-03
-6.952529980512071536e-03
-5.375600777055565202e-03
-1.789014588709301155e-03
-4.271622404867294080e-04
-5.933465195817650036e-04
4.675904846242584512e-03
2.848865742864707912e-04
-6.581227936985646447e-03
4.745790791397380519e-03
9.074359229555848880e-03
-7.799324168204899068e-04
-4.374143533336146555e-03
-1.345223664023939775e-03
6.873970617357753107e-04
-5.614019132145734066e-03
-9.186196851705146285e-03
-4.584681534366103622e-03
-2.981997768284393256e-03
1.497037867941268660e-03
1.412164007826718264e-03
-3.268780311072869062e-03
3.287756907290913591e-03
5.963273620956143113e-03
4.788146352381184197e-03
6.410032264409535468e-03
8.521196782693585704e-04
-1.629577670934044542e-03
-3.302060556370843818e-03
-5.663849900430013851e-03
2.038130466863937243e-03
5.308698821558038329e-03
2.476122897086392022e-03
2.803788763562977369e-03
1.848375429052685499e-03
-8.208132207866130486e-04
-3.260034565951244398e-03
4.908669191358459513e-04
4.699328961843714930e-03
1.203685127300651702e-03
1.008044987342838822e-03
2.860612243165529603e-03
2.529895915095472375e-03
5.756511935263736862e-03
8.082328964297346569e-03
4.011124118276246028e-03
-4.898292418926347876e-03
-9.477501946671426300e-03
-9.157643389254777749e-03
-1.141015831612064019e-02
-8.369075697341630746e-03
-2.217399212133241418e-04
3.669217658903210430e-03
3.035358268877519795e-03
-1.332308360997596329e-03
-2.217679906608433036e-03
-9.658677725014408813e-04
-1.668101198275520527e-03
3.411267874192076312e-03
5.896769061766697281e-03
3.151357969610778850e-03
5.697825567788638267e-03
6.040848927903787365e-03
1.909823926426384988e-03
-6.449995256023671264e-04
-2.363377833415647531e-03
-4.599816056905061019e-03
-9.769408821777640986e-03
-1.035151898703593441e-02
-3.318988304831418067e-03
1.699537303314526803e-03
3.954585385637952172e-03
1.939706908106562195e-03
8.167769384306875022e-04
4.052471334423093582e-03
-1.553224963375311567e-03
-3.833136142406614287e-03
4.979158552338019093e-03
3.939918467669060315e-03
-4.645321250748263948e-04
1.901526313821438408e-03
3.234448035249698570e-03
4.591620782276027192e-03
5.887711384970354539e-03
6.149500294141937821e-03
5.285600093031231697e-03
1.338686907824584126e-03
-5.494267567297639147e-03
-1.065810769144704719e-02
-8.680697468244520654e-03
-7.132468796536812518e-03
-4.028064756001947279e-03
4.780000553703317966e-03
3.783143425760180679e-03
-7.084229687554524863e-04
-6.464309203388373965e-04
-4.744033949539597055e-03
-5.370926011083323320e-03
-2.797597399921861877e-03
-9.872236172582939204e-04
3.847416921418874130e-03
6.155043476310943611e-03
5.707745913885929785e-03
6.580627873530717729e-03
1.081484357440413990e-02
9.914760677860425669e-03
-9.689760610038619833e-04
-5.565417703470614680e-03
-5.948692430326968719e-03
-6.903965051230056410e-03
-1.645886237286032887e-03
-3.070705652336426592e-04
-1.899271322651189956e-03
1.180050662081959766e-03
6.155452261138184486e-03
6.869872643759739050e-03
8.433063936993126725e-04
5.217515655564000914e-04
-9.012616142006921183e-03
-3.048548776570415841e-02
-2.061306423073043861e-02
3.542601253785540583e-03
6.539337475174417276e-03
8.758081006465769786e-03
1.240489088635185477e-02
7.093997642329570932e-03
2.185474513936995575e-03
-3.994317281452978052e-04
-3.726596325835206027e-03
-4.359333962805123780e-03
9.021246690954639550e-04
6.205840696827153065e-03
4.101541007292618113e-03
-1.977397585576279836e-03
2.212014198852415377e-04
7.658730855388900215e-03
3.737488267216509952e-03
-3.756190502036173013e-03
-4.536459992907589112e-03
-3.124426264912183795e-03
2.794356865540490852e-03
5.123432120859922577e-03
1.229661568093478024e-04
-1.076920839563944281e-03
-1.061588209602141444e-03
-1.592428522473348122e-03
-1.655562985531267017e-03
-5.341746033749610392e-03
-7.124847508532749021e-03
-3.375056107499554373e-03
5.353761691437551595e-04
4.575567563359766825e-03
7.466831381552961264e-03
2.975096912380291100e-03
-1.196873600484612546e-03
1.145081930083741194e-03
1.804895545669582156e-03
1.750436092442429975e-03
3.370468162677455436e-03
4.395795634768883374e-03
3.374286496956320491e-03
1.129058966961831627e-03
3.429953198953765697e-03
1.388558403419615011e-03
-3.044200920369922146e-03
1.918963405084906900e-03
1.569514443569922915e-03
-4.202436194966271792e-03
-9.585252867946897348e-03
-1.382025875577232513e-02
-7.159964868491605454e-03
-5.942735944531510502e-03
-7.631707936988772756e-03
8.932638432477795886e-04
2.690431713407179758e-03
2.502275137475656712e-03
1.561595107415341419e-04
-5.139033145340471745e-03
-1.310067256430282219e-04
3.848854559582235227e-03
9.715020248212847404e-03
1.140660689141370990e-02
4.789927801251616518e-04
4.453105474337614063e-03
1.098151517634638093e-02
2.327536920318246799e-03
-2.988172299088101384e-03
-4.529829417044380774e-03
-4.805859922411235066e-03
-2.972068159404042502e-03
1.661966637206702406e-04
4.392854007340377294e-03
3.392893746332907058e-03
1.408820828460497334e-03
8.798228002941026280e-04
-1.132878425321783141e-03
-2.385337106814211516e-03
-2.015287042001097633e-03
-6.576131715032741817e-04
-7.922850173391153810e-04
-6.931400462871783758e-04
-2.436736977937587791e-03
-3.026143986291236852e-03
4.526796834680262872e-03
5.835251451374106994e-03
4.423076489730526709e-03
7.683793717915004748e-03
-1.801361351162022008e-04
-8.037212629789734428e-03
-7.965752014606962764e-03
-7.893206355956642467e-03
-2.845229053372793498e-03
1.692979946984366412e-03
3.279695759104337555e-03
3.398472941271254554e-03
1.312185757003966891e-03
6.952380518073808004e-04
-3.494119508164428029e-03
-5.508464945474821073e-03
-2.062903413906999866e-03
-1.696772573415017762e-03
-2.325485380930153055e-04
2.479653463995403796e-03
6.281877599950691504e-03
1.034143982496628193e-02
8.471442150485638742e-03
3.632416140010961449e-03
-4.439481310726571539e-03
-9.792243696631643818e-03
-9.081881630646796918e-03
-8.454471819799101728e-03
-9.863141629966960724e-04
6.092505951070864220e-03
5.700747041261320681e-03
6.331318453560417364e-03
1.651441108529446301e-03
-5.147747322930826437e-03
-5.063519717602014102e-03
-2.921451679466107766e-03
-1.574705139374526271e-03
-9.654330586268994752e-04
2.002133728016912504e-03
2.435568196625525258e-03
4.254367707693882013e-03
1.485192899994076943e-02
1.130512514407282058e-02
-2.190741928099940606e-03
-4.208477193052656724e-03
-8.485114182774627228e-03
-1.189755615299780203e-02
-5.634026603816666250e-03
3.617288189293105033e-04
3.770110818998060036e-03
1.676785940390783554e-03
5.978044440159900564e-04
2.655860582266494907e-03
-1.653146773736423759e-03
-3.082485853855644435e-03
-7.494655041963614681e-04
-1.055594717631327169e-03
1.531319728572503929e-03
3.391669570935845410e-03
3.935884183525547794e-03
5.233093779861434404e-03
3.933722109883961912e-03
2.300936281969288583e-03
-2.486629840864931469e-05
-2.498716513557756435e-03
-4.349939163018559304e-03
-5.485001286603263457e-03
-2.903909126246508130e-03
-1.221192760399899798e-03
1.872457572187501487e-03
7.066624531067363345e-03
4.946223916627024743e-03
3.002061576386045542e-04
-2.947525623982993198e-03
-4.942057902301877879e-03
-3.928567745849778636e-03
-2.677102074831065170e-03
4.351931302534291961e-04
5.753679249406955633e-04
-2.686993569656911419e-03
-8.375834513997853148e-04
1.736081286878461086e-03
3.984047620516387514e-03
6.777041887637057747e-03
4.039748908414540762e-03
-4.320328886372081650e-03
-1.058134923306608757e-02
-7.671616858511064348e-03
-2.401060048603884372e-03
9.861226085595990645e-04
2.594339532472697638e-03
1.155899130576091280e-04
1.438869710186372339e-03
3.395070724011374540e-04
-5.693032669176024269e-03
-3.011657803959319306e-03
-2.714425406649235246e-04
-1.455172362057437436e-03
-1.010961282113944509e-03
-7.649186268267392334e-04
2.931138673961901711e-03
5.886221997155522724e-03
6.274581948750139644e-03
6.516801428214623500e-03
3.468756527417154577e-03
-1.377733130905526670e-04
-2.486501296304655193e-03
-7.010272777871938638e-04
4.942072080311075109e-03
9.251164741942550021e-03
1.137167150472056555e-02
8.741183829675206601e-03
6.128957780799439842e-03
3.595143439809899734e-03
-4.784453306156794504e-03
-7.237433796801863786e-03
-8.416778178481772957e-04
2.647115306634107660e-03
3.768579522955000684e-03
5.836642621318211682e-03
7.784010637655794764e-04
-1.324670542767159877e-02
-1.884812409702943739e-02
-2.174012606646004604e-03
1.406206219151377203e-02
-6.912467154057146644e-03
-3.499361903960557935e-02
-2.737121458133325372e-02
-1.852528140061061174e-02
-1.262575956945563398e-02
1.071957982894457609e-02
1.481469623020653659e-02
3.135032353051383537e-03
2.443028443199156061e-03
2.505295204703776764e-03
5.868163894429317094e-03
1.028677785958781107e-02
6.706237750475864921e-03
4.176113329913018306e-03
7.727470730531298820e-03
9.764533941407485540e-03
7.884734773673737068e-03
8.109720186761858532e-03
4.478455964476291476e-03
-1.900459747819286923e-03
-2.938372382355274037e-03
-3.527275729741935137e-03
-8.327824847194603263e-04
2.939216559717634791e-03
4.714308690407337590e-03
7.555922390418821910e-03
4.649426588595391083e-03
-6.077254054393092277e-04
-5.151489143756975489e-03
-6.915022775321957513e-03
-4.103072786706450994e-03
-5.724566600412122307e-03
-2.981056163454080289e-03
4.715112944898094266e-03
2.881530238986180440e-03
-2.703656666395231559e-03
-6.755488845859262004e-04
6.845679572349736529e-03
5.311068889572285144e-03
-1.587196984733010982e-03
-5.640050292935258267e-03
-8.644424302792009726e-03
-2.970353733990997117e-03
8.750701599227878307e-04
3.658765760475022819e-03
7.921764861693367243e-03
7.375907215654123371e-04
1.753102629873383358e-03
-9.240508081820862293e-03
-3.578216235676383306e-02
-1.985252064469085823e-02
6.162273283266703726e-03
4.388742671285487430e-03
3.823525087934060568e-03
6.553314174391423365e-03
7.483655871620516729e-03
7.766310229501655754e-03
1.047915133481816009e-02
1.045300496113923082e-02
1.535833449492364240e-03
-2.174895929978374731e-03
-4.179712678007181138e-03
-4.338657050219464108e-03
7.659802350095523812e-05
5.022741365050227081e-04
3.354257025434779962e-03
5.018274005636254136e-03
5.419007376585156278e-03
3.375915929413490345e-03
-5.552891356252490952e-03
-4.789312053356221781e-03
-5.467211107533111571e-04
-1.097126509308712092e-03
-8.122571961274832174e-04
-2.258504135113834337e-03
-2.832774988702521472e-04
1.311356336550402197e-03
2.263031158961186645e-03
2.752053258224862464e-03
-2.692183455291567371e-03
-3.389450733256305949e-03
-4.502646793693242978e-03
-8.415651782200609526e-03
-3.760379447174183425e-03
4.681635966321681490e-03
8.036912759557821376e-03
4.088818338599345750e-03
4.380119916127390989e-03
4.154200049379359362e-03
-8.905519878966848719e-04
3.131648375438294933e-03
4.486297173975396790e-03
4.920039813317148188e-03
5.075202379979890446e-03
-1.708409684443416149e-03
3.175141145242265945e-03
5.272929385612800356e-03
1.058011206525310936e-03
4.220667693403008509e-04
-4.061738525020367092e-03
-2.277829220892462077e-04
-1.560833826884159940e-02
-3.973947230795795565e-02
-1.935173057655217507e-02
4.846657739675127446e-03
9.226409964253312265e-03
9.306104181604246336e-03
2.034542805510279433e-03
2.983606507459736316e-03
2.412101956380852813e-03
-7.987622801408048208e-04
3.790456118834966814e-03
1.591948256513134449e-03
1.488890777700512154e-03
2.937933377427794524e-03
1.183101924085297203e-03
5.054668469844526141e-03
4.565713738188940420e-03
3.830375656771049884e-03
3.248165822234559859e-03
-5.437621240674456180e-03
-8.364887169478057993e-03
-3.347995648463925229e-03
1.600151617784010974e-03
3.544408679834051661e-03
3.174273347324966122e-03
4.864606040257840082e-03
4.236396281227244529e-03
-6.875538296389446021e-04
-5.456054530997933236e-03
-4.740915230537808521e-03
1.863063013160086174e-03
3.476747463513975116e-03
5.713250547221282189e-04
5.816744236986543014e-04
1.520577343750254343e-03
3.261015236135452692e-03
3.789504637854807130e-03
3.344884272055631720e-03
1.611917427761145119e-03
-5.715831074243302688e-03
-6.146713058598040312e-03
-2.389998905685850918e-03
-4.692093017702006139e-03
5.706049584681055671e-03
1.296750649980926880e-02
4.376229615878101699e-03
6.684156836171045724e-03
-8.070335046752304814e-03
-3.661200058981364802e-02
-2.025592936327603663e-02
7.106120763116002305e-03
5.204321419533353837e-03
1.341975111788757313e-03
1.822893175199555727e-03
2.186344127521923798e-03
6.960118423036042341e-03
1.147447645368955202e-02
9.556269288983652160e-03
2.185628044096479296e-03
-5.519241640852953421e-03
-9.544536539232989156e-03
-6.330461935175297344e-03
-3.053380011247246693e-03
-4.814858195772364017e-04
5.321592613276031510e-03
3.615007237959427279e-03
1.096872362620150742e-03
1.548457823672237232e-03
-1.310819238275568507e-03
7.883052187412731369e-04
1.312472408971184466e-03
9.775569196557097433e-04
3.616348127358772532e-03
-1.743103066853174442e-03
-1.066232088963973848e-03
7.713658717788184765e-03
7.305276253865959808e-03
3.267431486596352949e-03
1.235454790949269167e-03
-2.014618286471845515e-03
-7.293752227605699613e-03
-8.365635726524427163e-03
-4.150373394274248402e-03
-2.537706651207077661e-03
1.629889652476596224e-03
5.548939243197106679e-03
1.118339702644203062e-04
-3.355845198512184650e-03
-1.571243102965874487e-03
-5.755027244333940032e-04
2.182317867108972756e-03
2.511242317367684117e-03
-3.889546734578132282e-04
1.603839678608543189e-03
2.032770085948346246e-03
-8.199052466520968634e-04
4.187945257421296294e-03
8.304333815656299994e-03
3.378292190221815483e-03
-6.540935936338497514e-03
-1.641148581577174526e-02
-1.150537929238282069e-02
-5.111446304932355800e-04
2.082939142163689038e-03
7.427384568206672234e-03
8.577312582561537335e-03
2.276423769066489820e-03
5.025566129314716678e-05
-4.878523541705197253e-03
-8.167018255286888698e-03
-3.334414831506511169e-03
-1.519457626057618607e-03
-2.722696892452327027e-03
-1.134765351990759275e-03
-1.473123608594976725e-03
-2.630048729782628707e-03
4.257045871966358593e-03
9.156333289028130429e-03
2.249998732942000944e-03
-4.382812440727257459e-03
-5.253935986264272884e-03
-2.119004862275795757e-03
5.385444971248620240e-03
1.416503433899417297e-02
1.758441193074442022e-02
1.141598370077616560e-02
4.773391064851074256e-03
2.252842882645302459e-03
-3.476452063342639611e-04
-2.570223342196735310e-03
-6.624808582698678630e-03
-1.118427845617220306e-02
-1.334938854225632340e-02
-1.193120015011266653e-02
-8.016897051274896047e-03
-7.895724500708788465e-03
-5.933658871042656047e-03
-2.369351801780907301e-05
1.832344766241434742e-03
5.547469491745324333e-04
3.922848398204294672e-04
7.056486176494596550e-03
1.600285697899096402e-02
2.102183254019624609e-02
2.502228884976221909e-02
2.311289179270548805e-02
1.647049362448959123e-02
7.953750222040947143e-03
-3.846099321564201440e-03
-1.395776640915605618e-02
-2.075259697477431151e-02
-2.189956325626007949e-02
-2.224547799058871483e-02
-2.653591775437813549e-02
-2.841814660558946229e-02
-2.632629386170856969e-02
-1.937690311808627081e-02
-1.196972434525065375e-02
-5.509634727239693178e-03
1.124618902540858861e-03
8.186072740420156577e-03
2.148415854746299133e-02
2.549246705630530546e-02
2.614333790629328261e-02
3.423769634102316606e-02
2.684855533018560766e-02
1.897520547711253544e-02
9.092958518946057944e-03
-8.938235859074612766e-03
-1.574992541886893055e-02
-3.947661287662170004e-02
-3.254566995417600139e-02
