7.557391626157159217e-03
6.674738051473384955e-03
2.614754282018360004e-03
1.064317747720855889e-03
-5.650598768077539670e-03
-4.829058065208798219e-03
-1.611332079083975305e-03
-5.657641215789033923e-03
-6.826376494694418560e-03
-5.684331796970207643e-03
-1.948948462259724249e-03
2.807403465683326518e-03
4.925309855594597885e-03
9.374607895460946791e-03
9.714972293690875976e-03
5.362266505744925187e-03
1.927620607867498205e-03
-3.389606287127012139e-03
-2.355855943954759425e-03
3.008977190521681250e-03
7.484950176973844196e-04
-1.103232574956409520e-03
-7.395872221623025437e-04
-3.763102506393617083e-03
-3.779758957457306397e-03
-1.357649832625987523e-03
-1.649890540135155997e-04
3.748848620950494519e-04
-1.911803799679665915e-03
-1.428698407207204101e-03
1.679287995228185898e-03
-8.301309445907572790e-04
-8.570483500292787934e-04
3.590826692492090234e-03
2.786213261525276319e-03
1.286803858258470145e-03
1.696339420502407901e-03
1.199858087745714412e-04
-8.584010222964272470e-04
-5.084847359491502733e-04
-2.910526167235806560e-04
3.593651154212599511e-04
1.523429399777131293e-03
1.246750913076266967e-03
-4.554187221949649320e-04
-8.607107652300874032e-04
-6.198190268799430103e-04
-1.428225808002505379e-03
-4.358670042162237496e-03
-6.221664964977620393e-03
-1.536969047344416374e-03
2.350029987149237359e-03
-6.367653132780632871e-05
-6.803301516595560480e-04
5.709431439849337563e-04
-2.078753149238084155e-03
-3.926818395208157321e-03
8.487982596084642836e-05
3.702348697433469320e-03
3.971555625344580683e-03
4.152350283131722025e-03
2.041557401645645829e-03
1.287680034418153905e-03
3.081274826930816522e-03
9.304262396841056102e-04
-9.967478502227384348e-04
-1.589329793054740586e-03
-1.388793092729339327e-04
6.783271424290981261e-03
4.676676854256715983e-03
-5.892866441861983710e-03
-5.126029980348872223e-03
1.532166388100559672e-03
1.803926922369817210e-03
-9.939411947968970675e-04
-2.107871719574920359e-03
1.003419515177280145e-03
4.605505081798712090e-03
2.484758871199730951e-03
-3.171310159287760600e-03
-6.624918561284246984e-03
-3.947703142508229499e-03
2.700839618752233062e-03
2.829183353440048367e-03
-4.898208050865257568e-03
-6.559459821666340992e-03
-1.229234583953566114e-03
-4.414543873192760225e-04
-1.561378280076511881e-03
-1.301255984057375376e-03
-1.648384276488830879e-03
4.057667191884823180e-04
1.905603941262088308e-03
1.281841942891109518e-03
-1.894759932737986657e-03
-6.808753727238203539e-03
-1.687204713555744097e-03
4.985849216754454326e-03
2.509639172616438211e-03
4.359838584400917844e-03
7.332973312650846627e-03
4.911991596107513278e-03
8.615339704849383357e-04
-6.916522493896375872e-04
6.524212404880838645e-03
6.138736963679222898e-03
-2.254011373488219727e-03
-1.493216662136425668e-03
-7.986988467616985485e-04
3.887440711112862858e-03
7.588425948154785793e-03
-9.534948864391397990e-04
-6.798408293960571738e-04
1.656772890215944078e-03
-2.199645106370220430e-03
1.996961300500923249e-04
7.272198037651142304e-04
-4.884071395347040073e-03
-2.076955866630108422e-02
-2.804246156077530236e-02
-4.704690772844870653e-03
1.071543311133857021e-02
5.306968549360397032e-03
3.524635918311527869e-03
1.809532193709554454e-03
1.338790798442662322e-03
3.580266441363093126e-03
3.137428092834907561e-03
5.477495339858630581e-04
-4.262817219572269563e-03
-2.764065716944352855e-03
3.192703431945706060e-03
3.736095004519451260e-03
1.985469651838765379e-03
1.433342385041917993e-04
4.170277947038534411e-04
4.596351643876626751e-03
6.119626213975183464e-03
4.938651501624698225e-04
-3.137939045364915129e-03
3.201125591455806618e-03
5.443571145980726986e-03
-1.878608608313274463e-03
-4.916136240072608264e-03
-5.570043332354854791e-03
-6.907406436641446573e-03
-2.853879744735659998e-03
8.207806154788839081e-05
-1.712046969467006293e-03
-2.661399134040762487e-03
-1.606403109516936489e-03
3.357677146955815456e-03
7.305942949807231294e-03
3.641205408181162270e-03
-2.971918189318768278e-04
-2.337553636993003510e-03
-1.776075557634225043e-03
3.681409046938057244e-03
3.464456307184247963e-03
1.885552359177674556e-03
6.294578973969420198e-03
4.685927761069581809e-03
-1.728811468182201794e-03
-4.366827812946940009e-03
-2.189745009325723239e-03
-9.428088230284068774e-04
-5.013695203879502994e-03
-2.540395492598910860e-03
2.670970974957653180e-03
8.271967476081340228e-04
1.583650978745166542e-03
1.965875595346562154e-03
6.982280428244604055e-04
8.941443571252947326e-05
-6.160685167488446669e-03
-6.968866360360486886e-03
-1.720508592546868493e-03
-2.955201557236819803e-03
-5.120681706540392356e-03
-4.317532471548026114e-03
-1.341740040662771447e-03
3.421766664390916979e-03
5.291240075643501885e-03
3.598198565985595999e-03
6.701010398466618724e-04
-1.389997296227506467e-04
2.254544123044331487e-03
1.973841593852930856e-03
-1.883628113091951207e-03
-1.978992330211960370e-03
1.371213127082311666e-05
-2.743149809420608186e-04
2.399936665619459373e-03
4.541237411680883011e-03
1.597104656428333363e-03
-8.579639524489745595e-05
-1.594730413491688087e-04
6.178079556005704100e-04
1.825951045156036599e-03
2.037013963940400435e-03
2.662327037151572106e-03
5.964551433239953255e-04
-1.275274668126917359e-03
-4.704097024254158760e-04
-9.225056129400987463e-04
1.046461069868057569e-03
2.915163127058827998e-03
-8.123872123131758560e-07
-4.318281637060252844e-03
-7.349656362030475461e-03
-3.601093839488768520e-03
3.269242353751678019e-03
3.654873653340001347e-03
1.251971569356868886e-03
8.550283198483084020e-04
-1.414764796330162614e-03
-6.542683312993198726e-03
-5.989000592549548023e-03
-1.719612639957611129e-03
-1.799946837104010209e-03
-1.754001310097934351e-04
1.382762605640668963e-03
-1.670169036188207481e-04
1.650214787028527743e-03
3.022919101524704222e-03
1.896671639016011277e-03
-1.794088621354881499e-04
-8.610201617078226894e-04
1.553609824936432815e-03
6.084063053770252371e-04
1.685770506862842993e-03
5.156990489824921260e-03
1.366256763717781444e-03
-1.482628228717778381e-03
-6.046855946323054058e-04
-9.907887801452409850e-04
-1.364852796013271957e-03
2.977728910264209754e-05
2.930802441654883819e-03
6.561798033956657561e-04
-1.186312141814971355e-03
2.035666314840430847e-03
1.413411154653761419e-03
1.664696078416170273e-03
4.894278654778714058e-04
-6.124794623669976151e-03
-6.269693284140398504e-03
-2.129203698613936751e-03
-5.997444451488513021e-04
-2.035592367098689685e-03
-1.106498861385669203e-03
4.854346997082085134e-03
2.997894717254976846e-03
-5.223754116669408233e-04
2.674999383851443206e-03
-2.301485637838860917e-04
-3.278438890505823433e-03
-1.885829412698936764e-03
-3.754481613106964554e-03
-2.140505203883117432e-03
2.838479219835958554e-03
3.386340692166262076e-03
1.219247694721996419e-03
7.896972208771635762e-04
2.467798575569528884e-03
1.870896750775467333e-03
7.821598477378723764e-05
7.476314165082499933e-04
1.314217694336484424e-04
-2.006038117568397210e-03
-1.168374829189621064e-03
1.653342829664119227e-03
3.919871944289764557e-03
3.683600487857440625e-03
2.260878393214508744e-05
-1.937544762880178328e-03
-4.847860893076210483e-04
-8.232576698341859296e-04
-3.301432746535956295e-03
-4.245864549499839963e-03
-8.679255413045067202e-04
2.795953823759391322e-03
3.605164415874788928e-04
-1.185779963504504783e-03
3.526251593252798227e-03
3.848659048637769527e-03
-3.874589376877110580e-03
-7.062510423512437935e-03
-2.503368606632273667e-03
-9.436596820544554615e-04
-2.189096028758857893e-03
-1.866980961493530048e-03
-2.115843852423770089e-03
2.466941652157533978e-04
1.921830903522914495e-03
-1.221125624971855722e-03
7.143606010663738491e-05
3.235011713069644874e-03
3.185128805963884134e-04
-1.509136640163766512e-03
-8.633290748184808928e-05
8.187777631608649312e-04
1.134889194103727702e-03
8.028700769133711957e-04
3.664431719603207863e-03
5.570018664735217756e-03
8.814047499313969495e-04
1.605571434869778723e-03
8.525975756658067672e-03
7.213826832640509931e-03
-6.835515469085021167e-04
-3.989441609555306224e-03
-2.365378388963274795e-03
-3.980097294443664911e-03
-3.313168271371061489e-03
1.377350070090422240e-03
-2.894481363139636814e-03
-4.178550060178508503e-03
3.370169858371857216e-03
6.147055768785114789e-03
7.938987485446292319e-03
1.959525313928684419e-03
-1.060434988938091863e-02
-1.357919283490552353e-02
-1.345413028080321913e-02
-8.228358028088827991e-03
5.615528981968124925e-04
1.891785272637220086e-03
2.696538486036583002e-03
2.285951094361160420e-03
3.527882860907032275e-03
6.803566007150371048e-03
2.939718437487488963e-03
1.885935942361194545e-03
2.451626737352819146e-03
2.222084251993141236e-03
5.301580924609495919e-03
-2.034217850429966088e-03
-8.860123872099199410e-03
-1.316367492570487364e-03
3.651262889597163466e-03
6.469455789763463652e-04
-2.417003320877443139e-03
-7.397899390173744106e-04
1.167495523584153845e-03
-9.816239622178811550e-04
-7.984354019190688899e-04
-2.531950574689199266e-04
-8.742042546948776633e-04
-1.870748009444166788e-03
-4.423210442018387506e-03
-2.924153521411920992e-04
4.630682551919045736e-03
3.892256008368703921e-03
5.905538373729115470e-03
4.088373797045301468e-03
-1.731188450697784039e-03
-2.540720781834579500e-03
-2.522731952533623437e-03
5.322863343445553841e-04
3.731602719233101991e-03
3.398942398431778047e-06
-3.341715756820106298e-05
5.527602217143683626e-03
5.571553989026276597e-03
-1.432989252667550963e-06
-1.502386358245212661e-03
6.919093061039350515e-04
-2.753809442314210289e-03
-5.071899812521080304e-03
-3.079864823630728589e-03
-5.821876853657636033e-03
-7.144953048420650196e-03
-3.060052151506559640e-03
2.893163893937154797e-04
-3.016626220742775737e-03
-9.146860058763334189e-03
-3.673688174740960023e-03
2.277982298393017770e-03
5.790584199018098538e-04
3.254944824993165862e-03
1.525950632513087789e-03
6.126001151434857118e-04
6.752636758837787974e-03
4.647591963909198515e-03
4.908957517018383218e-03
6.267699646808550136e-03
-6.316574005568568757e-05
2.804749177481157419e-03
4.375157980743150932e-03
-2.814186217368909101e-03
-3.005509272600597002e-03
-1.973579580972606440e-03
-9.803903020408697832e-04
3.496686754531854249e-03
1.892818293535099110e-03
-3.227399415960735193e-03
-3.768698401281989421e-03
-2.085465000536461822e-03
-2.706654167109744623e-03
-4.178665107951336048e-03
-3.423406687039685491e-03
-6.331603900592287478e-04
2.410253345350359643e-03
7.478378615792584611e-04
-3.485047234236197944e-03
-3.450086738619572400e-03
-1.651151878064749607e-03
1.622198105194822080e-03
4.841253879079197679e-03
2.547405759160076798e-03
-2.901731768491128973e-04
8.393283724726850444e-04
5.291592308418446508e-03
7.938368448292308990e-03
4.197588563862064172e-03
1.444052569005487181e-03
-2.244001757253749586e-04
-3.019902582247492064e-03
-9.886698065413091797e-04
1.441732320511979843e-03
1.858353670892206677e-03
-9.120377472456747160e-04
-5.982934497859570058e-03
-2.332104300363696363e-03
5.614179936766921803e-04
-4.243108987021388875e-03
-4.305674989628884702e-03
-2.624989829513622169e-03
-2.135861805199697032e-03
-5.605612725051619923e-04
9.069047255879980401e-05
-2.665366564952339860e-04
-3.726872424164745859e-03
-3.992234687710508219e-03
-5.979981395537107940e-04
-8.403672580225549950e-04
5.221404786277907602e-04
2.494456115460426740e-03
2.990720434190412020e-03
4.095760909026757886e-03
3.608913434471715601e-03
4.242791868872459321e-03
9.572340427743506342e-04
-3.138012336761703946e-03
2.545226212053312235e-03
3.190809347798127284e-03
-1.921073678271917719e-03
1.611870978286093900e-03
4.434500294779214133e-03
2.799256698032698016e-03
3.671802258554409488e-04
-2.049606341162323042e-03
1.585995495033561218e-03
2.103570621098673279e-03
-3.437075639378910866e-03
-1.916414817171131942e-03
9.558137166264832167e-05
-2.519412362445034876e-03
-3.304720621408257890e-03
-2.668515473292281011e-03
3.846855914891474229e-05
2.871875138583425955e-04
-1.394095008216586842e-03
7.339775788401664688e-04
-2.130367857968193650e-03
-6.276472021308633631e-03
-1.415211641943292997e-03
4.336862301935587999e-03
5.843766949286816927e-03
4.099967470952261932e-03
7.472953377267734475e-04
-1.296725394561790232e-03
-1.983962988518178910e-03
-2.813195187936142882e-03
-6.556808594932801715e-03
-7.008774828791417173e-03
1.399509571235281252e-03
6.235521874293348601e-03
1.452118848768054393e-03
-1.363747792087318268e-03
1.911034328461946917e-03
2.957662329564481399e-03
2.275359347307612159e-03
2.255235783987450879e-03
-8.508725609710263800e-04
1.204451956786412948e-03
5.714687453410968905e-03
8.737412861787794945e-04
-1.340520554711398336e-03
1.562530004132368401e-03
1.304094787425532547e-03
5.585463152563566527e-04
-2.882350877556519742e-03
-3.340782924472859416e-03
1.155687074846622900e-03
-5.241703661995426042e-04
-2.382642707160095158e-03
-1.152267521734807272e-03
-4.962553116258682992e-03
-7.372446802435099651e-03
-2.838266519517157471e-03
-2.322308685505472298e-04
-1.520289218284921577e-03
4.153056129880470767e-04
-2.807368998963731478e-04
-5.331421085433005538e-03
-1.584097698650469748e-03
4.671360404643911529e-03
3.754482192548687890e-03
5.228877157514006009e-03
8.895252933655678138e-03
6.828214881092512303e-03
1.320525500981431814e-03
-2.222483446689776888e-04
2.429542930743492941e-03
2.178144444684869136e-03
7.852838795529736493e-04
3.245817503739119336e-04
-1.357698959802068617e-03
-2.068173886706317285e-03
-4.060865409657288434e-03
-3.939899514207944632e-03
3.738320455136050864e-04
1.610263471872561223e-03
4.623669614842001487e-03
6.768515907197890716e-03
2.497731452822476994e-03
-4.274380493187917955e-03
-1.934559482414428822e-02
-2.375670010185257017e-02
-5.318074708403862372e-03
4.299635182356961564e-03
4.909802941200472164e-03
7.899279380645907525e-03
3.682527549879508356e-03
3.092649188914497593e-03
6.132872236015355846e-03
2.805547421199611896e-03
-1.537932219973008280e-04
-1.814794872682972977e-03
-1.329300037161640574e-03
7.783925294713361703e-04
1.285637028755034659e-03
2.317863310628292053e-03
1.187708824698775843e-03
-1.239629366380132517e-03
-2.357598721309146338e-03
-2.062537716586308658e-03
-5.754639607930897441e-04
-2.454418745288656188e-03
-9.165092920758362034e-04
4.635586341820541190e-03
2.130453523485920445e-03
3.406215508812040875e-04
2.072839247028415884e-03
-1.618364258567797122e-03
-9.506972877371441105e-05
4.169462922166241453e-03
-1.178186743076807671e-03
-3.120198809347540184e-03
2.150964053530196769e-03
2.765059903299737793e-03
1.981642643476777110e-03
1.588999142515268694e-03
-7.065706622171883181e-04
9.809108608877150769e-05
-9.728003763121513721e-05
-3.245476599446705124e-03
-1.633720952292190380e-03
-6.211370671558431823e-04
-5.534268460426644901e-03
-6.972800654137858815e-03
-1.518343589761276830e-03
2.169988450341280625e-03
-6.206803432032984361e-04
-4.117470456745403462e-03
-2.136473530702376854e-03
2.210515552234572443e-03
2.866811248646414147e-03
2.164202417152118890e-03
7.972163947289997088e-04
-4.527415592086552441e-03
-4.784178673651433289e-03
1.102444920300531261e-03
2.831173111454727588e-03
4.264415672530236061e-03
4.912823095100021797e-03
2.715764160141054349e-03
3.965304916208161647e-03
4.922927078295892891e-03
4.944139818117220843e-03
1.071306270802387410e-03
-7.096111978843025296e-03
-4.336945363480735997e-03
-6.020553737334367710e-04
-4.096461519522278522e-03
-7.372410508980908883e-04
-4.908734913322565247e-04
-3.419904291779761463e-03
1.110425401245821245e-03
1.195631749194509333e-03
3.899692813480604560e-04
2.079337318920773583e-03
-2.813848036229135447e-03
-4.206198700993736550e-03
1.551371190335382177e-03
4.073409631180529775e-03
1.451868867189591442e-03
-1.458684195340118669e-03
1.464002944379882293e-03
5.051461559323375955e-03
1.258487427105613220e-03
-1.507949288841877464e-03
-5.210854574300044810e-04
-3.020865731572980328e-03
-3.143719814225458004e-03
-7.287632332736395562e-04
-1.690616580304176277e-03
1.332901446581888057e-03
3.375677280665231612e-03
-1.351650461985623832e-03
-1.766652660451053939e-03
5.525136253273584984e-04
8.996061117236622828e-04
8.412512807786599249e-05
-1.199134058978144120e-03
1.670636795561066814e-04
-2.873220025986171662e-03
-6.441679087368747288e-03
-8.550643492103623391e-04
2.772960017408925958e-03
2.123294350786475351e-03
1.877160253585087070e-03
6.888009777169362127e-04
1.451918233065389212e-03
2.345436455459688849e-03
1.567201927148828468e-03
-3.917282999263081147e-04
-1.806693976728966861e-03
3.840038739490174869e-04
2.401079332146610970e-03
2.780449387761990427e-03
8.720594887827721846e-04
-2.009054515136512575e-03
-1.547587496083682387e-03
-1.598528112756480686e-03
-1.074523797324313532e-03
-4.329668303583971280e-04
-2.228036353802211999e-03
1.968380739606107087e-04
2.440967957431762828e-03
2.540374420004387797e-03
3.546370015462082647e-03
5.431113859334959744e-04
-6.349029660942995170e-04
-4.592517545348264764e-04
-2.867457189495238416e-03
-7.780863581097317459e-04
6.592676260381233073e-04
-3.234688321198971712e-04
-1.337820214871093556e-03
-4.549842429750867827e-03
-1.495642489519015753e-03
1.892144729824468121e-03
-1.445690870948452373e-03
9.008537968031134690e-04
3.378554758851643174e-03
-6.873487623627574017e-05
-1.588868066740660695e-04
1.832874669705947832e-04
-1.912917888501081284e-04
4.655159493321576482e-04
-6.956235681618696881e-04
2.953606507181621250e-04
1.404898052018016975e-03
1.881199084641248286e-04
1.065599512224710103e-03
7.576667962619044409e-04
7.841478572922626908e-05
1.792151530159425115e-03
-1.656342734070599654e-04
-3.145265113239311110e-03
-2.572221212645396920e-03
-1.917528799256710235e-03
-2.033317090701407086e-03
-2.661531875551552233e-03
-1.840166191203235820e-03
8.685002204832121143e-04
1.216563357183994554e-03
2.094765264130413456e-03
4.953215897852396125e-03
3.402400721341152477e-03
2.178103474349257600e-03
4.803090165558794415e-03
1.280950901713265571e-03
-4.154123822813911640e-03
-2.558124214455948387e-03
-6.116791642720391777e-04
-1.074061053781038503e-03
-2.907199555769569323e-03
-2.639162669894611155e-03
1.636184510047897526e-03
-4.889296940055711449e-04
-3.675847700212077004e-03
6.251489324465972150e-04
1.609532998316951348e-03
7.225753400104090553e-05
-2.521866887283368409e-04
7.850403843258341565e-07
3.090065664616995465e-03
1.562715713657480444e-03
-1.422555038457604115e-03
-2.512639803503208301e-04
-1.594109086957474011e-03
-2.184476107727516443e-03
-4.399310853328921873e-04
-1.183125998800131781e-05
2.863038932594205461e-04
1.448517620624949079e-03
2.287517658022621830e-03
-2.272416488522730870e-04
8.555150107866494030e-04
5.689657181828807093e-03
4.297212282538040613e-03
3.656764045336997025e-03
5.087393483767592775e-03
1.771242100899420024e-03
-4.157664234134593809e-03
-7.354202458392299600e-03
-1.714020052954535415e-03
1.117962349151293937e-03
-2.900242069512526302e-04
4.016908914407227478e-03
-7.957276379174911193e-03
-2.553823453406232208e-02
-1.490554374709325905e-02
-9.162827877460103020e-05
2.823185754826504877e-03
8.124233770778099134e-03
8.212478580890778673e-03
2.838722078184184941e-03
3.474672162252440480e-03
3.644008559071297299e-03
3.755116465320921626e-04
1.581597809900020437e-03
3.540057215551458726e-03
2.902794540652876842e-03
3.883294699790446319e-03
3.491638802816069732e-03
2.632908441553884812e-03
2.924599134763945178e-03
-4.838777515421616084e-05
-7.436052323408908231e-04
2.195692133940127175e-03
4.836140741078852421e-04
-2.121746895336816714e-03
-3.858503681343049144e-04
-1.818559321181823733e-03
-6.870751586274531121e-03
-6.628447343222737542e-03
-3.813401813150018357e-03
-1.975019837255956139e-03
-6.341099984970969584e-04
-3.613748470569002127e-03
-5.467740936108609479e-03
-3.399992489182045250e-03
-4.206917518764297266e-03
-5.829005011468097255e-03
-2.556918858634914075e-03
5.190215237500580593e-03
7.134975141660217408e-03
2.322606818873080084e-03
3.508481143345653849e-03
6.215242265379262998e-03
6.063445792405481281e-03
7.460861438936180860e-03
5.881848221692050419e-03
3.061957589936571515e-03
2.593399087228730453e-03
2.172639837858098954e-03
-6.756353446488650620e-04
-2.395231680166773434e-03
2.089189140409389821e-03
1.457540285904785097e-03
-3.332424429029931870e-03
-1.731468922476200791e-03
-1.735066207723515424e-03
-2.345138207740794269e-03
-4.624973913903376692e-03
-9.950335053421792419e-03
-7.190212070910066526e-03
-3.039334659597550930e-03
1.490541147303219493e-03
6.049635112496258224e-03
1.121577216527379372e-04
-2.483541483579017242e-03
9.246065266156019459e-04
-1.267274776862626620e-03
-4.508487022709366764e-03
-5.761895064820855665e-03
-1.744807500973220718e-03
2.710176887275548077e-03
2.120782243829764035e-04
-6.068485687731671289e-04
1.206464516969999769e-03
2.450367280893430647e-03
5.358374328701782756e-03
6.561045660339779977e-03
4.455721521506376438e-03
1.694193282533815008e-03
3.467989023095709145e-04
-7.359730127733654908e-04
-1.947878515690259268e-03
-1.503406986704495661e-04
2.816961834452047161e-03
1.583601006045444546e-03
-2.095260210808262170e-03
-4.650277532075973311e-04
2.059415274224850063e-03
1.236131943737928151e-04
2.244749583132544298e-03
3.437332628437919299e-03
-4.915403040127261803e-04
-2.045221595703197552e-03
-3.555223336445349162e-03
-1.323952626946956141e-03
1.397753264017165178e-03
-5.751962126012211737e-04
7.279484847230625411e-04
-1.326146119327540089e-03
-2.510437022711075987e-03
-1.014491908104731780e-03
-7.989963826292910062e-03
-5.122186637577981656e-03
2.793054108940244088e-03
6.070883526948589806e-04
4.409647031858664190e-03
4.630189744415769311e-03
-4.064986955093221992e-03
-5.717108813978136889e-03
-2.008259147995497453e-03
2.597589418124913573e-03
3.348472591674494462e-03
1.794321624580217170e-03
-3.812597426556288915e-04
-2.562519560190238462e-03
2.767566470549071012e-03
3.719367916636047780e-03
3.224388790041392565e-04
2.660732051922530365e-03
-1.969631643927730264e-04
-4.490192283117081266e-04
4.064019685412157898e-03
8.958764108430990018e-04
3.808441325838114575e-05
1.647870343328211844e-03
-1.296603716174161329e-03
-1.026640670441231933e-03
4.392781165367538355e-03
5.467859061790000461e-03
7.782356696851405178e-04
2.312407619031563036e-05
-1.278508457437526257e-03
-3.980526713223029103e-03
1.202270324373363964e-03
2.857960507393326674e-03
-1.505556827932317014e-03
-1.054461385519081312e-03
-1.964145039889286142e-05
-1.282944049669280029e-03
-2.403300136843311129e-03
-2.132187395048024472e-03
-8.202484567890174025e-04
-6.360286283118790499e-04
-1.167784691443638509e-03
-1.022260767373936842e-03
1.250491955730388769e-03
3.158630018617740974e-03
1.775418548642820589e-03
-1.836574699637655154e-04
1.168795561688962736e-03
4.180822056396176628e-03
2.248208359579262870e-03
-2.075975868985375659e-04
9.868299589573181155e-04
-2.678340548401792701e-04
-2.871465728853116444e-03
-5.990242210969634780e-03
-8.816619438606938461e-03
-8.933980285523546866e-03
-7.662556172920135730e-03
-2.963975943679425604e-03
-2.906375282922830233e-03
-7.415900351686380981e-03
-1.806164742192165659e-03
3.798717641505253064e-03
8.449924339670313944e-04
6.449380082881036669e-04
5.391565105250279918e-03
8.382128605283225425e-03
5.806394794951144286e-03
5.898175760609681434e-03
1.012272665449998749e-02
8.596373556277301167e-03
6.645475431092426159e-03
5.674943446065248975e-03
-2.062026697990536795e-04
-1.195860281601065795e-03
5.630482698848007263e-03
6.823153594307524404e-03
2.350302718783480078e-03
2.177136206407746886e-03
8.915509536480994675e-04
-1.272519064701949478e-03
3.717224801762150036e-03
6.514505143583460521e-03
5.354440823229122265e-03
1.884801506632606712e-03
-1.021420437937458833e-02
-1.740455001425277037e-02
-1.314419206748570351e-02
-8.613632533233104779e-03
-7.792937993363032237e-03
-1.464242936055613897e-02
-1.904828038553110781e-02
-1.084247893606589928e-02
-4.956900417153812556e-03
-1.963002000046433493e-03
7.490627459223211243e-03
1.450616153210406920e-02
1.839357898396520516e-02
2.299124526873888227e-02
2.502522394840877434e-02
2.290728365398118221e-02
1.049606351634090398e-02
-1.291347954260210328e-03
-1.219703328589882233e-03
-6.108171047870243273e-03
-2.247552877862995027e-02
-4.705130785158242318e-02
-5.817696981059782002e-02
-3.130761291396904483e-02
-1.170982510137458851e-03
1.054809537221058739e-02
2.262064498260591555e-02
2.523755345314716500e-02
7.474326501756215456e-03
-1.980503782347800903e-02
-4.168541542806884770e-02
-5.103002023392419484e-02
-4.552166570996675488e-02
-2.487119679322292998e-02
-4.581043851779510344e-04
3.432590650440010827e-02
7.772563560000596283e-02
9.705263013416545737e-02
8.461215428616646050e-02
4.938392824935620290e-02
1.120767534213931889e-02
-1.398044413322163497e-02
-2.441443661409292698e-02
2.135376712082538795e-03
3.757354382518093838e-02
2.918171306055860129e-02
3.576492630200563301e-03
-5.927164227362356329e-04
1.337978164703108527e-02
8.288796296370321698e-03
-3.095551289450712215e-02
-6.393959434306489831e-02
-8.039281676965688572e-02
-6.803218904351536478e-02
-9.727796230507212635e-03
2.719630703674635538e-02
1.658900219957277003e-02
3.403657590916813348e-03
-6.620616733587254485e-03
9.907726318404684075e-04
-7.441092334625686814e-04
-6.524817384328747416e-02
-1.134350859102562226e-01
-8.993713995441121600e-02
-4.441714765730960662e-02
8.230043797840272402e-03
4.330173532663370017e-02
7.644731065452303742e-02
1.455932320491730159e-01
1.632602515132205723e-01
1.050765168315635073e-01
6.272822453070558968e-02
5.090369804403229587e-02
2.681741425324146721e-02
-3.256122289326410235e-02
-1.018426937230088175e-01
-1.400997249464578098e-01
-1.302339001302149080e-01
-9.397536314936545676e-02
-7.628127082678168303e-02
-2.963085352906717762e-02
5.597985913492037335e-02
6.940061754504708857e-02
4.529615040810924809e-02
8.079585883657339207e-02
1.099958727593823016e-01
4.625641143169002129e-02
-6.303133157924287189e-02
-1.198313548132908662e-01
-1.287662726701322979e-01
-9.869906403959786967e-02
-1.655753792206257624e-02
2.220108917985821190e-02
2.160840299251042158e-03
2.562256087669691554e-02
9.515283091156775952e-02
1.339330151263543323e-01
9.870652324299815372e-02
4.871711598059901005e-02
3.979233322787112392e-02
3.501521899500563417e-02
2.665527942875785608e-02
1.795600251431718128e-02
8.580078402352216095e-04
-9.616745405187174939e-03
-2.441651616190993954e-02
-3.970296743214035695e-02
-4.903017496883094878e-02
-5.965592851192334095e-02
-4.957343474926305393e-02
-3.066457812462127647e-02
-2.327367703253265321e-02
-1.407793410166181466e-02
-6.294885896564101670e-03
-6.996569212170010627e-05
1.182164353570808787e-03
-1.335149599877928119e-02
-2.839602089309076899e-02
-3.883361166136259368e-02
-4.121742526470883322e-02
-1.962864438666990854e-02
6.622901306974670124e-04
-6.062087628689292757e-04
8.178988301583063961e-03
2.935395636858922908e-02
3.438808478565532484e-02
2.903018094952140860e-02
2.499872053112054543e-02
1.906177716821296983e-02
1.273981080956738954e-02
9.479237543339255265e-03
7.792271004652523078e-03
6.752188424102733080e-03
1.131122482843666642e-02
1.497479347802244988e-02
1.207885005991541326e-02
1.309763467332186911e-02
1.048740586830661584e-02
8.516676666837848545e-04
-2.888382866051092054e-03
-1.145877279592150653e-02
-2.187539776898406521e-02
-1.940512635961852070e-02
-1.543222686471389105e-02
-5.339447503104276758e-03
9.215861677441351818e-03
8.893675407180770195e-03
1.054311768003197806e-02
1.511314396547487442e-02
3.612092590803155003e-03
-5.285784451309924296e-03
-2.260751772291895879e-03
2.599173403869822763e-03
4.271490046742397462e-03
-2.969738740457568936e-03
-6.329078373156928235e-03
-7.102554304221213614e-04
-1.719550155200423071e-03
-5.934454716574832055e-03
-7.055892833871034095e-03
-7.413473833766983691e-03
-7.452586039113784019e-03
-1.142457864199327919e-02
-1.572790229210057830e-02
-1.408872836880272622e-02
-6.553482646665078487e-03
3.575393896745543225e-04
-7.979847948532043690e-04
4.183073237807914679e-03
1.688204698746726892e-02
1.558314045700842469e-02
6.891727891195910741e-03
1.967180207697151809e-03
-1.898182049688929398e-03
1.258414670095356336e-04
2.486068083323840147e-03
2.249995982086385599e-03
5.291569742849768984e-03
5.983054633059604541e-03
5.153602241138568497e-03
5.405683077096745323e-03
2.768844776452995121e-03
2.110333221692323614e-03
5.502159604663490675e-03
4.227803627057422943e-03
-6.446052260738062943e-03
-1.697781615180058920e-02
-1.872981780049307737e-02
-1.803189459334718359e-02
-1.901609542991143306e-02
-1.880222472100187558e-02
-1.380524472059840337e-02
-5.663795679996846055e-04
1.554966640512086586e-02
2.245189121131202850e-02
1.444943165422785981e-02
3.546163523495743028e-03
2.491442840861102931e-03
5.109837432469495865e-03
4.809199745408204892e-03
1.077431759851173090e-03
-2.528048951357380648e-03
-1.089645545144325928e-03
2.126555739907058933e-04
2.702574844445221770e-03
8.302354203778755659e-03
8.218393747305159647e-03
5.882355326164411154e-03
5.948042077898244885e-03
4.379628356749762537e-03
2.950631614130057138e-03
4.147491403791974361e-03
4.016431435374409262e-03
-7.503773473235154229e-04
-2.677482042677712185e-03
-2.478331359804071370e-03
-7.948995768181015692e-03
-8.763942033136563198e-03
-4.245663637123963177e-03
-2.574915214128841497e-03
-1.477263896196175357e-03
-1.669981552103256845e-03
1.732523623797840341e-03
3.958978242104862350e-03
2.249610657546432212e-03
2.936218224967619608e-03
-1.364213621430990231e-02
-2.907957686758207150e-02
-1.196370551555841003e-02
2.495377935468414115e-03
4.231094990401603091e-03
7.345375004527985967e-03
2.628641549359983422e-03
9.671766961648748089e-04
8.782979557505963923e-04
-4.210999761221371519e-03
-1.024592741761526284e-03
2.822389528200380370e-03
8.775962297460606276e-04
7.337993585471358146e-04
2.235603272715398510e-03
2.789512425283493385e-03
1.864921587009478205e-03
3.104702268619223202e-03
6.793787554943188541e-03
8.103372579245222279e-03
6.757109288981301420e-03
6.589691648470724118e-03
5.732887929015977740e-03
-2.003397004769106628e-03
-7.997884097279443424e-03
-3.979700166022557759e-03
1.000459572810357724e-03
6.895805560456662927e-04
-3.521540240599515224e-03
-5.996864531378828279e-03
-3.752485057842473281e-03
-8.932149124639837418e-04
1.113600960980690602e-03
1.740285221799097153e-03
1.092988945212551490e-03
4.696381334321899715e-04
1.921652240754673398e-03
5.265437985625104518e-03
4.387326273267930406e-03
1.168929674731260205e-03
4.194496576915637690e-04
1.021499801001615661e-03
1.498031460944431641e-03
-2.387940997636783802e-03
-7.636181787609786983e-03
-7.666063103839393551e-03
-2.570499224757527221e-03
3.383837114613094405e-03
2.620746937691116347e-03
-1.869556726367692639e-03
-2.517331370633887552e-03
1.204087774422537768e-03
1.889932380394588642e-03
-7.459135737289229219e-03
-9.656897133151026019e-03
-1.014858001810368471e-03
-2.205028180512829880e-03
-7.258639852958926469e-03
-4.688254950719402715e-03
4.078316152208558490e-03
9.451552274367431769e-03
5.203837072076786599e-03
6.217922364977066657e-03
5.711851681246662808e-03
-8.566233389036763228e-04
2.459318514520509799e-03
1.082094009536152491e-03
-2.836540875108694518e-03
2.299542557888379930e-03
2.170102190724511413e-03
3.201076873868535008e-03
2.160756361813771006e-03
-3.659085073396167037e-03
2.821629366754808792e-03
5.119169008603211696e-03
-5.864535170055556806e-04
-6.045285643840224909e-04
-3.499970382489037222e-03
-4.762711629142285345e-03
-3.755143308074685403e-03
-5.488956286279932616e-03
-4.726072644145560241e-03
-5.062079214977354205e-03
-3.776373253297170968e-03
-5.526567980534378977e-03
-1.015091397289221743e-02
3.328139014465013312e-03
1.924739912558505808e-02
1.614061993035868781e-02
9.115915222549295441e-03
6.190384213024498379e-03
2.334254325836732612e-03
-4.508800490247301396e-03
-7.037141691418074933e-03
-3.722274464560264198e-03
-5.392086441913739037e-03
-6.732757417618336418e-03
-5.929924480471704569e-03
-7.248198035396243195e-03
-1.083734392487053968e-03
5.683439340798054039e-03
7.250628257565208158e-03
1.093466953314956025e-02
6.617375750826304769e-03
-3.446070154985167791e-03
-5.326408287518545788e-03
-5.849796248548205443e-03
-5.413910553300405569e-03
-1.061133311906330970e-03
-3.986604040078570166e-03
-6.171870646905388939e-03
4.461736748025473161e-03
1.078504319583634304e-02
5.715855392413705417e-03
1.934448630142748598e-03
1.908060365447120316e-03
2.193173995998345081e-03
-1.551625832257842665e-04
-1.053444121706164412e-03
3.038921226938550400e-03
2.869627906505187349e-03
-8.771762084236138903e-04
-3.484079472106099825e-04
1.281826554259481209e-03
6.768907690068303069e-04
4.199746729132477346e-04
-1.931077534620466668e-04
-5.508287591699100039e-03
-6.965068452147693025e-03
-2.027970002371906090e-03
-2.792717082253151455e-03
-2.695276613470831348e-03
6.100631373288381782e-04
3.530717109164450106e-04
4.467193893834924857e-03
6.490074417545059482e-03
-1.620093348011195566e-03
-9.706538999416456509e-03
-9.540431227165588682e-03
-6.110082920052505072e-04
5.907511751064103978e-03
5.241276143262104878e-03
3.232393239620913027e-03
1.932268158191165035e-03
5.700846396353580030e-03
8.007581094832936369e-03
3.162827412736720668e-03
1.951890495537156951e-04
-1.862944993746943516e-03
-5.274951461868894638e-03
-6.339698735858247981e-03
-6.851064642519128639e-03
-8.184396281811423188e-03
-5.516009644957182816e-03
4.336824776725511574e-03
1.077524641948279273e-02
8.711873164520982094e-03
6.353668592216835283e-03
4.631318141402178748e-03
3.475823926172680062e-03
5.792341654458022177e-04
-7.207965383587144892e-03
-9.550195055872059621e-03
-1.858857891805517238e-03
5.078586669647375262e-03
4.127439148568213395e-03
1.029729355046113230e-03
5.761856265557825174e-04
-3.932352999777481657e-05
9.161932089984301496e-04
1.680768378132904781e-03
-1.108742307529021146e-03
-2.915765073055262210e-03
-4.626034571231380128e-03
-5.980006236368472054e-03
-2.911326681822293174e-03
1.120944662500915259e-03
-9.139139308937027824e-05
-4.259198000580729539e-03
-6.158412615709803715e-04
4.118202326193989848e-03
-3.978110034405364062e-05
-5.455999380624380760e-04
5.962265903753634442e-04
-3.837609145466211198e-03
-1.529269940916309044e-03
4.021370212363452150e-03
2.583374328135611825e-03
-5.743288937862621587e-04
-2.324521562796981727e-03
-5.574659666119466698e-04
6.154645751164718355e-03
8.178049106399409851e-03
3.233956037787543130e-03
2.380028900900157604e-03
2.080484959228918584e-03
-1.713935886037930940e-03
1.857826672092694571e-03
3.956259535899750955e-03
-3.475394143463713271e-03
-2.690752165885507835e-03
2.753396997902776006e-03
-2.337443382420438878e-04
-1.799580935652251483e-03
-5.293992320003339767e-03
-1.363615427954651890e-02
-1.228429667719536759e-02
-5.249704814512741111e-03
5.176682690606180907e-03
1.516576370502082001e-02
9.602777374204752095e-03
5.977075455604581068e-03
7.204107874537883476e-03
-1.255424756865412134e-03
-1.260973879375209454e-03
-2.187621711917843090e-03
-1.300531113407340025e-02
-1.007805572190586217e-02
-3.859475072188222212e-03
-2.192256806813761266e-03
2.894868775372255645e-03
4.193751162413204316e-03
4.063069050398883733e-03
3.893066292807230433e-03
2.084041531154948168e-03
7.122157789345054217e-04
3.434337246874929334e-04
2.956750085664391989e-03
4.035591325863988402e-03
3.601309795399263835e-03
9.559277670666038902e-04
-3.744688008958449790e-03
-3.609247879834330281e-03
-6.032724224101422041e-03
-6.541730818873282491e-03
-6.776148806163278995e-04
-3.198287864619353180e-04
3.792244140069471817e-03
7.964781909125393661e-03
3.786632126495604635e-03
4.304086571228355786e-03
2.276278374667048323e-03
4.540293044902438363e-06
4.896032466459064765e-03
1.058694320999791199e-03
-3.878508179859168920e-03
-2.556542924276400397e-03
-4.830252755728014179e-03
-5.944702490698112844e-03
-6.273430797036753416e-03
-4.419707772548730866e-03
1.394462626868078672e-03
-1.273261744726794696e-03
-2.715777852543754724e-03
3.183384481457755648e-03
9.933399773202017478e-04
5.549572346075659244e-04
2.833255692528717333e-03
-3.880026903006776520e-03
-2.033092147033361847e-03
5.903864570123090218e-03
4.161484550906727371e-03
2.572036756606221452e-03
1.005518903787357187e-03
-3.081688477053554174e-03
-5.412648908590150972e-03
-5.467177225248300194e-03
1.481487635823109522e-03
5.948793071935771538e-03
3.475058417260615002e-03
3.587834719080918756e-03
6.696685171004538185e-04
4.567165506938564244e-04
6.715557183765846760e-03
4.014876616246652354e-03
-3.015637913946194056e-04
8.424567664118593228e-04
8.091484538619215551e-04
8.823855130042447320e-04
-2.961701143370449804e-03
-5.918463332566828786e-03
-3.274274242496981024e-03
-2.834317423423367809e-03
-1.893026519039400562e-03
-4.728572458320101819e-03
-7.075776552075080730e-03
2.693256422522597414e-03
5.335590417221589173e-03
1.385630141053752337e-03
5.153637644486079930e-03
5.280130879614405685e-03
2.203774015630718865e-03
-2.626718937428139129e-03
-4.692746073845324196e-03
1.323291658965158142e-03
-2.589473304642570407e-03
-6.052857620997879017e-03
5.215688694743779441e-04
-2.567499545510310531e-03
-5.036513620697275970e-03
-4.834826001174161864e-04
1.582329508149373648e-03
4.157784581938643413e-03
3.312301441825315183e-03
1.576760748646784723e-03
2.288921744799457536e-03
2.025884651433672995e-03
4.633292202331875005e-03
4.968416538582125751e-03
-4.670332919802746468e-04
-4.627436049161257926e-03
-4.258136393849593603e-03
-5.102606324923632903e-04
1.786901441615165037e-03
1.995825681829897780e-03
1.800504393448347116e-03
2.892655948941536622e-04
-1.427672958661527387e-03
-7.653047501463440929e-04
2.447172090061113577e-03
1.489274318016847298e-03
-1.302385564200271659e-03
1.161984600021151708e-03
3.867923421996435733e-04
-2.898636641527053710e-03
-8.403206399678886645e-04
7.032779617295568681e-04
2.765325228827393458e-04
-4.867162443633724664e-04
-1.924727239328579949e-03
-1.067413318978443397e-03
1.537801554032688207e-04
-1.080837514171130009e-03
-4.939730316683365111e-03
-6.473149984556106872e-03
6.367881074673903494e-04
5.459316575784491782e-03
1.906545483603207984e-03
1.046302613405971672e-03
-1.987628314674138869e-05
-1.147370376661440089e-03
4.773194136682536518e-03
4.180925561795434224e-03
-1.977939020133943730e-03
-8.659864443789208263e-04
2.230274191951828427e-05
1.375802236711509740e-03
3.752145749498801697e-03
1.716218077932988011e-03
2.098059301214795069e-03
5.913668025537841200e-05
-3.072083311066815293e-03
1.475547283485380582e-03
4.091684594620417737e-04
-2.718033995887100991e-03
1.788399017003619411e-03
1.899856282412738925e-03
-2.004607872476463302e-03
-4.997711549887483805e-03
-3.671832095120785688e-03
2.052080242796093523e-03
5.704122240152110709e-04
-1.563558903642568807e-03
1.558326491940747105e-03
1.272999729998081217e-03
-5.732592508782669266e-05
-1.881066699970965986e-03
-2.146879236184334218e-03
4.910591519083538047e-04
-1.992675712030435114e-04
2.091518332318614143e-03
4.969530247427285906e-03
4.214020842761393186e-04
-3.431248157706599431e-04
3.682792309583788996e-03
2.812385461869969499e-03
7.206523039183913328e-05
-1.066594341908798284e-03
-3.363990452340717696e-03
-6.256497388340013545e-03
-5.314393699771626650e-03
-1.371321347353682924e-03
-1.055890771785539641e-03
-3.220007356528893638e-03
-1.324741946614863258e-03
1.550217121620203601e-04
-5.984622685379265049e-04
1.339154098551950623e-03
4.857580393284467290e-04
3.937868988731778628e-05
3.347344915302402375e-03
1.092167046644406227e-03
1.606191772229971677e-03
5.930021726204537207e-03
4.382579053093608665e-03
3.305164557347727190e-03
1.563776443496293141e-04
-2.670206988260838236e-03
1.286553797260170601e-03
2.797661007827544934e-03
3.551443429967464458e-03
5.666732047624741669e-03
5.107019790312598319e-03
2.252668493064915491e-03
-1.434180559509549708e-04
1.635732497440204681e-03
-2.188204495272825807e-05
-2.451394885540019754e-03
-2.700767557133912323e-04
-6.216733271445518952e-04
-2.329461209824512484e-03
-1.530182901553534328e-02
-2.576409475207514996e-02
-8.333600603584390837e-03
3.928946325467505378e-03
5.685193503524672756e-04
2.476413596653824229e-03
3.074123837977017532e-04
-1.335043386569321425e-03
1.252466871788550026e-03
-4.985104235290444864e-04
1.130304574615025428e-03
6.162761328323991365e-03
5.699255797540932027e-03
1.283515452070044531e-04
1.797443037352554178e-04
5.769904139549178815e-03
5.344501134691258780e-03
1.703721072456630160e-03
6.748622430426795462e-04
2.993074096896702115e-03
3.925163479690792906e-03
1.514303273815927877e-03
3.109983510341055198e-03
2.793936399358120260e-03
-5.171901782792786553e-04
-2.491745989393823017e-03
-6.020602048005299287e-03
-2.585833897317137749e-03
1.722368747589220509e-03
-4.760904159943855625e-04
-1.519831401238587627e-03
-4.524181478106971931e-03
-3.347433733202214573e-03
-3.942107191342720781e-04
-4.643283645550990053e-03
-2.995049170751193628e-03
7.247289253073713102e-04
3.710630676237656718e-04
1.581210492918539096e-03
8.012609859086453415e-04
2.135918139168892227e-03
2.152185215788240177e-03
-2.171929143169380825e-03
1.552719740177883109e-03
7.000297019423123643e-03
4.377760161034021692e-03
-1.888067843555415841e-04
-1.225732017547360476e-03
1.037995353413476542e-03
4.721006288300406474e-04
-7.293444126493723971e-04
2.008819127749705575e-03
-1.334520609145229330e-03
-8.199191940822405864e-03
-5.236184710127974283e-03
2.652130568555889590e-04
1.227934984854393103e-03
1.070927736137123861e-03
-1.400771392452402264e-03
-7.173775652813747144e-04
2.103193375068114750e-03
-2.838396057158044331e-03
-5.382844046749447539e-03
-2.259972279648058031e-04
2.442986258366683806e-03
2.060369854780736906e-03
1.031170519712233137e-04
-1.910693514856829896e-04
1.737431514279598943e-03
5.534282375364526531e-04
1.618502676823373784e-03
3.778932728961588612e-03
7.711028318222788811e-04
-9.843791383510021656e-04
-1.485787809245960793e-04
1.540618193770374855e-03
3.875700953481163100e-03
2.990856850384234888e-03
-6.240641413783906775e-04
-2.995568805749092550e-03
-4.238634053694961259e-04
1.569104152161205495e-03
-1.508699188053391283e-03
6.019503910447128545e-04
3.232735197650215241e-03
-2.960975876937887129e-03
-5.542191647120389524e-03
-1.943132703347522994e-03
6.326385528639021571e-04
2.638932511723957562e-03
2.413114002072690926e-04
-2.795690354906604953e-03
3.938600347071905179e-04
-3.479541643544807996e-04
-5.989049303872740100e-03
-2.938511202574640210e-03
4.505700008941519036e-03
4.468980216380420527e-03
1.190314085132976232e-03
-1.191206082481501873e-03
-4.244637691880981216e-03
-7.583737347963392375e-04
7.342873306864476299e-03
8.129211742961557630e-03
5.375113796087972393e-03
1.089795526448277940e-03
-3.925899424313387433e-03
-1.854029195151337458e-03
-1.109686117330591125e-03
-3.519638304601237309e-03
-3.725478591518604013e-03
-7.041108420574518703e-03
-3.396036446824223735e-03
5.821475083717189865e-03
5.658732377981554561e-03
4.388531140373973065e-03
2.961581101583875882e-03
-2.264035032171951480e-03
-4.452936495178768869e-03
-4.300155386766708887e-03
-1.211423831991292367e-03
7.529523511061058695e-04
-6.270889084496745732e-04
6.874971091088346187e-04
-6.547944767652503183e-04
-3.379973720491902343e-03
-1.903085623035774554e-03
-2.726608668921077215e-04
2.056584132793778334e-03
2.338984284888928969e-03
3.370290642129755146e-04
1.545553234486507325e-03
2.783383234924330374e-03
1.888132784229677556e-03
-8.100640952944548781e-05
-1.890959388677839912e-04
2.112343090959731967e-03
1.154110456238363353e-03
-1.347482124485660168e-03
-1.557719582228165364e-03
-6.647715137424660848e-04
-1.303857149817158525e-03
-2.202453903225399905e-03
1.081529704684093757e-03
1.978444607647539700e-03
-1.274437680106768221e-03
-1.351978101110707037e-03
1.054193838076691089e-03
4.706217487426636766e-03
2.625578026309889536e-03
-3.942064826028840278e-03
-2.018181701021908893e-03
8.041071211108911498e-04
3.904532732664449781e-04
4.964477601453254948e-04
-2.256704602881668201e-03
-1.070409710966769646e-03
1.215904924323862532e-03
7.403134970368235217e-04
4.488803130369673801e-03
5.721582339319626447e-03
1.916584555964742816e-03
-1.821132680318868127e-03
-2.314571813016546957e-03
1.938916702166524307e-04
-1.642654264023111436e-03
-2.892312347060915344e-03
-1.752695392826482358e-03
-2.020011273474461768e-03
-8.562987208216158493e-04
-3.953829181455618610e-03
-3.384912250152692301e-03
2.609083204763350695e-03
2.054589836723525538e-04
-1.955928366250308842e-04
1.289801696966107148e-04
-4.310210674469850713e-03
-2.409273966578523354e-03
-2.736321835205204368e-03
-3.860814133051880016e-03
1.800105234105183133e-03
2.168848590334732183e-03
1.286996967177101749e-03
5.511582445440114594e-03
3.930097992251746497e-03
-3.019246948060659661e-03
-2.099589255972745400e-03
3.244023455999394887e-03
1.116500965254801740e-03
9.469424606587433977e-05
4.771539010632466250e-03
6.418910640920066912e-03
5.745201349912389989e-03
3.924956015602957572e-03
1.165841454560618239e-03
2.035235046887460181e-05
4.106132049530589667e-04
4.228225671326272085e-04
-2.692848905499804334e-03
-6.057459896141875397e-03
-2.589536406678042725e-03
7.131725644144253778e-03
8.155163430781068798e-03
3.248029835068684708e-03
4.232108014352869638e-03
-1.380003440374061481e-02
-3.417244039074277678e-02
-1.397338614608043157e-02
5.887068750754589214e-03
3.059622055138814644e-03
5.665378025528171151e-03
6.815606468403441129e-03
5.293777448443788558e-03
3.765944646674082141e-03
-1.932278066110682197e-03
-2.775757672745501024e-03
-2.570091294742419749e-03
-2.209955369883108943e-03
-1.827362219636942441e-03
-3.604017086157898248e-03
3.754491133613467504e-03
1.059170217905159965e-02
5.609445060987202497e-03
6.548291383125437112e-04
-1.553241834050687799e-03
-3.655869819760112181e-03
-3.775281176460721592e-03
-2.396279320626728583e-03
3.801359379749514580e-05
2.121908658355858585e-03
1.626546146020808707e-03
2.152262976730823663e-04
1.411305348898630758e-03
2.525952762490638482e-03
1.666590778141102084e-04
-2.803717702703006735e-03
-2.336693828955637570e-03
9.186518951553558025e-04
7.852975674854139254e-04
-1.562076506558351388e-03
-9.823874208533154521e-04
-5.602442484234176857e-04
9.398146828088635657e-04
4.123537413097973399e-03
2.720341874488804972e-03
1.747840439114053132e-03
4.771817383259062753e-03
2.686196366552391808e-03
6.900621538689780728e-04
3.804981269596508561e-03
1.735212602653204332e-03
1.069562599369196422e-04
-2.335854850130431384e-03
-1.072991575648220459e-02
-4.955133288642911242e-03
2.253202609055505404e-03
-2.579636871920332978e-03
1.104441977514253413e-03
-2.390561376882190201e-03
-1.027949031192498461e-02
-1.768682464674832782e-04
7.811485782114572932e-04
-4.844796908283204029e-03
4.226987633588084534e-04
-2.914695348183306105e-04
-1.199601626793916041e-03
3.652090364144144723e-03
4.593892659587124096e-03
1.427389848642850049e-03
-3.043719904186808611e-03
-3.390787865011500504e-03
-3.236192359424377562e-03
-3.802074518121340008e-03
1.555495600961011044e-03
6.243709030200738676e-03
7.472221124321509061e-03
6.448474111554595468e-03
2.524708006076850468e-03
3.373088602958216990e-03
5.176850098362432984e-03
-4.173317441207592254e-05
-2.227076985968860084e-03
2.115538851337722681e-03
-5.441022471964072535e-07
-6.426490890689559414e-03
-3.968674063655655559e-03
5.361022280543887393e-04
-9.826373492293968837e-04
-1.959795232996789684e-03
-1.762927195045259094e-03
-2.221807478849497936e-03
-9.973709924646731884e-04
6.745939745652770273e-04
9.560945822635886875e-04
-2.218639042446854631e-04
-1.271637696751483707e-03
-5.330299581270858851e-04
5.360144496471519991e-04
1.189056015381548866e-04
-1.108763573563816473e-03
-1.983290688856379890e-03
-8.278384938666081020e-04
4.074165489183886359e-03
7.641513586337264283e-03
6.399504980562124856e-03
3.656747911138248305e-03
-1.279896464479096880e-03
-3.916544026840136118e-03
-2.884882248958344896e-03
-6.269803172739491122e-03
-5.486079208038592905e-03
1.939965926534670910e-03
4.369729642931394036e-03
4.994082682311926091e-03
1.911209961197414499e-03
-5.364183999801180013e-03
-6.232096046616876495e-03
-4.197054690810727608e-03
-2.077998269677073379e-03
-6.390919182339807646e-04
-1.857085194743471421e-03
-4.445331551396971442e-04
-3.894267148346497605e-04
-1.085328608932490193e-04
3.956759824051327840e-03
2.593427513740989131e-03
2.102519713255102888e-04
2.297044822939524778e-04
5.238193924898924955e-04
3.788876531463993523e-03
3.066174827433012368e-03
2.352518823570225962e-03
3.995786463518783554e-03
-2.549041664804875366e-03
-6.802320245566243276e-03
-1.308333737203504037e-03
2.753873435502401934e-03
1.145756887608491209e-03
-6.507331073650422229e-04
1.343483160317818616e-03
1.011173550866769277e-03
-4.842316528638363491e-04
1.986618040282701111e-03
8.124906495604137255e-04
-1.938631460193509723e-03
1.885549398640856038e-04
2.330827123318380081e-04
-2.491538489198229407e-03
-7.562946933589409200e-04
-4.487650659596134259e-05
-3.225445814690008559e-03
1.380626028769049891e-03
5.771149959836941422e-03
1.786960079832770800e-03
4.507583825075842619e-03
5.603357635629883579e-03
-2.138968858054347399e-03
-2.293001298458789607e-03
1.301070192727241429e-04
-2.542161278539430483e-03
-5.917459512066903550e-03
-7.195389059549620395e-03
-3.887015773779955649e-03
-1.807830988891702970e-03
-1.604557004440361001e-03
-1.553913068432483937e-03
-2.421844197760804080e-03
1.602355471934417729e-03
2.216873433159641683e-03
-3.601297492916687767e-03
-1.206579863109779336e-03
4.736507516012723046e-03
3.102282754208771434e-03
-1.258646024314940453e-03
-1.383548254565565745e-03
7.269174599548152219e-04
6.318224266840737438e-05
7.898226587782251418e-04
5.222731593182098481e-03
5.727070127032020223e-03
1.181708676087041884e-03
-1.852638303752745814e-03
-2.403278827112566816e-03
-5.985354275724249227e-04
3.380636830090519990e-03
2.535657256029111295e-03
3.178891693054948812e-04
1.622422671985315800e-03
-1.447301819718700483e-03
-2.870089330482145269e-03
4.022456305803334686e-04
1.025861320072871916e-04
1.305811783910730637e-03
1.532419765059116678e-03
-1.906508693688885748e-03
8.135682463017673664e-05
3.929360962309821036e-03
2.087355424574768945e-03
-2.467503395920645024e-03
-1.933288376778819536e-03
-7.058123115591493268e-05
-1.415313767877188992e-03
2.631775762861944881e-03
4.251040657310345243e-03
-1.192371228561153523e-03
-2.372540231766712506e-04
4.348877261155455025e-03
6.443434918217120881e-03
2.490657405114982213e-03
-3.946870192906190913e-03
-8.182454032024083501e-03
-2.469846219008909466e-02
-3.131272651361950016e-02
-3.356928478584024315e-03
1.585123379212296721e-02
9.878263496393435011e-03
6.021183726512770347e-03
2.926275174540060673e-03
-1.699748617750513344e-03
-3.548122056535033073e-03
-6.395871857554608943e-03
-5.259845553609208794e-03
3.080315791936141367e-04
4.293171399213886914e-03
6.569808906803103858e-03
6.289620669009830280e-03
6.338174939197437942e-03
8.979970192333194823e-03
8.716589762124599822e-03
6.496718326717044328e-03
6.379844491907930154e-03
6.358373975699279680e-03
3.440184083197711518e-03
-2.015731327718494042e-03
-3.989185535043822742e-03
-3.048850814160947078e-03
-4.335760077318060075e-03
-4.243055489498743539e-03
-2.309126362603645781e-03
-2.662373502801338322e-03
-7.026355566221313513e-03
-8.474460729073185136e-03
9.442807053122667400e-04
5.175908600146300609e-03
