-1.401602996371126069e-03
-3.882083026062963568e-03
-3.285448861020671052e-04
2.349956226160998182e-03
-3.426103074514934917e-04
-1.866322247146450343e-03
5.469745443059409072e-04
-4.272494761673227039e-03
-6.278492317237019740e-03
2.164903457872515650e-03
4.431152685246623167e-03
4.044914408334451469e-03
4.485544806486073399e-03
1.230800109884891110e-03
2.727829515810241065e-03
4.467778425528924104e-03
1.985364023813405987e-03
-1.675772703532256609e-03
-6.169872048845681696e-03
-3.876754839176582441e-03
-5.131449284696889277e-04
-3.512056601423877225e-03
-3.562180552795428216e-03
-5.968279162141556203e-04
3.068617818066639107e-04
1.495384782211656605e-05
9.650991493728205061e-04
2.825932924249286663e-03
2.179968518997549374e-03
2.474066143489105172e-03
3.178116411477483090e-03
-8.285227331600088794e-04
-3.947270362327641967e-03
-2.795175409179917383e-03
-1.605206688739265353e-03
-1.845861695345761078e-03
-1.100449472717621646e-03
2.432619849539013803e-03
4.736345924203130137e-03
2.178423150178275276e-03
-5.520976785730862674e-04
2.319324026063300981e-06
-6.828184843197439985e-04
-2.676601242640025066e-03
-1.358514714106732850e-03
1.518080189318758580e-03
2.261941641674153000e-03
-3.087528973380699801e-04
-1.805904598289795196e-03
8.836084971894799358e-04
1.870959976991441037e-03
6.357374859806948567e-04
-1.282509316721261233e-03
-2.471749608628766824e-03
1.223406649016096741e-03
4.866912628695366639e-04
-4.692479147515608504e-03
-2.347154499702056810e-03
-1.184190553949885641e-03
-4.501737819205607442e-03
-2.119440183714391135e-03
1.665016113167083192e-03
1.045750532592618683e-03
-6.096302946273599466e-04
1.795694328749187184e-04
4.190657248240701842e-03
5.888869953126717009e-03
1.105702162195885052e-03
-5.366510743491824864e-04
3.763350895011867946e-03
2.214653349032110526e-03
-4.879881781192696769e-04
3.909714473590937198e-03
5.551374710562981263e-03
4.132239711004682655e-04
-3.179450798486347686e-03
1.225393336727541652e-03
5.534350317471983978e-03
-5.683043533546631824e-04
-6.044351559792108392e-03
-3.355359968361159521e-03
-1.422806577875058770e-03
-1.747173429931286187e-03
-8.169200392434134827e-04
-3.295518455911821743e-04
-1.387119957651064160e-03
-1.174003181764735060e-03
-3.053267502903259860e-04
-5.343076449562916396e-04
-2.481547237497162741e-03
-6.724381308427942669e-03
-4.972928628104472670e-03
3.468485376097590347e-04
6.193590980930610080e-04
3.067336786316443315e-03
2.795170880796259312e-03
-1.438919833868048921e-03
9.909872994452680918e-04
7.847249323381783308e-04
-2.417714130761184493e-03
-6.261010450842049795e-05
3.128909219607857971e-03
4.047941342925352390e-03
3.354046025510273865e-03
5.950572346390871174e-03
6.290635801435003581e-03
-2.344976835019977181e-04
-1.310263184519420022e-03
-2.665689862863761077e-03
-5.532550200944764095e-03
4.006361495039518659e-04
9.142550374340605111e-04
-4.035584612352813468e-03
-1.539498759383205011e-03
5.728722229586293013e-04
-1.428733592508972181e-04
7.305895388539493298e-04
1.824706999875927438e-03
1.395857327524340462e-03
-5.794889495594058963e-04
-5.676477321924156471e-04
1.121997802844790009e-03
1.742788071207764401e-03
1.902499809697143739e-03
4.244741695258857223e-04
4.997950311119078986e-04
2.905066873554505626e-03
-9.115172507596496247e-04
-2.849297822857711857e-03
3.608947630759210858e-03
1.084572593127235054e-03
-6.875252362844131576e-03
-6.272375040009665892e-03
-2.335097104751026383e-03
7.122493466910106204e-04
-3.445549191308086134e-03
-6.162877068647223087e-03
2.292693055165182046e-03
3.233709240805218189e-03
1.675129608106783706e-03
4.411980528326545081e-03
-1.342384384353755922e-03
-5.862429945599936625e-04
3.554800963580495663e-03
-4.019156914298410710e-03
-5.585374176321796294e-03
6.221225358015975522e-04
2.806975855056409973e-03
2.410168106786637551e-03
2.978207960881460413e-03
4.659309325596285543e-03
3.862234785803778363e-03
3.893559416698561503e-03
5.131698190285265485e-03
3.910611333550347533e-03
2.384172329450338045e-03
4.586748204118343405e-04
1.473702622837718811e-03
3.442746995849353935e-03
2.509226974109380216e-03
-2.998613959019621761e-03
-1.890484724704557737e-02
-2.390034466257318080e-02
-8.218299741324439425e-03
1.294733211562277848e-03
3.615816336258962944e-03
4.499603798236155583e-03
1.815784572037108411e-03
3.110480320132059853e-03
2.633800328350780103e-03
3.818097962756828042e-04
6.009632955958307300e-04
-2.255932344568477473e-03
-1.138351409719123115e-03
3.978169273673262153e-03
2.820300651259839871e-03
6.785250895346197622e-04
1.708930641146172609e-03
1.377251546315163590e-03
2.602023627684596323e-03
4.067321037617633445e-03
2.254181112374891794e-04
3.178946160688747233e-04
2.468954395985941287e-03
-7.467791918727176249e-04
1.856471531213831115e-03
2.265216415449441360e-03
-6.041248998189672342e-03
-6.129731867142292241e-03
-1.980169377806231985e-03
-1.809572018494197019e-03
-2.031517714171596906e-03
-2.630546733560662400e-03
-2.283825484190978288e-03
1.628598686622648476e-06
4.520597441118144946e-03
4.701356495555772050e-03
2.840744256279916099e-04
8.956102272342893536e-04
6.241778176131350300e-04
-1.101380696764512517e-03
1.722046163953628098e-03
2.723982661277140043e-03
1.873527743155198452e-03
2.177588694115581251e-03
3.215115556450184268e-03
4.984034641349869080e-03
5.077677585559231370e-03
-6.998778662591249866e-04
-8.987922536706880947e-03
-5.420181902633198698e-03
3.140458807200920740e-03
2.169621022025449656e-03
-1.718366157400098631e-03
-7.447295357243918085e-03
-9.247923211367005403e-03
-4.967221942389277688e-03
-4.594257261261175916e-03
4.782314432240886929e-04
2.536309725141568366e-03
-4.248209732893039846e-03
-3.640127487285734278e-04
2.382951512502517761e-03
-2.940568196647205639e-03
-8.199280637246807385e-04
2.913241500255284687e-03
3.857979951835540603e-03
4.064362332780276608e-03
3.513112187141285633e-03
4.321980021856149275e-03
1.998854091126235459e-03
-1.958018357338030431e-03
-6.170281830732415049e-05
4.536554651373715316e-03
2.396764332873678287e-03
-2.145127830218412392e-03
2.525720821225191110e-03
6.901690900938602623e-03
3.116628428553315424e-03
7.890538153020296196e-04
6.034144256916099662e-05
-1.524887997687952162e-03
-2.535380274984041886e-03
-3.098675322354724464e-03
-1.628644587327177616e-03
-1.086059302421096958e-03
-2.022238577221883559e-03
-1.763825782507152072e-03
-1.560553461372980949e-03
-6.996732015123123104e-04
2.483106674100726553e-05
1.521516638425748512e-04
-1.890837239824506204e-03
-7.487584236235943387e-03
-4.901216379761172068e-03
3.854191186969998812e-03
2.738505128370981832e-03
-1.006396535303644515e-04
1.122402468183072164e-03
6.130237512850908628e-04
2.873909261484730582e-03
1.428197634046479139e-03
-3.976227276248619179e-03
-1.243611873939100927e-03
1.008851656104145468e-03
1.893944267782217026e-03
6.285709643594221754e-03
2.948328500179354592e-03
-1.288210133209066310e-03
-1.939061298266688753e-04
-3.398779740533786845e-03
-5.518362192147136490e-03
-5.024143485430298400e-03
-4.970571406196825325e-03
2.357024450756587427e-04
3.672262027266909139e-03
2.565808858698010418e-03
3.807805598706027073e-03
2.672265519827909941e-03
2.892556184946581932e-04
2.045055903390442797e-03
3.280323306544840646e-03
2.461830090471302246e-03
-1.146775044597637700e-04
-2.727791707798288105e-03
-1.206762654180338484e-03
1.388128435741331447e-03
2.497437353544660048e-03
3.244984560557387637e-03
3.178566728254822622e-03
1.661577137676985500e-03
-1.964105488395842276e-03
-4.989475156548159145e-03
-4.222036025909801406e-03
-3.555182674883112658e-04
1.152179052183930491e-03
-3.802488762211551389e-03
-5.275669457193180208e-03
1.435827086443307136e-03
3.437105449940704247e-03
-1.156928816656464668e-03
-2.199123376749120926e-03
1.123088268150427161e-03
1.820356572714363751e-03
-1.093666167077433568e-03
-5.716699396943820044e-04
3.017057211659563212e-03
1.999858930077258456e-03
-1.845000167656105864e-03
-7.535737913623712526e-04
1.809681824442348425e-03
-2.657963955690712064e-04
-1.008805750544208586e-03
-6.044519689205791763e-04
-8.794785325026588819e-04
3.701259497166557201e-03
5.221305612963043040e-03
1.687123171781383614e-03
-1.036561872304109233e-03
-6.496981015059959119e-03
-6.631315192629239422e-03
-1.213891357450832533e-03
-2.114908418100455711e-03
-2.799193114538505150e-03
1.267392670445333146e-03
2.736889063167483992e-03
-3.568658494225402733e-04
-7.670622368395343081e-04
2.748184427379045652e-03
1.194636250610503925e-03
-1.864614261482484651e-03
-2.078897599138604304e-03
-2.579692595109271940e-03
-1.473067898951809255e-03
9.491537923017773519e-04
4.771848491455120064e-03
3.946767059999907283e-03
-1.592572554550536132e-03
1.108406357948135419e-04
1.805925948031346026e-03
1.234311225498678413e-03
3.989691969970278647e-03
3.231318852300341798e-03
3.202124273524991922e-03
1.942634074602023501e-03
-2.175074201373000671e-03
1.708400393313349881e-03
3.957162782343633632e-03
1.960426064902398482e-03
4.520256037437083221e-03
2.454247001740646802e-03
-3.534992384686732377e-03
-4.165351515186830125e-03
-3.408757783398381862e-03
-1.581883535948076791e-03
2.526095823251034954e-03
1.502112254204336509e-03
-2.390335342650487462e-04
7.348041596492078421e-04
-3.417630769750279202e-03
-1.639668421927792342e-03
4.819140440750470378e-03
1.335243467291628633e-03
-2.626591614504364229e-03
-1.516740251606026740e-02
-3.096027956707129991e-02
-1.764084453945593059e-02
2.138232861713125661e-03
5.657716737190865777e-03
8.095391708077019285e-03
6.050919543329274890e-03
1.483206306538569635e-03
1.056325589374789093e-03
-1.594131299295532139e-04
1.801647834647319545e-03
3.567065674653106724e-03
2.911515773947253444e-03
6.644748825056852500e-03
8.688565430975288967e-03
5.179798259151442708e-03
4.628258714066033844e-04
-1.663415664309609828e-03
2.515767778025637322e-03
5.310246859163279820e-03
7.912978821592479362e-04
-1.001966282099969220e-03
3.221050857790308877e-03
4.230195712657777371e-03
4.457124473023123408e-04
3.371538134995248799e-04
3.855090925665270382e-03
3.746538249062495232e-03
-3.498138958863475628e-04
-5.961446108884705525e-03
-6.260628001757743109e-03
-7.805115793664299485e-04
1.794558342678914458e-04
1.333364107861431777e-04
1.534617371053425671e-03
9.627380946695672536e-05
-2.794835533898643899e-03
-7.749777590019713003e-03
-4.364525754708086132e-03
3.199149767490963234e-03
8.579413277792682230e-04
1.522547277566561495e-03
2.688387624638704457e-04
-5.908912300446606501e-03
-3.730728793694185457e-03
-4.869609541068026758e-03
-3.415003506206940303e-03
1.646153039305989479e-03
-3.265003196456529692e-03
-3.994670171148781423e-03
-3.560896417124132136e-03
-2.767077402548842515e-03
2.051983367185727849e-03
-2.258075963565674745e-03
-8.837315184606616770e-04
3.593996309504313147e-03
-1.025496469854224411e-03
6.356920066591044589e-04
2.787186839307621757e-03
3.523800789051254566e-03
6.417509064777451692e-03
6.118262717052184302e-03
7.622822129463010209e-03
5.241364974911360067e-03
2.346010501549942572e-03
2.885875404348130484e-03
-3.365284368894410749e-04
1.526802621785801730e-03
3.126977974771608017e-03
-7.346418824173915054e-04
-1.350247451856215804e-03
-4.682847104040358324e-03
-7.292111978612946313e-03
-3.878888376176628516e-03
-1.345422424449543635e-03
1.175193944140403820e-03
3.984725042821655669e-03
4.254480991545028096e-03
2.669818956012441537e-03
4.244739955977737378e-04
-1.320606931791263499e-03
-1.785251238720607153e-03
-1.901049831872396196e-03
-2.551731103057034919e-03
-3.143467463089479139e-03
-3.070192088525093739e-03
-6.260612254894244635e-04
7.891249735970100754e-04
-7.891207478084021499e-04
-2.203059127944711083e-03
-4.128966490407590811e-03
-5.120491144339397440e-04
3.132299254489013043e-03
-1.550276737784033691e-03
4.237159561069183463e-05
1.254308546693239275e-03
-3.539943745829645695e-03
-1.105254017733431219e-03
-1.994178288772946190e-03
-5.356058054426435927e-03
-3.156704975711190856e-03
-9.970993205394714735e-04
4.337733277627753119e-03
7.495522933165472967e-03
4.741814212859466610e-03
1.263910283250837749e-03
1.403362894374703216e-03
3.702398672798956278e-03
-9.804644636401890767e-04
1.575238211041056773e-04
6.017713788017420469e-03
1.073022887104573475e-03
1.466988810897323263e-03
2.606186479096385313e-03
-3.791004417722099260e-03
-1.562861222732195342e-03
1.455422071545256317e-03
-1.403797798905058458e-03
-2.105681876017273730e-04
4.258539323201038403e-03
4.470455039858134503e-04
-6.266613134611431248e-03
-6.515992846095075043e-04
3.455018279498772889e-04
-5.629530185996070753e-03
-5.871409609066477551e-04
1.356323571373317573e-03
-2.480051413961986261e-03
-1.595489733731318173e-03
-1.183779679517765228e-03
-1.677227630334221118e-03
7.583016004932919890e-04
5.311110212289783805e-03
3.781209329103974760e-03
-1.751571487033606097e-04
-4.763454690968483684e-04
-4.389444712308085070e-03
-4.228737931804667054e-03
2.390713442871018977e-03
5.541263394204487894e-03
4.465221486803203771e-03
1.348213601492746902e-04
-2.551209640904206037e-03
-3.709445147876106776e-03
-1.625934860451959136e-03
5.277447966675971472e-04
-5.533084181155175675e-03
-4.822913767488828420e-03
-3.583643395089334719e-05
-9.878076396691151456e-05
3.477415496376752395e-03
2.725085798170900388e-03
3.474092963908413396e-03
4.890645451890082533e-03
-1.965074566571517380e-03
-1.110801409098067290e-03
1.602961424710183658e-04
-2.298480696371316395e-03
2.359673511516340635e-03
5.277855698237623669e-03
4.819633498361638665e-03
1.776754478422741491e-03
5.029827999082624743e-04
3.282293153266150135e-03
5.827051084968760735e-04
-3.350268486829976935e-03
-3.939095152307836578e-03
8.665185081708965710e-04
5.914346635971093509e-03
1.410143505158901241e-03
-2.111864187288592810e-03
-3.868498810043910583e-03
-6.424310021870003988e-03
-3.436328256576359329e-03
-3.104562131247810310e-03
-5.055923235067100695e-03
-6.169919945469763516e-03
-8.615883724313095141e-03
-5.551143747885411289e-03
-3.046259584920967076e-03
-5.402374609429910768e-03
-1.458641246105925240e-03
2.405786086689461634e-03
-7.035400628143146794e-05
3.773329571491069491e-03
8.970648920201140450e-03
7.920509848498279507e-03
7.336564137358726236e-03
3.653597907117938238e-03
2.822749290307647544e-03
7.883943389011648442e-03
7.728058306637571560e-03
5.831953465446199775e-03
2.078539405412439204e-03
6.695335960901941741e-04
3.257603263761242422e-03
6.159004613747954193e-04
2.127263689950507214e-03
4.273468688309372925e-03
2.560112703726896873e-03
6.330155695755818046e-04
-4.437464703016925395e-03
7.920987112717769681e-07
2.381818818738146680e-03
-2.787482056671129575e-03
-7.488851534207589117e-03
-2.125193006315319322e-02
-1.700829237297177624e-02
-1.054139140596469654e-02
-2.196351409294996365e-02
-3.508441084218351640e-03
1.328348278339496792e-02
3.392643421257998844e-03
4.105588478321883263e-03
3.570047402000459200e-03
2.406936750751410836e-03
4.245924866106810282e-03
1.380458950985600152e-03
2.037814447502697864e-03
6.771400088484155018e-04
4.048938911946092616e-03
5.345528389058527147e-03
-5.294542968449525390e-04
3.750516653110641269e-03
6.641748708615662078e-03
5.350720682740736991e-03
3.822743317708094616e-03
1.118509838784754930e-03
-8.096511953530212934e-06
-7.564270957722967446e-03
-5.283408518079304138e-03
2.994761943122744262e-03
-2.012578927414087910e-03
-2.961209095457985069e-03
-2.488502164969156900e-03
-2.510383779077599454e-03
3.122696372912797322e-03
2.014871299133794234e-03
1.266301816680919564e-03
2.444363081832524442e-03
-8.295978518476678767e-04
-1.390856685594632708e-03
6.183454782671154353e-04
1.363508897059327683e-03
1.431172108584835003e-03
4.654993147735118908e-03
3.442896113258506717e-03
-3.681103664244114379e-03
-3.811029563453242463e-03
-4.225680552769326727e-03
-4.890234640897797753e-03
1.646989358058558459e-03
3.858397499664479018e-03
7.232716660644484359e-04
-2.473509987245569187e-03
-2.730825248169047904e-03
-2.463861843510482840e-04
-9.997678585479568333e-04
-1.053565760377442664e-03
-6.455393447815950796e-04
-2.752777996161965939e-03
-4.702491658944561725e-03
-6.334457342411359618e-03
-2.881679534492467051e-03
2.352894222880615345e-03
2.536106637438549204e-03
2.012153609471613834e-03
2.012798467553515540e-03
2.758363544875092749e-03
3.969188487284284333e-03
4.314967090631724629e-03
5.931757113016476561e-03
5.535657463633008972e-03
2.328244456865963610e-03
4.512287751890020973e-04
-2.851306498614568103e-03
-6.367501849841455258e-03
-4.612401685177011830e-03
-4.809826665357635643e-04
6.525319935231635915e-05
-2.406446094870401484e-03
-1.547789921826166768e-03
4.160387800052049549e-03
8.308289094798372229e-03
5.076480956230965472e-03
-1.128704689196902144e-03
-1.654042841892740950e-03
-1.754378770341702984e-03
-3.564281319969035515e-03
-6.296555301533669682e-04
-6.183804519485195956e-04
-2.948294145907979884e-03
-3.508301552660241917e-03
-8.060373989662928881e-03
-4.514157249355040501e-03
4.042647353919404975e-03
2.266750253744476053e-03
2.062048528462008447e-03
2.704142678024516397e-03
-5.798187873935828004e-04
6.842686796968971020e-04
1.503268677644160065e-03
1.186679331082687253e-03
9.356189415186229796e-04
-2.568489065849296365e-04
-1.535523895365833568e-03
-5.231602657812742772e-03
-6.714686097462733722e-04
4.245956063785708001e-03
-3.875044758562972650e-03
-4.670082664705259463e-03
3.543015420687382661e-04
9.012401556528873729e-04
7.477275690008752633e-03
1.120745827174713348e-02
4.350548260793582998e-03
-2.829685361961441908e-03
-2.835825343724697727e-03
-4.868420485410645312e-04
-1.430152939353775609e-03
2.319823701847966400e-03
3.637545974963019881e-03
-2.124559344663871918e-03
-1.027109397593503918e-03
-4.806659768962366673e-04
-2.302332908063950672e-03
-1.829116278785737973e-03
-5.328944116042236105e-03
-1.964523636959452334e-03
3.765455312909509952e-03
4.188574218505494652e-04
-9.632684293606381693e-04
-1.077330359422088921e-03
5.066988376472802936e-04
4.608088453279998373e-03
9.363077443854242237e-04
-1.370208134383777473e-03
1.937993122257771665e-03
-5.770659684177593734e-04
-4.078332814244490026e-03
-2.491721623984338285e-03
-2.354515311656894035e-03
-4.612543885165003993e-03
-4.236842867256645183e-03
-2.396658425622020128e-03
9.058155032787994134e-04
6.256822038699592567e-03
7.172338670646290562e-03
3.304656143824910314e-03
-1.110326423423579857e-03
-1.887259878382585273e-03
2.120180617900668286e-03
2.909832539363206658e-03
2.518268111321580582e-03
2.399027199447332972e-03
-3.285071034152248388e-03
-4.979331548009532753e-03
-1.969227314564364183e-03
-8.136627328924532585e-04
1.802848779715421042e-03
1.098508910739738392e-03
1.743132050054114384e-03
5.568276587382758359e-03
-3.342125326108694346e-04
-3.396563266759111341e-03
2.934028548677513996e-03
2.477705461638526202e-03
-1.644899994837832136e-03
-4.189281300378683293e-03
-5.466878685657572921e-03
-4.666518613079890707e-04
4.527680899531364399e-03
4.035849819609257406e-03
2.712048667011575202e-03
2.028461507500978320e-04
-4.504142522646564957e-03
-6.347823736563096807e-03
-3.480355712198508582e-03
-3.300972593083443358e-04
6.111899681180709993e-04
3.298608581052021459e-04
-1.591161027725939824e-03
-4.361073927258270200e-03
-2.946555536473079509e-03
2.521423879119558033e-03
3.089925433754555587e-03
-1.962698377100898384e-03
-3.439104050007680841e-03
-3.412259734103090226e-04
2.003330427514602493e-03
2.576043010764356069e-03
2.628270078890922699e-03
2.390899505572913111e-03
3.203327456298193845e-03
4.750599439001815250e-03
3.758331963754688206e-03
1.633381322595890261e-03
-7.579064691496218515e-04
-1.422295392480184490e-03
3.845005141385244955e-03
4.221857297357034695e-03
2.364028742683196361e-04
5.369019740424194227e-03
6.805967603512329094e-03
-5.750181206720556297e-04
-4.330836010699617641e-03
-2.295687055464991355e-03
3.934592026640209780e-03
1.942174341582577181e-03
-4.246624688464214516e-03
-2.882424093702946628e-03
-1.444394308392427627e-02
-2.630548825291140896e-02
-1.177470669161726630e-02
5.931870788788669909e-04
9.844112395059863372e-05
4.541085104221344489e-03
5.499002700437551940e-03
2.938330519009243417e-03
7.128688617110727314e-03
4.392853805406948114e-03
-6.904206620407393399e-03
-6.543678606879014745e-03
1.139974265863591537e-03
4.352774014667351761e-03
7.162561462264441584e-03
7.316481382152247026e-03
4.919381240943361197e-03
2.802669955657513447e-03
-5.705175046103925872e-05
-5.599580699180945831e-04
-1.009718697042447794e-03
4.938692444553875976e-05
3.409054010494770321e-03
1.997033603124438034e-03
6.648439826918263809e-04
1.883559369037846216e-03
-2.580326396889256351e-04
-5.487469067238514263e-03
-6.871007392309915612e-03
-1.036659557806947655e-03
-2.687287134127865616e-04
-3.461159834282204195e-03
7.717154042978884823e-05
1.176356317390566016e-03
1.317495580127548771e-03
4.927429208911792043e-03
4.155382676325071467e-03
2.678311229323029809e-03
9.469353154852817650e-04
-4.598609868741576102e-03
-6.203248130225758744e-03
-1.711615654454853690e-03
-5.118484183338863807e-04
-1.158250756198604594e-03
4.161964652850073249e-03
4.439868805415937529e-03
-1.824985674154905183e-03
1.405824204766252961e-04
5.388920529699771193e-03
3.552427328403699562e-03
-4.090114856662424754e-03
-5.772439268530888366e-03
-6.912935174096660525e-04
-6.041558156097056979e-03
-9.725774733165404654e-03
-1.090525937863116336e-03
-1.224178140675202526e-04
-1.440544196017767321e-03
2.201334584651253728e-03
1.927222688239000595e-04
1.094372287163176407e-03
7.197772868525588973e-03
5.921052682205221566e-03
8.038171479437986695e-04
-1.981257186741803384e-04
-2.531255375333596718e-03
-6.392493010410255083e-03
-3.526338734454357964e-03
2.097493372150806886e-03
3.708396997898078494e-03
1.349539963411810258e-03
-2.112824450926487681e-03
-2.196624124586325950e-03
-2.087421292438711596e-03
-1.303425688978250953e-03
2.791720092577818814e-03
2.627148903986553739e-03
7.621760869861620227e-04
2.379801093013015224e-03
3.915905917544988679e-03
3.075522453480923624e-03
2.059401684153019919e-04
4.043683769576878959e-03
8.800990261482614929e-03
2.344470856133506510e-03
-1.966941549105195495e-05
2.461091442806614613e-03
-1.773795527745932344e-03
-9.517320006943192235e-04
3.736833748596000895e-03
2.773934836177132778e-03
3.990219794535339141e-03
4.347865262388952816e-03
-3.473214257570800701e-03
-5.144410162358810726e-03
1.075148972987751078e-03
-1.781630920015362480e-03
-4.650566984487660739e-03
-1.146479938483455172e-03
-4.552858489922927653e-03
-5.748954134486046127e-03
-1.723157755283797428e-03
-3.872950839322368555e-03
-3.784532127011331314e-03
1.305762550815092347e-03
4.609056178593567282e-03
7.216045122949543700e-03
8.938324389623893140e-03
6.193355984163952804e-03
-3.481453634069290692e-04
-1.215768887116818690e-03
2.546622590486707395e-03
1.342338079396012112e-03
-3.796297621256866824e-03
-1.186271002598404678e-02
-1.597342795828441894e-02
-1.392371530899719906e-02
-1.510890945668300588e-02
-1.329297128719183346e-02
-9.151273885825985180e-03
-1.064811277074462735e-02
-7.896165511461479200e-03
-1.228353767821624160e-03
3.469887916530570680e-03
9.786348023424590661e-03
1.289105644110006936e-02
1.070272063132652988e-02
1.050103971332567998e-02
9.861696255691422552e-03
6.978118742555645612e-03
1.017209996005952535e-02
1.299331109863087128e-02
1.031277111306766470e-02
1.361568112272989843e-02
1.740028639663691867e-02
1.533049540807786791e-02
1.124292597032530011e-02
3.395034576952834365e-03
1.860109067820908159e-03
6.397650356156739902e-03
3.459248886945970932e-03
1.362917388696475128e-03
4.940935869807212832e-03
4.809950285583152081e-03
3.430836950457614998e-03
6.599707917896556301e-03
1.015639631656151468e-02
1.005112814597266917e-02
5.196237841762388343e-03
-3.503192527368685638e-03
-7.494777097537829585e-03
-7.410911434055561520e-03
-9.118370040666554099e-03
-4.865242961016817864e-03
8.205119117753905886e-03
2.016958526321907877e-02
1.710060715792510386e-02
1.982968679252556862e-04
-1.598787719417257142e-02
-3.809953866471340461e-02
-6.750335607398323667e-02
-8.721851793361229399e-02
-9.215957036740839159e-02
-8.652601844096027839e-02
-8.920014433325351710e-02
-1.001093998542124108e-01
-8.914724242701597967e-02
-5.976007037380205028e-02
-2.914345641875057402e-02
2.735334059477950198e-03
2.960031691996305517e-02
5.785789398239017667e-02
1.051834028508612795e-01
1.562551172468020222e-01
1.702766567066189562e-01
1.496990063022930750e-01
1.406081973358423165e-01
1.306684703238969736e-01
7.436222680506510141e-02
2.163472733401222182e-03
-4.335480700833125450e-02
-7.091370105424567305e-02
-8.159179375665920331e-02
-6.953426968029835509e-02
-4.684372076783296229e-02
-1.476417859792006175e-02
3.441718222728502169e-02
6.514736833271360383e-02
4.186095822066194377e-02
2.524921677025313005e-02
4.571985347707122754e-02
1.749281348533543098e-02
-7.399536883702513557e-02
-1.527007014142949815e-01
-1.821397400261269284e-01
-1.592125315915351447e-01
-1.094680652432387241e-01
-7.550091079326767818e-02
-3.548462469862632279e-02
6.507799835523722654e-02
1.861825300831069230e-01
2.718999167919510795e-01
3.046424001277890370e-01
2.050775971268744280e-01
4.304986297688483815e-02
-1.321512149415195528e-02
-5.926698233136957344e-02
-1.445776178959035652e-01
-1.345524273396926374e-01
-5.469890474109658646e-02
2.655405838529231732e-02
6.640419281929632600e-02
-1.547565917336755220e-02
-1.705855492778994842e-01
-2.777372248488221840e-01
-3.213900209736771374e-01
-3.500306694033999411e-01
-2.937904756456599098e-01
-8.385247064110630533e-02
9.671512812440914708e-02
1.374892301791279525e-01
2.063128220040503780e-01
3.382288679997799696e-01
3.373444697979856577e-01
1.517933858897593247e-01
-2.499614302610711492e-02
-8.739874066564409794e-02
-1.135923431101383135e-01
-1.252512551521109130e-01
-6.886534064943203304e-02
6.476903221567538449e-02
1.838292581754144839e-01
2.212872994373270008e-01
2.592960994482025328e-01
2.844959549744162652e-01
2.002834120178146049e-01
8.714760429172041523e-02
2.221131530896812076e-02
-2.514232392494464979e-02
-6.078774726718486759e-02
-9.543272708110853153e-02
-1.377026005759172111e-01
-1.685226907575646804e-01
-1.832460386517641426e-01
-1.744549281856479783e-01
-1.369642891707721355e-01
-9.064435708625104282e-02
-4.888062924341658733e-02
-1.634334628638085124e-02
4.234432220171566522e-03
2.215811604006402008e-02
3.006544747453695349e-02
2.612756691729028330e-02
2.147915718637221152e-02
-9.808559664839254510e-03
-6.479402534513745149e-02
-1.074359843496552613e-01
-1.267431863335192754e-01
-1.082209310700816690e-01
-7.885774248450118373e-02
-3.297431835271637246e-02
8.995031215899190746e-02
1.807958603832421351e-01
1.314633452538575831e-01
5.816514025514688685e-02
3.667256962510846707e-02
2.599534148507894743e-02
2.050797598668456165e-02
2.435137269456504744e-02
2.334420714091693660e-02
1.699037404017892522e-02
1.691251514917496701e-02
1.941882693425526357e-02
2.527303130137579026e-02
4.172555356041535851e-02
4.158246486259373903e-02
3.101382454251431706e-02
3.778450474310113272e-02
2.978416558296468827e-02
2.280146254769613648e-03
-1.391563054596167345e-02
-2.221167140292081357e-02
-2.769792118195993011e-02
-3.237866555173366662e-02
-3.522024101284744468e-02
-3.055209111506223749e-02
-2.473536156631919725e-02
-1.922666756995283083e-02
-1.682865616956918248e-02
-2.385809120263186409e-02
-3.149424546132884722e-02
-2.511363884344370440e-02
-9.609836770722539681e-03
1.630972279269200277e-03
1.514461898899400506e-02
2.176578071981603510e-02
1.039269891373899822e-02
3.015468437783906230e-03
1.571608863667085278e-03
4.381139661398874077e-03
1.535000528929384746e-02
1.287754397851220700e-02
5.536290086904534051e-03
9.453573549830320000e-03
2.603512819066255025e-03
-1.390073566420649970e-02
-1.679344711233982448e-02
-1.202908139813787733e-02
-7.760371173127385107e-03
6.651433758424462987e-03
1.784624630616567578e-02
1.167007320518787319e-02
1.002913408150854155e-02
1.558103880641305110e-02
1.141586753065296049e-02
7.206022689304710828e-04
-8.397216439293081827e-03
-2.085543612694277724e-02
-4.004435775198965375e-02
-4.863960603532208743e-02
-5.075016554136549396e-02
-4.450001872930570146e-02
-6.535566186309490870e-03
7.125914609855007326e-03
-9.234037126138924453e-03
3.073548777491360087e-02
7.320989962499040160e-02
5.128555076876457897e-02
2.729764007086485367e-02
1.613296951444633323e-02
-5.001309856499604645e-06
-3.743531467588090671e-03
3.201878545625016430e-04
1.761826525420392281e-03
1.297858420078846099e-03
-4.655849527549629297e-04
-9.658272362226782938e-04
-1.805290238519388461e-03
-6.804169135659517142e-03
-9.818572888265687804e-03
-6.874692907721977400e-03
-8.308543381386795240e-03
-7.500549561575297133e-03
3.415798284174625943e-03
5.869005347119945690e-03
-1.787365639891825685e-03
-7.444473711651467852e-03
-1.032646943625091171e-02
-9.892337536304075113e-03
-9.156284233457481422e-03
-7.710361277873168696e-03
-4.711443227620024446e-03
-3.119920224555127516e-03
6.511785557057439859e-04
4.110501287497266357e-03
4.980818850953630181e-03
9.222919161862075388e-03
1.356599863776401099e-02
1.449026100281456363e-02
1.628626397665360742e-02
1.505292598579359951e-02
9.048475959127879817e-03
4.694716180618769760e-03
-1.270227711163642807e-03
-1.057525662143475771e-02
-1.932861177817354892e-02
-2.007784742005307155e-02
-6.466227274003497581e-03
-5.693303632322345995e-04
-5.304960257813826768e-03
4.453424599891366714e-03
1.005735439146526224e-02
1.403434280661817633e-03
-3.437009239857645882e-04
-2.030586582123024720e-03
-5.524806946283335705e-03
-2.387709048748449733e-03
1.148015165066294243e-03
2.368477361193607918e-03
2.123658028193137117e-03
2.486307312304773722e-03
1.624471117514799919e-03
-7.935087379055142049e-04
-5.241797746788395742e-04
-3.922001079918184530e-03
-8.999572386519435335e-03
-6.857873265128299096e-03
-3.516113809116335094e-03
-2.733766655024171075e-03
-9.426918853990992565e-04
1.140486635137051693e-03
1.861885214360557272e-03
1.175602525890655876e-03
-1.713028462519291487e-04
2.923640674137740342e-03
7.123175429177131153e-03
2.998127421582739809e-03
2.010396459918290316e-03
8.436417328620188227e-03
8.495650151358558055e-03
6.975507599258483696e-03
6.255788166361268485e-03
1.862451010852692653e-03
2.305586426251685084e-03
3.560521904509172508e-03
-1.061666591474498241e-03
-8.064753121839260278e-04
2.842920710666597267e-03
8.134664870888725936e-04
1.279051665909924007e-03
-3.666179151395689700e-03
-2.299897523738382923e-02
-2.385879204273196053e-02
-4.878828688452030611e-03
-4.328280651470236369e-04
-1.744459013076640969e-03
1.739801920089239628e-03
2.742787713847100357e-03
3.881192873110799694e-03
1.267030562479786425e-03
-1.128719006622539572e-03
3.934647132923734837e-03
4.849056296901277027e-03
-3.995050837323231574e-03
-9.315051914425961574e-03
-4.028669786439788639e-03
1.928282299778380634e-03
2.726006623890186911e-03
-4.302953499957027478e-04
-2.572073955129374270e-03
2.462970066398392625e-04
5.641109887567060050e-04
1.640235260371365831e-03
4.762513268206318602e-03
2.818528482261963269e-03
4.574615759224620430e-03
6.037553579297728901e-03
4.092878766370636537e-03
3.687238547512343857e-03
-5.329434380345682981e-03
-8.671758727259839053e-03
1.423259333422894181e-03
3.242360356672065701e-03
2.460977617980870513e-03
6.815014042368989708e-03
4.669134451859389447e-03
-4.943032535864983444e-03
-1.192525907827108635e-02
-8.034225793796406084e-03
2.375140135249374936e-04
1.362801281418320361e-03
-1.948988777038784467e-03
1.089115260790661077e-03
7.312831713579560564e-03
5.426025470470855969e-03
1.077575678017446978e-03
1.188462919401661296e-03
1.437745861074473048e-03
-1.486226590797647780e-03
-3.787037293014947851e-03
-3.691106226449960225e-04
1.065809297002956110e-03
-2.427033079465663152e-04
-1.763807476405763845e-03
-9.599828648828617056e-03
-9.345368286706646002e-03
1.870910244111331235e-04
3.235816747340546518e-03
6.238327367950817492e-03
5.578104907843367717e-03
-1.435692472333877871e-03
-3.842208702723145901e-03
-3.363791657225198833e-03
-7.573342440075341454e-04
-1.660833095384295311e-03
-5.566716155333723513e-03
1.280742149460684575e-03
6.060053274208006269e-03
-8.648370079702243345e-04
-2.576522443952657549e-03
-1.998384260398109510e-03
-4.554881490080465133e-03
2.644099405420212174e-03
1.018274051453798429e-02
8.872385506988636830e-03
1.328045459608650190e-02
1.792123315068532355e-02
1.100665036486593237e-02
1.849832430341599417e-03
-2.119081429682123305e-03
-3.826563496865110960e-03
-6.070236780713090217e-03
-4.618046178771898110e-03
-2.847025582149426744e-03
-3.938669303722962256e-03
-8.907941708981048949e-04
-4.070166945761423231e-04
-2.892873057253490376e-03
-4.904213699261719857e-03
-1.237632276464054569e-02
-1.663310678271606030e-02
-1.762756296071931947e-02
-1.388893657646922755e-02
-2.361529785375124542e-03
2.004645223676071800e-03
9.289668343376460136e-03
1.679368396321933785e-02
7.819108091489088835e-03
4.794158255448602128e-03
1.059946687421460358e-02
9.827498304011661814e-03
1.211564204202891402e-03
-1.217224289146505607e-02
-1.185802496245098175e-02
2.122222215050915007e-03
8.675760985579658927e-03
5.832774174021016118e-03
7.161213096880614248e-03
1.125333589975716954e-02
4.740059304765772974e-03
7.915862425230046559e-04
1.641423629534831743e-03
-5.963605083015218258e-03
-5.723936494025128746e-03
-1.899579800201739270e-03
-5.656950350048751269e-03
-5.634144792947613604e-03
-6.527487693533797451e-03
-6.239911303471214199e-03
-2.442920160024754633e-03
-3.869854423554204559e-03
-4.233550457887612362e-03
-8.731577265906395992e-04
4.872694624074957841e-03
1.240131690060563424e-02
1.276809784757867994e-02
1.709760371324763962e-03
-7.502292021625982937e-03
-2.488633787679051402e-03
1.103452124727829402e-03
-2.149894488880673207e-03
-2.616332894804772346e-04
-4.091967913698100318e-04
-7.371216444274924671e-04
3.302249481071259374e-03
1.672040029576899811e-03
-2.596854049735049415e-03
-3.021261604526417986e-03
-3.617053793120965778e-04
1.486045947107878960e-03
8.063007347819182817e-04
-6.546695901509537972e-04
-2.924015117785939716e-03
-1.251053142015103037e-03
9.780489349291848766e-04
-1.110808166515341250e-03
-1.651903669537656359e-03
-2.358967603960193497e-03
-9.614512821307075706e-04
3.842745219436752031e-03
3.886262446326525788e-03
2.433474274325908050e-03
2.360038150217121360e-03
1.799995196733183977e-03
1.640194486832975392e-03
1.812998541343540868e-03
3.581270494632424542e-03
3.487048010667234861e-03
6.098389656319837954e-04
-1.019113818731270157e-03
-2.859713065633073901e-03
-4.767386657439334069e-03
-4.417434821791994294e-03
-1.168440727133853102e-03
1.209358217409849025e-03
-2.319785720151402314e-05
1.533865501257747690e-03
4.937765960381948656e-03
3.209928207286135652e-03
-6.603915407173665793e-04
-2.827353703151994860e-03
-5.292416494286894708e-03
-7.495359529896587596e-03
-4.409109937670692425e-03
-1.285515117794126111e-03
-4.291411930539049645e-03
-3.317618897504605834e-03
7.801533874975680053e-04
-2.580155310711693562e-03
-4.899483223744979625e-03
2.501944516236535377e-04
5.506435154382151656e-03
7.557472027949356345e-03
5.414460278055980430e-03
5.781009499521997047e-04
-1.065272733579006705e-03
9.115832012920454131e-04
2.981470908971179962e-03
4.757098512640708064e-03
4.571205305011003493e-03
-1.890373887251566801e-03
-5.931613805832260805e-03
2.769086949112528617e-03
8.254106010934129239e-03
3.566470245866871971e-03
1.866841775902207878e-03
9.262355675035452126e-04
2.555088673355274814e-03
4.737071323621593749e-03
-1.901948938062543535e-03
-3.070703854857380777e-03
3.841543454230305602e-04
7.183057024269342465e-04
3.541282779387170017e-03
2.718920277991157975e-04
-2.771928611660120015e-03
-9.095744893724246743e-03
-2.509332584633364518e-02
-1.709369610005674611e-02
1.827461968535646492e-03
-2.253110146425212567e-05
-6.579370745268981477e-04
3.988765022029232624e-03
3.483104578490599929e-03
2.475231998639327094e-03
1.477977888696961400e-03
1.229929828164386292e-03
1.980793964626498694e-03
3.638008756656666443e-03
4.147463996980665446e-04
-3.496988026860891902e-03
1.349437165540527672e-03
1.753180008763254461e-03
2.778540459397969560e-04
4.986614183371324525e-03
3.409213061185033949e-03
1.448094628386039631e-03
4.446783371394615741e-03
2.909106835679565323e-03
-3.129695713501806187e-04
1.310976765886648311e-03
4.543276885947260604e-03
2.089216641038044338e-03
-1.784130754239291556e-03
-9.593657130082218010e-04
-1.374028833169313501e-03
-4.542832753064141547e-03
-3.620733302108369248e-03
1.246145538393375173e-03
1.719108236523842783e-05
-3.621230997139752300e-03
4.362644348177726716e-04
2.743693673512194106e-03
-7.815080607537510824e-04
-2.801857926488771165e-03
-3.700375987656002335e-04
3.470632325674672097e-03
1.391577190800548283e-03
5.269203638134166250e-04
3.780429474752848226e-03
1.920948578516897161e-03
-5.543834339097481736e-04
-1.514471769366680914e-03
-8.554997080608374091e-04
1.651642778534956162e-03
-1.473062049967833066e-03
-5.845053374853007369e-03
-4.783997498454554444e-03
-2.827078667729798333e-03
-7.866152189364624195e-03
-1.192064678923530734e-02
-1.611814863120806639e-03
5.243409699896645071e-03
2.375176993876909701e-03
5.633407400695916549e-03
6.942035960625338870e-03
3.280487180728708374e-03
2.160447550179793452e-03
1.571202430753721379e-03
-1.918306558293445159e-03
-7.127162341350458570e-03
-4.093490178745777704e-03
4.868427957557822029e-05
-2.777159458304640188e-04
5.693804854153608312e-03
5.633055259773423785e-03
9.857747668633408660e-04
3.995613275628304324e-03
3.612704063470196115e-03
3.956073695086752100e-03
3.488758811105365822e-03
-3.374971038027872131e-03
-3.173995791566040781e-03
-7.872867102968043353e-04
1.833378441772932237e-04
1.274221288470508192e-03
-2.687838640369967242e-03
-1.454497676686470654e-03
1.032415480609418434e-03
-3.307632001738886399e-03
-3.184423749660944894e-03
1.705172628806898936e-04
1.252241088209291291e-03
1.973186738412100599e-03
1.498832531031277617e-03
-1.965159759997576333e-03
-4.412385240425683273e-03
-7.412334402258527292e-04
1.110211410303021647e-03
1.859049060195511974e-03
5.039835028630288566e-03
3.424208023441779858e-04
-3.533752875435343822e-03
-2.747064304497157106e-03
-5.487210527399500985e-03
-1.774840870797427623e-03
2.038361013167855947e-03
-8.918065476132945330e-04
5.213557760733067859e-04
7.988637320436273474e-04
-5.690465541291730208e-04
1.891635785866124363e-03
2.667720983617427686e-03
2.607402085609326469e-03
4.095279396967900780e-04
-4.818610876332106788e-03
-2.703478372192447479e-03
5.337037087398898219e-03
6.117977115279072016e-03
1.570672115785773718e-03
2.500199617157567063e-04
-4.857153382954503625e-04
-2.362812940638020758e-03
-2.560970434059084335e-03
1.962168923515866456e-04
1.890066210153804657e-03
-4.664888569298809330e-04
1.507487888412900818e-03
3.890635291214519873e-03
-2.159236572619126194e-04
-2.875120114478419472e-03
-6.454210404973652858e-03
-5.943606661564285708e-03
7.072043238836954850e-04
-9.782762174585521789e-04
-2.538431391874327540e-03
-1.859654381271017226e-04
2.805732396262600496e-05
1.056924372461654719e-03
-2.212706601261716245e-03
-1.177442486920171399e-03
3.928610259979526537e-03
1.609525571439775378e-03
2.815345962445678189e-03
2.187420062892354768e-03
-2.944763842585334818e-03
4.833732271103434930e-04
3.094902163532735600e-03
3.285892878426655526e-03
4.072838338447463263e-03
1.090166577203247381e-04
-6.721050128434800670e-04
2.728922466831790183e-03
4.379758533470595044e-03
4.300426273581077485e-03
1.674222125788989851e-03
2.503644507382428355e-04
9.791918267936393274e-04
-2.365980822491736343e-03
-5.741817918570969043e-03
-1.637360603689642360e-03
6.404174614775790279e-04
-2.628862785255736342e-03
-1.893568258531901820e-03
3.542963141415874555e-04
-5.510636608920348569e-04
-4.719136442260200327e-03
-7.948120346904558389e-03
-2.628800870635606725e-03
4.867795736542106775e-04
-4.113624427995106990e-03
-3.041158415242459744e-03
1.065335434211606494e-03
5.929784874380397740e-04
2.282570820923741136e-03
6.604357924492093926e-03
3.834509382386121733e-03
-2.572201159856368682e-03
-4.248875909138040939e-03
-3.962965980203079011e-03
3.733448884729867055e-04
2.966141182205621080e-03
-2.586314804588988030e-03
-1.425677523810980028e-03
4.167603618772027299e-03
2.418952765647989708e-03
6.552587271947816388e-04
2.759262060256005653e-03
2.828467658937711560e-03
-1.007862982027058841e-03
9.911127763248999203e-04
5.287692452444902810e-03
3.126618431263751118e-03
4.936420866217489621e-03
2.936782401734529084e-03
-4.297158100416692897e-03
-2.146870714142486191e-04
3.388163360501272089e-03
1.433337948686091512e-03
1.429124671729273808e-04
-1.082268184407341989e-03
-1.849078017127411128e-04
-2.160410873049800617e-03
-9.148702278752542843e-04
3.035871573986200032e-03
6.580401288304756199e-04
2.608094589673184017e-03
6.118391750101281369e-03
4.289433432950102466e-03
2.548998696230636232e-05
-5.605744473825524134e-03
-1.332764389984556624e-02
-2.896647323700422480e-02
-2.693863980192180013e-02
-5.159251701035577359e-04
7.458987327269283978e-03
4.271690169047949112e-03
8.914755999029660982e-03
6.063164496208420066e-03
2.265864044623349532e-03
4.240913366351926894e-03
6.828142022829429038e-03
4.506352759152443960e-03
-1.643264641125980830e-03
-1.565124855283567588e-04
2.630205670117148880e-03
2.494364384879348227e-03
2.431568259185084690e-03
-8.281686765008978383e-04
1.665291687483889645e-03
5.723455692993116573e-03
4.584990717231837232e-04
-4.175795925058461630e-03
-1.966869836357613803e-03
2.330595829637764280e-03
1.882061755970885911e-03
1.093229263320981588e-03
3.900555891102034170e-03
-1.325044796433261728e-04
-5.354575182173625450e-03
-5.540982413263764207e-03
-4.597331418566353960e-03
5.711564106114205884e-04
4.656044817051941211e-04
-2.583363493312009710e-03
2.831450735278415089e-03
2.994832260882167221e-03
3.241010602145748417e-04
3.823491421221592804e-03
3.438071500655520089e-03
1.426262345082802800e-03
-2.646783694969886759e-06
-1.683327073296844592e-03
4.883558079865363971e-04
2.381950527820972125e-03
2.796211233249370608e-03
1.263852333152802208e-03
-9.285059799438351042e-04
-1.506597872809822608e-03
-4.178829707637982289e-03
-2.449704178120298056e-03
-3.198582419122472865e-05
-4.319673321289993310e-03
-4.419467914620465142e-03
-7.721684980899295309e-03
-1.386900307348286517e-02
-6.167644794672058964e-03
6.856642373408352448e-04
4.570769427947499295e-04
3.930587824196374487e-03
4.034070763689398889e-03
1.622145490094395156e-03
4.895985816794784853e-03
8.209204505129678864e-03
3.454604597684915457e-03
-2.459363539318127050e-03
1.983952469341956123e-03
6.564524144461899441e-03
1.526989977978930992e-03
-1.770736430476902573e-03
3.001985741745646658e-03
6.266419415087117091e-03
2.452422361540816491e-03
1.569598833621600959e-03
2.200619974371610318e-03
-3.795489168705428948e-03
-1.559453683657600290e-03
4.525100124120651039e-03
-2.721996300785682350e-03
-5.635288287971600141e-03
-5.122917830915179596e-04
-1.019051439699839674e-03
4.422516305775791982e-04
1.277469877851861125e-03
-2.008039385242937035e-03
3.576298742956814667e-04
-5.036422060028994179e-05
-6.605293158586806809e-03
-4.380163153712535173e-03
2.141972003522078696e-03
-5.536541949535777989e-04
-3.285389096314643865e-03
2.868664377917422119e-03
4.255919988224741990e-03
-1.070326132277991645e-03
2.579086991281324460e-04
1.413939374309156061e-03
-1.066198574257688683e-03
1.270146641736916420e-03
4.090627940595998333e-04
-3.470687051954820732e-03
-2.462598104142494845e-03
-4.176302522375801261e-03
-5.977804773773893673e-03
-5.643345771144651522e-04
2.364866113692628419e-03
1.879115212739281265e-04
2.030733578829060915e-03
3.049283126538872551e-03
-2.024261338988705451e-03
-1.627578070469924568e-03
3.345833000186950162e-03
4.384514586670639098e-03
5.232900382364515449e-03
4.000029995806401312e-03
1.157847318283675066e-03
1.601596551354624769e-04
8.306683045228591957e-04
5.154685275193098340e-03
1.895761019315238358e-03
-4.783831171358310895e-03
4.465785638999616568e-04
5.312169157415568476e-04
-4.080617241151511879e-03
1.263174536175587590e-03
1.452793159750370450e-03
-3.153731694715325960e-03
-2.150643887221571210e-03
-1.922505431456554646e-03
-3.233464150127162567e-03
-2.735564446930053087e-03
2.390422550545346411e-03
5.641364487559465297e-03
-2.143784205232146522e-03
-7.722337268267425760e-03
-1.942554887980772228e-03
3.706514350136641198e-03
2.326235383646770450e-03
5.728776485703396433e-04
3.743193075635455058e-03
1.511237426309838903e-03
-5.867286499513548782e-03
-4.221091413385109729e-03
-5.245244307296764892e-04
1.790518790823247602e-04
3.825311405822078709e-03
4.424205443507374554e-03
3.784611822546106539e-03
3.481659143493734052e-03
-1.651527480370753231e-03
-2.197465013219769472e-03
5.971313961993323337e-04
-2.094749575686711326e-03
-9.008226345677338787e-04
3.514846363717928461e-03
1.630164880093727415e-03
-2.019910642118990119e-03
-4.004393420132802868e-03
-3.063538816742398304e-03
-7.593216173444594912e-05
-5.487122923813418218e-04
8.828908512433891439e-04
4.010738874428641278e-03
8.341276129206241308e-04
-3.239615308660333671e-04
2.305135052670566950e-03
1.268120747902168333e-03
9.009864164963068945e-05
-2.092366126808095726e-03
-4.134022641275645650e-03
-1.348535541617471890e-03
-3.829701496789713667e-04
-1.348464788003387758e-03
-7.654497351568886757e-04
-7.268141994731206357e-04
4.179023873894597012e-04
-2.203975026934949007e-03
-5.817970795130942424e-03
-2.343724643269387131e-04
1.629679931518963291e-03
-3.009955084314464187e-03
-1.750019363673772097e-03
-6.258152494237132889e-04
1.145112328033866776e-03
3.473687265549816553e-03
1.444990578248729661e-03
5.385619490602812191e-03
6.406401758183083960e-03
4.825440383879397522e-04
1.731260837908468828e-03
3.706417819585739598e-03
6.292895325886845893e-03
6.029842711682026346e-03
-5.560379822986704127e-05
3.671173543515238689e-03
4.639145903837687754e-03
1.193039058573607268e-05
1.628690595360910657e-03
-4.265794348041950998e-04
-1.039533151738250040e-03
-3.866332765710185897e-03
-7.230021420811652555e-03
4.146171933043923952e-04
1.084641413411493744e-03
1.820519480596973069e-03
1.170143550944085229e-04
-1.232138360864568939e-02
-7.926096754185745635e-03
-1.257914871447367126e-02
-2.626303397693955863e-02
-8.030646326696602721e-03
5.628472141879219993e-03
4.742787230895230931e-03
6.598502001739511326e-03
-3.776278860697690736e-03
-5.036282181404364185e-03
6.947916091730443715e-03
8.420580613099321737e-03
4.818897956439273204e-03
3.790278760193624853e-03
4.484910394565259743e-03
2.365864362487119822e-03
2.796218690258931664e-03
8.084303519113223910e-03
5.634009198345389310e-03
3.045599093259726727e-03
4.520653258391946205e-03
1.894728174338910099e-03
1.148274099100647302e-03
1.864656533107240553e-03
1.419088879286565207e-03
3.145101369189079888e-03
3.710903475708841014e-03
8.436340595509529347e-04
-4.105317383274888210e-03
-8.244072462177837526e-03
-6.943509694956679495e-03
-2.483741444986393467e-03
-1.907021386677006016e-03
-2.985020709813295935e-03
-2.461414980043604307e-03
-3.333055989902607933e-03
-3.993052070844329074e-03
-2.932055010397004689e-03
-7.675785382562655022e-04
1.201423778974630317e-03
2.199515594581817786e-03
4.793192895844548655e-03
3.028235683792688919e-03
-2.270611658534353854e-03
-1.214048701756251323e-03
1.039228431860153437e-03
1.182717262128278515e-03
5.282547318958435469e-05
-1.857694484282507120e-03
-5.018667307580904416e-04
1.463421413691553305e-04
2.163042033413016714e-03
4.584321961403900643e-03
3.856039603080726325e-04
-2.911353094577396900e-03
-6.725667443196905668e-03
-1.032662041698909419e-02
-4.302843070642104785e-03
3.466924567055669048e-03
7.750661915295551860e-03
5.136775001088309672e-03
-5.099341805472505174e-05
3.185604260951269574e-03
1.425806722053230306e-03
-1.973548782763735222e-03
3.162721064293340031e-03
2.027378756924930105e-03
1.453379070467381582e-03
3.130502322655038822e-03
-7.718187929919194867e-04
2.115192878298670018e-03
2.589957120094480737e-03
-1.326780212459543725e-03
2.771083179938575464e-03
1.635264658864349135e-03
-4.017265397985863781e-03
-4.460627461843291036e-03
-3.665075235391871203e-03
-3.715536651054110115e-03
-4.614602999879858364e-03
-4.579106596043464148e-04
2.339086277670836614e-03
-8.982833889002773704e-04
7.982307918362997962e-04
-3.901233368325855103e-04
-4.342723984688729583e-03
-1.375490909950984400e-03
7.361838118658956193e-05
9.226839451765131081e-04
1.375869783988534299e-03
-5.897264012250817483e-04
2.321574212397788019e-03
4.680351868155003744e-03
2.986703521930440114e-03
2.697081101437210672e-03
3.225459777017563538e-03
3.031905841315656568e-03
2.489396707091196849e-03
2.713330962561691178e-04
-3.824333206348605810e-03
-2.649385296692149776e-03
-7.665096990037841517e-05
-2.966646478138942802e-03
-1.137739053011856214e-03
-1.308614095283547698e-04
-4.269975119336525543e-03
-7.170038394092243320e-04
1.563953998776079074e-03
-1.837398069835278905e-03
-1.982579302104213546e-03
-1.851291135447490164e-03
1.983270791609316485e-04
3.745201317030935877e-03
2.543055642987426552e-03
-1.991647803032227989e-03
-3.982659053846092888e-03
-1.246938938215547740e-03
6.308335983308110267e-04
2.979030689024613973e-03
5.508769823262048976e-03
1.637817174028497521e-03
1.308277018878607387e-04
3.740612329598413163e-03
4.300320143195584567e-03
1.511961797564296541e-03
-2.971731935612744423e-03
-3.128350382750868987e-03
-2.129149196717622220e-04
-2.257713669996362811e-03
-5.233915907796226653e-03
-2.778111088900645301e-03
2.924355309719797562e-03
3.826474327601444951e-03
8.067748866112883039e-04
-1.763579777256116818e-03
-5.119938211453899622e-03
-4.294675865291947871e-03
-2.331810379523738090e-03
-8.477689705394523450e-04
3.704195535268822725e-03
2.285382851189976874e-03
1.589637486727120928e-03
4.391527029251328026e-03
2.247121064249366171e-03
3.041059207051276334e-03
-8.256004660118340579e-04
-6.294969896749108215e-03
1.210501663418572549e-04
2.689580638000736885e-03
9.559120501301774124e-04
2.606925940356159214e-04
-1.607811191922005637e-03
-7.915538071551068196e-04
-2.293706795917760475e-03
8.833528698213374700e-04
3.527712459748639454e-03
-2.738928705889587516e-03
-2.061811622551757361e-04
1.828341047488116992e-03
-4.925309962991985526e-04
3.508908556260937305e-03
1.646259379227420694e-03
-6.651824957346604093e-04
-1.261279052000265338e-03
-4.938470378113091544e-03
-3.836834259298938128e-03
-4.226545866627923892e-03
-3.627965599370742197e-03
3.254951207126075799e-04
1.112067562438022158e-03
3.269043152797980988e-03
3.617107101499785621e-03
3.559232720151257485e-03
6.155291665479447824e-03
4.628091274392109704e-03
1.053851163088684881e-03
-3.337743215867109347e-04
1.900692653788450511e-04
-2.358228855231787272e-03
-3.273649035779744622e-03
2.286807944121626440e-03
2.775770482885438987e-03
5.427793851969350738e-04
-2.251874484178463878e-03
-5.054483817213606053e-03
-7.552438342834894664e-04
-2.527421461641565000e-03
-5.608054049961869181e-03
-1.023781131614043749e-03
-4.086655103888552076e-03
-6.036314202132661393e-03
2.678560512975756893e-04
3.973603391858763351e-03
3.738469299305405887e-03
7.551096406296263974e-04
5.985703583411246601e-04
1.381136780274679760e-03
-1.349224355654530562e-05
6.571773316041813967e-04
