1.342108406801417742e-02
2.517284838121822826e-02
1.945095397771504087e-02
1.698473693950281610e-02
8.785209856144353749e-03
3.666797885168764093e-03
3.550545867999015982e-03
2.396393602471076200e-03
-1.880756276389398919e-03
-6.313125426284584181e-03
-2.821841445129234099e-03
-5.844268233871173848e-03
-1.316619909916942437e-02
-1.533552682628020608e-02
-2.148856489362070687e-02
-2.375403660037694875e-02
-2.435198419899898062e-02
-2.107765994921372704e-02
-4.146260287339803563e-03
5.886666625021894084e-03
7.018615794103550028e-03
1.006773849282672009e-02
9.729054908869300133e-03
1.179530162223289824e-02
1.610341907447859419e-02
1.430758085760634908e-02
1.248030702642170461e-02
1.296468948498155638e-02
1.017876495644119347e-02
9.922829359082462747e-03
8.058955797901307117e-03
-8.974880048681372485e-03
-2.461265308849377303e-02
-2.535598336821061338e-02
-2.108937388796160509e-02
-1.541102715380849274e-02
-1.260141360442830136e-02
-8.063640809179878008e-03
3.165245304264477019e-03
9.093361305945981549e-03
1.090733257189231697e-02
1.259007153733806249e-02
8.091608059324205404e-03
9.434191012774087969e-04
-1.861016252765942351e-03
9.877550300068285022e-04
3.734352250308849413e-03
6.064618263267747798e-04
-3.020040186117792930e-03
-1.569320533685311138e-03
1.146037427598474347e-03
2.919343981452419360e-03
4.774314167713480245e-03
6.428313518789889255e-03
8.120515693327105822e-03
6.432567941800437263e-03
4.469039660067949254e-03
7.264162142399521217e-03
6.594318045545748651e-03
1.044378839831296840e-03
-4.891835522191578800e-03
-6.914172947560941716e-03
-4.502607117989950759e-03
-6.836969957311644051e-03
-8.827973779261213960e-03
-6.683594101316703458e-03
-1.108534128279604165e-03
5.985278963669867121e-03
3.797789828349369332e-03
5.890485263585384414e-03
6.133909859176452095e-03
-8.546681025351077340e-04
2.834532302011851142e-03
-2.189177666660964069e-02
-4.656184165041698381e-02
-1.361653382830964494e-02
7.064767573272338029e-03
5.794924422151484684e-03
1.743314602485947565e-02
1.287735802567899907e-02
7.511906181965326973e-03
5.414147955473345639e-03
-3.517713819463149684e-03
-1.149424345832236131e-03
-1.323969148594548052e-03
-3.941125706115754593e-03
9.797603511327616314e-04
3.528869805814575239e-03
2.013037516717938909e-03
-8.305685744988729061e-04
2.427846251800662783e-03
3.886909777370044661e-03
1.977538791245155806e-03
7.702732284703481605e-03
6.484651719460499120e-03
-5.519873225440544932e-04
-4.823864708678250388e-03
-9.227144789918121856e-03
-3.560582710134637362e-03
1.526694729373244842e-03
-1.914363943459211018e-03
1.360511171905033297e-04
-8.541432521206411208e-05
-5.778738959355015845e-03
-6.430869750514228537e-03
-5.081838462482525347e-03
-2.023730519457478394e-03
2.045897966888663832e-03
9.858673016373941788e-04
1.649689535811922365e-03
5.866671551118646764e-03
5.172719019531202278e-03
3.534604158466920359e-03
4.209977828613595437e-03
4.798693052333721266e-03
3.905328044142595840e-03
-2.372647024158033077e-03
-7.457649021875008104e-03
-2.523060949880221934e-03
7.077025217955297716e-03
9.181407135732132935e-03
2.142073868651892150e-03
-3.211115863424301303e-03
-7.633932168991788836e-03
-1.011336040974616414e-02
-5.869656451108463090e-03
-6.173342084051621631e-03
-5.228870566563237343e-03
1.564382794413918015e-04
-4.133229973491568156e-03
-2.888668922054178721e-03
7.244131836055520829e-03
4.097652620597600458e-03
-3.340621572674058997e-03
-3.199545102158048333e-04
3.668160569672564066e-03
1.331354024747617888e-03
-1.050909953478699034e-03
2.644035107705475706e-04
1.461410876260688151e-03
4.087292386428850581e-04
-3.340995284724812987e-04
2.471988342105838499e-03
4.783618703493295633e-03
1.045311537909491845e-03
-3.407395847359898956e-03
-2.379944456660757976e-03
5.311157655124629619e-04
2.081352353719947610e-04
-5.317628362033464430e-04
2.278905779300610061e-03
5.618701831142236883e-03
5.347611219492245938e-03
2.276957279451613352e-03
1.494854446338001819e-03
4.411578407675951032e-04
-4.735339933085593034e-03
-4.088949201277712088e-03
5.664222785718402023e-04
7.383633010140629779e-04
3.155111755043035413e-03
2.388247997217946700e-03
-6.496341506740837754e-03
-9.129696911996301040e-03
-3.812575400137458229e-03
-1.560345735296494356e-03
-3.635876223429397504e-03
-2.221846697050630301e-03
9.758281693068440255e-04
-1.338865198848704493e-03
-9.757277862133338208e-04
3.236182057348610877e-03
3.101523394130141411e-03
3.597376051398404415e-03
3.905823715739891507e-03
9.683815130633362115e-04
-1.463815293410707877e-03
-4.941247740223191076e-03
-3.984471132116381917e-03
2.780301224996963114e-03
3.489676283264215619e-03
1.735504528685918304e-03
3.324586978273955801e-03
1.417549583707801864e-03
-1.396104749365930644e-03
-1.383620254149015320e-03
3.300142946464912352e-05
3.628194866580337387e-03
4.623053875802363155e-03
1.523425182188752275e-03
-2.495227748204213898e-03
-5.980750886705550086e-03
-5.353796480419364956e-03
-3.250992929146593290e-03
-1.252583561139108525e-03
1.358101467051288716e-03
-1.287509517394044975e-03
-3.244612222398825501e-03
2.162548734841946655e-03
6.270149921405816264e-03
6.233515199510229754e-03
4.653945197122410886e-03
9.505123435523945771e-04
-4.005117061541369101e-03
-8.957234747109995079e-03
-1.024268675370539061e-02
-3.805897142736934611e-03
2.814342180502547863e-03
1.431228130829738637e-03
1.611975079649359023e-03
5.883134316774464231e-03
4.992177433395263673e-03
3.784066257333858208e-03
1.899220761415740429e-03
-5.505021667074666905e-03
-8.111339795096711089e-03
-4.628215751387329720e-03
-2.837509535352865982e-03
3.266684824061666728e-04
7.807191848011015359e-03
1.131407478356283823e-02
7.963746003731916531e-03
4.904767352588687394e-03
-1.361849667323535885e-03
-7.734681616706859386e-03
-5.898458593830107136e-03
-4.927399112909842775e-03
-4.107716990851860601e-03
-1.091162291135167745e-03
-1.619217690284859706e-03
9.432351486683571975e-04
4.951138066314735714e-03
4.751951397023237121e-03
2.905052204206820705e-03
8.585510570496998574e-04
1.950971807254474333e-03
7.003865843875177596e-04
-3.125647812224160386e-03
-9.891724694029782605e-04
2.652806634501729544e-04
1.335502913099519844e-04
2.680689297120384274e-03
-6.032628177773716703e-04
-5.992759987791682064e-03
-5.569640882386122337e-03
-4.422432426221374613e-03
-3.265339566334135753e-03
-1.519878562496784725e-03
-3.477280542294127266e-03
-4.883881673703250811e-03
-8.464815595935783459e-04
3.273527452241149945e-03
2.570908539547658508e-03
8.880622067582220978e-04
2.860293718597824338e-03
3.410608369341843870e-03
9.593987451378087469e-04
1.107901998018962723e-03
1.687670779845592888e-03
1.661303542429262573e-03
3.750244598637965387e-03
7.099209095576853278e-03
6.745203645194681498e-03
-8.628436405013328175e-04
-7.360021176893510701e-03
-7.154136713676229400e-03
-1.657078813836582740e-03
3.012515880233980221e-03
1.000707731576253555e-03
1.886102725313485448e-03
2.983923496838535461e-03
3.062580853692314399e-03
8.341643350182064917e-03
5.506174089783551218e-03
4.627040872142069300e-03
3.849593025815822682e-03
-4.450122966964234310e-03
4.307723979973633772e-03
-7.802368243587186510e-03
-4.012767307638055031e-02
-2.305052580402811024e-02
5.928883088385346160e-03
9.620935382603553604e-03
8.776407072791547054e-03
-9.386125631960634801e-04
-4.180084051640317599e-03
5.670752939473038901e-04
1.445166964276192430e-03
2.853941868700741145e-03
-6.823623183034746662e-04
2.691940091820186742e-03
7.358066865264718294e-03
1.396881648255615194e-04
-1.320867210490535466e-03
-1.517275777400608084e-03
-2.391122250223240431e-03
2.854389951634160507e-03
1.452987223232673651e-03
2.391137218204184586e-04
7.327783236540892815e-03
9.607725291758963462e-03
3.808195666968265235e-03
-2.289696073728941274e-03
-5.836162574871487860e-03
-6.365542960384172437e-03
-2.990919703520179915e-03
-7.971769548909129490e-06
8.612108978132347300e-04
8.860470765096522877e-04
-8.902657186170091080e-04
-1.720573872989050171e-03
-5.688013328758878421e-04
1.038834190109768837e-03
5.685288760776537834e-04
-1.044237770590070863e-03
1.381689079956145184e-03
2.502725687439980723e-03
-1.009540472339376502e-04
3.038425804732162831e-04
3.296393661223307771e-03
4.749870269014371330e-03
3.224865458433298637e-03
1.823790130476460629e-03
-8.448212805829128551e-04
-4.859100738547639589e-03
-4.824313374243775071e-03
-7.101263443619385170e-03
-7.820209983311001908e-03
-6.439214469942467281e-06
1.835057431902180651e-03
-2.301322304332078378e-03
-1.310047122660399580e-03
2.200692021626417857e-03
2.717875000978357825e-03
2.747903362577719150e-04
5.045648198744269106e-04
-1.603305423421817321e-03
-7.496671476058553579e-03
-2.431684842980636179e-03
7.894740260967867893e-03
1.001570775100895684e-02
8.915098729243609715e-03
5.739722515149261843e-03
-1.550256514334430588e-03
-7.076590436392722096e-03
-7.506089704774968063e-03
-4.445514385304799587e-03
-2.813184782409309907e-03
-3.480398498070208773e-03
4.500367799058508506e-04
6.690295059068363664e-03
8.564520635011297831e-03
6.504550551267754971e-03
1.987292252762452773e-03
1.056179906979794409e-03
1.377916824637807989e-03
-4.120286613916101029e-03
-7.515130915873198536e-03
-6.803393455644441909e-03
-2.755237632104726424e-03
4.406231001803471471e-03
4.516012522164816398e-03
1.091714719771153409e-03
-2.256038972181313891e-03
-7.655759950258369216e-03
-8.696117073879166409e-03
-8.108044297063547387e-03
-4.112428546994939364e-03
4.486016960768925144e-03
7.310778743406966609e-03
5.985592307527821433e-03
2.301170418841183476e-03
5.870640901885681908e-04
4.843565404808406610e-03
3.522095428842045902e-03
-5.452024483147612389e-04
2.986294746882809954e-04
1.009517338546553995e-03
1.279676861479868552e-03
1.625748039087555668e-03
2.492114858561235262e-03
4.167782598381438233e-03
4.744497769740060183e-03
1.222638670003053322e-03
-4.348049383800053035e-03
-3.074630474365785005e-03
-2.044760464615333687e-03
-3.528806697651419490e-03
1.893229991811039075e-03
1.791648199027897313e-03
-2.561898226124526175e-03
-4.957497679835374139e-04
-2.909585784668741563e-03
-4.222707451511252021e-03
-7.688856465774532214e-04
-3.045605799153939044e-03
-3.993911067306765358e-03
-3.766061605893949397e-03
-6.037391405991301800e-03
-1.431772946155500728e-03
6.057520363307322860e-03
6.931938793752816415e-03
2.875710143397906902e-03
-8.092708901407115289e-04
-8.822631325191270663e-04
-1.706375705284456914e-03
-4.527884393758003882e-03
-2.369249498431020770e-03
6.440416986896129294e-04
1.037147799486408048e-04
2.588733015437307862e-03
4.005924802423141071e-03
1.993025895408170184e-03
3.465196460921219409e-03
3.780948237100184225e-03
2.452542173553156485e-03
2.530603264596401839e-03
-9.962448538409767341e-04
-1.649964457296957104e-03
3.986047139843421072e-03
6.388875414081574174e-03
5.793724203786341197e-03
4.807217891511305664e-03
-4.501929159102645447e-05
-6.381250727358416322e-03
-8.850480033367408642e-03
-7.810417695743011000e-03
-2.549997689738269999e-03
3.490494116501023040e-03
7.550158125971941168e-04
-2.392702211416470725e-03
-2.474838030888144727e-04
-2.071965014284725577e-03
-1.506041748747021479e-03
1.421817617946551484e-03
-2.195921200885154469e-04
-3.866026007598231235e-04
-1.958994062325980241e-03
-3.511002390032967775e-03
6.982371821057218762e-04
3.364713298700047848e-03
2.361690568582990642e-03
-5.388485296857142099e-04
-3.554590790989732314e-03
-3.067276757742621544e-03
-2.810690733446130456e-04
3.661090792891312376e-04
-4.348642577690244385e-03
-6.831935401589088290e-03
-3.767980532358137808e-04
4.871148818254101252e-03
2.528784103317995718e-03
2.945405081928399510e-05
4.366048187740872630e-04
1.322159012501672708e-03
3.144138744133479976e-03
1.773425385934494563e-03
-2.785955526852696568e-03
-2.385728637005616812e-03
6.649473784086917935e-04
7.454925304702241136e-04
-1.900972308179267600e-03
2.751944332475373279e-04
7.944177700510826612e-03
5.825326789377730310e-03
-7.530049622895062600e-04
-3.182270886617943515e-04
4.269908682283590946e-03
1.015746365299515820e-02
6.784746668053834827e-03
4.429238255008592640e-03
8.874925049956315648e-03
1.935331332055127305e-03
-3.325257979595823594e-03
-2.833934580823852314e-03
-5.787515929717497454e-03
-6.882554634710480283e-03
-9.089543815673528995e-03
-2.579886069623737316e-03
3.285190111054134103e-03
-7.065343127404110236e-04
2.866766952519094608e-03
3.356998311205842273e-03
4.831124662864084811e-03
-7.400416604777652375e-03
-4.655119008853800949e-02
-3.840594381046442268e-02
5.648990919040614879e-03
1.020622939932210212e-02
1.738358483435244921e-03
3.321781761277296623e-03
7.012681159023803450e-03
1.191953483087986390e-02
8.318367845592478105e-03
6.742170473271898688e-03
8.480963349219560604e-03
3.798463166509571508e-03
2.822419578699869385e-05
-1.066408734329609082e-03
-4.144794674375442789e-04
5.228660158627973162e-03
1.140290492893171991e-02
7.994851725282392171e-03
2.667850736655987551e-04
-3.046031694719822727e-03
-6.293781282861578806e-03
-4.229402123069599811e-03
4.020402706190120555e-04
7.286572710375600307e-05
2.506112007955711186e-03
2.682984668655631535e-03
1.363735595120312005e-03
3.390452590290650957e-03
-1.444250110448863059e-04
-1.804971899865483176e-03
-5.121803738126183298e-05
-4.508433852630297153e-03
-9.425217679990492356e-03
-9.459049228581735760e-03
-3.927463657990063438e-03
1.733690317588977440e-03
3.974233418425512747e-03
5.962927245656740420e-03
2.383000349467171049e-03
-3.407291534346251934e-03
-4.398443372698557056e-03
-4.245270479750326044e-03
-6.038615723973648824e-04
1.562891384294243843e-03
-2.979399184408881157e-03
-2.381452177517759221e-03
2.710479604185099100e-03
3.472425869280738008e-03
2.530885455607602072e-03
7.481103945210421016e-04
-1.662573189795984085e-04
1.429534522323267637e-03
1.171144987559999645e-04
-1.471125101282161254e-03
1.675794950455946350e-03
4.587427250622992669e-03
5.940250705440231621e-03
5.234702602198938216e-03
-5.954587029024485841e-04
-3.142625080530562273e-03
-2.582508910949902928e-04
-2.326576342895913391e-03
-4.946963902821654643e-03
-1.950726501334998321e-03
-2.246559905671891184e-03
-7.369938775454823107e-03
-7.357192160247221988e-03
-1.920648903628010152e-03
1.491143870618900761e-04
2.540983420152412558e-03
6.524928084243999081e-03
2.196087669966231143e-03
-2.023569549260641979e-03
-1.798742094751193963e-03
-1.164513349192551226e-03
7.257764450212549415e-03
9.692888374381597102e-03
1.910688842521190197e-03
1.529117176463967546e-03
8.073731553092928885e-04
-4.396235982725593683e-03
-7.554783751623488953e-03
-5.223063566713231042e-03
2.778978689658013080e-03
1.841831890052127423e-03
-1.216528022982263368e-03
4.153012881896114492e-03
5.205866352801742647e-03
3.537973076076687731e-03
8.390130301857685966e-04
-1.912124749971024591e-03
4.513250168661411127e-04
-9.495414369163139275e-04
-4.017162926409320253e-03
-2.983258890300463043e-03
7.708802771521231292e-04
5.124642572581069797e-03
2.733290722613667019e-03
-1.371259197324375696e-03
-2.807119768649694088e-03
-4.168314878379364256e-03
-3.227219991735413331e-03
-1.682426152709060345e-03
1.303123461940249072e-03
7.517474819117991869e-04
-2.285668839750931800e-03
2.364783965986459735e-03
3.143204280015259814e-03
3.239187646955305551e-04
3.087782087896335462e-03
1.298883897342749394e-03
-2.726675435968022119e-03
-3.963136870901011813e-03
-3.949465633981920874e-03
-2.028648909885113517e-03
-5.773962750635559023e-04
1.649356499818454029e-03
1.174190484055385921e-03
-1.078896588609759869e-03
-1.633222885448228339e-03
-4.938130747032577934e-03
-4.839538052867786537e-03
-1.467589780261278161e-03
8.643907549347599247e-04
3.494154575761540624e-03
8.221724500372025197e-04
1.237463393169676781e-03
7.204201360556793977e-03
7.859246176481317694e-03
8.579371525410418864e-03
7.048526423523372893e-03
-5.074385412154650520e-06
-4.230321885133496440e-03
-6.184016700051139098e-03
-4.685842947872605017e-03
1.684451828956467275e-03
5.707566963493265928e-03
3.287175776858721702e-03
-1.145792252043982117e-03
-3.270096927323414785e-03
-3.852710489095232706e-03
-1.397401748611633125e-03
1.381297160876405810e-03
2.623256610781819894e-04
-2.836801600078351932e-03
-7.194049084687327567e-03
-7.665289029740998336e-03
-2.318270415465559404e-03
2.074413223006577826e-03
2.215597016194355891e-03
-1.091944734115406776e-03
-1.035116619600325678e-03
2.636560874421966724e-03
2.977789961929459047e-03
2.456298482878147612e-03
4.755081783184289534e-03
8.579040267063934785e-03
6.042761569583068003e-03
-1.723807590903926861e-03
-2.968619254600851718e-03
-4.018027443987090552e-03
-5.526244409851093636e-03
-9.943071528676630192e-04
2.889739318849817644e-04
-1.717358788043502624e-03
-2.137117397993583412e-03
1.393374940857377208e-04
3.638253484984064774e-03
2.927286486823570469e-03
2.722763888843195666e-03
2.968364331959759406e-03
-3.664709734674184162e-04
-3.859523287894032519e-03
-5.136779494165592298e-03
-2.893692789430008568e-03
-1.407431346142422454e-03
-6.865863058482700931e-05
1.974280593875815844e-03
-1.667563387909698882e-04
-1.621427240052729368e-03
-3.092081143714811749e-03
-5.272824440671994295e-03
-4.850252194871008428e-03
-3.665586986954582922e-03
-2.716438950712264612e-04
1.132420087509192468e-03
4.063888898290999620e-03
8.721103194761952240e-03
5.370991749661730569e-03
2.519046371168478810e-03
1.530352351716841863e-03
6.723025306797165892e-04
-1.295112373360012351e-03
-4.837434953881948087e-03
3.459895254204957155e-03
7.504132051340002725e-03
4.074747262435627140e-03
9.059821150921597288e-03
6.954507478034345144e-03
1.200906499790714522e-03
-5.543858441522583717e-03
-1.019138132740414135e-02
-4.022406840203928205e-03
-7.423040315541552629e-03
-6.796583176659776356e-03
2.747212193662773930e-03
4.930372751684970051e-03
8.191290836817294654e-03
3.474016102145927043e-03
4.017720323932777102e-03
6.339881559019917498e-03
9.121751957390032261e-04
7.277193623823735233e-03
-2.067389779516730364e-02
-4.667531647457644206e-02
-5.078018916967193264e-03
1.596764866755161563e-02
4.321157437282010898e-03
7.018159774336920481e-03
2.152919828755874357e-03
1.516753357703625642e-04
-3.122095884487579610e-04
-2.254996121304907522e-03
4.723132150744154684e-03
2.247608754198583692e-03
-1.648852027498511627e-03
-5.609672816361338998e-05
-9.070372238183259297e-04
-1.341183159904820853e-03
-1.777353849479336011e-03
4.130426399516547858e-04
2.658760010333079040e-03
4.126717728529181659e-03
1.774602223841553056e-03
-6.434141712276629380e-04
5.763642564323348712e-03
3.378430302752215633e-03
1.411965216412724490e-04
5.530410067866164438e-03
-9.376183286255764925e-04
-7.029826978379419451e-03
-6.364356457078457381e-03
-3.429185968604146935e-03
3.882729102007050070e-03
1.264345546576427400e-03
7.588628325084207748e-05
6.492420080874467328e-03
5.293193869660325380e-03
2.441378707931324797e-03
2.313928183955998473e-04
-9.889279158510914849e-04
-5.931776484175700333e-04
-1.254542984329235292e-03
7.575898843497607662e-04
1.426981465856163342e-05
-1.058728820278394028e-04
4.421615464912793426e-03
1.603252712370441604e-03
-5.343348989840342872e-03
-5.620550230172024868e-03
-3.326670595486290374e-03
-7.111659406992758281e-03
-7.259037170369839198e-03
1.499953522038720245e-03
8.006426477779894071e-04
-2.045238548942351214e-03
1.475430770449560501e-03
-4.621668362882420944e-03
-7.962610002353489105e-03
6.363605053379108251e-04
6.065891250656503704e-03
5.627634658739015874e-03
-7.102120271096743105e-04
-5.631819789545806920e-03
-4.427536502151614923e-04
5.045114546501906945e-03
6.079817191399826924e-03
6.253793556211564332e-03
4.816105408351142175e-03
1.335398529628120667e-03
-2.949613442193397151e-03
-4.706660879742730584e-03
-3.219772603072065462e-03
-4.345602785950483573e-04
1.422341362248179947e-03
7.277164932375104018e-04
1.754764831537106986e-03
4.548056745146424572e-03
3.208684571809141545e-03
2.335125869269941146e-03
4.669577663719158035e-03
2.150185151712743267e-03
-2.252077543146345506e-03
-2.494659987120527878e-03
-2.158196000126183164e-03
1.225384596809984397e-03
4.266814737391891321e-03
1.598960642304158393e-03
6.745307257391877209e-04
-4.690699704386147931e-03
-1.332670577781586672e-02
-9.490553300156493940e-03
-4.620300993687425674e-03
-3.776609923568224718e-03
2.125718889980430897e-03
3.627387716920638019e-03
1.374153737110373526e-03
4.002784611889149274e-03
6.334236836225208035e-03
2.638593195111707014e-03
-3.721921494125513506e-03
-3.460790493200180829e-03
7.828147437323767404e-04
7.210271830959015657e-04
-3.071142365573872185e-04
1.511660835880897008e-03
4.521075070982653182e-03
6.124098924600550331e-03
6.964973700952880979e-03
5.611732022408060135e-03
-6.342631808229650357e-04
-6.081055579728623754e-03
-8.713907685854251767e-03
-7.566052719316304631e-03
-2.488630446275229367e-03
-1.533514379585062745e-03
-3.519883291697135323e-04
2.992939262836113133e-03
1.262446068562928306e-03
1.332706472486637397e-03
3.630953469170000725e-03
2.365794672632536531e-03
-7.449608397424427873e-05
-4.394395125074232814e-03
-6.080114357375234618e-03
-1.209242443352132263e-03
2.000251727606792724e-03
3.639096274748575971e-04
1.326341924325530374e-04
2.092854076256941628e-03
8.860360344639941436e-04
-1.426952016914986767e-03
-1.789097751366301118e-03
-5.985523929504216840e-04
3.464015337791435424e-03
3.180500719394767448e-03
7.203289835445232832e-04
5.371037767336781302e-03
5.352237844754231116e-03
5.136996912206066336e-04
1.411682121247889265e-04
-1.872864050095499706e-03
-1.070105599128696539e-03
3.540574631915849291e-04
-3.529125002151908570e-03
1.098881317112762601e-07
5.163703306361093134e-03
3.027015851973400336e-03
2.009476549855743460e-03
-3.332487664333888869e-04
-5.231051423648293112e-03
-8.008821108205815137e-03
-6.468378331118119356e-03
-3.051506490110447289e-03
-3.565395204570153201e-03
-8.895260081439627931e-04
4.815286966596494904e-03
2.688957359617469983e-03
-1.905672541275258954e-03
-4.312466011792712790e-04
3.149345218402895604e-03
2.678451179429853016e-04
-3.737384086724293390e-03
-2.042429588073999772e-03
-6.925875196062029416e-04
2.924434670024163817e-03
6.351630196413619346e-03
3.303491263134803423e-03
1.774241274264362926e-03
1.893265949913673207e-03
1.328291549707042579e-03
-6.624070475363132669e-04
-4.272640027472304237e-03
-3.782171909551155717e-03
-2.886341606523281419e-03
-2.948647335370929365e-03
-2.337050282086178005e-03
-1.660095504807155816e-03
2.346528816913586325e-03
4.768330716685587924e-03
4.922638021999228841e-03
2.839887259876949094e-03
-1.986667976918696232e-03
-2.204302593695024563e-03
-3.426515988520195156e-03
-2.172537909615902992e-03
5.995340733336154866e-03
6.029764682380700513e-03
3.362620100654201312e-03
3.079234449281514907e-03
-2.984507872424718797e-03
-6.447767969086220206e-03
-2.657883275975384679e-03
5.378507063745857587e-04
2.001726486952702666e-03
3.204673498440832342e-03
2.868916295605997255e-04
1.606626641169632465e-03
6.670029658981719949e-03
4.222610355860332426e-03
8.887234583551371220e-03
1.064275240123396110e-02
6.548305781355564376e-03
1.047933307314002742e-02
-2.267018967058235385e-02
-5.389555585964121015e-02
-1.615558399147364391e-02
1.369789171990893825e-02
1.079918768242048299e-02
1.095408187833536197e-02
1.245984282708073859e-03
-3.331023738463243476e-03
-4.245392078906934548e-03
-7.247261649472615079e-03
-1.265182643426809774e-03
-3.074160168005088400e-03
-3.695664211460216505e-03
-1.455427811146335019e-03
-5.176770825231337067e-03
6.037556752078736440e-04
6.885629329601451916e-03
1.032205861738219772e-02
1.076003422006935328e-02
1.804875894700214362e-03
1.798586214167829543e-03
8.021047794292053904e-03
1.121149639988902082e-02
1.465378844794264224e-02
9.890592040165086668e-03
3.523437174943693569e-03
2.551196179014311120e-03
-1.002681275516793249e-03
-5.099896983394173848e-03
-1.882910195470357140e-03
4.517302754803443655e-03
3.290212262746596873e-03
3.256229791053181100e-04
-4.170918025502297994e-04
-4.481180887616818126e-03
-4.181897455961001119e-03
-4.070243447438593419e-03
-9.230815708455046217e-03
-5.844808404031945001e-03
-2.926879430709538200e-03
-8.992453135419586213e-03
-6.887592655214536813e-03
1.770167038605181126e-03
5.191415157133824620e-03
4.934572784837199487e-03
2.924828952286012175e-03
2.920435880311738740e-03
4.534486773532256376e-03
5.409159472467861031e-03
8.357506237203621985e-03
8.959789228937366581e-03
8.886515347168451318e-03
7.934498200960551917e-03
-1.229828302805357045e-03
-2.658961993374465201e-03
2.060163126142174235e-03
-7.350025250056219268e-03
-1.416042790147493784e-02
-1.313402949757331954e-02
-1.862424189621882109e-02
-1.904098863647913503e-02
-1.225435184716040966e-02
-7.039688354126685116e-03
-1.993467568045325690e-03
-1.448503548733221045e-03
-2.116697912833675685e-03
1.877090843210580881e-03
2.525480935804891129e-03
2.335791104674509767e-05
1.443354038944457676e-03
7.527230464782493080e-03
1.224209790940518523e-02
9.103729728295362894e-03
5.232517703772028399e-03
3.252403354995040807e-03
-1.747250718429772809e-03
-4.367312094909067514e-03
-4.179359163945540849e-03
-3.074921519072710586e-03
1.046314334477903936e-03
3.064903019795915239e-03
-1.318906350478577048e-03
-1.289759303429634761e-02
-2.605567925971804047e-02
-3.223959847695376246e-02
-3.350405010742035783e-02
-3.361284319810704802e-02
-3.164017757975807338e-02
-2.146083680669357355e-02
1.933385025653601343e-03
2.487302269273058281e-02
2.668347585658660884e-02
1.266058930222559512e-02
1.054099174594911106e-02
2.633343725479089792e-02
4.719005335260130496e-02
6.237862192030749209e-02
5.361912308616443440e-02
3.229003440064869002e-02
2.459758285740484482e-02
2.287505642293346381e-02
3.304896566737414859e-02
6.381243442651242381e-02
9.512142336382813090e-02
1.201486327124288017e-01
1.492721052430158735e-01
1.696853631874566670e-01
1.188201176293385009e-01
-6.742883366892753888e-03
-1.087151802812436480e-01
-1.601339411237645283e-01
-1.937544846786829478e-01
-2.100174446764895841e-01
-2.150178233907621139e-01
-2.033194150906543485e-01
-1.893998677830215360e-01
-1.697457775677931602e-01
-9.013571519476305804e-02
-2.120463125958137879e-02
-3.749184856099088692e-02
-5.641487363324339255e-02
-5.398539059522904082e-02
-6.758600565367907376e-02
-8.238332885181919030e-02
-8.586807351127591359e-02
-6.322675218219470095e-02
-1.152740216442746206e-02
9.489352328457230368e-02
2.578283192218839837e-01
3.422397357000983575e-01
3.146666909989442873e-01
2.856382829020586711e-01
2.522969940919225218e-01
1.893163902554563793e-01
1.270063831166635404e-01
8.413343064083361744e-02
7.370460052034329135e-02
5.357261983037282099e-02
7.277852009076958388e-03
-8.676280337265369902e-03
1.306326911954433512e-02
4.780588408673338424e-02
6.225985749855797446e-02
2.074347374170667363e-02
-5.185874899574377528e-02
-1.414748983736223986e-01
-2.643930097406098079e-01
-3.682069380637975620e-01
-3.962703063006364212e-01
-3.663438554213151455e-01
-2.953338782776813165e-01
-1.778297003533426124e-01
-2.993598406345643337e-02
1.055381801714867229e-01
1.973627185879187340e-01
2.504697338498822479e-01
2.352194401190781103e-01
1.230691057249926196e-01
-1.539731794318270792e-02
-1.014779947628482309e-01
-1.179737757944364085e-01
-9.692921347129850040e-02
-4.566346259850433825e-02
7.122216363462004207e-02
1.622519957657598266e-01
1.567514204394463428e-01
1.444630865376649587e-01
9.692371938005558962e-02
-3.559331989822030196e-02
-1.288818157211948645e-01
-1.224444273850439496e-01
-8.540578041393975806e-02
-4.645960751403563349e-02
3.315995356463022348e-02
1.244014022390520502e-01
1.328565043927610601e-01
6.620577171580438458e-02
3.959239644672535655e-03
-1.088604323689730709e-02
1.240448275800185539e-02
3.561763779039772704e-02
4.560308537696373954e-02
4.585217076566044936e-02
5.347319515857196226e-02
7.212193716456449799e-02
6.241962219392363509e-02
2.960811132477808930e-02
7.358569899535368636e-03
-1.282662884319572295e-02
-3.052187689184740482e-02
-3.183470594318014990e-02
-3.611706252258767291e-02
-4.818686814271305047e-02
-3.958280748507016916e-02
-3.913334468617380574e-02
-7.315739972555929116e-02
-9.573354246292099801e-02
-9.262030786534361515e-02
-8.700266434007072891e-02
-1.145819415828261412e-01
-1.485048058025599249e-01
-9.888717802533494861e-02
-3.540199875184454892e-02
-2.290853385323397828e-02
9.466810550656994810e-03
3.365689126186492686e-02
6.980344166293030173e-02
1.606624883815582494e-01
1.730370911078903950e-01
1.010628560635267598e-01
5.973812861577679906e-02
4.107958370441337076e-02
2.655214968942691892e-02
1.942745021111575571e-02
1.034580157619275839e-02
3.950288187341157928e-03
-7.049993762064697212e-04
-3.032200785838100408e-03
-4.834040827319982872e-03
-7.204537922485943109e-03
-4.741490848417009504e-03
1.004393415017042343e-03
6.563252859168108508e-03
5.015804218299425854e-03
-2.311275155334120354e-03
-9.670608254656331421e-03
-1.746960578374998768e-02
-2.215412240557523491e-02
-2.624159457872723977e-02
-2.737089127450001436e-02
-2.265705655759544732e-02
-2.278744666097091975e-02
-2.189180506414575150e-02
-1.438156809319678792e-02
-8.698233871589829483e-03
-3.240400449335953913e-03
-6.829410175380574381e-04
-2.450953995042963462e-03
1.010885972343707282e-03
8.257325777800063327e-03
9.558643947508514704e-03
8.214149574988756711e-03
1.416563335063623918e-02
2.037645768264577384e-02
1.875252159722856291e-02
1.125497843387050778e-02
1.453352594443675693e-03
-2.783340574925752871e-03
-1.146513298475873403e-02
-1.935930774718901820e-02
-7.334060369931274734e-03
-8.783719244530877046e-03
-2.116054199872934721e-02
-6.008481022374112523e-03
5.089064748079220012e-03
3.777938781479993346e-03
1.134143320888881569e-02
9.198408564193197301e-03
4.025999066604943506e-03
5.910625704175607661e-03
2.884976538982662788e-03
2.072478574909593450e-03
7.450323336865587523e-03
9.933816044262184022e-03
3.864015413511097917e-03
-2.100189877861190994e-03
-1.982586506427005957e-03
-4.364436709969474019e-03
-6.866144230688300300e-03
-1.164915045095494921e-02
-1.695998271915349909e-02
-8.878654140909266607e-03
-1.006393921276828600e-04
3.504525783150970377e-03
9.455981716597334011e-03
9.477485827512774352e-03
6.834888174573369550e-03
6.437473535175039681e-03
6.673441915565824119e-03
6.148109629642540923e-03
-1.137385902538696862e-03
-7.287328352914372240e-03
-5.508330637330401645e-03
2.098776701907939871e-03
8.750316560074643951e-03
2.655656416738723120e-03
-3.924685002667628077e-03
-3.263276743608664945e-03
-5.893966054610053074e-03
-7.095673464551385465e-03
-5.454294067070873317e-03
7.671366116961040021e-04
8.447903607816539817e-03
4.634382173037193339e-03
2.585015990567135231e-03
6.005083885057560696e-03
2.420556920984435773e-03
-2.725359989151137849e-04
-6.168198521754047906e-04
-2.762424072919526189e-03
-5.578999606275971551e-03
-8.261841042242028255e-03
-4.602317333047426309e-03
3.125829684754685353e-03
7.471025543799627786e-03
5.456784391225057672e-03
-1.805346374859520368e-03
-7.086944288169702046e-03
-7.123821407676370759e-03
-1.952353692308286858e-03
4.057471113690996715e-03
4.680928747656416811e-03
2.366029539240322929e-03
1.445592332923258832e-04
6.521334991416602401e-04
1.729435239236721232e-03
-1.876790084313523319e-03
-3.433735777040185493e-03
-3.069295884808817022e-04
2.907344655095918775e-04
-2.782018582015587452e-03
-3.082906788237720162e-03
2.150828385036470183e-03
3.576172024593180648e-03
7.986037659723896256e-04
1.104258522627205724e-03
-2.865364753251435203e-03
-8.695046968862663386e-03
-5.574427346554456861e-03
-1.825713632554318462e-03
-1.244754144692851927e-03
1.759886775859426404e-03
2.796558044347629071e-03
2.483013820932045493e-03
4.273817730072194607e-03
2.489284138421789250e-03
-5.702898836967178805e-04
1.791208566451525739e-03
5.259909416017474054e-03
4.667291529186345413e-03
2.786638425105445772e-03
4.500670492392911184e-03
7.922060582026825906e-03
7.346616826697806822e-03
1.357149989073747585e-03
-4.454457599689288019e-03
-3.686121145828002554e-03
-3.370262384507863654e-03
-6.945050731962188265e-03
-5.246092680400606459e-03
-1.166883470690467791e-03
1.023996829068084475e-03
2.261044109864646708e-03
9.334083241002116664e-04
1.861298086485039128e-03
2.021225187297426024e-03
-3.674626305733915462e-03
-7.643558901377332099e-03
-8.059809765641471474e-03
-8.737459932632115137e-03
-1.193106546956154701e-02
-1.246843962077871099e-02
-2.917314281668766281e-03
5.623821231776546942e-03
5.042540721568788964e-03
3.828134436510520402e-03
4.532737572653941852e-03
4.609294551535333788e-03
4.036340532847563188e-03
5.688948613913479176e-03
9.142479954918212443e-03
9.322509625214654011e-03
8.716932512650904519e-03
9.195147160470594147e-03
7.956597143610241035e-03
5.928469596215188778e-03
1.697658513163025421e-03
-3.202321134511034416e-03
-4.129200521284450039e-03
-5.081609347323027062e-03
-8.406637152505336275e-03
-8.303329191758796260e-03
-4.895011514803596780e-03
-4.510423260457565513e-04
3.296342243320548454e-03
2.827469426841523054e-03
2.974037052015681380e-03
2.511211159858128209e-03
-3.773600403088396213e-03
-8.536436355095499556e-03
-8.759189276434927590e-03
-6.901439679918410300e-03
-7.523397859536793547e-03
-1.053488341793184374e-02
-7.468583587604740899e-03
1.353322743335262819e-03
1.204727334640290880e-02
1.079883427967640031e-02
-1.168213158334086271e-03
1.762962707068948284e-04
3.295816040371086705e-03
2.416500632917112194e-03
6.075635353032931250e-03
4.451331838642638185e-03
1.029191575731085509e-02
1.274804943698251355e-02
-6.123722230680554365e-03
-2.110199300792701960e-02
-2.549872350707267643e-02
-1.804389411293468373e-02
-3.354467992932759750e-03
3.962489375359171291e-03
7.877692285554870055e-03
6.663160209665310724e-03
1.280361320600112429e-02
2.006579387487179497e-02
8.783128338520023934e-03
4.511544366409081172e-03
7.514369145315738518e-03
8.303940931593785726e-03
1.291962786764758175e-02
1.117105085065043905e-02
9.004584556036912199e-03
-1.353631481850644505e-04
-1.230770355380209242e-02
-4.068331748488209464e-03
5.751791895250234210e-03
-1.521614701200424023e-03
-1.996919149346063765e-02
-2.458352042328949827e-02
-7.976020791195571197e-03
8.838020267932442109e-03
1.871557065572344858e-02
-7.972361227557012153e-03
-3.883057218961839113e-02
-1.237918637818638534e-02
4.936465277285387483e-03
-6.389728694515825827e-03
-1.883631777405678871e-03
-4.660278453749712620e-03
-7.730823896955443461e-03
-3.677154872348497010e-03
-1.074696080025757273e-03
1.427723803942969501e-02
2.175088748174218087e-02
1.697120195281796515e-02
1.246600291923211611e-02
-1.192376437214434561e-03
-1.190040277633236040e-02
-9.645865055814398237e-03
-4.254369833093607153e-03
-1.712975058504447642e-03
-1.315876894229465869e-04
4.495697940087924060e-03
1.384290355673351014e-02
2.288322509284062417e-02
1.696832755251245772e-02
3.808002455479937189e-03
-5.217753969562815772e-04
-3.223254999470426176e-03
-5.044341009023995889e-03
-8.406335586377950558e-03
-1.446408543676799482e-02
-9.859813453097176356e-03
-1.098657672929623111e-03
2.064005917153305825e-03
3.901444444573249747e-03
4.999640352386725342e-03
4.044065958826605252e-03
8.625958701172013439e-04
2.933872913206865833e-04
6.853713784880646146e-04
-5.356660398261151555e-03
-1.001651063067108584e-02
-8.804955114360017709e-03
-1.056919178316557441e-02
-1.181582251693082640e-02
-3.478982398263343132e-03
5.434958508868525592e-03
6.764321928464205047e-03
5.968269127046094136e-03
4.825639783136207416e-03
3.641128066718630173e-03
2.397090380196969985e-03
2.625084465898817974e-03
3.614640429984615749e-03
-4.386121379138902335e-03
-8.751061976163166875e-03
4.176860881501432299e-05
5.039775168470607717e-04
-1.041325146526020330e-03
6.407280187796116772e-03
4.936438401392916758e-03
6.875039617356260404e-04
2.084919515823353831e-03
-1.454734450194965570e-03
-2.516666156795619759e-03
8.001487174739093690e-04
-4.274507915991983633e-04
1.848377670544383263e-03
3.671266816674026434e-03
-2.171856800377250374e-03
-1.069182589007048115e-03
4.794561386119762167e-03
3.275921927086224844e-03
7.844636602311871052e-04
-2.252367503356356507e-03
-6.931216393501049046e-03
-7.878454465371019511e-03
-8.168155645385977159e-03
-2.926715444475803691e-03
6.978966309933456146e-03
5.463963205499199755e-03
2.457284622878901353e-03
7.380830533835404383e-03
6.178790924014686790e-03
2.686117648187851936e-03
2.081424555931099887e-03
-1.419305402675287041e-03
-4.764085128354658000e-03
-7.972166650756770667e-03
-7.556076349983609046e-03
-7.879739065085785690e-04
4.413193740124280590e-03
5.880627363936254647e-03
1.566511521796762948e-03
-3.152069646639779447e-03
-1.533986421295495655e-03
-3.190020620085439601e-03
-3.700789668353418951e-03
2.014344948181515885e-03
1.872991740629698044e-03
1.127216871264714350e-03
6.260226871321769755e-03
6.392218897000877947e-03
-2.499867462419953692e-03
-1.058058048726558294e-02
-9.101906838994568150e-03
-6.317033894168505408e-03
-8.230175285661993356e-03
-6.373045138316214310e-03
-1.884122919564421798e-03
8.784343765895071768e-04
4.962596418459080429e-03
7.897474061302789047e-03
5.595853457828324322e-03
2.850379887448032702e-03
4.002791293445577200e-03
2.537667049818606232e-03
-1.952931693021145877e-03
-6.199007502166281299e-04
2.815387814386833935e-03
2.550064987010633704e-03
3.188883091562340170e-03
7.167060445880196751e-03
9.518685328237339038e-03
7.152157118202780162e-03
5.175953622914757600e-03
4.861848209245144860e-03
5.081260952891493779e-03
6.156526866456141049e-03
-6.665639864291976642e-04
-7.662623872660637679e-03
-3.715649841518273697e-04
5.384347206760085013e-03
-2.234961725816173375e-03
-1.242607892303852768e-02
-1.467583756368683219e-02
-1.219355867231447163e-02
-1.343214367332505599e-02
-1.082565000960227820e-02
-5.410425406904675709e-03
-6.411091882938806975e-03
-4.332608194093310813e-03
8.588181421000318444e-04
4.246268387121262221e-03
8.604311216363067991e-03
7.834377687379743410e-03
3.273761900841819575e-03
1.776622000763447519e-03
-3.775926434776545148e-04
-5.510106223628082923e-03
-6.690699994723364914e-03
-9.327362744775068940e-04
4.240117096224107519e-03
5.940313049504732795e-03
4.649007331452380438e-03
1.817144442530894011e-03
1.311960096885653616e-03
1.170775946433396590e-05
-1.617814646549014710e-04
3.855408192284411322e-03
4.993484373703639505e-03
1.841459019569936968e-03
1.884058691438056203e-03
5.747861640808810471e-03
3.301437284449581892e-03
3.712443933215807748e-04
3.839146630552874549e-03
2.440072377180470611e-03
9.973184144752309053e-04
1.113421664991502474e-03
-1.724704768911319245e-03
7.190448863266072233e-04
4.108335731685027088e-03
4.396316942342948404e-03
-6.547273180041471253e-06
-3.192943253351785467e-03
-3.983818652302891471e-03
-1.389541322546710908e-02
-6.551682828743726934e-03
9.692785835573912781e-03
8.190262436769827140e-03
1.086519281214190155e-02
-1.325720994816429778e-02
-4.364223027818149581e-02
-1.618157121470771564e-02
4.117648310345917162e-03
-1.407820490081595696e-03
8.832786185942523988e-03
6.196857326974633193e-03
-4.116252784235429132e-03
-1.106745800724845494e-03
4.136412287504464581e-03
7.930876566587460874e-03
8.674098841855886963e-03
6.233259506766362056e-03
-5.676451219916981870e-04
-4.250526287785908082e-03
-1.983052564214454142e-03
2.680723440215927386e-03
9.629952074586303062e-03
4.223856371572985713e-03
-3.362166736883949458e-03
7.790585134584091529e-04
4.070783034348726139e-04
-3.496348519743627294e-03
-5.473192726911066917e-03
-3.319334259939357972e-03
9.708366123497990004e-04
-2.910184876269021875e-03
-4.295412945060031289e-03
6.982880983307131802e-04
5.032429418062962442e-03
6.903373610515273727e-03
1.267832528241913089e-03
-2.251872196864297682e-03
-6.764262967988031363e-04
-3.638586959838911554e-03
-4.268060831354150188e-03
3.133835417749229052e-03
9.728495485979305607e-03
7.422539335427855330e-03
2.091234528596012856e-03
2.189104181357824034e-03
3.732802837460688378e-03
2.040961704021038072e-03
5.288566899708553723e-04
3.997981961348138309e-04
2.477279772749484609e-05
1.332261795556639828e-03
-1.652633421596618434e-04
8.811262077397137571e-04
8.882267156966258681e-03
6.077387859247470984e-03
6.250971420544725911e-03
1.784940484179560645e-03
-4.162372996959073923e-02
-5.973933949328789211e-02
-2.157287607748382269e-02
1.416258222989434526e-03
3.887229837596023214e-03
8.488490570287804404e-03
7.690256114020159114e-03
9.159025002915164096e-03
1.013367753065389822e-02
6.673118835375279820e-03
4.586080875468130473e-03
3.571466888012816629e-03
5.265871102540459724e-03
5.211112134090772723e-03
5.097601137173935187e-04
2.204482477214728467e-03
8.489036111200736270e-03
8.018640287316939827e-03
6.990594493348547059e-03
5.718078699100860238e-03
-2.022667921259440390e-05
-3.494178094218850189e-04
-1.275033497599678762e-03
-5.619142002377673292e-03
-2.465810137471915933e-03
1.747155937590750717e-03
5.570270672799262045e-03
7.595081485153791327e-03
1.646934012206887157e-04
-7.854657764445292789e-03
-9.499881772726904983e-03
-5.986802609151692031e-03
-3.754154078326227013e-03
-6.242729518211731152e-03
-7.318166157131297637e-03
-7.622510196088968723e-03
-2.560672194673403648e-03
7.396008376734957389e-03
9.257725909777341639e-03
6.143843819681887863e-03
9.482014014954183705e-04
-4.930832442433162599e-03
-3.935759936780767153e-03
-8.368359624673448295e-04
2.417384852659162746e-03
4.353804142518345396e-03
-5.243213869844545825e-04
-1.119128597994157280e-03
4.283060670462681026e-03
2.024031551391464959e-03
-1.603224504146374269e-03
-1.585004331466058044e-03
-6.328476212291370660e-03
-8.758218443563838343e-03
-5.450122827042545512e-03
-3.679758049589946286e-03
1.518169515637314082e-03
9.556382647393744934e-03
1.074738382743656642e-02
5.755058748148507083e-03
1.220637443465242503e-03
-1.723558465977593135e-03
-5.312169328554784339e-03
-6.439921878781328449e-03
-3.424985846670335152e-03
1.166105526272044786e-03
4.360245023319068471e-03
3.975686372892225755e-03
4.774658295248340734e-03
6.716756345679315843e-03
4.306805089653146373e-03
-1.639301324507587594e-03
-4.272516193519291378e-03
6.670666889802465659e-04
-3.259637299242009660e-04
-6.202625574890185609e-03
4.431612125663256740e-04
6.124723867838465473e-03
2.595600627850637356e-03
2.015045503651188060e-03
1.492828685543497050e-03
-4.470225434444347230e-03
-1.323312622162687441e-02
-1.353751707155260130e-02
-3.948572476816932311e-03
9.201080433082757960e-04
2.169392969418538954e-04
5.018373650273740905e-05
4.626487626539687627e-03
1.078856506262133169e-02
7.506842477203357240e-03
2.962546039715251850e-03
1.953566795749383384e-03
-1.794103425864466105e-03
-2.546050969817738275e-04
7.262579849560614909e-04
-4.618023708861668762e-03
-3.752876603598876218e-04
4.918755341995590183e-03
1.760478697727888703e-04
-1.183488408954265752e-03
-2.735056594988011583e-03
-6.377182518824355342e-03
-3.178805705328547129e-03
-3.847691159406514769e-04
-3.952441629231647044e-04
-1.968159950317036142e-03
-1.884192271071016790e-03
2.836715191189608919e-03
7.127596278017338683e-04
-6.774181814065885878e-05
5.054089245010781953e-03
1.599159452335411702e-03
2.152801954370512933e-05
-8.800767029202480579e-05
-5.580036432082574605e-03
-1.251827211838760570e-03
6.823142854601582999e-03
5.814095774651139269e-03
-3.008889384836282359e-04
-5.482345839170105380e-03
-6.718166080038967883e-03
-7.000217176652962642e-03
-5.919046026738885267e-03
-2.483188080700650911e-03
-7.681512786683733279e-05
-6.444710054013005852e-04
6.499533481850168319e-04
8.606176567144078332e-03
1.216100232272463756e-02
7.956525512745064171e-03
4.743412038819424040e-03
2.468630976272093418e-03
1.736748526487734250e-03
4.016897942951743340e-04
-2.243805728148668289e-03
-1.422785496184934047e-03
1.133044155498168747e-03
1.374107279075395451e-03
1.151361050777353293e-03
5.979185470418969112e-03
2.548022767311664341e-03
-8.941224023558147840e-03
-5.347519592549883523e-03
5.791859373726539629e-04
1.638348618870063243e-03
1.113945556674277504e-03
-3.825159104645527771e-03
6.669664798146839046e-03
-1.951404805342672223e-03
-4.036553877054121359e-02
-3.437117851312863209e-02
-2.940597147273031641e-04
9.072183144335325966e-03
6.880945805627161627e-03
4.413377987004375377e-03
8.547443720680912571e-03
9.745470776286534187e-03
3.529478569488347060e-03
5.066516431650235595e-03
2.853119262975153687e-03
-1.340572079278626793e-03
1.888695478271727258e-03
1.421829928822236242e-03
1.669442540915543191e-03
5.940863056143577854e-03
7.167356836758119118e-03
5.491214519766933824e-03
4.406580776981715297e-03
3.545415945582019480e-03
-2.023396219904413586e-04
5.867633264431856540e-04
5.155605886212002824e-03
1.064033598799440841e-03
-4.944034019301938448e-03
-5.567122287359207479e-03
-5.242428108919427662e-03
-1.123604487228799459e-03
1.358842136259501591e-03
-5.344062869963066113e-03
-7.025677515810290451e-03
-2.603382515891379100e-03
-5.528460137305011776e-03
-7.308752533984683684e-03
-3.987356291740181552e-03
-1.827592640362481419e-03
1.170513663464706547e-03
2.683858896967653701e-03
4.353335366964104780e-03
6.479012117853857888e-03
3.506167053935137310e-03
4.841531755299849403e-05
-6.783745828975569709e-04
8.770512749218668498e-04
2.419908775414935515e-03
1.539017019049410649e-03
1.594536803144690424e-03
3.519538759868214798e-03
8.943251735912444850e-03
9.943654519016940224e-03
1.110338632039945548e-03
-5.039700948551707055e-03
-1.406995065112537531e-02
-2.207590503627721371e-02
-1.064199554546930299e-02
-7.953785391392852048e-04
-1.708089601967884268e-03
2.337820870876154179e-03
5.045964235009471957e-03
6.079076002951236575e-03
7.472716719862263456e-03
5.209310414852038121e-03
4.791994143597325811e-03
1.880316585225419706e-03
-2.918747592809762832e-03
-3.266442180248671501e-03
-5.602046155175879373e-03
-3.573005397423323175e-03
4.253503058910998967e-03
3.379164394012067803e-03
2.269994823779225720e-04
3.083931278202642606e-03
4.716768983230540044e-03
1.935194672123385917e-03
-3.480240565079435072e-04
3.959490020783430937e-03
4.830325645368406182e-03
-2.300640380203431735e-03
1.604141325417140400e-04
4.938152606935392909e-03
-8.596522617119991064e-04
-1.419305872215961828e-03
1.429631213883491431e-03
-3.157989666173917614e-03
-7.244468088913070918e-03
-7.056857781328345486e-03
-1.724481988122879023e-03
3.676666074242550784e-03
1.216000122656500475e-03
-1.079129289816554505e-03
-5.627264823214061682e-04
-1.103002747707579941e-03
-6.419786122623738012e-04
-3.659958606867590083e-03
-6.980979817332259169e-03
-4.100690052255762802e-03
-3.678141311705545712e-03
-3.881436550441916700e-03
2.047137661843183645e-03
4.611128834308385327e-03
2.192829954561253698e-03
2.385283104294144696e-03
4.178013299108642754e-03
4.979875241482292422e-03
3.057253957697968465e-03
-1.485924635276920491e-03
-2.149680884080688598e-03
3.089159528411842669e-03
6.990149523821325914e-03
3.764725355384605440e-03
-2.180838955492618234e-03
-2.670191999994553020e-03
-1.795856791994706768e-03
-4.172811271401313110e-03
-1.440296258411635170e-03
2.982267854073592482e-03
-4.107217923232596955e-04
-2.016389190596756201e-03
3.112922450711142191e-03
5.652178193808505592e-03
3.264773256048107090e-03
2.717352592075296803e-04
1.470065570754589858e-04
1.282646416621902475e-03
-1.969278077578813144e-04
-3.218936716408507970e-03
-4.140662334085267078e-03
1.262440247119546975e-04
6.356380497322644020e-03
7.200047465863034998e-03
1.938078364026169865e-03
-4.823511972508675097e-03
-7.912678193515125177e-03
-7.414340374309933042e-03
-6.162275254689899423e-03
-3.498008287096288950e-03
-2.103006916446699057e-03
-3.022905615263939399e-03
-2.172181569640346311e-04
5.432125726960897183e-03
4.071064764575475087e-03
-2.567504004554051981e-03
-2.501964565095338329e-03
4.021649469480360374e-05
-1.553329116693717184e-04
2.486066826875621676e-03
3.629110260939383010e-03
5.379743940502697622e-03
8.359817631038806568e-03
3.158826701612550605e-03
-5.894930960451798003e-04
-2.455439562135073965e-03
-7.930661592889038519e-03
-5.792473626926672274e-03
-1.035193913710216870e-03
2.880539284187017771e-03
6.732866742109076125e-03
4.174812301556798597e-03
3.526912769656716934e-03
2.354659894025258170e-03
-1.945549238967014555e-03
-5.231724932824334800e-05
4.467337212076382541e-04
-1.424282896371363441e-03
-2.439545657053812395e-03
-5.402505071965467594e-03
-3.884521142395166559e-03
1.478905647077340688e-03
5.839133401398538363e-03
5.507261564654312297e-03
-6.946293518113631294e-05
-4.599794352428469152e-03
-7.842656139023762921e-03
-6.799112431787588708e-03
-1.605708147446773069e-03
-3.916306311811330919e-04
-3.375447810089728974e-03
-4.040707729752869397e-03
3.947951779978599827e-03
7.545484378696585247e-03
4.511254330424865010e-04
2.131779602089243358e-03
7.563984660311092421e-03
3.456165944662250526e-03
-3.598928206520031047e-03
-6.303159381279112468e-03
6.915454153123988990e-05
7.539664886280893034e-03
1.024282870165687739e-02
9.776335815673171947e-03
1.552351510075167208e-03
-7.609035028522521255e-03
-9.804772209068123717e-03
-7.757351344056587043e-03
-3.254311454158526941e-03
1.985327472377317656e-03
3.040293829214641731e-03
7.786089902826542420e-04
3.130630674928344681e-03
3.171203323076054233e-03
2.060955833655239190e-03
4.977652855488428306e-03
1.270681026079288536e-03
9.003596874621586088e-03
5.161414367207669239e-03
-3.884817233694735916e-02
-3.784353070311617662e-02
1.105407168278040031e-02
1.946756487308461472e-02
1.032646134393101073e-02
6.848622779328555205e-03
-4.736738765995857775e-03
-5.172187025365643578e-03
-2.644742665850998310e-03
-3.738800030841507322e-03
2.366905962643502549e-03
7.022229083120152746e-03
6.450750362630672773e-03
4.542836307130758942e-03
3.610357528881248494e-03
5.757642607920109099e-04
-4.418342701202985015e-03
-2.350295931581397168e-03
1.852516506152940756e-03
1.363393337395151601e-04
-3.803718114307246163e-03
-4.389022450229635060e-03
4.923789773344142118e-05
4.295047451995720987e-03
6.246482294890015434e-03
6.151805200974923109e-03
4.921907342462694592e-04
-3.570301059830531705e-03
-5.365350541928345582e-04
7.277059190488293760e-04
-7.751558287483126253e-04
-2.103451277711137503e-04
8.441045759460378585e-04
2.145240176126833685e-03
3.757899814988189657e-03
1.066576062378515400e-03
-7.127820406201754513e-03
-1.005388531395405918e-02
-5.361527533654268825e-03
-5.746088770596115454e-03
-9.617466381693917654e-03
-9.128199321725960144e-03
-2.433735776292671009e-03
7.905459625620538111e-03
1.062747583297694517e-02
8.398410752118057321e-03
7.319729105872353064e-03
5.776090840508751358e-03
7.076115806117215523e-03
7.385218975131212574e-03
8.367195404296741065e-03
7.456827431449673804e-03
1.676622186810622535e-03
3.972895428555482493e-03
2.046360900318422785e-03
-7.211045037204463597e-03
-1.285454058241427069e-02
-2.325665353569860219e-02
-2.364558795318262921e-02
-1.663072178230540904e-02
-1.822497926719011258e-02
-1.452499214453780926e-02
-8.179533461926275992e-03
-5.154897876780855683e-05
9.046263619255270894e-03
1.294439273553997516e-02
2.091973947548599402e-02
2.418220111233251521e-02
2.152394900041996670e-02
2.029793238756757989e-02
1.934587715379101902e-02
1.775837511791111822e-02
6.649952882621716806e-03
-4.235021378210168316e-04
-5.707261479238381549e-03
-1.824752184525412282e-02
-2.291546568747078461e-02
-3.379605974042412808e-02
-2.017979496409429141e-02
