-1.200792068043098244e-02
-1.906872638041180387e-02
-4.231979985795964253e-03
2.234503576944484038e-03
2.212720829147621110e-04
6.671712105475222738e-04
-2.518053156154245482e-03
1.485686052480946406e-03
4.713442988917435766e-03
-3.579719632441096433e-04
4.231938236565985852e-04
1.656125245859079017e-03
-5.858332112397085728e-04
-1.189805076768225616e-03
1.382921780305435564e-03
6.525286392838695534e-03
1.537281389963137887e-03
-6.448244811900759842e-03
5.215892481036367391e-04
6.899736504955301594e-03
3.289420191353540582e-03
2.019440833427600755e-03
2.070326962916885487e-03
1.977791567788319844e-03
3.132157208955300975e-03
-1.819139461080661931e-03
-7.307157144092482626e-03
-3.860606091671146302e-03
9.750227378086220083e-04
1.677875105820930473e-03
-2.948355635061373332e-04
-2.482932893406739408e-03
-1.195167166753186364e-03
-6.665644068906485852e-04
-1.060813161941839789e-03
3.153142094792235964e-03
4.802843756776540088e-03
1.339320840204865715e-03
7.515606565430614202e-04
2.459044935883677487e-03
2.831087782050177148e-03
5.969630345210095014e-05
-2.466625608222220919e-03
-4.255483827160618979e-04
-1.643298323050960182e-03
-3.719521702309047662e-03
-1.136586299367266413e-03
-4.037694188492949206e-03
-4.485946747179072290e-03
1.965653993938250646e-03
1.971293732969723808e-03
1.398266290427002982e-03
-2.409770996191414830e-03
-1.014642170866714155e-02
-2.524644452078928479e-03
7.416934476672726491e-03
3.332687613560176600e-03
-1.593312081175643187e-03
-3.391636511320599641e-04
3.982938916890158519e-03
5.695833730953416690e-03
3.952049706324761713e-03
5.082811828193957654e-04
-4.373146698219811460e-03
-5.004050728552170320e-03
-3.733339909935791227e-03
-2.329677253309098139e-03
2.289318453555710606e-03
3.634551122417414501e-03
1.803361260946051729e-03
3.970155491892648852e-04
-1.164488983638263054e-03
2.203081746440066594e-05
2.171888982485089235e-03
1.503894544980423397e-03
-1.672861218305464080e-03
-2.389396886471377001e-03
1.538264806986865477e-03
3.685021888757287079e-03
2.206379102350938554e-03
-3.401883297233613017e-04
-1.063810441650309959e-03
-1.093529508704097928e-03
-3.771535827337269779e-03
-1.558132025490353584e-03
1.670117325730511183e-03
-9.407265731234195098e-04
3.827136786181437413e-04
1.055075737633750892e-03
-3.654057260313770699e-04
1.331968796302675055e-03
-1.697723245328980161e-03
-7.891183076587748152e-05
4.453613144231168171e-03
-2.544615486588709067e-03
-4.294202541783679987e-03
6.516867584621544723e-04
-1.491857430088240708e-03
-2.269987007544563718e-03
9.072549213650091607e-04
3.104035770429842533e-03
2.725237798416629831e-03
1.530680799653267189e-03
1.572829338639830134e-03
6.354589027953660117e-04
1.623277975590891285e-03
-1.451566503914213796e-03
-7.661070085982106710e-03
-1.244364010549949126e-03
4.987270632071154342e-03
2.673564530577307152e-03
2.593402636998561397e-03
-6.975640467755124096e-04
-3.336245824667071012e-03
-1.451344435472241194e-03
-1.249968613270857664e-03
-1.064567320730169190e-03
-3.169889333837946823e-03
-3.168956390724531405e-03
-1.891161283749811118e-03
-3.716711161382211127e-03
1.514484111729605354e-03
3.904546536210196962e-03
2.579757516698016743e-04
5.231807336697492580e-03
7.145026797506888287e-03
3.258794067633321440e-03
3.654160247265057001e-03
1.205885080649041555e-03
-4.401761882658122502e-03
-5.881420687343852025e-03
-3.443408791980911640e-03
-5.106922278371270763e-04
2.572509780503556484e-03
3.224613080588526609e-03
-4.191501614107506746e-04
-3.010814347566625007e-04
1.381584478663913781e-03
1.478600493126939604e-05
1.305958059074406466e-03
-6.758123039839715939e-04
-5.398982067042434191e-03
-1.840827948632523837e-03
4.038487072617847826e-03
1.652617399534207906e-03
-4.893731147491225952e-03
-3.694191001394933963e-03
1.145697505357224158e-03
1.383772634775936802e-03
2.629405831225161208e-03
1.758476919704489569e-03
-1.136125953565041580e-03
8.803286105247350342e-04
1.718776015416418560e-03
4.684087768102941684e-04
-5.015420935986736285e-04
-9.710302287058043000e-04
-4.729342883995870848e-04
-3.307330550317619418e-03
-3.832996001330779209e-03
-1.851424501738546712e-03
-3.070502576256644960e-03
6.921460872060273758e-05
2.800278557758045708e-03
1.717362309951743580e-03
4.820691974343907851e-03
4.390683517691862728e-03
5.109095594666997848e-04
-1.014150850989095447e-04
-2.643075939740008838e-03
-2.047057090381916057e-03
3.098345721125190123e-03
2.271891461555439109e-03
-3.952811239583935566e-04
2.861474215346680619e-04
-4.375658755990403785e-04
-1.327589636434495495e-03
-1.620078900132020843e-03
-3.003304389324788597e-03
-2.709078042332010040e-03
-5.779176691300223897e-04
2.260457848396089930e-03
2.395657549248257374e-03
-2.449028169388503453e-03
-4.386969658804191000e-03
-1.772103599326021019e-03
5.547457488575400402e-04
3.735989729644942445e-03
4.797853095936532516e-03
2.457410791202537664e-03
1.665850300725394643e-03
1.152958303659703870e-03
-8.654020503285687112e-04
-1.415505555103276341e-03
-7.244959968180055476e-04
6.612868288021514452e-04
4.424545280102822227e-03
6.162404466683224849e-03
3.079868324359651046e-03
-6.060966823639199041e-04
-8.356439446153849987e-04
3.107900312071157356e-03
2.335998986722554079e-03
-6.232229184542297613e-04
1.832703420458359217e-05
-1.417847058300162645e-02
-2.618797007073362867e-02
-8.150114128869253780e-03
5.474954183670673914e-03
7.649441195226025763e-04
2.652563868218249174e-03
6.353134362808255525e-03
3.730372340294269787e-03
2.566394275128800438e-03
3.988681003295135863e-03
1.149459925100522473e-03
-2.868489991743324290e-03
-1.587025674687563784e-03
-1.436759882484805410e-03
-3.735358786606438985e-04
3.164147286517776051e-03
1.747758080650809679e-03
1.912583501144458486e-04
-9.594306102312668248e-05
1.373355970178903292e-03
5.611537659190590777e-03
4.186109690194144382e-03
-9.308120924122348112e-04
-3.443001624235659478e-03
-1.390565512508619601e-03
4.133967677558604711e-04
-3.520670001061791763e-03
-3.486464423484037217e-03
-1.852407186587046303e-04
-5.870406312699624546e-04
-6.387907458875196915e-04
-1.169746961111016448e-03
-6.496837595385540880e-04
1.444369153986733772e-04
5.780121887209207620e-04
4.577718775955085494e-03
4.048237629608611443e-03
1.043847294041000623e-03
1.085610092401201147e-03
3.525601963797897346e-04
4.794950900742157157e-03
6.220220491385236583e-03
-2.091138446065542340e-03
-3.163744556241364619e-03
5.855884442162220252e-04
3.705056299047715358e-05
-1.825019784914766799e-04
-2.453441176066460672e-03
-3.518290411722676658e-03
-2.638166774050499644e-04
-1.752512800600945905e-03
-4.472647747689424864e-03
-1.812433094881415237e-03
-2.991812852973644785e-03
-9.665737696897177753e-03
-8.767465852214136393e-03
4.935760525291026552e-05
4.374012609958926288e-03
4.161353549010250036e-03
2.862673857970617335e-03
-4.824758612851242257e-04
-4.069863557591834203e-04
4.203018611268549763e-04
-1.340688777480497445e-04
4.279937073240977670e-03
4.466488859869200377e-03
-2.760570907383430171e-04
-7.253359619260728872e-04
-2.944174625353540575e-03
-2.735474460082909596e-03
3.458969079784777415e-03
5.884812977025736906e-03
4.276014297271252609e-03
6.665417818398961967e-04
-1.482034077059059593e-06
3.288595272162089800e-03
3.044471066486123013e-03
2.218971082358640445e-03
1.429116209731045055e-03
-2.382835974401611404e-04
-5.172511519855698932e-04
-2.208930742541549089e-03
-1.372322954000986103e-03
-9.911248836326391927e-04
-4.013233030475872425e-03
-1.513840274584903013e-03
8.715478789194524862e-04
2.835393097630420638e-04
8.839490746103817595e-04
-2.070616650653802487e-03
-4.390077152522918816e-03
-3.198720007879252755e-03
-1.574125841396717710e-03
-9.246128252186223886e-04
-4.040690915688000678e-03
-4.712478640657911250e-03
-5.289648148374822504e-04
2.183173643229828400e-03
2.547059825579855302e-03
-3.156544670871773233e-05
-3.793551312444348213e-03
-3.457168413566628906e-03
1.623481394522712645e-03
2.582458114323806214e-03
-9.985540273241759295e-04
5.320916524942784741e-03
9.486015839902894181e-03
-5.783178399730915290e-05
-5.474271977181070390e-04
4.775658734678792962e-03
1.236199779649050940e-03
6.189289004673266060e-04
2.607714181430588560e-03
2.198378622631864867e-03
1.031487927361512003e-03
-1.716115665732692325e-03
1.171632278661650754e-03
3.691127065775477289e-03
-2.178976012123240782e-03
-2.508315641074898572e-03
-7.266321620685078702e-04
-6.077125818126211804e-03
-6.220885900874087784e-03
-2.787329119342831039e-03
-2.034710219308607636e-03
-4.657986131881501732e-04
-1.856283297279248548e-03
-1.766806001395209358e-03
2.773793136524281555e-04
-1.573950054877644488e-03
1.535539693650813699e-03
5.208224521581776047e-03
3.789050789660980021e-04
-4.388812343596364650e-03
-2.911013379353323549e-03
1.778125302438317203e-03
1.155865090687943544e-03
1.004834847772191229e-03
5.358745926202425347e-03
1.253089427026318585e-03
-1.910973800602804810e-03
-8.330263521840848226e-05
-2.247842133984466213e-03
3.479709086496037863e-03
8.830171342321758987e-03
1.456448549028629578e-03
-1.719920328061693045e-03
2.023609021910531981e-03
1.668189248199746172e-03
9.900782558892014598e-04
4.275182355099391499e-03
-7.334304651875671538e-04
-1.012075877174172141e-02
-5.639551871499915228e-03
-2.366541908207677684e-03
-6.171560914465177607e-03
5.116508155144962062e-04
4.880161757918980228e-03
-1.983953329469659559e-03
-3.896621594336263650e-03
8.071565689405935931e-04
2.528485360643664259e-03
1.674492043392636353e-03
1.269279321247648168e-03
-5.962106117673432308e-05
2.458854281150831683e-03
5.469472965851146853e-03
4.995854236707590471e-04
-1.907510716725724408e-03
-7.778826726127432024e-04
-3.899585747386816181e-03
-5.576176740672970401e-03
-5.799988334461707307e-03
-3.675650531278481202e-03
1.632770299737900050e-03
4.990624031617795983e-03
6.845536681811240434e-03
1.745311408666449246e-03
-4.359865256928776092e-03
-7.898504841982880538e-04
-2.794407092983694149e-03
-6.572509345084049694e-03
9.545792865720604571e-04
3.159760691674057178e-03
1.531204912742737930e-03
5.245303587973736310e-03
4.733896414232283481e-03
1.616113349341217814e-03
-8.394044838688677996e-04
-1.113542581849370685e-03
9.877647581702433000e-04
1.306641267169374610e-03
4.123179642651648297e-03
3.403888141929173588e-03
-2.085457680585971023e-03
-8.308721108060611272e-04
2.287258949349661296e-03
4.216312928603569744e-03
3.163186610503862864e-03
-2.698958308069808595e-04
4.012384264018464992e-04
-1.571488582575658404e-06
2.776522081070678834e-03
1.836856811437481436e-03
-8.222727218014536099e-03
-7.244888611599615245e-03
-1.076928760202760897e-02
-1.900812055238794429e-02
-5.997452607050039047e-03
3.126786589477474100e-03
5.182184779101391744e-04
2.094445522901799885e-03
1.640612320285516051e-03
7.774228937857104258e-04
-2.197389813663145220e-03
-4.128266745081244325e-03
4.134860816532548683e-04
2.542461887403239633e-03
2.595833643638964256e-03
2.596587905708323363e-04
4.178443284750909918e-04
5.247025227809063927e-03
2.811261210551336143e-03
9.992141786877054791e-04
3.849731017103076233e-03
5.572465331842951092e-03
6.182923868496445659e-03
6.965347253055213274e-04
8.939202032643095517e-04
6.260173406639335872e-03
3.040260345612298253e-03
3.186223336850118725e-03
8.882681700183139894e-04
-6.309050200880139854e-03
-9.084704944465253704e-04
2.782311238355204049e-03
3.164643135123440401e-04
7.941517591563255780e-04
-2.088473550353253834e-03
-1.707198122454430759e-03
-2.015697032174414496e-03
-6.892737979823472701e-03
-4.081535026064645952e-03
-1.305748837251421643e-03
-7.343314712077362010e-04
-1.057151334651640698e-03
-5.624498260957913609e-03
-2.369046855846506489e-04
4.972936996282737582e-03
-2.245567014206248119e-03
-2.977670219140062836e-03
8.650996982480620504e-04
-6.877349436724811528e-04
-2.034303041903290626e-03
-2.174080756818300847e-03
-2.500824153052843852e-03
-1.436846879635169261e-03
2.042707513175100447e-03
-7.236955910256733914e-04
-8.309007379510312263e-03
-5.212697865819685555e-03
1.805822660101725347e-03
4.465127231526839525e-03
6.688955730062728054e-03
4.033493800360941559e-03
1.171364450556579284e-03
3.143521841801879754e-03
1.525553331236186505e-03
-4.596789866767947235e-04
2.922774633730956979e-03
3.019008275691585554e-03
1.029286342880015312e-03
3.987175654979366671e-03
1.899848927512731971e-03
-3.182462005323722851e-03
-2.025319302121927174e-04
1.589578512123849098e-03
2.157157495643271042e-03
6.059406015595528161e-03
3.595216568628393974e-03
-1.346152674018468408e-03
-1.649975732269606419e-03
-2.393932525612570052e-03
-3.748871642434316656e-03
-2.573155461676412525e-03
-2.894300632719176789e-03
-5.537406939359932646e-03
-2.646332702406071179e-03
1.090382658612480725e-03
-1.283580214276266529e-03
-1.177609249181717612e-03
4.468691517816999678e-04
-1.852928318681681301e-03
-3.397977306722346248e-03
-4.666604268428850739e-03
-6.696315636869626907e-03
-4.685878782097483222e-03
1.987558809621326524e-03
2.915552098321745351e-03
-3.538523829459653321e-03
1.487408473878419862e-04
9.429187275169984353e-03
5.965635145958551183e-03
9.290873794455631763e-05
1.239278993298756088e-03
3.197455729548054001e-03
3.973318748481506797e-03
-5.382266700820914239e-04
-4.478668962468564801e-03
2.262668741604537126e-03
5.013784415533785628e-03
-1.413682434164484185e-03
-6.605343073475173927e-04
3.508603369940556382e-04
-5.574378900137232605e-03
-2.824855656326639118e-03
4.377255769740580338e-03
4.994901802917475070e-03
6.884622144679438532e-03
5.792910492879334641e-03
-1.318644637476015010e-03
-1.086476631805657336e-03
-6.186842946197337618e-04
-7.501068940230902309e-03
-6.029997526715681969e-03
6.711545970399314691e-04
-5.029335200147834082e-05
-1.100807352276893291e-03
-8.525757915230037717e-04
-1.489216876900346627e-03
-7.582746172979209750e-04
-4.536242646930108017e-06
1.751245127177466056e-03
-1.171863294548995720e-04
-3.405147669702617442e-03
-1.796868209713801305e-03
-4.271203371189874302e-03
-3.048055052055841010e-03
2.467103183031660145e-03
-3.316676481248347769e-03
-3.099824405817526440e-03
1.927402992149445651e-03
-3.594723913256863117e-03
-2.734886223732837986e-03
1.769297903096838818e-03
3.088248022791062475e-03
7.048929142601561421e-03
6.658050164902398586e-03
3.669691703247768711e-03
-3.186572772983888089e-04
-2.348762448154591027e-03
1.506284485065856067e-03
1.924849323064615819e-03
2.020125908621227089e-03
3.358346572694953860e-03
2.493098510949380044e-03
2.861860386366598796e-03
6.469896951221110984e-05
-1.157529220814057600e-03
7.978944389675291567e-04
-2.131849499053369273e-03
-2.917429191712621068e-03
-1.602800639636053253e-03
-3.153028722115658496e-03
-2.474306664784068407e-03
-1.011443936601703203e-03
-2.520471572513672577e-03
-2.258173212767744433e-03
3.443287711639723449e-03
3.828022085257305491e-03
-3.200458399879192901e-03
-2.134104106374431348e-03
3.367714798458933036e-03
2.126261294971938318e-03
-2.379146768331077098e-03
-5.900451595576461546e-03
-3.595867706293789066e-03
1.459229605865872267e-03
-2.645203311170012984e-04
-2.486409049329747940e-03
4.255934265424748324e-04
-6.371474666579246137e-05
-2.400169467343501312e-03
-1.332960541440779368e-03
-3.085700765998880459e-03
-4.284659424144836998e-03
2.024823817152685283e-04
1.735591708647442029e-03
4.467990504449843468e-04
1.852808748190853082e-03
3.026807712422866208e-03
3.251925745191381820e-03
3.124362867664315282e-03
2.072154313098571472e-03
2.070391590498816062e-03
2.393926771299242570e-03
2.276245503209030525e-03
4.040869171361603611e-03
4.433323790120903898e-03
2.048893399542174500e-03
1.619691380104638662e-03
1.730806820529363519e-03
1.947179286452286207e-03
2.091465562804667704e-03
4.546303986827834312e-04
1.099848109379978223e-03
2.718003554185468868e-03
4.205177059291509249e-03
3.415796593664201155e-03
-1.252387552991337822e-03
-5.037656856649946023e-03
-1.895320877289801906e-02
-2.885771586922862911e-02
-9.748360280260935304e-03
4.066156469878737072e-03
-1.225384234780467138e-03
-9.581576349082687087e-04
2.042827596323216598e-03
4.642989288776791686e-03
4.105681531515903253e-03
9.424157871475509387e-05
-1.417846237756742629e-03
-4.865906128261806261e-03
-2.770939807622504070e-03
2.739289414514423007e-03
3.862800216454996723e-03
5.613045708946641510e-03
1.521549225032207357e-03
1.149221537751398282e-03
7.194529430959498845e-03
2.385873909076574595e-03
1.202885931453924516e-03
6.944095213587384713e-03
3.838272604456862379e-03
-8.337940143760853981e-04
-2.165447035932643611e-03
-2.036409646029216543e-03
-9.877250669428385679e-05
1.455733291737895847e-03
5.263076746242254618e-04
-2.408732203635250172e-05
2.586362446915906662e-03
-7.374913478360731536e-04
-5.702362887947349211e-03
-1.193144580793230498e-03
1.540044005630264229e-03
1.028881616307620732e-04
-3.519941773257538576e-04
-1.773200945319290895e-03
1.221189510592357152e-03
3.495740478210541697e-03
-1.973877001077665918e-03
-7.774035571983962251e-03
-8.642164058662343135e-03
-2.728356609930269842e-03
2.742177442477228624e-03
1.330381687435881061e-03
1.027338734555863437e-03
2.185402540418965138e-03
4.620947678373278156e-04
-1.308131815340303873e-03
-6.475374722558843591e-04
2.905588426069840614e-03
1.220729741064910216e-03
-6.646739325859549880e-03
-6.339733491691660651e-03
-8.461404516329819889e-04
1.286565683618316833e-03
4.902887562268544094e-03
5.735913222267896398e-03
1.932933647891109429e-03
5.538350474018715166e-04
-4.332105448690927777e-04
4.288757579666740202e-04
4.082443561024332729e-03
2.812444874971769832e-03
1.687346140978542746e-04
8.670127412576494582e-04
7.642264314620005787e-04
-1.023951915025340703e-04
-2.167106744687446063e-03
-1.999269452818177618e-03
4.242949989325228276e-04
-3.281956027773714688e-03
-2.663553189865171689e-03
2.725196110972879365e-03
-2.904017658393218473e-03
-3.933106073021233606e-03
3.885260142807924096e-03
1.144435535949003347e-03
-5.406616490726596884e-03
-7.466531225090595678e-03
-4.641316241810416673e-03
2.491741983435875277e-03
3.974991551687758612e-03
3.153470761686950289e-03
2.923165264677305385e-03
4.779295423501027460e-04
2.091829470350715751e-03
1.499500628569861273e-03
-1.583216564480323732e-03
1.623277424761550595e-03
2.189894758932494495e-03
3.386207569744622051e-04
9.256818591324991134e-04
-1.940583801395616599e-03
-2.598290445179386905e-03
1.116958602363276806e-03
3.598815007895511068e-03
5.214319979950245328e-03
1.799791697160216296e-03
-2.677767747545221205e-03
-1.962877991807419420e-04
1.751882235173622508e-03
3.890243872725207276e-05
-3.519694430823336068e-03
-7.407371554439210956e-03
-4.994172606843215283e-03
-9.511234579777358205e-04
1.288991103722285554e-04
2.413399804193005690e-03
3.387038158732459236e-03
2.137921450029464741e-03
-1.216078957707658831e-03
-3.315423427620145958e-03
3.180701060153448816e-04
2.856341818568555800e-04
-9.603688711782123241e-04
2.993880801210663332e-03
-6.567599570811165398e-04
-6.713608460245042847e-03
-1.728652281744429663e-03
4.261274602841041634e-03
3.903821803762059974e-03
6.516005314971265927e-04
-3.872529882495354993e-03
-5.037318984761586342e-03
-7.116123447151068582e-04
4.831166512063282421e-04
-1.385569780906306106e-03
1.600254254139962719e-03
1.886976867187899459e-03
-2.201212634961909195e-04
3.005308405406980493e-03
2.129656669869360239e-03
6.652668735551589508e-04
3.715019497337449829e-03
1.698768535097018801e-03
1.393156823254345983e-03
2.598608734532162172e-03
-8.251136185733913336e-04
-8.644724495464438255e-04
-3.046865927204051548e-03
-4.809819798323827084e-03
1.750944759286085766e-03
2.165037986443414664e-03
8.707204096805737110e-04
5.326120840518287942e-03
1.307016921964037270e-03
-2.858339682123870514e-03
1.671294683036005611e-03
4.087652422952624742e-04
-3.841550043320951860e-03
-1.874103262314533820e-03
-2.013314924232467024e-03
-4.820269366513929739e-03
-3.046079930023153689e-03
-2.653140288689452130e-03
-4.362551502805150049e-03
-1.252754856511877719e-03
3.868874350701785440e-04
4.577955871193396266e-04
3.681416271659462142e-03
5.135116621151667761e-03
5.013011408674253669e-03
4.050757883167627454e-04
-4.328085672821804092e-03
9.214613535191370792e-04
3.995056552443512245e-03
1.146348666848539220e-03
-1.271340028549211533e-04
-1.304357450870180296e-03
-1.170798959210398848e-03
-1.761393796916258447e-03
-1.143608766375299327e-03
-1.035281221029466794e-04
-3.438305888671639755e-03
-2.234142321275772638e-03
1.274079159292764319e-03
2.606105958967284541e-03
3.160240819230358388e-03
-6.099682307951433168e-04
-4.926573599703184961e-04
2.770022764748750459e-04
-2.828018370348155206e-03
-9.552836017729258913e-04
-7.718549570224092233e-04
-2.405781110464696049e-03
-1.318321840891822656e-03
7.624403356779464562e-04
4.985647769815180520e-03
4.794767096406794132e-03
1.499498928349495084e-03
-7.717647931755697993e-04
7.178615264871687253e-04
6.105502194649193963e-03
3.846213413505784103e-03
6.936771681258957663e-04
2.633256526994458594e-05
-2.630970580033360155e-03
8.425864856638197475e-05
1.036810696023694614e-03
3.275722430905893441e-03
5.533763131377360950e-03
-6.559101179321847426e-04
-2.280689447299225677e-03
-1.531992568260219859e-02
-2.987442389627593606e-02
-1.125534544604510703e-02
3.798200484938864079e-03
1.638597765960436237e-03
8.755511504431656711e-03
1.090361415360748681e-02
4.650074244481181528e-03
3.606810872487208140e-03
3.414485161398013967e-03
8.380652871011690444e-04
3.449750366750387346e-04
3.729860571322563467e-04
-2.477789652114151947e-03
-4.570727700981992302e-04
4.878192687628923364e-03
2.772178449018781934e-03
-1.232960619058738692e-03
-3.712810863584652447e-04
-6.788321738635425223e-05
-3.494814773850041505e-04
3.586543146206096471e-03
3.239680711477167536e-03
-1.835028901369856842e-03
-2.019798220568804273e-03
-1.786098273046251694e-03
9.364741018530951507e-04
-6.948341801397893381e-04
-9.632840078521521035e-03
-1.317194966811131200e-03
7.626629593082652654e-03
-7.592384119415038549e-05
-2.293503024498932518e-03
-3.046477104542211819e-04
2.989660464398801853e-03
2.564496340035934182e-03
-9.270059680264396661e-04
8.465330322918282469e-03
8.096826492172090953e-03
-5.213224149650313652e-04
4.317447424399280774e-03
4.175634789958689724e-03
3.325522013435255973e-03
7.220738531528938034e-03
5.493168138684220887e-03
3.242415674352077878e-03
-8.144769973339892246e-04
7.047714244931028646e-04
3.172307329118931839e-03
-4.429846342376377553e-03
-5.499799673935505152e-03
-4.269790735083197307e-03
-8.717551698709477895e-03
-1.119661527506045362e-02
-1.541314759871945279e-02
-1.618781133730529814e-02
-1.215771861947586609e-02
-1.020069178270392903e-02
-8.292668182541880484e-03
-5.857943772437619080e-03
-4.526652016632264183e-04
5.400233011299350287e-03
7.668873799918576352e-03
9.085069914520344306e-03
9.711979994344786121e-03
1.086524832718233947e-02
1.031502545261184928e-02
5.446417705521758475e-03
-1.160929018314355103e-04
-3.028848227184780320e-03
-3.272324814893317821e-03
-8.790037243985025436e-03
-1.289998892535310082e-02
-7.765743441330074347e-03
-1.015251075314226904e-02
-1.413347150596542048e-02
-7.261781874962060408e-03
-3.187487053896363200e-03
-1.093110411942643193e-03
4.327435379763726678e-03
1.344297648958093540e-02
2.950117597096794941e-02
4.015152944655805273e-02
4.182179551384584970e-02
4.108597785024756949e-02
3.200103747741871868e-02
1.950910770359487803e-02
9.711191532068993992e-03
-5.493240944654725032e-03
-2.031632811263630115e-02
-2.745048958734321032e-02
-3.288433783614042732e-02
-3.403701813398281317e-02
-3.093821476576216062e-02
-2.703743322146841266e-02
-1.531446267991858935e-02
4.230998306407074980e-04
6.021357894263479858e-03
-2.868916202349010378e-04
-1.376592759994477990e-03
9.752531136070850815e-03
1.095749405089665660e-02
-9.700774855135127104e-04
-1.364193861784089752e-02
-3.121578736295581649e-02
-4.147880407351246801e-02
-3.242687175261865090e-02
-1.895675311735798424e-02
-1.320584210964844546e-02
-9.240958915386052186e-03
1.182635945942408411e-03
3.131024045982499105e-03
-6.366625698210373087e-03
-3.903570556157509239e-03
7.092595654036486577e-03
2.196450465477866459e-02
5.060653609530661734e-02
8.164525278440563916e-02
9.395392822116610532e-02
7.138015804976167999e-02
3.092644769922360884e-02
1.055173864267514722e-02
5.101899806279636823e-03
-6.980718830047255227e-03
-1.630341657982936274e-02
-1.069886430566428272e-02
8.510830766055904953e-03
2.927672625726391448e-02
1.380972343134218711e-02
-4.220471581994517801e-02
-7.428832087386824656e-02
-4.880083188002690142e-02
1.003658127706025943e-02
4.666073682090104285e-02
2.791524483269618162e-02
7.676839870837439891e-03
-6.015027336918794126e-03
-4.000805168685095392e-02
-4.312933642966420428e-02
-3.829531277215005719e-02
-8.239051113961368134e-02
-1.377545617310879655e-01
-1.617143281949539879e-01
-1.267484791972394997e-01
-5.984113916578515796e-02
-2.747489456935768223e-02
-2.353120372023043139e-02
1.218038912698478186e-02
1.135142962483258189e-01
1.940246677830438082e-01
1.633968463670201210e-01
9.723661873618055784e-02
6.313894408187156748e-02
3.689064243613344313e-02
2.291183469867441591e-02
3.003967072465702978e-02
3.587476781421584937e-02
4.112475758288686167e-02
6.525516843699188940e-02
7.999768369153011094e-02
6.256833566662811652e-02
4.716959901479802347e-02
3.765781529744739037e-02
6.133622301738115429e-03
-4.978424372947244658e-02
-9.749015441353882372e-02
-1.167690821608231011e-01
-1.225784611008864933e-01
-9.202172789280052556e-02
-4.249644824098276069e-02
-2.820943936361391957e-02
-5.927674576771042349e-03
1.438416899131456268e-02
-1.616814195397038578e-02
-4.187647418071592520e-02
-5.170679426907389548e-02
-7.234669929833209556e-02
-8.525043763921615059e-02
-8.524158122663143267e-02
-6.703680774455227087e-02
-2.807115630711811902e-02
3.606231512759346114e-02
1.176344332063606057e-01
1.481262414534443017e-01
1.054183020102233276e-01
6.734377753913735332e-02
6.621341644416153804e-02
4.930774800500661165e-02
1.105585941715706011e-02
-9.077262312475154263e-03
-1.189609082104184715e-02
4.064210067271025080e-03
2.358188558762780440e-02
1.545389135679595127e-02
1.734089513381347489e-03
-2.370665902069589784e-02
-6.981826813059589798e-02
-9.234535755344039365e-02
-8.828977519419275999e-02
-5.750006327973242876e-02
-6.359534590991287178e-03
2.236032511551509783e-02
4.517669817231946550e-02
8.208519691986357336e-02
1.066798942360890345e-01
8.734333949158036570e-02
2.532782001131947749e-02
-4.008171824743516146e-03
9.806640055571498940e-03
4.686673642868613952e-03
-3.917250514790033243e-03
-1.038021566931710341e-02
-2.491358435815818964e-02
-2.251853442771689640e-02
-1.244128705867955480e-02
4.115559324997077398e-03
2.481001946632303140e-02
3.276915447682431093e-02
4.136808101711313829e-02
3.293831633085484573e-02
-1.556456137863019076e-02
-8.087374323701772283e-02
-1.326667719258668166e-01
-1.577303486061678861e-01
-1.517590283196934842e-01
-1.054313785155886612e-01
-6.999062737049414895e-02
-5.308296615446846112e-02
5.706299886382475151e-02
1.813343442405894734e-01
1.521094361234901493e-01
6.187092052648199975e-02
1.695877166218390936e-02
-7.845198773213542948e-03
-1.318210073011686148e-02
-8.509691091541260466e-03
-4.245512482818672960e-03
1.812861444339719866e-02
4.718571079443413530e-02
6.475639773086731832e-02
7.586413494915006384e-02
7.210318780578027498e-02
4.369714286956123683e-02
1.931379555327536815e-02
7.151500470133892624e-03
-1.509664511169316395e-02
-3.476362397565506412e-02
-4.666647642056565015e-02
-5.711705622472592475e-02
-5.293629786098808659e-02
-4.484449480262316795e-02
-4.059052819876735052e-02
-3.203024738503063018e-02
-2.461173170676651117e-02
-1.420072353679791184e-02
-2.303927131485312974e-03
-7.212759539430210743e-05
-1.809387480764799907e-03
1.241012694743174986e-03
1.266855026147479038e-02
2.636467359979170755e-02
3.171880705282929119e-02
2.565420743820331223e-02
1.490705382582719653e-02
1.533780645270279956e-02
1.920885185843938456e-02
8.572482214094944222e-03
-1.431021972237163809e-03
-2.030430834374876217e-03
-4.316071568877354395e-03
-6.315840287487111022e-03
-6.005828620200397497e-03
-9.227098388797856307e-03
-1.692422805418136722e-02
-2.459876624491570685e-02
-3.254518756594142193e-02
-3.774500870314354689e-02
-2.333423708521043666e-02
7.369161081055342934e-03
2.713239294070121307e-02
2.682352021711791740e-02
1.886989633765999430e-02
1.484791625578627677e-02
1.018483189216024508e-02
1.525517064354203495e-03
-2.165675193229071622e-04
8.979827536770214769e-04
-2.038467040297346593e-03
9.405742062652929425e-04
7.549963758883053433e-03
7.053682801722545477e-03
2.723062265928188376e-03
3.596747256543446174e-03
9.122314854574547702e-03
8.389392270255299766e-03
9.789124699655141724e-04
-8.408128918732999573e-04
3.945833084771242262e-03
2.533068707494221059e-03
-6.393827983214230015e-03
-9.481441084491028931e-03
-7.956113189370688302e-03
-9.402916748361321575e-03
-8.034870054753135565e-03
-4.136433769576046242e-03
-3.137792459270214232e-03
-4.931154338924384310e-03
-6.990563573771526804e-03
-4.262421588394253204e-03
-4.015168098862970602e-04
3.879700344594684417e-04
2.489144926278477957e-03
3.939744163161455932e-03
4.314867917524510370e-03
4.849469671588868200e-03
1.581722564733670450e-03
-2.975273791056189804e-03
-4.101690812142668070e-03
7.061957086842971833e-04
6.216096496140705724e-03
3.988066041781743176e-03
1.924166005265162379e-03
3.217250019859003388e-03
-1.856659023673121168e-04
-5.404576469025394389e-03
-7.356034198396004496e-03
-4.205215900650974802e-03
-6.741118740125219945e-05
-1.781474900700162796e-04
-1.066324696732784969e-03
2.422331663153266194e-04
5.251906346748362424e-03
6.272716847421501256e-03
-4.975062055696123479e-05
-9.607986760860477270e-04
8.195716472000822133e-04
3.129348555029175076e-03
8.116397327701063355e-03
4.479310326544139187e-03
6.691736598982805624e-04
5.422174758898231023e-04
-4.992294130580106175e-03
-4.573100013506258693e-03
-2.801503439965270705e-03
-5.468794323148176532e-03
-5.591669797799290022e-04
1.382563552376518505e-03
-2.535513363844046127e-03
-1.543892410336133829e-03
-2.601911262054083882e-03
-1.118615312848503717e-03
7.149839594699277517e-03
6.204069309685381062e-03
-2.987901601007036132e-05
-7.329216366305649818e-04
-1.526789759898828074e-03
6.709161241559214632e-04
3.312516738032316409e-03
-9.659750376326771057e-05
-4.598930068041224336e-04
-4.097324096668104572e-04
-2.409232900630854050e-03
2.841003386590205525e-04
4.524873837052049855e-04
-3.413786311971770716e-03
-3.816128108637121229e-03
-1.784220226911739388e-04
1.057259567294577696e-03
-6.527034459974395296e-04
3.594852339097111011e-03
3.307741205665591221e-03
-4.863254109861103736e-03
-4.034840446803811438e-03
-6.429662153070276557e-04
4.482089455311750190e-04
1.052318203580805862e-03
-3.152256452482028824e-03
-3.637100149037041704e-03
-3.876454231926336740e-03
-6.608861260428994071e-03
-4.561665326860244070e-03
-3.118633441957073364e-03
3.161973842712047927e-03
1.174454930848620876e-02
9.361897200161178531e-03
6.227940101049277838e-03
8.625888759273938819e-03
9.842217683972729475e-03
3.022616047556782402e-03
-9.006289692690266913e-03
-1.266104008295431196e-02
-1.097558544548914855e-02
-7.089157498333177251e-03
2.908261947889610646e-03
8.619799006529448027e-03
5.469361095156195264e-03
3.218794458511007889e-04
-8.440317229623037079e-04
-1.523270991513088176e-03
-6.402467206834732728e-03
-4.770292502869161871e-03
2.577466164470943420e-03
6.063298642193061701e-03
7.560912290609821292e-03
6.663334782471088714e-03
6.709338591983600615e-03
5.952113287949226290e-03
4.662076825291380615e-03
1.146858719336428002e-02
1.030803071297956876e-02
-4.890781574161738414e-04
-7.597882989421566625e-03
-2.139014517046687255e-02
-2.356063339202437920e-02
-3.130687788057312168e-03
5.811749135214627424e-03
3.475892010659494078e-03
3.206898375480542185e-03
-1.659777451306031909e-03
-2.689944648550727981e-03
-1.640069633834860324e-03
-8.257047880333113696e-03
-1.402656130713936765e-02
-1.566550197672982730e-02
-1.479579607952941425e-02
-1.113034224661110620e-02
-7.948742156741281373e-03
-7.885080841316102545e-04
1.099894659299791543e-02
1.818564484519994209e-02
2.004194892470040693e-02
1.417581918796841436e-02
3.151651572193854469e-03
2.670161193795479986e-03
5.701698490094100555e-03
1.932678139068328858e-03
1.882000315034692986e-03
2.798091683501523555e-03
1.491891496381820160e-03
5.597983527159551206e-03
1.081520318168471308e-02
1.108627756638828031e-02
5.911579086554248283e-03
-1.632831569205499202e-04
-2.126878680827026281e-03
-5.305342961659343520e-03
-1.026861895779094917e-02
-1.196561798516501338e-02
-1.342048094584075667e-02
-1.347623458927652007e-02
-8.153374886384954709e-03
-2.463339336878116702e-03
3.804037559840332209e-03
1.139103574256667903e-02
8.834185924997167011e-03
-3.684638263054011904e-04
-2.044460362269295839e-03
8.801238438932887072e-04
2.819145714540513000e-05
-5.563583809983852976e-03
-5.140778167122805539e-03
5.946239233892020850e-04
-1.033861289269747546e-03
1.320584504463197207e-03
3.643797133232730672e-03
-4.956195953485148520e-03
-1.171429866508254345e-03
7.994023289753909509e-03
6.658552984221533140e-03
5.847884159410348011e-03
-1.850595837988882946e-03
-5.529223445795821042e-03
4.475754917395211203e-03
2.977295985251540104e-03
-2.853076699554748293e-03
-3.796991819952229372e-03
-9.473522520947257400e-03
-5.938272593030833289e-03
3.099911080414327006e-03
1.335443872300866265e-03
-4.852980158908737525e-03
-7.850792266046301843e-03
1.042292092806142764e-03
1.397367109583578550e-02
1.127073370163365028e-02
3.395871504129748322e-03
3.087199929190725879e-04
-4.680269696534523557e-03
-9.363207017155235692e-03
-1.049002597529979236e-02
-7.652607274155382062e-03
-4.107672937678647114e-03
-4.280518770246015815e-04
6.571450039078320822e-03
8.794973389763467361e-03
6.679656841583937049e-03
7.356501899527685510e-03
6.374306124650241240e-03
3.837735310310829220e-03
-2.593392920490012257e-04
-5.084087797890028508e-03
-4.867575626637076283e-03
-2.853659743815903111e-03
7.427006806420572566e-05
2.970348216860214507e-03
1.805762395942524896e-03
2.970758125752865145e-03
5.584535545016179603e-03
2.019925217006409909e-03
-1.060055400716689716e-03
1.644246651964280555e-03
1.999213149233886218e-03
-2.025919719608024368e-03
-3.218374168255161080e-03
-9.540899823449994861e-04
7.836635165856938533e-05
-1.965848688353531801e-03
-3.790145822661856578e-03
-2.725465455928345691e-03
-1.923850336250126870e-03
-2.912654981134579595e-03
-3.732833263235103057e-03
-1.445729925097651676e-03
1.262376142086601765e-03
-7.962920045941836340e-04
-5.435981753560510318e-04
2.182080628748761259e-03
-5.532251411421255103e-04
-4.694468165629215456e-03
-6.107361599168240583e-03
-1.321262921541906121e-04
7.556004318678597245e-03
4.343465470770161048e-03
-1.204052593803559869e-03
-3.994677698544691138e-03
-4.269918617111271089e-03
-8.010640249302809161e-04
-1.857969652659042809e-03
-1.101629264700909865e-03
2.478719811865350876e-03
9.327189353469249366e-04
1.911587995605815420e-03
1.917657754259484426e-03
6.473705935643158391e-04
4.444349119399360407e-03
4.525769385357203412e-03
1.139596167008598022e-03
-3.555751225507155166e-04
2.023955856326666719e-03
4.144281916965003587e-03
6.340143998007639111e-04
2.338604565538590987e-03
3.926787103397376757e-03
-2.767916627433234314e-03
-2.019086545853051792e-03
2.464456682942715686e-03
1.253003324772556000e-03
1.021843066148117292e-03
9.604486451192026635e-04
-1.824958330875553687e-04
-3.415648684096569401e-04
-3.080835305801460193e-04
-6.512950830171497724e-04
1.196916409412008761e-03
3.895805138060285007e-03
-2.244296792308507927e-05
-5.027631198837942059e-03
-4.675703512440414558e-03
-3.314341457021565719e-03
-2.363362265776209128e-03
-2.387043351483548147e-03
-1.323717992425353998e-03
-5.735193548533372345e-04
-9.890435384732471080e-04
4.936844553694988208e-04
-2.033314123547011205e-03
-2.598135462508243624e-03
5.819860660382764582e-04
-4.133758097015957297e-03
-4.481048946032061345e-03
1.222669149066394441e-03
-5.302834364428773810e-04
-2.450418498965988966e-03
-1.538090122312409536e-03
-7.214544062946385118e-04
7.822684796059837511e-04
2.560935710197956728e-04
-9.079398111103299113e-04
-7.472971829463046552e-04
-1.106906032232486594e-03
-1.022163577314753489e-03
3.940449405950346637e-03
8.765203464026838712e-03
6.580509644353982508e-03
2.990697293310086349e-03
2.289729227448818790e-03
4.591850001244782674e-03
4.638660634919695124e-03
1.529616632835466023e-03
1.871078248078483514e-03
7.482050007973804415e-04
2.147237016058018387e-03
6.974933000000436284e-03
4.755012124584170538e-03
3.280966291864534454e-03
9.322404565432009004e-04
-2.453632830228464397e-03
-7.770590782506369559e-04
-4.851001754182225970e-03
-7.970521748919986299e-03
-7.085412735369132041e-03
-5.996574385828568922e-03
-3.974072343970796116e-04
9.823937789418502823e-04
3.161115068754817743e-03
2.014256674346066693e-03
-2.727175509239464918e-03
1.274384986489521731e-03
-1.416289711570965955e-02
-2.913837340075158683e-02
-1.015158390104666311e-02
7.552029373164018599e-04
7.845157056661378886e-04
6.238913144567534604e-03
5.930094739926153671e-03
7.506636470979632589e-03
5.750533157876740707e-03
1.360621277742713169e-03
1.866591180555224761e-03
4.937509734152094884e-04
4.027216216120479281e-03
9.098749090209063903e-03
8.672136398837848592e-03
5.381036335612220806e-03
-1.178299435776307890e-03
-2.604836772792823354e-03
8.800300792640600124e-04
1.901773351412101290e-03
3.908854320880425330e-04
-1.276886277354519206e-03
1.162587903988252175e-04
-1.391947261400702015e-03
-3.324307089688578049e-03
2.483910005851604338e-04
-5.739356115287911741e-04
-2.285326611106424429e-03
5.214273913768573349e-04
-5.414302607307671343e-04
-2.823353792218550977e-03
-2.495160857639074081e-03
-1.085136607971398702e-03
8.334690651328743394e-04
-3.723252431811840762e-04
-4.764954570658463365e-04
1.774034881722229805e-03
-1.683580213867310856e-03
-4.189698491387385156e-03
-1.222891228663134690e-03
2.332689173279587063e-03
8.266116490548517173e-03
6.776604684393023464e-03
-1.668677644579163403e-03
-1.279544891038614501e-03
-4.306367270233708421e-04
-1.857985413500420901e-03
1.796828328699906149e-03
4.009206665381219274e-03
3.042523538399811815e-03
-2.232808120678012910e-03
-6.308913080033125287e-03
-4.658847916200375798e-03
-7.189088429826404232e-03
-6.057019451001617420e-03
2.014699067953968411e-03
3.394455260887592994e-03
2.119807599557266709e-03
1.428033703430678500e-03
-2.077228238159172912e-03
-2.202680110756649774e-03
3.506280092577428436e-03
5.914948334419917707e-03
-1.035496438573648922e-04
-5.903056202160391133e-03
-5.220081290995229328e-03
2.158401537416150675e-05
3.805389095931158150e-03
2.889068876706743071e-03
3.121847179010123208e-03
3.115063188207106530e-03
5.013488923982963030e-04
-7.877067886761065152e-04
-2.045492167581850190e-03
1.087258500196732793e-03
5.855068663405605354e-03
2.121504467784804566e-03
-1.155780483166026634e-03
1.217290353314337214e-05
-7.315792229308878307e-04
-1.602226015413403786e-05
3.208070250402795761e-04
-2.858219467562271403e-03
-3.061247544940061405e-03
-8.205207900603339252e-04
-4.050628946292464763e-04
9.059055803389997642e-04
4.472882671158953790e-04
-2.607697334323544076e-03
-1.779770495429800636e-05
3.019754872472289221e-03
9.305075471945881572e-04
1.695079856334041381e-03
1.890172140234612193e-03
-2.924179773016797115e-03
-3.633295531006729400e-03
1.182199305254690328e-03
4.006299696987535887e-03
2.222849297275470131e-03
-2.105498013553898373e-03
-4.344629843670972519e-03
-2.148051033244206647e-03
-1.018868878722433390e-03
-3.071564668275304170e-03
-3.050547969113123759e-03
-4.436483469956275356e-04
3.839275365977052115e-03
5.392812949266011582e-03
2.400641600199295283e-04
-9.898572778609606056e-04
2.489053245318111496e-04
-4.494833230975054349e-03
-3.611405497051912040e-03
-1.191054578265880341e-04
-1.897779744897041014e-03
1.833495090608601658e-03
5.636924146161083858e-03
3.738174257226038570e-03
3.942739238923101582e-03
3.986737390173737683e-03
3.492407048701210489e-03
3.001029996732281022e-03
9.832386693806899770e-04
2.572291713558108475e-05
-8.384293408506968614e-04
1.577420778791258321e-04
-4.829211591256561535e-04
-4.034540995547345604e-03
-2.251571646180716528e-03
-2.636096083865280704e-03
-3.996526191636648635e-03
5.752229585982226263e-04
-1.264087673695333354e-03
-4.158978717698602612e-03
-2.260876429122048430e-03
-3.941864758895373411e-03
-3.076651939205191609e-03
1.207513416300915490e-06
2.494828761336146620e-03
4.988949545278951667e-03
1.399700821673838594e-03
-1.468472273543706312e-03
-1.737536673295853506e-04
1.469472145803292550e-04
1.038125713136312385e-04
-3.034194695305705413e-04
4.217644327671223915e-03
9.347274777413904986e-03
5.538408014055352241e-03
1.867506360432919952e-03
2.039666880053361223e-03
7.604477435482024251e-04
-8.912118564424753586e-04
-1.729840446093606782e-03
3.578380594756808077e-04
3.583908202786977547e-03
8.182698462446550206e-04
-4.866918596785095759e-03
-4.241488943427965813e-03
-1.156806535047328732e-03
-2.050531737708036119e-03
-1.606685017347620793e-03
-1.630668402871295183e-03
-6.351708680492299842e-03
-7.044255571330438823e-03
-3.701186721608847301e-03
-2.808631268475440031e-03
1.732402644439881253e-04
5.237350816827366154e-03
5.967431752733423807e-03
3.815024246854490601e-03
2.238489324763220847e-03
1.502154150241515529e-03
2.684650330127988328e-04
-2.664645388914603855e-03
-2.681710567067186954e-03
1.355047847481652195e-03
1.972666147899610617e-03
3.094896124896703686e-05
2.793468415986633704e-05
-2.365835317957117230e-04
1.008601161441758211e-03
2.556192373898725449e-03
-2.864656872553443924e-04
-1.785830393513443371e-03
-1.586488994428493157e-03
-2.799062898649143979e-03
1.887731571620241940e-03
6.404798140358805916e-03
2.255794198681899693e-03
-1.365139533145280550e-03
-1.173787093517944394e-03
2.844187159862174036e-03
5.157421217074511718e-03
-1.031163876860730164e-03
-9.691683355156308641e-04
2.401936874629964722e-03
-1.478450306321477808e-03
3.617251354931725867e-04
2.919864984998583879e-03
2.345483346712721670e-03
4.526360561854166596e-03
1.295369679775848666e-03
-2.821394870564890214e-03
-1.699547819833413216e-03
4.712476859065729308e-03
1.991129569221808046e-03
-2.211208896384372555e-02
-2.543805199068843378e-02
-1.174663601736860262e-03
5.555820519470063695e-03
3.209253312443845121e-03
4.060156361559468657e-03
1.797676025896022744e-03
1.751599208260205690e-03
-3.505118007338106460e-03
-4.927812993091611714e-03
3.739478240221649069e-03
3.860928916837981419e-03
2.132618685400814796e-04
3.509806614952845020e-03
6.078843885211541662e-03
1.701696097095125280e-03
-1.948213907137051745e-03
2.671249774777075502e-03
5.860433541651047760e-03
4.687442601963798250e-03
4.100556896757325508e-03
1.953346112358262786e-03
-8.989425924445864041e-05
-1.849125738686064864e-03
-2.952874834848678333e-03
-2.110497017766917952e-03
-9.095644403224294183e-04
2.524337276221211789e-06
-4.297906648002446615e-03
-5.910255612376277834e-03
4.350109967382135559e-04
-3.701396917078400551e-04
3.056489017662907611e-04
8.182510947502873513e-03
1.411738828501029339e-03
-9.607302110371331721e-03
-4.998133771038511773e-03
7.063935859908721838e-04
-7.447986602763920130e-04
5.691303035653459772e-04
3.824789564746417479e-03
2.584446676270453491e-03
1.091935900540192805e-03
1.283135875395528119e-03
1.622178302165755252e-03
6.046314836093641919e-03
5.610654262927630698e-03
-4.312575141616211728e-03
-5.461298624098573015e-03
9.047411137519472367e-04
1.275751121875545778e-03
1.470284739726825454e-03
-8.839646508697155411e-04
-6.222645482420803564e-03
-2.087668444239946467e-03
8.095193391160613759e-04
-4.757901092480389810e-03
-4.345267527423782479e-03
1.094553198726951326e-04
8.967541935172312515e-04
8.431867799235839411e-04
2.335619589677334455e-03
3.483435831080195118e-03
4.582502218747802115e-04
-1.992176521505085226e-03
-1.435616444861674426e-03
-1.413008732050460500e-03
9.014671705502968471e-04
1.620042973595059747e-03
-2.838101406693959534e-04
2.347007025419604702e-03
3.127854023926734950e-03
-1.135698685812884003e-03
-2.676524384438733455e-03
-1.972349647453366071e-03
-2.488373382128804615e-03
-2.221570317682154422e-03
-1.920765148801752446e-03
-1.548343357875246783e-03
5.479500616024016516e-03
9.578148491381431942e-03
2.685678861112871484e-03
2.030115512208319033e-03
3.515042726176719791e-03
-1.748866448898389343e-03
1.140715734870656776e-03
4.614651392806797502e-03
-4.053705892699940774e-04
-3.143607757473890554e-03
-3.913628215502831234e-04
4.960349378866260595e-03
3.081401535728992523e-03
-2.876401423192619187e-03
1.178361842489505191e-03
5.323683396133660657e-03
-1.543902067057452247e-03
-8.705257605015977521e-03
-4.235840753953303700e-03
6.900629517699789859e-04
-4.703212914341306679e-03
-6.494893986451995456e-03
-4.315007125678835438e-03
-3.064199238141274151e-03
5.349253470312158353e-04
-8.616118515598649146e-04
6.988083822787439061e-04
5.140518161170975174e-03
-3.001025786626751305e-04
-4.245450775889120752e-03
-5.564112070775591515e-03
-5.757131941073830375e-03
-2.283186200947450069e-04
2.351392600545699433e-03
5.230753441671079362e-03
6.375618530421395605e-03
3.939455740280569176e-03
7.818356865898819924e-03
6.714194034442231770e-03
3.155522951536061222e-04
-6.217028582426794171e-04
-1.582547561278077521e-03
-1.834716904728778564e-03
5.806989966614260670e-04
4.436829738314869084e-03
3.250702091272462957e-03
-3.342169651085248518e-03
-3.668939841844221905e-04
3.175109276499048228e-03
-5.958790597443209321e-04
6.043693848525691923e-04
7.015580930299437955e-04
-8.553589066801061758e-04
1.529312726270817477e-05
-3.299882659366564462e-03
-3.253180048195891769e-03
-1.881178196848570328e-04
-2.553505823580963160e-03
-2.058748049702640009e-03
1.871521876784155818e-03
2.099382685861215809e-03
2.058776474435117503e-03
4.891266523238970397e-04
-5.184628659952533747e-03
-5.903449708303023721e-03
-2.007810181349963755e-03
-5.765327165073681282e-04
2.834066114810027039e-03
5.956703658254775165e-03
2.468987924204519516e-03
-2.569787456060444210e-03
-3.171763586581221282e-03
1.472366866033455470e-04
1.510957566516193821e-03
-6.845372643945489338e-04
-1.895954086613063985e-03
-1.161965249350097474e-03
-2.471943704513029937e-04
1.025196253958843024e-03
2.261935797011122538e-03
-2.569286919691399912e-04
-1.973731429885934845e-03
1.690149512462241210e-03
2.193146360451264307e-03
2.064311752367400683e-03
5.926483727706186727e-03
5.201074066956066534e-03
7.527485971135245563e-04
-1.646601239785106408e-03
-1.143498076091589363e-03
-6.927936664378218446e-04
-1.332853935561953158e-03
-9.688053548163045843e-04
-3.231669474242398338e-03
-3.958676342061952930e-03
-1.413152810287523478e-03
-1.824905326200215640e-03
-1.360663445107003792e-03
-1.154601253492111958e-03
1.191273318732045765e-04
4.340190548584697480e-03
3.595835353860532806e-03
-2.281805437119684610e-04
-5.090693683070972482e-03
-2.499396415774795318e-03
7.430563874428676441e-03
4.633132828786335443e-03
1.554118183387987362e-04
2.641093415959313174e-03
-1.652504751573613626e-03
-2.806602981808621871e-03
3.087670722666995514e-03
3.648067998024658639e-03
6.084082574261037691e-05
1.790922825590895258e-03
5.517939823458892570e-03
6.597113582159193834e-04
-4.483197877610500294e-03
-1.455499870546275547e-03
4.134532897020717045e-03
4.470547537151372056e-03
1.589293484429664871e-03
2.714654713161258719e-03
-9.981110711616589942e-03
-2.609140992552306734e-02
-1.277030770152210587e-02
1.825552565555441922e-03
3.256341405693695921e-03
7.421117656950292421e-03
2.394866145474415769e-03
-2.592044996778087532e-03
1.601024438943709225e-03
2.079958296184741904e-03
2.609160421322725097e-03
2.966012702515626910e-03
-2.868709381322350860e-04
-8.170984480963362567e-05
2.432815522141689758e-03
1.789473320156771512e-03
8.113114157417203451e-04
5.212498576259849822e-04
1.136627214321760397e-04
3.888174857119144640e-03
5.001639137831705682e-03
1.915746831751305706e-03
3.299390162722869602e-03
3.559901610264173911e-04
-5.048615161209510371e-03
-3.080955174892240685e-03
-1.427352551365164467e-03
-1.120257425625183472e-03
2.408805757121819315e-04
7.035713234358005521e-04
3.671191022811283976e-04
-7.683853415675135409e-05
-1.343953128845774760e-04
-1.252751136499796140e-03
-1.322834843881103397e-03
-1.864064626712832367e-03
-1.554877355706265089e-03
1.578621464772086373e-03
-1.783165853459061636e-03
-2.458267103697212800e-03
3.222610243822864994e-03
9.942853486415042553e-04
-6.272514465789691190e-04
3.345977667085728324e-04
1.217324521434610105e-04
5.014369941399842052e-03
5.236009616211716872e-03
-4.776949626260584792e-04
-4.138649485626376238e-04
3.101947515365291539e-03
2.883867638792522378e-03
2.512477921008797379e-03
1.895982340321606232e-03
-7.732661596552514033e-03
-1.055197712405269578e-02
1.573744690945948644e-03
4.197042563837506852e-03
-1.984679598344349372e-03
-2.731889524482763575e-03
-9.238384066636254766e-04
-1.521375833177660919e-03
-2.342079046158059095e-03
5.465321244241210354e-04
-3.208691880206636371e-03
-7.542080039784427106e-03
1.196063440228907395e-03
6.011385047817046495e-03
2.368735889418291905e-03
-9.261633648947108850e-05
-2.329359370024667512e-04
1.253968283632432481e-03
2.255546443336182148e-04
2.158480382768547708e-03
1.974130755128325043e-03
-3.707335397627873307e-03
7.906721222913069315e-05
2.390311461794230458e-03
2.693511335696725513e-04
5.563698019722711045e-03
5.341002906303296376e-03
1.056070446475177241e-03
6.380617709390302679e-04
-1.685458640590860660e-03
-9.165178444490544585e-04
3.588583458745476726e-03
2.797362926811640740e-03
-1.422842622273575450e-03
-3.135647952842364125e-03
-5.148162726577282244e-03
-3.473166721872939650e-03
3.357247887059618303e-03
1.974507591242323241e-03
-9.231549140298631138e-04
7.497703171595649675e-04
-2.511635229188310600e-03
-2.510003216512814855e-03
-5.091081496799600278e-04
-1.776675314138307510e-03
2.101061428739671357e-03
4.774779236452464208e-03
2.555397336614567867e-03
-9.848219395260043678e-05
-6.343651331819432455e-04
1.236275514380635095e-03
-3.137287481549194505e-03
-6.610909615842452437e-03
-1.171841073250220197e-03
7.734913438693215380e-04
-1.055222283415224857e-03
-7.877042248941692245e-04
5.676919238179626220e-05
1.756541360608401782e-03
4.922583650366604878e-04
-4.085730928798302249e-03
-3.166219401422574065e-03
2.650336591097270187e-03
2.025189324540276753e-03
-2.554281224815867571e-03
2.789899926059031740e-04
5.251310151848778696e-03
4.834560873015550375e-03
4.892876248456235616e-03
4.425445094131192497e-03
-2.408387085355557806e-03
-6.866466095989002226e-03
-3.004598131813297941e-03
1.592722940887614106e-03
2.182448261092196067e-03
-1.841583752984782751e-03
-3.347867917210916623e-03
1.769322894061101884e-03
1.718500451368777399e-03
-1.561269095614295022e-03
7.524263968062814591e-04
2.372060717940209507e-03
3.376632883750498200e-03
4.636623448307653460e-03
1.541845489892724932e-03
-2.130219634023540736e-04
3.138919848151265797e-03
3.924161576389135000e-03
5.323930451783974102e-04
-2.497034879151740962e-03
-8.604383925859500348e-03
-9.947454401311698821e-03
-8.217002989661956278e-04
-1.309484045783666437e-03
-5.197317300501986051e-03
2.443671766792720156e-03
4.413223007447841795e-03
2.540502017947764406e-03
3.623624732030742215e-03
