-2.886970656875890648e-02
-4.403305514270830501e-02
-3.070713003768732116e-02
-3.330240149912946923e-02
-1.560589380467137730e-02
-6.194516733693619269e-04
8.204135631873500992e-03
2.186318421095248196e-02
2.412009725736031715e-02
2.521496811394359494e-02
2.757008620544936298e-02
3.306877063487892454e-02
3.548282348927836449e-02
2.958905453333523367e-02
2.706527039842843846e-02
1.703279927565786930e-02
2.070004971995532961e-03
-1.068708630273640381e-02
-1.978476378118844414e-02
-1.799529203345429096e-02
-2.203984444363699113e-02
-2.543564318689061146e-02
-1.960517556800255023e-02
-1.731802507029629040e-02
-1.029946096619301782e-02
-2.474771763650619044e-03
3.912123031981552812e-03
1.087635551043831432e-03
-1.774178526165260186e-02
-1.379570668587907015e-02
6.699964573708940690e-03
1.391866597809120719e-02
2.003951224814283158e-02
1.937965135413316151e-02
1.362046011528176420e-02
9.854040560580978880e-03
-6.843414610104152666e-04
-6.888994597177794908e-03
-8.664894226220331772e-03
-1.075738178582010852e-02
-5.944252531219236697e-03
-2.458838540647944465e-03
-6.339776157499949806e-03
-1.016226701487092828e-02
-5.344903190204125694e-03
3.229112436744791502e-03
5.850293608842991114e-03
7.560215313146260996e-03
6.496551515669448697e-03
-2.693738185340321641e-04
-3.439472692504569155e-03
-1.243895215857075123e-03
3.704879989846440388e-03
5.895266553598501810e-03
4.100784156533460352e-03
4.713152172412112331e-03
3.603830373519730911e-03
-1.862300322716042150e-03
-8.297435667544523705e-03
-9.845158235056430604e-03
-1.930953119647706249e-03
1.159989696510025162e-03
-3.419147153175670049e-03
-2.261727712386524172e-03
3.523210235281034599e-04
5.007537364814016942e-03
1.244274808365304977e-02
1.059851403627260977e-02
3.500990016507395976e-03
-2.023458122591029890e-03
-7.366247447684661290e-03
-6.220207160816636216e-03
-1.561984595052925973e-03
-3.838134788549254096e-03
-3.805326316889999852e-03
2.223474634904260266e-03
4.081327836410727182e-03
5.300498442737267696e-03
1.123737457982912314e-03
-5.495216875124889905e-03
-4.655649110479678234e-04
-3.735038872378714826e-03
-1.059814820608963315e-02
-3.809008982235751514e-04
5.648866886933213288e-03
6.858623565484302069e-03
8.717371135434524507e-03
3.026655752571981352e-03
-1.309639426450712012e-03
-6.915365338824480332e-03
-8.317681957463341630e-03
-1.784199868842345710e-03
-2.581974380545624861e-03
-1.798464941495986694e-03
2.920492864520197410e-03
5.310993660009076002e-03
8.260253607187057964e-03
1.983207262346027566e-03
-4.259713256369840328e-03
1.281000384854723631e-03
1.885537576328891358e-03
-3.785200647924266172e-03
-1.224126658074498617e-03
3.064977338358091524e-03
-5.337847340097131828e-04
-3.038729000168921297e-04
5.384068318335427997e-03
6.400296850683356853e-03
3.779043409247574356e-03
-3.509340854229313703e-03
-8.889938380926547257e-03
-6.949509403156687269e-03
-5.251047782066865267e-03
-3.033395992929419603e-03
-5.586896490069108391e-04
2.237843819153256288e-03
3.058728408658905468e-03
-1.248914495301880513e-03
6.332111802385947258e-04
3.109862850855865495e-03
-8.753997913546751608e-04
-2.102086819139758382e-04
-1.300967869138451301e-04
-2.879263668093848434e-03
1.263223898501167949e-03
6.928587114398401282e-03
4.221331107374204188e-03
-8.446650549202948518e-04
-1.189699334935005520e-03
-4.249839503882845218e-03
-6.249822308218310613e-03
-2.646339918284667646e-03
-1.131912135041096253e-03
2.320907821000613071e-03
3.814456966615644654e-03
-7.612660235790775728e-05
8.973667599640227288e-04
2.862680352155071856e-03
1.831272070403829576e-03
9.605398531899013784e-04
3.380818209881702140e-03
5.646934698057994376e-03
-1.267773957155584209e-04
-1.315643960526994552e-03
3.948596307066077823e-03
2.563204350768433313e-03
2.874797638735096614e-03
4.147058577455730276e-03
-1.193265004111578043e-03
-5.396486969669228410e-03
-7.742662191615182904e-03
-1.088285396842045283e-02
-9.358331342117394425e-03
-2.032396458536508358e-03
7.088224657923294144e-04
-2.156494194994843308e-03
6.106970112689202564e-04
4.561845867024884316e-03
2.884371256286206824e-03
-1.099020704594962485e-03
-6.732092283075478273e-03
-9.371624584600744823e-03
-5.984863030523800490e-03
1.779516766390802467e-04
7.849659574948077145e-03
1.327678580855582227e-02
1.299169278779906643e-02
1.097684381123883827e-02
8.329540423226963752e-03
-1.052275725401172375e-03
-1.076412046319742861e-02
-8.476295839695464213e-03
-1.568772720492439543e-03
-3.713624312903555068e-04
-2.592794893899068092e-04
4.540214013481235975e-03
7.194072171073342264e-03
1.173926035152999484e-03
-4.245492634772203566e-03
-4.942698298558209982e-03
-3.425379674425821711e-03
1.579068813243758237e-03
2.585142561506534754e-05
-5.070836478328575106e-03
-3.419883941695526543e-03
-4.222533772989786431e-03
-1.990169773484044141e-03
4.560086018268765494e-03
2.332850807154416683e-03
-1.253087513977945659e-03
-4.697651368921395773e-03
-7.645305895458430305e-03
-4.272951885780248288e-03
-1.257284993047264000e-03
4.177294315510350284e-03
7.803462556253307029e-03
2.541609292399229624e-03
6.517137347164944031e-04
1.196262524499692396e-03
-1.725033897937924918e-03
-3.461594095313893626e-03
-1.978523364334321653e-03
7.286554334626588149e-04
1.505278039655319261e-03
4.039764928809672778e-03
5.772620542879624075e-03
3.890860683048074156e-03
4.772348524473933942e-03
9.691286519168472013e-04
-8.285255348136167514e-03
-1.156310813738589856e-02
-9.901828421262567903e-03
-5.022255278129919044e-03
4.504965659961712547e-03
1.262695292668500335e-02
9.702973605210579722e-03
2.327275947467922438e-03
1.056491972776553000e-03
1.305201265993957520e-03
3.865151042580926028e-03
5.167447864560136515e-03
1.184392082629254824e-03
-5.069911673337172339e-04
-1.498832993762389942e-03
-7.139723610026671051e-04
1.481361334295258191e-03
3.520022538415649126e-03
5.310405719384733020e-03
1.324225751750762823e-03
4.459961959324576508e-03
3.818419309304538559e-03
-9.325444465345980941e-03
-6.577691170090818260e-03
-1.394964762403503450e-02
-3.094968248939454492e-02
-1.239491974702906611e-02
4.681023388548870463e-03
4.061064637476978836e-03
8.453148239319856205e-03
3.756152012108019030e-03
-1.501537045649930071e-03
-1.757925865084067341e-03
-2.833401488612802277e-03
9.642377965311116350e-05
-9.776439265690454929e-04
2.989164789017929435e-03
1.021681733408240367e-02
4.345435356973932975e-03
-1.851090540142838557e-03
-5.899342897861406879e-03
-9.551258217550010962e-03
-4.932037481409921702e-03
4.305049408947523117e-04
3.797066552226683635e-03
6.685117993529621390e-03
7.208654279508622080e-03
7.381586421628239143e-03
6.676171242711768927e-03
3.661372017224958416e-03
-1.131383008247954748e-03
-1.071778493141555162e-03
2.261450887313351619e-03
1.257882046292116288e-04
2.415211326835947202e-03
9.259582726489709245e-03
9.048533487923740570e-03
8.575379039899641911e-03
8.284170265502920419e-03
4.298096544230974037e-03
-8.755085878682105933e-04
-8.096502515041074238e-03
-1.121902433592892982e-02
-1.250471146110240447e-02
-1.631076669936228421e-02
-1.184723985919627562e-02
-6.084119390182425027e-04
6.766154714663375272e-03
7.207026949822977271e-03
4.548916516484027492e-03
1.864647966867522986e-03
-2.687105874673655949e-03
-3.177897792483610259e-03
1.930361711029549379e-04
4.013126272260168943e-03
1.562253655178989179e-03
-1.800242657175717825e-02
-2.097320274066068191e-02
3.166087400017947740e-03
6.136974324111527448e-03
-2.078192690176696149e-03
8.521049351102868508e-04
-3.731440050790879245e-03
-3.023493278613782580e-03
6.634963399155678794e-03
7.548172675048656424e-03
6.019196529596044197e-03
4.886233516090380744e-03
1.657412729479646428e-03
-2.299345008488354065e-03
-1.800860567037405142e-03
4.004557152220132935e-03
2.999205805242399683e-03
6.450758320501882425e-04
8.383237101582168222e-04
-4.270391119081303963e-03
-7.738390679756504062e-04
7.474333366251468928e-03
3.976175910529152271e-03
3.971902237773397137e-04
-3.817123794508489230e-04
-3.688531163788000191e-03
-6.255138013744124259e-03
-5.761816922234205135e-03
4.837979591832493233e-05
3.038112739142843650e-03
4.186728361055630510e-03
7.255431667982899582e-03
7.531154621436368917e-04
-3.252157738184065401e-03
2.999243715190145782e-03
3.115901337180320904e-03
6.278150891128682267e-04
9.614799103114281265e-04
1.175021555577486412e-03
2.575037930757011033e-03
3.429067791481113341e-03
3.408825266558351656e-03
3.986953668260153488e-03
5.025521444084980402e-03
-8.528707889745900175e-04
-8.938844260209797762e-03
-5.216126788844106972e-03
-7.110311952081898798e-04
4.171290204165313369e-04
7.233457171561832010e-04
-4.796336368540511641e-05
6.667975955541845766e-03
-7.979445097667244025e-03
-3.922027559351959347e-02
-3.114510727408276516e-02
-4.966693428803349922e-03
4.238642040213335196e-03
6.514318659669508099e-03
5.403404336246349013e-03
8.415871204124878574e-03
7.938974455704227509e-03
3.185660806637007070e-03
9.171397058634518651e-03
8.835945371390279204e-03
9.206411760078910250e-04
-8.709636725326365576e-04
-3.529310715407324005e-03
-4.180665582350198521e-03
2.752033546575960573e-04
5.389681530480578200e-03
7.612562326118404651e-03
5.134173687941481247e-03
2.314599614592673278e-03
1.138464542227245581e-05
1.679854057820519796e-03
4.432955962611779058e-03
-5.044158947825872451e-04
-2.900954435694031060e-03
-6.910560958248301183e-05
-3.341958590424898333e-04
4.554298282746702922e-04
1.802571055982551919e-03
2.683570353230458044e-04
-1.062241344280912382e-03
-2.926766909408197101e-03
-6.843309073209576099e-03
-9.438667073646975214e-03
-8.204278611147940159e-03
-4.261930517492254489e-03
5.628357981648094473e-04
5.367204769886549896e-03
9.114532543572737011e-03
6.099149712262268153e-03
-1.703943790359079696e-03
-2.224720761075734462e-03
8.218415062069199355e-04
1.662055876945537627e-03
4.185559728242142091e-03
3.425446647731366333e-03
-1.465730099521434654e-03
-4.435291957615702940e-03
-1.719964095870415597e-03
3.763836079719565589e-03
3.673868657052563672e-03
1.969200595338092027e-04
-7.913236657915797070e-03
-1.565256544579347875e-02
-8.579439608646455620e-03
1.392898666776427961e-03
5.945814899435624724e-03
7.419645184589184102e-03
1.922986917798127221e-03
-4.917894814039076943e-04
2.050197382508882338e-03
3.816445483464840985e-03
3.436680675568789829e-03
-2.129956690781429143e-03
-3.398759359247999299e-03
-1.151090087430806531e-04
-8.449886543592054601e-04
-2.118793522714781507e-03
1.728837168553461927e-04
6.528337670032806524e-03
5.171719161400423377e-03
-2.913407537171589998e-03
-3.876502801859132031e-03
-5.835597236150052297e-03
-6.655138938746502954e-03
-1.691669745092852679e-03
-1.109181679083033178e-03
3.901132151139302868e-04
3.654804401290033533e-03
3.639911990780808539e-03
3.261150944099202448e-03
1.963303374576044671e-03
1.981415368508503052e-03
2.883153026787905939e-03
3.516355042767523986e-03
6.029234141746316576e-03
5.521909674247905096e-03
1.823998863502194513e-03
3.268767515788612889e-03
6.649358975211352822e-03
1.313209719900197041e-03
-5.329586270001807242e-03
-6.264517934444119134e-03
-7.391299682421751532e-03
-5.322092758920620413e-03
-2.026011735145572326e-03
1.357773866277610462e-03
6.941019299950458230e-03
5.662164207720089305e-03
1.991349112550220776e-03
-1.157744410847713276e-02
-3.245572868468895450e-02
-2.188954979205112034e-02
1.690081586670038683e-03
5.350037685963654130e-03
7.452879361871956806e-03
9.246723272236261407e-03
8.760554008319732314e-03
1.017004880874993779e-02
5.754856308890062867e-03
4.090323711690380983e-03
3.459777844404001400e-03
-4.086254090464193529e-03
-6.206858485699481495e-03
-3.456413572534358658e-03
-2.352091532598982442e-03
1.059602316916841711e-03
2.488727151605577090e-03
1.368504830969797083e-03
5.029971977500342223e-03
4.564785954653676446e-03
-4.004497319771212205e-03
-2.884588329955221561e-03
3.750533176679943584e-03
1.816738400184102686e-03
3.109788287547883990e-03
4.225350205040204546e-03
-3.899086722825012476e-03
-2.438872995059357743e-03
5.759833770813487484e-03
3.217208987511372201e-03
-1.873746033689932056e-03
-8.076148665180847910e-03
-1.392729540148444911e-02
-7.181562756017256452e-03
1.233499430711923256e-03
3.088290438571725423e-03
3.498448134265646266e-03
7.930975885533026511e-04
6.616914504359344869e-04
4.119991759953823001e-04
-2.461709460292072112e-03
2.756481602174085197e-03
6.124426263649805635e-03
3.531787785891445444e-03
3.155135769435971418e-03
4.543638543707111143e-05
9.643841891346081364e-04
5.555030989729625376e-03
2.989858914604867721e-03
-3.792900544474531741e-05
-3.501403926651256316e-03
-9.156398566214769136e-03
-1.179455111801744338e-02
-1.143798351834060707e-02
-4.623492931873558233e-03
2.990981456534847881e-03
3.429271630529637412e-03
3.406020876858303036e-03
3.606979398759470930e-03
1.153909633041429444e-03
9.174640052629280023e-04
3.920643188672650117e-03
4.513816621174187964e-03
1.034498426466860755e-03
-1.782268041874950602e-03
-3.781172368907853229e-03
-4.130884491232496118e-03
3.227348178668976099e-04
5.019159366925105351e-03
8.211686482235251022e-03
7.092965880839270133e-03
-8.712823357317021206e-04
-3.942913213330009187e-03
-4.371857314833281559e-04
3.390063876560315019e-04
-1.394218897468961797e-03
-2.757579269816025011e-03
8.881663250970272270e-04
4.844322132847087362e-03
4.159193565782794361e-04
-4.104695262249234700e-03
-4.449941708107600126e-03
-2.964380016644516894e-03
1.128499425204172258e-03
1.506249608389613947e-03
-1.354553105618930145e-03
-1.082040533088762845e-03
1.811727296172509216e-03
4.835931206949513859e-03
2.026415248301526202e-03
-3.525092847959759336e-03
-3.404141329969220201e-03
-6.090743419936881300e-03
-1.045250549610969755e-02
-3.883100263115193702e-03
2.929912904984332059e-03
5.211909771416963974e-03
9.768741117886795000e-03
3.909628658819116510e-03
-5.256569313106749727e-03
-2.271448088435113095e-03
-1.504800812035056966e-03
-4.013129366533634544e-04
3.834273935042851762e-03
-8.281910513132442753e-04
-1.414145846204874733e-03
1.901419434045082540e-03
1.806565678863507720e-03
6.326000638807193800e-03
7.076708560478485802e-03
3.806403721370608517e-03
-1.724674699031218585e-03
-9.782390172920221727e-03
-5.404689752930695069e-03
-1.001002226434229516e-04
-1.767019747501996380e-03
2.356557398396942615e-03
3.333243553922066692e-03
-1.987649982138746602e-04
-1.850805195404306956e-03
-3.498405081370435134e-03
-2.603568704381316844e-03
-1.457249773073276923e-04
2.402134687813891993e-03
2.852220425361237047e-03
3.096148180628123959e-03
3.411829679153366695e-03
6.021605582924394542e-05
3.333757678833627457e-03
7.359475136809998097e-03
2.060552208025310736e-03
-3.955248967358768360e-03
-1.232159525297198306e-02
-1.250740941620602856e-02
-1.384207615967399845e-03
2.235678690581598040e-03
3.658416677295495134e-03
4.689094769993867699e-03
2.982277527118241608e-03
3.404547150520939418e-03
-1.032995073741832179e-03
-3.221949295047818202e-03
-1.002250154285323552e-03
-2.107248863044182928e-03
-1.846965769247848471e-03
-1.729138899406162467e-03
1.923995813317051469e-03
6.990614115492287638e-03
4.946778387575459339e-03
3.322654743990125122e-03
2.678040765058687105e-04
-4.040715435950808718e-03
-5.146035393743287299e-03
-9.504455497734669647e-03
-9.858908515007498014e-03
-3.055012247081514282e-03
2.101288772826778034e-03
2.871207036996661563e-03
-2.333027366066010562e-04
1.165644295194784383e-03
3.633799664061518071e-03
7.525912741791822248e-04
3.384256331622054019e-03
6.413539616054208733e-03
3.017398374734326597e-03
4.189426357424643160e-04
-1.283336639387008772e-03
1.665154613648551964e-03
5.672175547597806296e-03
5.672630525416061907e-03
7.590979807172416015e-03
2.089582153579459898e-03
-7.518487195754251264e-03
-8.296751703752212534e-03
-7.279806446610042128e-03
-2.611084505774603683e-03
9.823935782779759038e-05
-2.864079350185070889e-03
9.736844259445106165e-04
-8.957531396483258898e-05
-4.620785441048561037e-03
-2.155022417722360969e-03
-2.933105465530741213e-03
-2.520475233906179901e-04
2.210805991070363078e-03
-1.842332719345022261e-03
1.871245488508107343e-03
5.750052064362804437e-03
3.696502735855003181e-03
2.977608298991092379e-03
2.966176808922920023e-03
1.118091040972263653e-03
-4.676346290366908097e-03
-6.062059164148381370e-03
-2.263485866984201855e-03
7.093381511617273451e-04
5.837409988059674010e-03
5.699535249425444206e-03
1.456587244156733098e-03
3.705908418722258200e-03
5.630487290837936191e-03
1.465295216453306156e-03
2.777169172806787448e-03
5.355295662754468861e-03
-1.726257202581047562e-02
-3.469689092027483657e-02
-9.084320957214184547e-03
1.363185346216673650e-02
1.299621617476870439e-02
9.997352849340217229e-03
1.292180817103993386e-03
-3.363424557981367982e-03
-2.834240995816034257e-03
-4.244092198400213449e-03
-2.059976476585059866e-03
-5.161858770863276711e-04
3.451004614467365148e-03
4.133379055646122652e-03
-4.265089455510263743e-03
-4.447914053060077894e-03
-4.985812720609001780e-05
-1.130009133041500087e-04
3.530383536399134964e-03
6.911995387056529827e-03
4.821933834391190291e-03
3.685655651385569970e-03
2.966331119267760601e-03
9.318696874485433946e-04
3.459805539578867089e-03
3.655251470385163098e-03
-2.011673423623130345e-03
-4.474152584815612073e-03
-9.776723222202481425e-03
-1.453861171440534381e-02
-8.694067181416685261e-03
-3.140691763517487658e-03
-4.257182763164288905e-04
3.947264546625707179e-03
7.453179157649129742e-03
6.899108615223538063e-03
2.446828410990749096e-03
1.007269812159089853e-03
5.369563189161553115e-04
5.017371797153354247e-04
4.113063319024937679e-03
2.022166493405079101e-03
-1.437755554651801247e-03
1.902001633107152376e-03
4.869823946054113208e-03
6.073048893685397548e-03
4.476424951188960610e-03
-2.017303412875373885e-03
-7.248834403626510693e-03
-7.625022036825139689e-03
-5.114203637345549926e-03
4.564760605930990992e-04
3.293417343801740855e-03
-3.874635063962078661e-03
-6.083670517349660731e-03
1.660279751473676436e-03
1.988385838538528176e-03
-7.815437002063235815e-04
-1.055878294115233798e-03
-4.070997700127217296e-03
-4.325622009562679095e-03
-1.034096700547484362e-03
2.929098988715638213e-03
4.928469549045607148e-03
5.416942288079770219e-03
8.574737348114525731e-03
6.881650862677181867e-03
-1.720881762795086487e-03
-9.390847142734146460e-03
-1.174172785851578839e-02
-6.516532949372741239e-03
6.009456711765332696e-04
6.050695341476566673e-03
5.679942347561549310e-03
-2.013917583768986164e-04
1.914496400733568847e-03
2.877608514830460196e-03
-2.943692858474170580e-03
-4.688390266594065904e-04
5.090294106552982131e-04
-3.165113456851742849e-03
-9.073491426036418969e-04
1.419997583617219105e-03
4.133194696046975022e-03
5.431865416764465083e-03
5.119990808012175876e-03
8.298551805236290338e-03
1.701793789730882958e-03
-1.033371510898090442e-02
-1.017119529675408751e-02
-4.762292832815645006e-03
-8.999507109514440391e-04
1.020814442224927130e-03
1.287631606946205987e-03
2.432837224953589804e-03
2.050618353626466796e-03
-6.753453126814466453e-07
-3.210181762854921479e-03
-3.662850195961547817e-03
-3.855467747669908633e-04
-1.797224249207901104e-03
-1.517256239611164273e-03
2.522898880950942817e-03
1.568794553008955777e-03
3.339327533888515435e-03
5.881177802738027545e-03
4.248880611730327869e-03
3.750962940716619665e-03
-2.411990915348393143e-03
-8.692776031268993620e-03
-6.609814742324236249e-03
-4.408239963484922481e-03
-4.650913955796516053e-04
4.299142006273750337e-03
4.506187025328802463e-03
2.389247678390061733e-03
-1.345903204987986945e-03
-1.623159780485494263e-03
1.154003171155042629e-03
1.414685663999784679e-04
-2.245979849867500103e-03
-1.551246636527692149e-03
1.231061456544669998e-03
2.571460631307823097e-03
4.983707781404854431e-03
7.805347607686190237e-03
4.495543501171986138e-03
-1.607266800017164050e-03
-7.673079816510244150e-03
-8.325941875484649951e-03
-2.195227812964909483e-03
-2.556664233919714920e-03
-3.076914465779283670e-03
2.924167695844894811e-03
3.719924342720960873e-03
1.773975211304165255e-03
-5.224458388944786934e-04
-2.162907446206553414e-03
2.488773958916669273e-03
2.925051287298375321e-03
-2.659474440151751631e-03
-2.062568319278859728e-03
6.081102818517066097e-04
1.026141218000533369e-03
3.949807524971660384e-03
4.721917697722842130e-03
2.533950631575455654e-03
-6.185376545486899382e-04
-8.214337007573164692e-03
-7.854865321878458720e-03
5.822433201872092949e-04
1.767898383844084941e-03
2.108450051303772856e-03
5.870936534431977832e-04
-1.134859350580871840e-03
5.766985394555142544e-03
3.847269141271115415e-03
-4.765909430409907832e-03
-4.871170744791374595e-03
-2.834251878502147201e-03
-8.957811204113355326e-04
-1.327492148254328513e-03
-5.933356829504284795e-04
5.356281494158214411e-03
6.542453347590770560e-03
4.769598277436660344e-03
4.235729233471061637e-03
1.215536503720264852e-03
-3.712305140478335073e-03
-6.919681867566367280e-03
-5.843374460822348300e-03
-4.910471452720739823e-03
-3.102668221567562307e-03
2.271061497004464060e-03
5.060370863378029459e-03
5.280541573787296897e-03
1.925325772155027718e-03
-3.516713168932157196e-03
-4.069033195321883779e-04
5.000640906263801623e-03
3.200537880375793794e-03
3.452637688163067483e-03
6.979858887740536706e-03
6.461200341926717251e-03
5.270487990681123856e-03
4.199103762501959179e-03
3.470583976410499937e-03
1.534256141621303127e-03
-7.848955456613314341e-03
-1.132683351013406316e-02
-6.118736056358317806e-03
-5.595633255780903433e-03
-1.468160198404436147e-03
2.106489236342155066e-03
-1.013938222775208689e-03
1.782718507123487710e-03
4.441537550727222249e-03
4.777083761207814340e-03
7.293849538130134022e-03
5.319181975717280492e-03
3.763985374104046860e-03
5.773266464264216469e-03
5.623756372184402809e-03
6.982943442430037187e-03
9.343811499003486579e-03
-7.377414507522519344e-03
-3.500202597111545799e-02
-2.994405495682859672e-02
-7.167894590633370512e-03
-5.347488037403402492e-03
-6.442930690681121161e-03
-1.721317696253956819e-03
4.403670195593539674e-04
3.712284997203700414e-03
1.914754287091579091e-03
1.048333434921626742e-03
6.775002587024857130e-03
6.704539215915334034e-03
4.319087142451273967e-03
9.098424072823154546e-03
1.500288481799791004e-02
1.590926213097705946e-02
1.595373895902234274e-02
1.754350353686623398e-02
1.881843008668961439e-02
1.879120648203519428e-02
1.229413239875575166e-02
1.795115635490893754e-03
-2.468778279650853287e-03
-3.284418427971624171e-03
-8.615407095685244723e-03
-1.363641301036568401e-02
-9.077318954242054316e-03
-2.347698405532639646e-03
-4.552032180959302357e-03
-8.823520001511108574e-03
-1.221695465671863642e-02
-2.110685840779842962e-02
-2.907038710936028086e-02
-2.843049156595203741e-02
-2.863469537135502480e-02
-3.170005561975505759e-02
-2.650935033081347134e-02
-2.021746874448283188e-02
-1.113978451531714119e-02
9.334894321483468149e-03
1.791161237569352180e-02
1.537174757647400206e-02
2.094847684690514730e-02
2.638368063558765159e-02
3.096271839778646714e-02
3.269358225496964143e-02
3.259888852777539925e-02
3.758455950159646231e-02
3.779574393186043574e-02
3.546885284634689744e-02
2.505295124773794166e-02
3.965234833030781281e-03
-1.157986543510942240e-02
-2.280599617075388524e-02
-2.129105163404724013e-02
-1.768779401172743820e-02
-2.939564147641632666e-02
-3.871059526162912851e-02
-5.139735722694718095e-02
-5.938096862520964719e-02
-5.728545146731289783e-02
-6.591710625783035737e-02
-5.582590632063714337e-02
-2.187839298097457585e-02
1.137700978036385729e-02
4.036869640828491534e-02
5.320803829541118080e-02
6.893930988046544084e-02
8.458235459927078426e-02
7.036333309042858142e-02
3.974163838633371082e-02
-5.778690289729986485e-04
-2.731113009949341641e-02
-1.841630005450051524e-02
-6.758102905571311721e-03
-7.437742758085615340e-04
1.316150863418787467e-02
3.004200812012838839e-02
4.767058371300585129e-02
5.948843014413657954e-02
4.805294100250433187e-02
1.940881061308886990e-02
1.079349123759680562e-02
1.773287386018179701e-02
-3.794300969212170607e-03
-5.763752792690200050e-02
-1.015302187913589282e-01
-1.045311248430247919e-01
-9.368625375272651712e-02
-8.812140794666267762e-02
-7.559602858998898389e-02
-5.299616226687707543e-02
-2.822221974028937992e-03
3.283753033956442191e-02
2.612860805376027856e-02
5.865238560152090386e-02
9.445859931804052867e-02
6.921596500015179954e-02
6.003003331041241453e-02
5.578470884155345422e-02
1.077034478273958089e-02
-3.570080204374451172e-02
-7.823447360825112884e-02
-8.211066478066106344e-02
-2.932390333411625041e-02
-3.405809141672578710e-03
-1.424979846643832128e-02
8.704766105198774237e-03
6.729097352937231380e-02
8.819927824991584397e-02
5.588226710593777180e-02
4.284232100193044457e-02
9.180204149858504914e-03
-9.558242215526278895e-02
-1.313208567404194060e-01
-5.643622612817147943e-02
-1.875866655979753495e-03
-3.163706676443780400e-03
-1.583304230462549223e-03
5.079564302436726658e-02
1.276282587499021626e-01
1.710252175906002703e-01
1.619534001854293637e-01
8.579962084079910400e-02
-3.363380225887582960e-03
-4.646980482436127019e-02
-8.495173290914970199e-02
-1.198792009297224848e-01
-1.259195614415536402e-01
-1.110947200126833345e-01
-5.849501247097302348e-02
8.652186216692191179e-03
4.199180681274001375e-02
5.338451028598246301e-02
6.568317508984349018e-02
5.496486723878433317e-02
-5.319194271429669718e-03
-8.256547879010930902e-02
-1.410568750280247752e-01
-1.707562581416268155e-01
-1.472942705071937641e-01
-9.997741345398829249e-02
-7.113230941185547107e-02
8.883084140594707176e-04
1.168412417685429500e-01
1.630706675785990878e-01
1.431842538794408370e-01
1.193212019543477415e-01
8.294849765299974753e-02
4.284406211296788725e-02
-3.785497032803255418e-03
-3.565338855198459111e-02
1.212517195378393954e-02
8.610378402441951073e-02
1.021729324455751681e-01
7.672047318940598826e-02
5.747537196210380367e-02
5.852852408043975746e-02
5.121189355361547429e-02
4.497750042895432010e-02
5.376800069882564648e-02
3.693197409594543845e-02
-1.409829804651692962e-02
-8.575389452804570156e-02
-1.479102785024034306e-01
-1.724139504947971024e-01
-1.878619443024150959e-01
-1.910514178130092444e-01
-1.434995194836966581e-01
-4.749865375526340916e-02
3.495696797576296200e-02
4.895053309713950918e-02
4.857258419564407237e-02
6.800886355413093831e-02
4.785800947750676326e-02
-1.500342879805368485e-02
-6.753195471564864272e-02
-8.629187271191955666e-02
-7.885850154808191070e-02
-5.329652766250880802e-02
-2.527979297124074293e-02
1.016833673400839837e-03
6.549759125911984448e-02
1.403943854135129843e-01
1.480671942053095047e-01
1.120384023823439434e-01
9.002621821128266311e-02
8.428880985081194099e-02
7.004096188432627768e-02
4.646716812489218307e-02
3.257969575105659765e-02
1.566883933997667913e-02
-7.496569862562782287e-03
-2.035205736472269628e-02
-2.805779606171587490e-02
-3.582427940459179810e-02
-3.795536105236697183e-02
-2.841793049142217129e-02
-2.224733251956349800e-02
-2.019781022866129483e-02
-2.787210613550777493e-03
7.913193453876888120e-03
3.168874661511181245e-03
-6.324988073135445754e-03
-2.229808515968742869e-02
-3.642844974217121501e-02
-5.258955449913685354e-02
-4.888781962338746567e-02
-2.654971499653747957e-02
-2.158934215298338385e-02
-2.733486711721244689e-03
1.044900795360426994e-02
-2.258628582769149282e-02
-3.680004086126613394e-02
-1.402054990908395762e-02
1.273446773527478525e-03
4.977541486659533242e-03
8.078316114959443323e-03
2.542535116248662887e-03
-1.185312197938566056e-02
-4.195432879198391848e-03
1.863352528068700983e-02
2.831377516906341887e-02
3.016577216941677617e-02
1.968228890461173539e-02
-5.796125250798270234e-03
-3.940992447080054334e-02
-6.278242098401834448e-02
-5.172964297610991441e-02
-1.171246768365018752e-02
3.927391244685515120e-02
6.349279321524835262e-02
5.715048248206188591e-02
5.310851573396453001e-02
3.500389508068655481e-02
1.583042244212196775e-02
1.895995500029428252e-02
1.506650100344057198e-02
8.594492050065028962e-03
1.171336409776353206e-02
1.692149643187038088e-02
1.644937264205099947e-02
2.199529497206970888e-03
-9.766361650468806735e-03
-9.955433917396240215e-03
-2.107590986653058631e-03
-1.200010972679211967e-03
-1.550274761903762399e-02
-1.816961307910104281e-02
-8.607723343100734739e-03
-4.383635186710466841e-03
-1.102381772445778021e-02
-2.000263582749468513e-02
-1.903801870152824552e-02
-3.809657658011606635e-02
-5.305605241074590889e-02
-2.684325679528888967e-02
-1.889289722093717705e-02
-2.141124547940971568e-02
-5.556570774353452279e-04
4.505693648464433911e-03
6.788256506329880258e-03
1.680630048430949500e-02
9.837639494669566179e-03
5.574467823977138740e-03
1.550018226387300802e-02
2.084624921714581247e-02
1.809422854164328964e-02
2.424552254513900537e-02
3.803194047537868799e-02
2.925229722657556389e-02
-4.309011448181766617e-03
-1.922561064463119279e-02
-2.479127544115194981e-03
2.085052429176791761e-03
-8.850393562567539230e-03
-6.972428992306071646e-03
-7.594503020642190926e-03
-1.100020241145944350e-02
-2.196052111015900452e-03
9.657879593969751278e-03
1.550152750825757250e-02
3.226626204215555724e-03
-1.730790462980843353e-02
-2.347955319101698718e-02
-1.990174917976187882e-02
-1.444841689196816291e-02
-8.150209708866340899e-03
2.742992918233295909e-03
1.347411362959065675e-02
1.249902439437387824e-02
9.232914396916510127e-03
9.625225161279789277e-03
5.268950629090472966e-03
-1.471026083143983513e-03
-1.883790082005752002e-03
-1.427805145711552289e-03
-3.323979033091594912e-03
3.164859234536345108e-03
9.641647102128335020e-03
1.381838492779340066e-02
2.029390628559319537e-02
1.398798714987969059e-02
6.971196187306865147e-03
5.249476145758351017e-04
-1.252274199896450876e-02
-1.362533284245607754e-02
-3.017748370680588960e-02
-4.812061046130480801e-02
-1.636056241677131054e-02
8.214578923258821982e-03
-2.572928293321208402e-03
-1.901006511345363845e-04
8.357846378056572531e-03
8.383096500761678255e-03
1.122842096726429061e-02
1.258132550413198700e-02
1.103983435519054895e-02
1.152293277803350356e-02
7.047150421842928066e-03
-1.964322901523509173e-03
-7.292865150383545832e-03
-8.256503434307255196e-03
1.798422405943696234e-03
7.629909508433258859e-03
-8.401421156567927956e-03
-1.480419735909418652e-02
-2.789915707265440675e-03
4.437542527532785733e-03
6.024690849632124284e-03
6.002963047537555538e-03
7.723180992670262458e-03
1.537343447183643673e-03
-7.085936526754797044e-03
1.334757335544461358e-03
2.777516291246871077e-03
-4.675540163911173427e-03
-3.237152430087225467e-03
-7.815948210231038820e-03
-8.276703546321647481e-03
-3.232552077995156530e-05
5.756178396672719660e-04
1.884598696353032661e-03
1.912568236977606499e-03
-3.102065003829440441e-03
-1.291766243021848053e-03
3.888759030665576728e-03
5.848313402761777004e-03
7.738673318277513452e-03
9.136641318420068991e-03
5.616408907002790399e-03
5.150723536687512854e-04
-5.762736237987374673e-04
-9.040916042631519812e-04
-1.859554220737391281e-03
-1.959127554663220045e-03
-2.348693818784058137e-03
-2.077224917345546224e-03
-1.362082595263616530e-03
-3.327714304705754614e-04
2.627408063304866905e-03
3.188507993526893281e-03
5.854799187621134498e-04
-1.694856429292568084e-03
-4.986821650573864534e-03
-2.320376884510732315e-03
6.180552137738733361e-04
-4.676504697406787432e-03
4.569943933376059524e-03
8.713559910249512111e-03
-1.899887324092372834e-02
-2.407506879376735895e-02
4.866425186653928277e-04
5.101447082642787852e-03
3.242902634040221999e-03
8.075212665716964208e-03
5.197594919326350982e-03
8.080117415319409665e-04
-7.660591840234916815e-04
9.721171417361959034e-04
6.153143844347190930e-03
4.897169017297471443e-03
-1.281325686161922570e-04
1.894084985649239833e-03
-4.236675575584154200e-04
-1.054278188983277971e-02
-7.949682723449201169e-03
7.244412654833971323e-04
2.911006853305204978e-04
9.481465036774223325e-04
3.070098399749164163e-03
6.856390376831042899e-04
-1.733717560875550935e-03
8.773591021287026033e-04
7.319106592270458074e-03
9.180275869379726089e-03
8.062620085929528627e-03
5.503575012336995274e-03
-2.502716935553811386e-04
4.109077837473978337e-04
2.257298116364661426e-03
5.562909863163879127e-05
1.441683578063230990e-03
-2.606818760699400935e-03
-9.608737576962291319e-03
-5.557296459549596057e-03
4.596971492199902407e-03
1.014183953386486869e-02
2.756975818650957513e-04
-1.120495250870632599e-02
-5.468680914087854089e-03
-4.061367858840257347e-03
-1.104425451012415807e-02
-1.234669082067175495e-02
-1.611021390707092701e-02
-1.443426258043493948e-02
-5.627118772730091249e-03
2.115740486356711050e-03
1.593469585350248616e-02
1.767675753670441136e-02
7.879868915707582619e-03
1.245505524398966488e-02
1.034171460450515785e-02
-5.894749373070233035e-03
-9.977637884714939467e-03
-6.028467973463538972e-03
-5.090181945107475833e-03
-2.043138240386432013e-03
6.536503200539110423e-03
1.212507297984067624e-02
1.216018391412675148e-02
1.379162685452897316e-02
4.588783497126045982e-03
-7.280034023216042267e-03
2.604011067501151629e-03
7.143245626227586603e-03
-7.454208219891820392e-03
-1.358969034774941409e-02
-1.244048544434595699e-02
-9.851964444891930101e-03
-8.371720367062896601e-04
1.459879625661604204e-03
-2.550038436735077487e-03
9.624168361493173288e-04
1.135760090511461371e-03
-7.056703616393261193e-03
-5.246454034899562628e-03
2.402059695458443663e-03
1.862466046912728164e-03
1.969766203359957311e-03
4.557294233816184224e-03
2.677586623984157775e-03
-1.651083385390666016e-03
-5.636790360088833780e-03
-2.976586888547494078e-03
5.584616206784992487e-03
9.099047430966587802e-03
7.608916120081599468e-03
5.407896816694279622e-03
4.304503175806423561e-03
5.880478165701128780e-03
4.701275263839440298e-03
-1.228298686825120495e-03
-6.474288260821151920e-03
-9.081402743175726391e-03
-9.545206405380653181e-03
-6.918951639400952765e-03
-1.484345269170131041e-03
1.394962738792107811e-03
4.723532817563616591e-05
-4.757531865467530714e-04
1.490774296280391546e-04
1.753034032484129638e-03
4.544904317198853773e-03
5.019020303912038669e-03
3.173964652668468788e-03
-7.636112650349767984e-04
-4.467004873769193397e-03
-2.729935025263953430e-03
8.267408772227605391e-04
2.750712456811959129e-03
5.452998001774563702e-03
5.242214254866883055e-03
-4.584191702451653532e-04
-6.100717199686942621e-03
-9.467372454499524762e-03
-1.086950239607248000e-02
-6.288218986530424125e-03
2.127506500143159021e-03
5.405868008135211560e-03
3.006532664347068805e-03
2.399451099191269492e-04
-7.908771732324716046e-04
3.061254957401005278e-04
2.151352572856816709e-03
3.398632430240851581e-03
4.338740473574841452e-03
3.193621263873942448e-03
-1.566378692304351051e-04
-1.523238612080910588e-03
6.655724404696719294e-04
4.290969737314714871e-03
4.554732158275661379e-03
-1.064013996285209868e-03
-6.397503234862511948e-03
-6.102664583112713328e-03
-1.331752169741834803e-03
1.890353215765479484e-03
-1.676331174379048399e-03
-4.804822732746896405e-03
-3.517812119628426024e-03
-2.664093506934393958e-03
-7.351890748972493431e-04
-7.313337689749952516e-04
-2.552467653691123037e-03
5.672061343528983848e-04
4.591001590229977676e-03
8.594902953562681691e-03
1.149475857347737398e-02
9.182391511288641450e-03
7.585890329649225099e-03
5.775695077970100823e-03
2.287022159843898200e-03
-1.146208342999082818e-03
-8.137675387944225819e-03
-9.720595296527531973e-03
-3.452703567490588918e-03
5.263143921106468517e-04
3.005762908246534335e-03
2.297725890398720928e-03
-2.105995481803603516e-04
1.038712393662115721e-03
-9.855740575319309540e-04
-6.313933283592637093e-03
-9.640503316189047087e-03
-1.276889737937903294e-02
-1.196351213563704580e-02
-6.856530091786389690e-03
-2.850864938445556336e-03
2.435325773904504186e-03
7.377986491160859819e-03
7.196570583324559019e-03
5.813888950809299044e-03
3.054347678907246184e-03
-3.188148259616011872e-03
-7.579920956683143703e-03
-4.964850317641607280e-03
3.575412725281861513e-03
6.771203696976585765e-03
2.363725020257672390e-03
1.840272791244012586e-03
3.633045702418813763e-03
4.510804509277619410e-03
5.286636755182879711e-03
4.288108164777853365e-03
6.784489010429862153e-03
5.496172953863472273e-03
-1.507297239991320544e-03
1.430878281616975844e-03
2.753408219579551747e-03
-3.238799954209050421e-03
1.444092788290516315e-03
6.105594417095988602e-03
-5.062938785935072999e-04
-5.994919827387900843e-03
-8.752093266235244640e-03
-1.054699933104195388e-02
-5.568419243357907410e-03
1.120346560995306127e-03
2.184665045322871889e-03
3.465421641377297406e-03
1.834480943765454553e-03
-6.559947873112211003e-03
-5.334364102174417657e-03
9.233149818987344696e-04
-2.616925510399584990e-03
-2.920447184246740754e-03
7.107913500968403037e-04
-7.856115497117564447e-05
1.037692063965140691e-03
1.483506651881077434e-03
1.384714175349096134e-03
3.978744950697500095e-03
2.923887273211522864e-03
5.413335933426112251e-05
-2.248432901590904226e-03
-5.595123741010211114e-03
-6.688342433306941441e-03
-3.711271825772182766e-03
1.667365107554813659e-03
3.775738818024128307e-03
2.519024904135086160e-03
2.424478935881862335e-03
1.548224472010214505e-03
2.686600237720030218e-03
5.122372258869837061e-03
2.265363112228544439e-03
-1.115131873038422263e-03
-1.261396236872858482e-03
1.273002686173843731e-03
3.690399197032989340e-03
2.290694013814459796e-03
3.243010800796833522e-03
3.784538347833089206e-03
-3.046711906802315652e-03
-7.406198369161258975e-03
-6.340959589092442540e-03
-4.613196884547358066e-03
-1.266197489283718731e-03
1.721486467477574057e-04
1.017792764013086305e-03
4.303939414341747226e-03
1.792781083004572201e-03
-4.674674308842235830e-03
-3.341030648721396087e-03
2.274817380244966315e-03
2.530393542564200737e-03
-4.905152201876912836e-04
-5.497282548686565403e-04
1.283049972249888752e-03
4.121374755409383615e-04
1.270537708199975194e-03
7.697979733200539104e-03
5.811363325473719969e-03
-7.538641746530520132e-03
-1.143001517843901874e-02
-3.972377866930296673e-03
-2.012638056061446471e-04
7.752197886637139310e-04
3.061875038391921513e-03
4.306030657362969367e-03
2.900990399579219964e-03
6.849698010546974086e-04
2.332177053321620938e-03
4.014088771213197328e-03
-1.128265961480043843e-03
-5.214994631585834553e-03
9.738962998515233050e-04
5.884026079876593721e-03
7.306297812844485956e-04
-4.397623031209670563e-05
3.108389305392128717e-03
-6.766841380193302190e-04
-2.382258220295702632e-03
-3.451377500320723917e-03
-7.217902146293143396e-03
-4.684940237369527964e-03
-4.638144784621997660e-04
2.266692745080523159e-03
2.399236262782099803e-03
-1.035326155421890243e-03
-1.191546696850011647e-03
-2.043029077535985037e-03
-2.097188330757725726e-03
5.064994739287475818e-04
-1.559000438169055348e-03
-4.364015717269117967e-04
3.448306611677032316e-03
4.365942443754155210e-03
6.216713596845443307e-03
6.958779484756028727e-03
8.589276186066665403e-03
5.018382231548869539e-03
-3.744506611559545936e-03
-3.038614381266462224e-03
-4.224577337099575877e-03
-1.004313280853571903e-02
-7.825113197247440464e-03
-3.958935527825406010e-03
1.044623437473484471e-03
5.386511832204437383e-03
1.823475954304865131e-03
-2.963393385909681311e-03
-2.525282368784666654e-03
2.852694266719675012e-04
6.274624470636207870e-04
-3.243136710540847059e-04
-2.263595505126097824e-03
-5.831897535404413245e-05
7.950393552079937365e-03
6.139429425541478857e-03
2.559718112142574629e-03
6.608862674349378491e-03
3.734590820437643476e-03
-2.066849547583272505e-03
-7.594184618237435555e-03
-1.049327912000851994e-02
-4.914625899864653868e-03
-2.291093669733075544e-03
-1.403567855756568568e-03
-3.959611679716936415e-04
-1.503092196725835201e-03
-1.587813773487079926e-03
-2.589901435576902593e-03
2.697291398660137986e-03
4.346853968576077330e-03
-1.228980779511523432e-04
4.248545024967292395e-03
6.161865800825496071e-04
-2.549357189688071599e-03
8.208906489483604879e-03
1.001226457041377860e-02
7.223099485976457179e-03
5.221827094326492863e-03
1.254440915793861647e-04
-3.153928171423306826e-03
-6.281361766160417290e-03
-3.808507954738379105e-03
-5.605720499144113212e-04
2.122259177627024238e-03
8.021547033139292057e-03
6.513725614028526532e-03
3.708927316327813653e-03
-5.359294490400222724e-04
-4.897610843147300400e-03
2.702853213099879392e-04
8.485475819509920130e-04
-1.246924719734221389e-03
-1.279432051086820503e-02
-3.264786021858449155e-02
-1.936743886116542093e-02
4.852742446188878546e-03
6.996138984841651642e-03
8.171827347609825903e-03
3.235545831289085138e-03
-6.830205438928702195e-03
-5.698292299273104329e-03
-2.242116694774502414e-03
1.729973521908052684e-03
5.142273562632346251e-03
4.456364554351202080e-03
5.010491998132762803e-03
3.535267554006354604e-03
2.078490740876331750e-03
7.394644948294624813e-03
9.334941117753179848e-03
2.649323433620426761e-03
-1.478954152597714402e-03
1.548512758641323959e-03
5.565231908516148941e-03
4.396243232553938979e-03
3.121133520937846139e-03
6.089469078184224851e-03
1.276719443312629822e-03
-8.217349605702618798e-03
-9.679229353109443726e-03
-1.030220759961822559e-02
-9.895137062855311263e-03
-2.199928654899968323e-03
4.394774081254558366e-03
3.743179131051918573e-03
2.673637524855074742e-03
3.498775845732305344e-03
2.317989600481501012e-05
-9.925647858225364155e-04
5.479790946611926006e-04
-8.041582741983618454e-04
2.775110829654703782e-03
2.390338118329682522e-03
3.514695233962222831e-04
6.038963751784370490e-03
5.016529501152692735e-03
5.286784103928830920e-03
6.300352740575002747e-03
-2.718851346335630741e-03
-6.187415703632528907e-03
-4.981022201254146908e-03
-2.725660025699472473e-03
-5.210353715037258603e-03
-4.785857955236376242e-03
1.215580664186246065e-02
-4.459190559784281457e-03
-3.887217984171280338e-02
-2.235046514447831811e-02
7.673326687502190655e-04
2.834957891481657520e-03
7.758905592834318063e-03
5.766971449098929996e-03
7.394407043212648280e-03
1.170983016682976968e-02
5.956233663917290082e-03
6.119039596554339509e-03
9.666020577551422480e-03
5.655498756384677236e-03
-1.747293009851315533e-03
-5.512223097197231289e-03
-5.138707131171099327e-03
-4.467671767525331801e-03
1.358150013546899088e-03
5.938695420226687560e-03
2.256742809847171044e-03
2.243011364075314217e-03
5.224031929589543002e-03
2.928238447880618552e-03
-1.491026268728992948e-03
-4.216139720419989113e-03
-2.454050989334862019e-03
2.770424764265045411e-03
3.505948287805811352e-03
-1.487449931202626139e-03
-3.900760636607520249e-03
-2.036771387612838248e-03
7.237228916872138606e-04
1.351179827139778423e-03
-2.656114881374738168e-03
-7.046834684202461264e-03
-7.364611574314087680e-03
-2.117937903672587139e-03
2.164809880775201215e-03
6.611754928043490432e-04
3.375720778860938440e-03
5.091373339862833788e-03
9.684590718914211664e-04
2.657973557456300845e-03
3.170151616150014215e-03
-8.833463125170078461e-06
-1.770699353873651880e-04
2.938793134841423817e-04
2.821126623742352228e-03
-2.803127553212064142e-05
-4.173283204741111072e-03
3.231797537088648958e-03
8.805152406992136291e-03
4.554735379463386788e-03
-5.106158838457865168e-03
-1.282039664770566814e-02
-9.172110682025082923e-03
-3.125998817183485434e-03
-9.750578054078312337e-04
2.241808096979302275e-03
5.409776611679014552e-03
4.224308956904731203e-03
-2.761679628880912146e-03
-6.170999283961861766e-03
-4.020777671444518593e-03
-1.602220901179229450e-03
2.731616430289557102e-03
1.651025029908747980e-03
-3.498810300824730345e-03
-2.562664798354518866e-03
8.256692814877722312e-04
5.290417833458381687e-03
6.447807710517823240e-03
3.086182058900855361e-03
2.735427387865405936e-03
-3.303494374781693770e-04
-4.142692474490477193e-03
-3.782807927956840718e-03
-4.264317196987160198e-03
-4.017861562354166447e-04
2.724958933505993407e-03
1.622977191227912685e-03
3.583758863392975860e-03
-3.974147422694867204e-04
-3.805307392769289275e-03
1.646794275353007792e-03
3.021177877760856511e-03
4.900409394727946177e-03
5.625523964819572655e-03
-7.934573252952345588e-04
1.452765871270766214e-06
4.226146581205777152e-03
4.936573639639992538e-03
5.628991268350170933e-03
-1.642831501375380211e-04
-7.746463879874316942e-03
-9.434283379579974996e-03
-8.321454481641944040e-03
-3.770116071249414360e-03
2.410248189131623808e-03
4.277748519019974188e-03
1.444362833498223815e-03
-1.275959412368446802e-03
-2.316922210509035455e-03
-2.484436675446007308e-03
-3.046920930011042298e-04
7.720985453182169396e-04
-6.523577409086410818e-04
8.811895723620868665e-05
1.952890695169964656e-03
1.887006507605449093e-03
-2.147990940742431070e-04
-7.097377068119545577e-04
2.195672491700145085e-03
1.663841097701121820e-03
-4.539122275634618897e-03
-9.696926492216947566e-03
-8.749552210774825395e-03
-3.018961333614125168e-03
2.737386063732338056e-03
6.057842340405488434e-03
6.177276474465125816e-03
4.783024751497656074e-03
2.843583616814510280e-03
-1.391252501922706896e-03
-4.540657500937405298e-03
-3.053266972143971018e-03
-7.536316689110223246e-05
2.044661682434919039e-03
4.415161299442446445e-03
5.159554862037576961e-03
3.800967330014016262e-03
4.710064150492417057e-03
4.692097519892783446e-03
5.095598369559071724e-04
-2.774002447583625783e-03
-4.732962388375437993e-03
-4.845807966747302589e-03
-2.319861082332303620e-03
-1.607052034300042334e-04
1.390718542294167026e-03
1.119122849591815691e-03
-3.642875631788154624e-04
-1.817744907936524185e-03
-2.699054890083890917e-03
-1.907112927396306429e-04
3.434688662249654398e-03
4.897598334504158282e-03
1.516425847706119557e-03
-2.824199927288956885e-03
-8.426756777901949326e-04
5.307888223533254379e-04
-2.196402989329843819e-04
-4.669162740568905709e-04
-3.252506109271985617e-03
-3.212979286165217746e-03
-3.344048185681262539e-03
-5.058809663023874567e-03
-1.510198677696713556e-03
2.075257065297629773e-03
3.793606539000932577e-03
1.685859643697108475e-03
-2.393757991621944976e-03
4.277606318902432659e-04
-2.717114203242299584e-04
-5.211075236400490238e-03
-1.577748408083018460e-03
2.743997196533829765e-03
2.660718858861204229e-03
3.866684980416161890e-03
4.603931374303035957e-03
2.240244965655661079e-03
1.001658255900905172e-03
3.981267403080143187e-03
4.646862267578780181e-03
-9.595967862132096134e-04
-7.351970299546174530e-03
-8.636905595770596328e-03
-3.807600412922346449e-03
1.212506987923238572e-03
2.750704282120848033e-03
3.328880294544535236e-03
3.322722627379431568e-03
1.860653093361770661e-03
6.198422566329941583e-04
1.745164304399089488e-03
2.827931922442767244e-03
9.275089994401679522e-04
-1.212814373476775323e-03
-9.558408991906304931e-04
9.498548310942876586e-04
1.534327013982012856e-03
1.326849229581859337e-03
2.207695731076973669e-03
9.437299969356973284e-04
-7.337746572111626328e-04
-2.213014227711784451e-03
-6.327100190359075289e-03
-6.999228634674713526e-03
-3.759707605464767451e-03
-2.215123814267262823e-03
-2.492437153775856323e-03
-2.273521451662840510e-03
1.830705221817060992e-03
2.164017482951829420e-03
-4.581508127868794307e-03
-4.806774819948574085e-03
-1.824629649486417694e-03
-1.244485181220674570e-03
2.981601001624895487e-03
2.796464702803674006e-03
2.796771809942234354e-03
1.092704686033516871e-02
9.736778571004587116e-03
3.100550354122164412e-03
2.425223245497525743e-03
-3.232702477895695731e-03
-6.159759227157134143e-03
-3.399639914024880287e-04
2.742182103912204055e-04
-7.587875899273808416e-04
1.216563296709161079e-03
2.255543592460011000e-04
-9.077655177669376619e-04
-1.297091773656902647e-03
-3.487454134322887957e-03
-3.758943529617654686e-03
-1.170791457672772096e-03
-3.453654065885834235e-04
-2.347946234917855195e-03
-2.660195660628801844e-03
5.376949839053560797e-04
3.697711222070105153e-03
4.524742570030434313e-03
2.544621057093385957e-03
-2.648648925252920696e-03
-5.259916918431590226e-03
-1.792395876088897187e-03
-3.076558504990265603e-04
-7.384612921178571824e-04
3.283384096136076399e-03
6.093567619386596086e-03
4.333835887463559529e-03
2.608432143914708647e-03
3.447138248810041345e-03
4.502639839264962335e-03
2.601348798091452155e-03
2.068961376971800801e-03
1.974608259023854975e-03
-2.122692039148716195e-03
-2.606147232084336622e-03
3.011344090901198461e-03
9.321325458552270904e-03
1.001179879453478576e-02
2.898668201280800265e-03
-4.377653956406162179e-03
-2.031615317393099113e-02
-4.080775991030046596e-02
-3.092885551061709884e-02
-2.998592855917677890e-03
8.326767442797042632e-03
1.097339030591651735e-02
8.996454725535847630e-03
2.267566143907478321e-03
2.719639751494482786e-03
1.987648550969050611e-03
-2.283235430784761374e-03
1.838174670177265607e-03
7.334420536227780410e-03
6.235387947507884873e-03
1.519060157185966311e-03
-3.637708549261884586e-04
5.001000536266463764e-03
7.526649008612611332e-03
4.025138365186393431e-03
1.748771082420121819e-03
-2.266552644655220935e-03
-3.477993973268195607e-03
1.748118697074739838e-04
-5.282692214697353936e-08
1.896382436473346674e-03
5.086754135331006572e-03
2.348327441676910637e-03
1.041194858207352032e-03
-1.848769359475345322e-04
-4.692670951933924396e-03
-5.369092013039056602e-03
-1.904223490569126580e-03
4.032947369719927684e-05
-1.361200192525703840e-03
-1.502151898850101301e-03
8.085612286968577424e-04
3.570524714472074652e-03
6.495595215088984659e-03
4.843314747303888515e-03
5.806145753222852765e-04
-3.479319550641320549e-03
-8.138527492455100570e-03
-7.238385808563748899e-03
-3.630675122380490165e-03
2.779886136370840260e-04
5.671139378501981881e-03
6.267041340819214969e-03
3.488679930337577548e-03
-1.287204187769929939e-03
-1.150974943533125249e-03
-1.493027176230099159e-03
-2.068555501707038460e-02
-2.438021725387875399e-02
-4.179696562562417545e-04
6.754093167480799270e-03
6.370965820410877389e-03
1.267615189241170191e-02
9.849031847224560751e-03
6.921897782241281070e-03
2.914743611255312013e-03
-5.269429822852521317e-03
-8.154122267363091495e-03
-8.874141784010103687e-03
-5.430664191269607768e-03
3.003892224910782033e-03
8.212637884856849313e-03
8.033044218064293654e-03
6.777192551878575416e-03
5.568700486127435394e-03
-5.181607595544183162e-04
-3.364245180335390367e-03
-1.539025926292701034e-03
-4.710345981933915585e-03
-3.346469311930775833e-03
1.038311828497958268e-03
-2.308251882232698234e-03
-2.672520233104502124e-03
1.681162041135387999e-03
-3.123144171781501574e-04
-3.526666860896946528e-03
-1.277225953455433851e-03
-9.065333891214129910e-04
-3.158642167782406592e-05
7.281298351449758469e-03
1.300240392282261091e-02
1.335635665926831681e-02
8.216457862939292867e-03
1.880504521929692897e-03
-2.105548696994924071e-03
-7.871548679162359077e-03
-8.805444440098366549e-03
-8.246437605941091264e-03
-1.292124945863048005e-02
-1.483365447910513224e-02
-1.499845100669479694e-02
-1.080245203413597241e-02
-2.894462840469596687e-03
3.188150485434485849e-03
9.445980073598172350e-03
8.628705647455235661e-03
7.111295747170023884e-03
1.080397119886867228e-02
1.385255537966252962e-02
2.175192254044948370e-02
2.757172754470963924e-02
2.714419858808502298e-02
2.174278440731785070e-02
8.635223489475356978e-03
-2.674763527382167591e-03
-1.066288147360610478e-02
-1.526455687287829946e-02
-2.163882890000747364e-02
-3.168399503989705046e-02
-3.693876202003554959e-02
-4.378470867992848709e-02
-3.734499045761695279e-02
-2.016974826455499720e-02
-1.051850095919706213e-02
5.563054320887097712e-03
9.259428935630446486e-03
8.361971228404164666e-03
2.078280804903585161e-02
2.509366738500436525e-02
4.216799192580548278e-02
2.914957377196973620e-02
