1.509230869025433332e-02
6.347107228678340422e-03
-8.494164692098007605e-03
-1.454559497047156098e-02
-1.983137046720032798e-02
-2.024106992635739052e-02
-1.702761698352911468e-02
-1.337545586755988121e-02
-1.170643978594758210e-02
-3.796437763719340101e-03
1.642724821318549203e-02
2.557581376757165834e-02
2.525140513845491874e-02
2.826748808346037090e-02
2.281578021362475062e-02
1.608665551724089426e-02
1.246413845642322347e-02
6.507370226057889590e-03
5.622693276648102652e-03
5.381593642623272791e-03
9.949668856390797740e-04
-3.395157849926001316e-03
-7.369381211653851065e-03
-1.169735516354263039e-02
-1.519173126886476551e-02
-1.419524617724182702e-02
-1.340117237540395211e-02
-1.482116939310566817e-02
-1.201095911264186793e-02
-5.710239815624818319e-03
4.771743354273266270e-03
1.348636129001939445e-02
1.109048488431546228e-02
7.629515776392968053e-03
7.809415318857979189e-03
4.579428800117340409e-03
1.781008455672073365e-03
4.181125111526253456e-03
6.223235832210211038e-03
2.588655286636020077e-03
-1.699533271386907771e-03
-1.671257191396064790e-03
-3.202485263429992370e-03
-8.492578122257054066e-03
-9.295435328238087214e-03
-4.456679036092531590e-03
-2.883701384668621841e-03
-6.712321705436019754e-03
-8.182211190054711550e-03
-2.001521112900026163e-03
4.222961154299165361e-03
3.791307270360982137e-03
5.040183799274670050e-03
5.323172406510450448e-03
-2.053995427546930451e-03
-2.363539070883664394e-03
2.646841937876456222e-03
1.014342546572092382e-03
2.301513866124548641e-03
2.617357433714463492e-03
-2.211749575983581410e-03
8.437030628002420126e-04
2.640499131103709197e-03
-3.615648690935933853e-03
-4.254836932537720343e-03
1.199906783808146792e-04
2.651896691126260763e-03
-2.114282102601055461e-04
-4.970592385500404407e-03
3.134600819178618683e-04
7.677287434107198626e-03
5.187522260832911659e-03
2.038956128750507839e-05
-3.152236884655359051e-03
-3.748754457183766514e-03
-4.246677456417199091e-03
-6.837418683089687733e-03
-3.743527785051377604e-03
2.741791811108635919e-03
5.189246644362353195e-03
6.662566565700600053e-03
5.851033639587799665e-03
2.726940983675215681e-03
2.332302798199428068e-03
2.761108517521284906e-03
1.871923776562597593e-03
-1.297198928887702816e-04
-3.251199501905520806e-03
-4.757151040731516511e-03
-4.326808828269908952e-03
-3.222380886710892161e-03
6.191074589522330227e-04
3.976377445500307341e-03
3.379010393951195450e-03
4.456026424901144735e-03
2.776887099050734213e-03
-4.739859021972121084e-03
-2.154793554338049755e-03
5.307440328294520983e-03
1.381033592904096739e-03
-4.212022354160152755e-03
-5.648960103021801772e-03
-3.836727323741962337e-03
4.267206399338464265e-04
-1.069177566021145684e-03
-2.549469772968828221e-03
-2.779019110901557229e-03
-7.129670036832578064e-03
-3.415942129258409034e-03
3.444769794707913928e-03
2.385358038766096419e-03
2.392063362743482215e-03
2.531518274561480285e-03
-5.495930928304851824e-04
-4.779012181945716323e-03
-8.953916275151478990e-03
-5.944680295995981127e-03
3.771413348755924791e-04
3.873506767678368008e-03
7.688083399656793840e-03
7.601699417363405945e-03
5.721915671437508184e-03
8.749292891191034691e-03
7.120373484155758173e-03
-6.173399316654530709e-04
-9.470103669273691053e-04
1.932648615333815070e-03
-5.735191117811469291e-04
-9.030095422236829187e-04
3.063332691284365462e-03
8.491720203365412528e-03
1.278328761187614258e-02
3.676632121022678414e-03
-1.401703818782804555e-02
-1.760419161795484522e-02
-9.708555918788712435e-03
-6.077722647227502308e-03
-5.733955177908835882e-03
-3.612724504607118994e-03
6.285749856914770242e-04
3.390077763546675994e-03
3.734229569514167964e-03
4.877817718439972014e-03
2.245939108165426017e-03
-2.519987261427562332e-03
-3.515062037180777341e-03
-4.926871445985961905e-03
-5.488394265285533730e-03
-6.135178581109643724e-03
-5.760081095678259815e-03
1.845240920669127468e-03
6.390853775286333555e-03
5.181117766635897834e-03
2.363706352711535900e-03
-1.833039019998326845e-03
-1.792456715078152721e-03
-3.312476110441535219e-03
-3.140252181244767085e-03
2.880939580879233498e-03
6.008934290665152167e-03
1.048553470777087784e-02
1.058180889286853242e-02
6.567132746148781480e-03
5.999247478179895073e-03
5.630929698673031768e-04
-1.705147732431607182e-04
1.853648788089371380e-03
-2.902606176130916125e-03
-5.114961372107977577e-03
-5.015845491294326948e-03
3.894147131029158590e-03
1.184929995163874067e-02
5.412037741461616681e-03
1.531371155706918400e-03
1.359998846269416806e-03
1.120652576944200724e-03
-3.474903823153180707e-03
-3.837116926647791710e-03
-1.402444649099810012e-03
-3.596445987721846871e-02
-5.378261406068139683e-02
-1.059936173634808999e-02
9.663394843039329815e-03
2.957036055497177292e-03
9.462861434235357236e-03
8.189482489788844563e-03
8.843248666606413899e-03
1.291575308193398594e-02
5.997972827900114635e-03
4.621848113035812930e-03
9.965263631732964797e-03
1.023892998766044726e-02
9.012938091794653328e-03
5.058917129597958681e-03
-6.177897998040648292e-03
-1.220524824233324215e-02
-8.749066576956525745e-03
-2.549189053413916835e-03
4.051295168640442652e-03
3.782707472226317681e-03
3.555785019808698627e-03
6.842628600255254261e-03
5.227167451382100545e-03
2.581733472583596072e-03
-1.526514265279952601e-03
-2.659059231470630499e-03
-3.027838272200967205e-03
-8.025179459816126487e-03
-7.661730427240632038e-03
-9.675243311922918088e-03
-8.291664966709610604e-03
1.709796213636420592e-03
1.842835565301095130e-03
6.083342610933998099e-04
1.375723610128452455e-03
9.552509858588920707e-04
1.771232962248118830e-03
1.153752689797714250e-03
7.187739889464841471e-03
7.232721877557302982e-03
2.436760900192470099e-03
5.119961954737763804e-03
2.416672882836614061e-03
1.682607774484148498e-03
1.241066374153152341e-03
2.634868764766491733e-03
7.800029937867740924e-03
4.611640659675786673e-05
1.841833654643172538e-03
-7.254273962918384236e-03
-3.655977105985328685e-02
-2.101920922809878689e-02
9.128804953481815115e-03
1.016623939898875402e-02
5.659113658568880323e-03
-3.474011762987562393e-03
-6.709059267004984818e-03
-2.805320725292558687e-03
-1.472534811576000149e-03
3.204762349741985586e-04
-2.545825820792818953e-03
9.821362081044394867e-04
6.413467242318293855e-03
4.204739765820129406e-03
6.091789650099065957e-03
5.912270203254496419e-03
2.718952794018871660e-03
1.423119657147058808e-03
-4.046889393516737553e-04
9.564305626054864793e-04
4.047869903179183299e-03
7.717300504519253486e-03
8.101211851792763582e-03
4.022875077848564809e-03
6.809472907669396032e-04
-4.099883732743566690e-03
-8.502665186628741503e-03
-9.353793662363638767e-03
-5.775158719433341747e-03
-1.956542569064281291e-03
-2.707167702648163084e-03
-7.958931763024782498e-04
1.946957863072594106e-03
2.263476718346988173e-03
3.154863282703187621e-03
1.870602897731832521e-03
-1.994126456612711599e-04
-3.245600562526989360e-03
-3.296828481067977032e-03
1.402047095392959172e-03
3.841707477650608930e-03
5.637875428626099548e-03
2.639427832281993937e-03
-4.677752162282614729e-03
-8.376867839880052305e-03
-8.463944538539569865e-03
-4.714165448873045700e-03
-5.326204337294842411e-03
-5.087601832735473215e-03
3.697639770446277049e-03
7.137469318704864167e-03
5.921410267899588145e-03
-1.068132046646482207e-04
-5.726492188489338414e-03
2.057216396343982540e-03
5.800579730788136754e-03
2.409848394020824673e-03
1.842896903855621108e-04
-4.820523158174239500e-03
-3.988902733619661446e-03
8.913753241012439127e-04
2.905096605959616492e-03
2.460503729911282626e-03
2.010409321629597415e-03
4.760388772446045441e-03
3.597876827745042066e-03
3.038493447349966715e-03
6.962440152682148470e-03
1.105668094812724961e-02
1.781378967890435983e-02
9.637188442050029918e-03
-1.159791600668522854e-02
-1.823767209165710196e-02
-1.322134175571175463e-02
-4.729488702401096929e-03
1.132543012141338460e-03
4.303920067840030284e-04
1.010071197318811436e-03
-2.439439570588941390e-03
-6.825045309161608710e-03
-3.253885874340729789e-03
1.708935415997285849e-05
2.166221425693644364e-04
-2.360855550429058047e-03
-5.980413470409495606e-03
-5.717482399263987616e-03
-5.325297842506712502e-03
-5.567184105778056648e-03
-3.013043270241619418e-03
-1.608967115495784804e-04
2.451923076427600309e-03
6.680684350202291746e-03
7.083062412141107912e-03
4.023654230630722625e-03
4.212504185598130342e-03
3.801017807993300156e-03
4.931752229961805858e-03
8.194825320107764280e-03
2.519292855005696250e-03
-3.090997025296974860e-03
1.712403729901598726e-03
7.973688846068142239e-03
8.585118348424866305e-03
3.652915027067701881e-03
-5.281830689878306336e-04
-3.726236334438603939e-03
-8.207901340555372183e-03
-9.399517390305584322e-03
-8.167226153752524254e-03
-4.975206426414206275e-03
-9.570539941667292189e-04
2.314535374262645124e-03
4.640766852812123165e-03
1.504620013350594417e-03
-7.319028090740066711e-04
-4.861142483679719694e-05
-9.664764706240465365e-04
-3.482352160264050051e-04
-4.313365997298275641e-03
-6.405707655391875387e-03
7.915311987540998157e-04
2.831031945984316400e-03
8.815298967414618306e-04
-9.529988780852451796e-04
-3.012505544887353510e-03
-1.672597785590418731e-03
-4.068555121587844568e-03
-5.883681371726433469e-03
-1.550806110689697268e-03
1.719392706295763554e-03
2.971468356731569744e-03
2.886858714912652474e-03
4.965246005143487615e-03
7.612726240568932178e-03
5.199007475735597031e-03
2.927633280043372838e-03
4.185638482534288773e-03
5.773278572968197804e-03
2.738407194284694229e-03
-1.151926235656218310e-04
1.729623058554648771e-03
5.227248093503324318e-04
7.504764919038772525e-04
2.510647226101939654e-03
-1.838484906362565334e-03
-5.519551818367984634e-03
-4.544692601183154823e-03
2.853718296160765062e-03
6.349428447076237852e-03
2.528140692783638951e-03
5.802624040251619895e-03
-9.893185270059013867e-03
-4.021519649710858513e-02
-2.826703877945369384e-02
3.214443690184112107e-03
1.041351203549701308e-02
9.202587417120143901e-03
5.848332890651163421e-03
7.846948067764283842e-04
1.411939919434075609e-03
1.301708896482424048e-03
1.143206003192363384e-03
3.759531325285516389e-03
5.307323323878670486e-03
4.773825728139657713e-03
4.860624127212712716e-04
-2.651058041151742144e-03
-9.010187287127802884e-04
-9.607291154868403699e-04
-1.240646076808116867e-04
2.014078014786332624e-03
8.264589699744561910e-04
5.213568752962112821e-03
1.005189976354311544e-02
7.374238368842057564e-03
6.954420945490564533e-03
4.262037679910793235e-03
-2.799127902073614369e-03
-6.613046772587507886e-03
-8.477602658288695137e-03
-4.591137238014831277e-03
1.956099119619781734e-04
2.563103440360424835e-04
1.802760604188999218e-03
-3.392654111499363609e-04
-4.343681066098559196e-03
-3.489551856609641317e-03
-4.444091490226055770e-03
-4.089578455104375156e-03
6.905556942713365247e-04
1.078159749886179386e-03
-1.064310271009894383e-03
1.501926608556617641e-03
2.961652405387834794e-03
-7.439883886633754696e-05
-5.824169226013059964e-04
3.204417823055885585e-04
7.737107344977608341e-04
3.895579408614721303e-04
-4.339347768892824753e-03
-4.839703661379065117e-03
-9.882466142217940022e-04
-1.214134237268155603e-03
-7.704215312040170547e-05
-2.199424513560640582e-04
-2.902038204285787952e-03
2.718658693783556962e-04
4.046418180693166569e-03
4.262530544614118178e-03
3.523892302584500247e-03
2.886479463035449347e-03
1.389455895922927370e-03
-2.477692481098363493e-03
-9.192233265787574633e-04
3.399221312646925723e-03
1.084868312534662330e-03
-4.960957734383344281e-04
-7.628466075463960798e-04
-2.197987351479498922e-03
4.365508277620644721e-04
2.727417178928720140e-03
4.385038227454523922e-03
6.661588578740849052e-03
2.164299398877502379e-03
-4.194557632178382359e-03
-5.012846060098641830e-03
-5.892147040652204182e-03
-6.867620062266970721e-03
-3.322813070713454605e-03
-1.290371057485466917e-03
-1.484364819331415817e-03
3.346484846383539907e-03
7.154153280475626132e-03
5.491095914368687193e-03
4.259245803941083888e-03
3.507757340955909141e-03
2.179577101366495743e-03
1.116671251105477410e-03
-1.714836320616414133e-04
-3.739802106026685231e-03
-4.910127027003957471e-03
9.404623655683818631e-04
5.526684503390840320e-04
-1.906527903132538464e-03
3.054015672299507933e-03
-2.129996209382189858e-03
-7.784049917781953216e-03
-3.181315712166694204e-03
-3.989518409931069182e-03
-2.181401726619546563e-03
-3.003053025818209869e-04
-5.193173806849598131e-03
-1.646036097351359423e-03
2.175955505948997792e-03
1.118125908775902707e-04
6.816506757584120174e-04
2.925092797807551156e-03
6.158353575729976805e-03
2.968107590962615859e-03
-2.624320593828978476e-03
5.874834848312387135e-04
3.816513178936369304e-03
5.074819384055688672e-03
6.302508940227470602e-03
2.679393001132936592e-03
-2.114895411469441301e-03
-4.271292784435051088e-03
-3.862955184383662800e-03
-3.552274976033000745e-03
-2.370468031454875737e-03
2.151055543415502074e-03
3.073146616584638939e-03
1.898891171791940039e-03
2.315856050793679843e-03
-2.702135183348858597e-04
2.628992192497412784e-04
2.641158738098779366e-03
-2.011690673361508485e-03
-5.187980819437578578e-03
-3.564313745891084517e-03
-3.524880016364217907e-03
-1.699916157099035487e-03
3.845737903193844048e-03
6.583120708551252857e-03
2.964464391807701722e-03
-7.657477796336345597e-04
-2.153126093301686254e-03
-5.244417349383204141e-03
-3.074366888734821231e-03
1.476951371410799687e-03
-3.358943885244475031e-03
-3.927936960757023345e-03
3.377968323714994336e-03
2.718215825822738706e-03
4.924046988076834826e-04
3.208553605105491160e-03
3.821342727970120524e-03
2.045039702398631677e-03
1.656615721268228582e-04
-4.747075338279360050e-04
-6.587047905657812154e-04
-3.336892149541037479e-04
2.514574083030317753e-03
4.166486997979157274e-03
1.184174775306903824e-03
-2.641935688319261167e-03
-4.079996729567980478e-03
-5.319589924961739581e-03
-4.756603822431669515e-03
-4.717433170117424856e-04
3.530859970787556044e-04
-8.519052998761462905e-04
2.309460707968607508e-03
2.413824821096432777e-03
-1.503535681173163302e-03
-3.506881644821144934e-04
2.831368988702282277e-03
2.289950538554392720e-03
1.068068401561423795e-03
3.556809154271687841e-04
-1.146713340297349486e-03
-1.657633835042332960e-03
1.128548409327567552e-03
4.311971487907613997e-03
5.170557273497266605e-04
-5.747672113485241714e-03
-5.293403972329421316e-03
-5.089478500065570260e-03
-6.995128411474721246e-03
-3.987054150294261703e-03
-1.337583942972024728e-03
-1.569283127867318823e-03
2.477209507676298751e-03
8.397434537417012429e-03
6.357240120934642622e-03
1.706947747993503833e-03
5.144506328144144748e-03
7.498819656788143287e-03
1.759665767341123902e-03
-1.563990253868217375e-03
9.047138145744288741e-04
2.647941963051175709e-03
4.171635922139566022e-03
5.222014033423903918e-03
1.507499419969534878e-03
-5.373066790976084237e-04
-2.101194289112934353e-03
-6.542879997657589930e-03
-2.996916416014021485e-03
1.718347336339978119e-04
-1.460067620123296252e-03
-3.404549215729102320e-04
-1.408468257045237160e-04
7.645093390444505227e-03
9.717656958996760339e-03
3.554442838341253293e-03
3.743376944351778715e-03
-2.561640844547063284e-02
-4.559231431532898698e-02
-7.737713440592371844e-03
1.049595436889382352e-02
5.015513377961628230e-03
1.266883485372915889e-02
3.792192201748327898e-03
-2.725245874779187293e-03
1.583697594115150752e-03
-1.649960344114531803e-03
-1.390280193666950130e-03
5.491275011026058644e-04
4.486715868573899930e-03
3.767369803084289186e-03
-1.324462208125058629e-03
4.085634321187471031e-03
5.386856025055197263e-03
3.978707031209857345e-03
5.008164529211192074e-03
5.959143240998759656e-04
2.414237147941979914e-03
3.781966570183155894e-04
-7.419868587785132669e-03
-2.855764702589694542e-03
3.493210818887824802e-03
6.680982550870631469e-03
7.139602389599955697e-03
2.685147422172257797e-03
7.397904867073850504e-04
-2.567580554068224757e-03
-6.874595162424263113e-03
-8.116955684805228499e-03
-6.001550500777250857e-03
1.691047370109115006e-03
2.897311965718900751e-03
-1.505936010156720987e-05
5.280115009943757778e-03
4.547700583169489268e-03
-2.778502617854777725e-03
-1.935574329382096920e-03
-4.601029328970236763e-05
-3.339209230479129806e-03
-5.811132796020022570e-03
-4.853149308022747244e-03
-6.046132437188781340e-04
4.606039318136141703e-03
4.993652764492183434e-03
-1.028452252546600831e-03
-7.509114895437413346e-03
-9.481236435106742827e-03
-8.444272899930457474e-03
-7.572090623933266235e-03
-3.738688816142559778e-03
3.736643212085771684e-03
4.849250802882705026e-03
2.264019982105494513e-03
5.794338548552787835e-03
7.090661843707710306e-03
4.550094679222446703e-03
6.521924118282050944e-03
7.631284201276416872e-03
4.868194326574523667e-03
2.465498698669284314e-03
1.327042274147418807e-03
3.424292150376998835e-03
7.635355720483781930e-03
7.217733748117695879e-03
1.152764804095219578e-03
-3.661449682315731473e-03
-7.508397245750496329e-03
-8.605760019416534845e-03
-2.140975405544405605e-03
-2.711308514776379457e-03
-9.873579472773895069e-03
-6.019466741066288422e-03
1.706809340680997080e-04
2.153772185559066788e-03
1.443950875457154955e-03
-4.136004501282116060e-03
-4.095855240217207913e-03
-2.553524101830529844e-03
-6.513916203630645135e-03
-5.369506871672368419e-03
-1.592935723426361534e-03
2.776328882383291650e-03
8.824613968742520478e-03
7.543229858317670664e-03
2.499827593541714948e-03
4.385913442417184666e-04
-5.577965040652061845e-04
-2.332816219673455784e-03
-4.225008189676786145e-03
-6.486975778194668070e-05
5.798223825759397411e-03
3.484923770114204625e-03
1.402299831565693555e-03
6.071692136899067664e-03
8.261499008511698564e-03
3.352460714085817202e-03
-2.545690094034902887e-03
-3.377893092789698969e-03
-1.670617747486804984e-03
-2.678959753537104964e-03
-2.366699012712410004e-03
1.045557704735100265e-03
1.167757804962819661e-03
2.207903529474788008e-03
5.030223258221448897e-03
-5.531224947615280465e-04
-6.747658510839765582e-03
-7.201495769370521750e-03
-7.964773643586489302e-03
-2.472470229733853952e-03
4.416183848102746626e-03
1.213496155003311074e-03
-1.726293153594760012e-03
1.111279010308827749e-03
3.693241274758105042e-03
1.965203255455233791e-03
-2.808228302180222104e-03
-2.157790826955701107e-03
2.049787123648204919e-03
1.052282375837445454e-03
-1.538664331757615437e-03
9.022891516067637306e-04
5.128167155952644343e-03
5.053099913690521812e-03
6.074129999586772672e-04
-5.155156245524056963e-03
-6.451244699573087903e-03
-4.497752212894107551e-03
-4.805791667904995429e-03
-2.862973304571056832e-05
3.307445279863564184e-03
-3.760727832929077006e-03
-1.419736357601753549e-03
7.614377602128810651e-03
5.660688151113106061e-03
2.880384583337290087e-03
2.960452428155504242e-03
2.858294041103482102e-03
3.305561295483879381e-03
5.401970430743423431e-04
-1.519633111823275083e-03
-1.951932788413264985e-03
-8.640448351576758817e-04
3.190439309273348893e-03
2.284774137584540381e-03
-2.481730123348678194e-03
-4.141358418929303939e-03
-3.279783421576829960e-03
-3.718504058769101644e-03
-4.986635886884618375e-03
-1.708484042921455150e-03
-2.254999306309961652e-04
-3.958561810530371859e-04
4.244471227389594661e-03
2.552072892763393875e-03
-4.813908569669722083e-04
2.036563534573925839e-03
-1.126812005959229568e-04
-3.294170361335250260e-04
-3.461291667069362117e-04
-3.368524373280587340e-03
2.242519977267823199e-03
5.771436584052960089e-03
3.214829929295526158e-03
4.123374192153488396e-03
1.866441967115955829e-03
-1.850168705103697126e-03
-4.366717413467499816e-03
-7.061520808998955449e-03
-4.214182076174220054e-03
-2.027496929168874813e-03
-2.370439842920272003e-03
1.440810893745942756e-03
5.866921346290254920e-03
6.992628732654394483e-03
2.489586891888357235e-03
-1.447844890024462547e-03
4.414427095431401778e-04
-3.997487266368722632e-04
-2.758529393785376285e-03
-3.076292939479694129e-03
-1.899794139868794937e-03
3.050857799067346280e-03
3.471157634300801008e-03
-1.596730008019527297e-03
-2.696524333200460768e-03
-6.561582061310588382e-04
-1.657870388539908887e-03
-6.090028147020308188e-03
-4.738821832083349971e-03
-1.073342099938250733e-03
-2.235269068364347401e-03
1.243950956889292156e-03
4.733508811190624208e-03
2.751954700400182328e-03
1.221602787083695980e-03
-8.570791114356863735e-04
-6.219369178319986797e-04
-1.509574776072653913e-03
-4.326267071024994006e-03
-3.173353160259683847e-04
6.989459551787346667e-03
1.323390754177113625e-02
1.312464434857804445e-02
7.692444470166984877e-03
3.709571458482428287e-03
-2.421487338805608514e-03
-5.953404923951508866e-03
-6.146781074183237277e-03
-5.176229057867178136e-03
-4.930034829813195393e-04
-4.834335424942693598e-04
-4.298265342989091671e-04
4.376885442783206431e-03
8.145032815926560657e-03
7.825064021517015231e-03
3.184750200156538560e-03
3.830904287437069799e-03
-1.290386578442941079e-02
-4.399172069782125022e-02
-3.013210107788705239e-02
2.753883981972917849e-03
8.381857576278321439e-03
1.086649700347283413e-02
1.226857484927606351e-02
7.701596149375024292e-03
3.871791919960718142e-03
-1.948984982991504777e-03
-4.964679228853252808e-03
-6.726631806420028253e-03
-5.884508667095641847e-03
-3.962772448126412970e-04
4.447265380863926927e-03
8.193882913758915310e-03
7.712214460655733399e-03
5.390867254809248062e-03
4.253510252334782686e-03
2.285122699511692602e-03
1.357013405894009171e-03
7.264628765789577338e-04
1.603670384249146355e-04
1.073312574797742483e-03
4.897202054490134432e-03
6.721938803712367710e-03
3.156924138132726366e-03
3.963930432720043449e-04
-6.245467420263030311e-03
-1.176314672408430156e-02
-6.916599344697121378e-03
-2.435854077618287115e-03
1.791063781850825909e-03
2.682592974624697924e-03
-1.407984656858906171e-03
1.171985590921084805e-03
1.326609945455761285e-03
-1.154942149825382517e-03
1.880874556518906740e-03
2.753535373065196454e-03
1.224206537548511164e-03
-3.604234047960190070e-03
-7.778636522278225239e-03
-3.636452986741268642e-03
1.353028745985913276e-03
1.910366063485829805e-03
-5.722208566803922269e-04
-1.650456527382957415e-03
-2.624373113871883434e-03
-6.952890615836441503e-03
-6.094092838733505130e-03
-4.545771785984103748e-04
2.824487032889496773e-03
2.457861406403126850e-03
-2.855092647251030380e-04
1.990963262786698759e-03
6.026969815668024519e-03
4.593900086031073478e-03
4.530779284240011272e-03
5.630201097425607988e-03
1.876466952298917485e-03
4.736043160479577437e-04
4.472767779746490355e-03
5.113269072429559026e-03
3.827783194773736169e-03
3.150521792101602502e-03
1.608503322047720582e-03
2.097428081216069599e-03
-3.608320950867160547e-03
-1.281711465964201213e-02
-1.074060656776756016e-02
-5.781786327156609659e-03
-2.479989004199009348e-03
1.123919291548097213e-03
-8.749619478020945673e-04
-1.993005800564050332e-03
-1.348126402899354776e-03
-2.288225670697065228e-03
1.224389786139158318e-03
2.925020216999574957e-03
-1.992117024711365179e-03
-3.253354755052817546e-03
-8.526983626218532673e-05
-9.209780030071773290e-04
1.569402426962902819e-04
8.169571786122650087e-03
9.457523257804217875e-03
2.650741296283425606e-03
-8.366355419384191236e-04
-9.099415005227263955e-04
-2.582711909463610120e-04
-6.908265940652649328e-05
2.419307752285147252e-03
7.461722307764461978e-03
7.915184059054511737e-03
4.944686814164142574e-03
3.374618370851088789e-03
5.209764188040389224e-03
7.222734464489082365e-03
5.107664380205841244e-03
5.047815687068119180e-03
4.552049818962158358e-03
9.338741970977142452e-04
3.381081380386603483e-03
6.152906869538694173e-03
4.921735497842511138e-03
3.022718719466243719e-03
-2.278381506356951490e-03
-5.019314675526373101e-03
-6.940145754866513042e-03
-1.170579461752344237e-02
-8.390238910493693844e-03
-4.592459760193747485e-03
-9.354007793381186389e-03
-9.172172250089403317e-03
-4.830766530627606317e-03
-7.806177112324393791e-03
-1.202712056820345182e-02
-8.288584642754627183e-03
7.204162950405598904e-05
2.631284592819480364e-03
-1.542887777146866556e-03
-1.447332137800371983e-03
4.038331004323524216e-03
9.153893698259208886e-03
1.349525967256629683e-02
1.265539909402012449e-02
3.921944291381794685e-03
-5.700737405170990500e-03
-9.733228131003796371e-03
-1.153093522191387353e-02
-1.284144546575894524e-02
-7.572212975544114280e-03
-5.908904630060647298e-03
-1.304777006881033437e-02
-1.160650080184525042e-02
-6.766184375004886259e-03
-1.069285890152571646e-02
-1.461780844177151643e-02
-1.018913270742773623e-02
-8.195457729730268141e-04
2.955278531887296778e-03
7.112300142737532950e-03
1.822868102670335833e-02
2.829747768491464727e-02
3.632713513805260058e-02
3.504319455338322786e-02
2.437491711202367448e-02
1.580461629866418763e-02
1.141093314860077909e-02
1.258957594195217293e-02
1.368225543895325129e-02
1.485055230971080512e-02
1.096359504979844968e-02
-3.963909253390551432e-03
-6.517812454827868508e-03
-1.078103184156201794e-02
-3.727423489908127802e-02
-5.535015433353548953e-02
-6.433020667919871205e-02
-8.011091439914794221e-02
-9.105973473572315235e-02
-8.359992449822785388e-02
-5.692821742200612767e-02
-2.397631429296781178e-02
6.903414334679262680e-03
2.917753592152188755e-02
5.609936933310577523e-02
9.764464563684162324e-02
1.109050074640610117e-01
8.174064553866954019e-02
5.074648043553563193e-02
4.805363877818763507e-02
7.303791062984520133e-02
9.852840581295363442e-02
1.168605687072952759e-01
1.370080567815619710e-01
1.431103222972145983e-01
1.084544499584396138e-01
3.108847938630831392e-02
-5.162453655510832601e-02
-1.118607403192503902e-01
-1.477650092927596248e-01
-1.569710630423492292e-01
-1.450240738449511679e-01
-1.273986613335402751e-01
-1.132196966576602681e-01
-8.636738553686724995e-02
-5.311086452177064127e-02
-4.787755495470212563e-02
-9.473438166788447634e-02
-2.062125029185681302e-01
-2.712000561175065827e-01
-2.037249481895482828e-01
-1.219303315440329744e-01
-3.990927275640786948e-02
8.295377941062559435e-02
1.412797681115492143e-01
1.422481621441414601e-01
1.648594110331244311e-01
2.110504820559274963e-01
2.623703297772824738e-01
2.540595593643352745e-01
1.777487878911296892e-01
1.112024026937836196e-01
8.248992116015627096e-02
6.006108908632091375e-02
2.922543012323173053e-02
2.474231262838308756e-02
2.989935362298078506e-02
3.351561659990955414e-03
-5.721838094281820990e-03
2.035590638754691817e-02
2.750587967261269168e-02
-1.580352942138336892e-03
-4.254744332073533836e-02
-7.119122017806475688e-02
-8.976897631453747972e-02
-1.021336668778674017e-01
-1.142937953216709435e-01
-1.344348904581395276e-01
-1.310123635142607379e-01
-9.430104891920036703e-02
-6.214372903768008993e-02
-4.834879795078472764e-02
-3.620850931889214169e-02
-1.297773323570969133e-02
7.827229113015077983e-03
1.505556593837728899e-02
1.892777632647497585e-02
1.627458418525154840e-02
1.521013643700032609e-03
-1.372748640412804234e-02
-1.633748810737148394e-02
-1.354210845665564794e-02
-1.648748897193623095e-02
5.726140219290843519e-03
5.481376623072506393e-02
6.193618764877869415e-02
2.686517719736536761e-02
9.238731745484278501e-03
3.307563058097124893e-04
-4.546307274878974916e-03
2.085130110814009327e-02
4.238450763530747512e-02
4.502765168852827099e-02
5.777209606686591753e-02
5.779616640842367981e-02
3.723839027561748338e-02
2.461838507643354310e-02
1.771739386311997275e-02
1.471018968143063786e-02
9.043630207443436111e-03
-2.056680385042398539e-03
-2.491109656147821871e-03
-1.949984966843009825e-03
-1.800366600380627451e-03
-2.865588698827245713e-03
-1.715200297463292597e-02
-2.058490893036408337e-02
-2.029465123010689917e-02
-2.812409865299544953e-02
-1.412305667759963454e-02
-3.702728723812503606e-03
-1.408308193848685844e-02
-1.259841603624560491e-02
-9.278562079366510507e-03
-1.209921518656185968e-02
-9.280804364657481431e-03
-9.683476296823837967e-03
-1.125950885332729218e-02
-6.235294382959796419e-03
-1.846223854796936927e-03
-9.272914262831783621e-04
2.661362443831208780e-03
6.495443463982356926e-03
4.956313442109863861e-03
1.252940708673033797e-03
-2.148097004249543713e-03
-3.513129389003153292e-03
-5.576336829894341061e-03
-9.962316111693975823e-03
-9.000059166087624046e-03
-3.459294239417079822e-03
3.175135866429980649e-03
6.025028155622041276e-03
2.310023427954352102e-03
1.570952157734947525e-03
5.938180081801037015e-04
-2.307994881094632428e-03
-1.367658360079814167e-03
-1.271327901774419941e-03
3.208975492797979702e-03
8.806763782376453992e-03
8.749612784310979371e-03
1.093288388738833557e-02
7.447798673462515187e-03
1.967475354010777069e-03
5.550125001091836194e-03
3.715290089180473768e-03
-4.304564696530077412e-04
5.350662569783067740e-05
-5.648610447196479589e-03
-8.970791176218941010e-03
-3.644696493190635687e-03
-2.375187837723869561e-04
5.039779591070041743e-04
1.909090376351547697e-04
-2.914582153617960997e-03
-6.997949488647674243e-03
-8.799734851625299822e-03
-6.364987673505480455e-03
-1.708387478531001513e-03
1.504321682469708004e-03
1.248001581274152828e-03
4.402152872511170840e-04
3.499855656452394246e-03
4.782190878635527581e-03
1.411785676963814035e-03
1.188620421921877685e-03
2.600885746990725614e-03
4.908336286939817298e-04
-1.504051345204939676e-03
-3.121920201565679762e-03
-4.258475528347986303e-03
4.896734035250155251e-04
7.522161996041578508e-03
9.288515606953361495e-03
6.820558332257071685e-03
2.116301785301753866e-03
-3.618746704144910507e-04
4.093023970027202980e-03
8.620014837759705853e-03
4.776413320194973153e-03
-4.891477746957063888e-03
-8.391137386797696204e-03
-3.645016629993928607e-03
-5.656295264013828797e-04
2.503336707151731805e-03
3.790613350937174688e-03
2.087500703574321254e-04
6.404176901527100507e-04
-1.709439621236910536e-03
-7.207645290462676851e-03
-5.019087740552593407e-03
-2.256555053897443732e-03
1.216685953897611193e-03
1.919547815703155592e-03
-7.042379616524650429e-03
-1.095485793980926527e-02
-9.084063678724271090e-03
-7.729562086553030086e-03
-3.442113065333293580e-03
1.927342325430302572e-03
8.069972796859246900e-03
8.412146635005460227e-03
5.204901137417123312e-03
7.684203007834791536e-03
6.337446621384950490e-03
2.663856892603574424e-03
1.811406256076948489e-03
-1.526091540313646291e-03
-2.532653553576143420e-03
-2.320930319044262058e-03
-3.952309441177075111e-04
5.470511102123154501e-03
4.809761192649109410e-03
3.709578201813681811e-04
-2.333194015442246246e-03
-4.940233252783135173e-03
-3.394058642141873673e-03
-4.908586553392439667e-04
3.918367969913673322e-04
5.732823542472748968e-04
3.364777514344013129e-04
1.565528313575460578e-03
4.468408118161869280e-03
5.793595255204326763e-03
1.961396415569486608e-03
2.955259638680196197e-04
2.650914371934051141e-03
-1.045364419133787100e-04
-1.387551465657251362e-03
-3.816914728298456184e-04
3.871230904954324503e-04
3.726711488286025067e-03
-5.101616465819067462e-05
-2.411424976090790345e-03
-1.435573282828825131e-03
-6.461200779534501462e-03
-4.918168404148465234e-03
-3.104543912736209936e-03
1.877185164887915352e-03
8.985155385432177372e-03
-4.024524366339856155e-04
4.754862341793964983e-03
3.557763581375813621e-03
-3.331980810725559267e-02
-3.134790529128876624e-02
3.701599606584696830e-03
1.005161220437696123e-02
7.296356578348344411e-03
5.146494605051697702e-03
-5.300397687260750357e-04
-9.471236747121619193e-04
3.822710105121277131e-03
1.071967003136446023e-02
9.281736910058825674e-03
4.322981042220844922e-03
1.248359498090401273e-03
-2.625853834656374005e-03
-7.775709940396357579e-04
2.388485010436947401e-03
5.938959264847954930e-03
1.060191639110434798e-02
8.503623155734526054e-03
2.913945801558531605e-03
-5.444973409304274588e-04
-1.180708664918172319e-03
-3.959639648289906173e-03
-6.524113893115987203e-03
-5.118401147270897587e-03
-6.200521828544260615e-03
-3.907479966657798238e-03
-3.856230916217374526e-03
-9.801803699923483312e-03
-5.864032801657008062e-03
-1.748382815769845052e-03
1.328987512371575513e-04
4.709841520702681694e-03
1.539576696476527675e-03
6.649506574452156539e-04
-7.344824237600966260e-04
-1.165723434378660404e-02
-1.527531268897236970e-02
-9.380131214210447876e-03
-3.690670520993576901e-03
-2.419787848625586102e-03
-1.260291574058407769e-03
6.340330713107687408e-03
1.393584005165393082e-02
1.876609132268170638e-02
2.275989000689025363e-02
2.759332015788052914e-02
2.941308124100736748e-02
1.559884704877444357e-02
-3.487816404572166486e-03
-1.001312124109405600e-02
-1.191746184199334035e-02
-1.758111798907925974e-02
-2.125400979862892420e-02
-2.032695491754521813e-02
-1.572295292137493999e-02
-5.370919829379390727e-03
2.697504528104986699e-03
3.450614463261042226e-03
6.532351208393905907e-03
1.380879157514093049e-02
2.298179312947257191e-02
1.733479259973789988e-02
-1.465215297179885828e-02
-3.633750482202730003e-02
-2.901113390331757150e-02
-1.263597089284695767e-02
3.891984263631129322e-03
1.048376192646340369e-02
8.884214512810521130e-03
8.601280620118860118e-03
2.509801350872953394e-03
-5.063565574162110991e-03
-6.881216926686339538e-03
-2.770256368342420821e-03
7.361938798988200416e-03
1.182435761083471502e-02
7.628405239389041137e-03
4.548795086459229108e-03
3.183849757772221588e-03
3.110943758031090500e-04
-2.240341223421798283e-03
-2.799496497554392494e-03
-3.586252487093169461e-03
-2.712242959648278936e-03
1.998608901168068687e-04
4.780545446828530208e-04
2.414538760412624722e-03
6.682077333620283985e-03
8.644321894989145244e-03
1.053289947380217639e-02
7.614078629639615438e-03
-1.686354067805691118e-03
-6.356694122621042199e-03
-4.723883238115207141e-03
-3.076451522563795199e-03
-4.410726688131344671e-03
-6.117595531528321334e-03
-2.209853873084095810e-03
2.549391467310653959e-03
1.610863446706617148e-03
1.137170614624226144e-03
3.629422043471122305e-03
5.283757474475155383e-03
3.601513305785486105e-03
-3.500278380222211251e-03
-1.010123223525245632e-02
-1.031653749334653959e-02
-4.919017303122035639e-03
1.969758316320225928e-03
7.955224542660208542e-04
-4.847921203776280399e-03
-2.994799043811634254e-03
1.234671815305278704e-03
7.746886022624913364e-04
-6.945299313968227766e-04
7.681660069816675538e-04
4.042158854579850150e-03
7.436815276519608692e-03
1.003120375468325234e-02
8.550235340772701503e-03
4.740012546643499608e-03
-1.680510441332917554e-04
-7.260737468701841842e-03
-1.150713476728052430e-02
-1.315487463043175757e-02
-1.267573166154765084e-02
-1.004394251818458220e-02
-7.338225197984972470e-03
1.913892671054996230e-03
9.946406590986056617e-03
8.030511753322575053e-03
9.182928533311530278e-03
1.007918816666355036e-02
1.648688543594859163e-04
-7.637898650754146486e-03
-3.214445584237869257e-03
6.847676526052497593e-04
-4.266037449020493831e-03
-5.493719204259312795e-03
-8.587463442370467121e-04
4.703342986616192503e-03
1.364859286278643537e-02
1.690039504424044325e-02
1.432602128908164359e-02
1.536696817020915574e-02
1.074050349159995366e-02
-3.044643656420267623e-03
-9.740038690734731039e-03
-6.542119399677931262e-03
-6.525128567898901347e-03
-5.848081238635797520e-03
-4.869012716616834269e-03
-1.231513074759900926e-02
-1.123877971873898235e-02
-2.044225006008634337e-03
-3.996104571823453711e-04
-3.396627292879365878e-03
-1.138972749501472766e-02
-8.643813267189003752e-03
3.393697838995067204e-03
2.599903222056152525e-04
-2.253380107079281346e-03
3.839716753449337171e-04
4.319463231590329002e-04
4.985225568101078579e-03
2.140456631965934661e-03
1.118871004212408432e-03
1.040064816573169418e-02
1.423608937374961844e-02
1.807686339072305665e-02
1.405324092251201452e-02
-4.789278139527218883e-03
-1.452176824078911348e-02
-1.076302871626292484e-02
-5.307680613477082018e-03
-5.941802212027457158e-04
2.477605282591228975e-03
2.421786005498520900e-03
3.467132919865778323e-04
-1.361958426839958696e-03
-4.434064833022516999e-03
-7.118771078332126676e-03
-4.272168791535621568e-03
2.538686404036145537e-04
2.056527454606816435e-03
1.323924492632129078e-03
-1.856226512012512566e-03
-1.543561311066925842e-03
3.010901152970737061e-03
3.391534999341179555e-03
1.766213669633121507e-03
-1.655488831792787958e-03
-6.779058381874609324e-03
-3.430423718207742563e-03
5.515052759254900159e-04
2.104841186926656265e-04
3.111939656079783147e-03
4.140493710694005680e-03
4.048571947642663933e-03
1.425226005120952197e-03
-3.070218346190511580e-03
-1.034820587879736308e-03
-1.471759574722363668e-03
-5.052395829581191608e-04
6.572178365548252826e-03
4.916244217520082845e-03
-1.255577886446049502e-03
-2.759044799229538013e-03
1.210776526973771474e-03
5.872938260845393318e-03
4.360165807545088139e-03
2.320359143760164500e-03
-1.153187699200400014e-03
-7.221560867765436029e-03
-6.230149711014518893e-03
1.495803755970648687e-03
6.037063602294477811e-03
6.057005328680123771e-03
5.905600728309296985e-03
-3.868541364805758707e-04
-5.171064166879709226e-03
-2.596633493887823101e-03
-1.622996250886905465e-03
5.807960504286515356e-03
3.947692971204871774e-03
-3.480047682752454401e-03
3.406534332072581363e-03
-2.002754639005748655e-02
-4.181759499659116336e-02
-1.042164166166985491e-02
7.338992819931124643e-03
2.723864071689467183e-03
4.727204594978036932e-03
-3.180434098756371240e-04
1.100504417903019677e-03
4.543224685244275605e-03
5.995654228981910257e-03
1.015984800852979750e-02
5.743379605230710012e-03
6.885794785619857999e-03
8.205862294099995624e-03
1.898168273729944084e-03
2.503982928019958271e-03
1.356510468498782311e-03
1.311585125288274208e-03
3.213339651904223698e-03
-1.255572839873032550e-04
4.677111482905665397e-03
8.454424787727191082e-03
4.143216303392534099e-03
2.527093516008861729e-03
-4.585231519557485952e-03
-1.178464194906148586e-02
-9.746193331737828397e-03
-1.131745706085270087e-02
-1.118826034937979268e-02
-1.567518833047734260e-03
2.253819788044778526e-03
-8.144662011005923598e-04
-2.116194105207440477e-03
-4.453275771102006494e-03
-7.168019786374706104e-03
-6.499304364032112633e-03
-1.283166682806873623e-03
4.750539668964821709e-03
6.854744956618320437e-03
8.767828491135819594e-03
1.177373199270900610e-02
1.162542439771763018e-02
7.984322186371682270e-03
3.997303447245550284e-03
-2.098215670126802527e-04
-5.187987992432002704e-03
-7.472712566237371505e-03
-8.953047921599222719e-03
-7.311421302377417615e-03
8.789097984452952156e-04
5.755751936348189012e-03
7.232119635279866433e-03
5.656914882265320563e-03
-6.138034098956879261e-04
-2.501515907436748301e-03
-7.864309166218115543e-03
-1.292915328925496946e-02
-2.317506551287984440e-03
4.812516024079157261e-03
1.903678910443757071e-03
1.814992476239131111e-03
8.942158523493380987e-04
1.384216532484892730e-03
2.364159572404695916e-03
-2.880933712667478434e-03
-4.445411056504196094e-03
-2.253512418872873069e-03
-5.860440573295691048e-03
-4.082677552016507859e-03
2.888550148861549535e-03
1.070585533218475867e-03
6.774518685202666948e-04
4.206010751458533897e-03
2.969085234822747398e-03
2.792595361208299962e-03
7.784490276988953288e-04
-2.537254216306278950e-03
-1.671055013117067395e-05
-1.246818668134567543e-04
-4.978306676947131214e-03
-5.065271214849936983e-03
2.318035525903221553e-03
7.767996762100041162e-03
6.292439776810579768e-03
4.619408432574034079e-03
6.419963064183975294e-04
-4.195354725638797411e-03
-2.147020753225916019e-03
1.467846318088931361e-03
1.232095535471932094e-03
-1.479593027634697015e-03
-5.030289982632394144e-04
1.196636030058178223e-03
-2.821403497776498945e-03
-1.165915996323793006e-03
4.668654082181400086e-03
5.534184162521669018e-03
3.963426710146676635e-03
-3.249778425097021427e-03
-7.509364945562822628e-03
-3.972654495932667271e-03
-2.969848135935071118e-03
-1.616560204694022541e-03
-8.016605012812996105e-04
-1.667413445947847845e-03
-6.541032664371148383e-04
-4.323552711842343355e-03
-7.811365379471217271e-03
-3.147384748628132608e-03
2.616670992960134449e-03
2.909461592390793008e-03
1.388813400274466377e-03
4.696521996042893506e-03
6.961904099871849168e-03
2.832614479304561544e-03
6.352446549181497461e-04
2.288804121682894415e-03
2.534999969848558037e-04
-6.057224196929193380e-03
-9.375081448430770334e-03
-7.060788587271277748e-03
5.270815931888843961e-04
1.021190711586823438e-02
1.242705527562042167e-02
1.118239303539127552e-02
1.111249517658676779e-02
1.413537360743543411e-03
-1.247241722286766830e-02
-1.606518374541463998e-02
-1.075636459129880249e-02
-1.998914909364834375e-03
7.827828096878836767e-03
1.071782380339923388e-02
4.691515313763567696e-05
-7.941878285834536033e-03
-2.829001565101350955e-03
1.202670208001073264e-03
3.511178964489926509e-03
5.155757493300815522e-03
-1.785805849326935776e-04
-4.941895027577926022e-03
-4.001049185620853335e-03
1.531366240643886913e-03
5.031955874453842084e-03
2.149399574609290459e-03
6.716188882370398208e-04
-1.642218089754450159e-03
-5.256584344413329363e-03
-2.131451600347324289e-03
2.399716904706972621e-03
1.033076172685627693e-03
-2.747601458683256431e-03
-5.568267985651183943e-04
3.794065871692359031e-03
3.000261869863479584e-03
5.173116188460648301e-03
5.855971608438828580e-03
-2.144699429040537383e-03
-6.851318093671134556e-03
-7.884307381442610257e-03
-5.418934553342994939e-03
4.780182212517037829e-03
9.337146273735250773e-03
5.041946863044178065e-03
1.726285814319778638e-03
-8.171516125013614891e-04
-3.908338743446536888e-03
-6.876127613881734615e-03
-8.142176957048358199e-03
-5.285430798828441579e-03
-3.624658257714865727e-03
-6.854104012520328276e-03
-4.518910619630895319e-03
4.050839686630500376e-03
3.188725151960307511e-03
-4.438545751437576346e-04
5.312115651636042934e-03
8.926975543989331199e-03
7.562321794897114598e-03
1.806102007954835760e-03
-6.505387907508657259e-03
1.083600713935994626e-03
1.275618224262139132e-02
6.076075620667125560e-03
-2.305176254208798035e-03
-2.130995519513913337e-03
-2.037107183912226834e-03
-2.748100113218804406e-03
-2.040454254748760420e-03
8.393414287396728461e-04
4.603540950301703363e-03
7.264764258055503993e-03
5.151223342657076237e-03
-6.954559609533862968e-05
-3.890257423995294433e-03
-6.345094705239267933e-03
-2.437975666320179365e-03
1.159884742480972886e-03
2.074106204982954533e-05
2.900941126888659499e-03
3.553153825271117370e-03
1.079966404923258898e-02
1.016729307527629994e-02
-2.974716372961076077e-02
-4.382580274614012589e-02
-7.354656707056586237e-03
2.347725594660940440e-03
-4.955516006548666211e-03
4.078052568392618107e-03
4.819306089215774289e-03
4.583889162443625237e-03
9.063836429666386266e-03
8.388756001422139133e-03
7.443694845454616738e-03
3.307882542954104690e-03
2.172566294658824157e-03
5.437591739583843252e-03
2.444897436124565410e-03
1.007078478528177813e-03
1.513310792275250529e-03
-1.073157740316100237e-03
1.300809381919344667e-03
5.816162481617337746e-03
6.408921657016366374e-03
3.986475233653109622e-03
-1.828095199287144796e-03
-6.794442655191615735e-03
-7.313858026769735204e-03
-4.548464163434534462e-03
-6.100905126254819750e-04
-7.603346651856235849e-04
-4.987010888787399635e-03
-4.906630899404577223e-03
-1.090099941127421410e-03
-1.693692069906077569e-03
-2.075209203213119677e-03
1.344161198876859392e-03
1.361297330396746014e-03
-2.455475101927992888e-04
-3.135449076928339789e-03
-6.061713231140986383e-03
1.129036823531138611e-03
1.033175854358877113e-02
1.015654184633870728e-02
4.192334313166574088e-03
-1.072562705656219650e-03
-7.895562270215224178e-04
-2.500754702291002260e-03
-4.646354692271390495e-03
1.019441160239415323e-03
1.672919054695702753e-03
2.979326820898204903e-04
6.180384963043927295e-03
8.101363117195262489e-03
5.728936024406752238e-03
1.332077798801489018e-03
-2.494970741327298593e-03
-3.510887593562187110e-03
-1.308913912602019912e-02
-1.917802020158559939e-02
-7.826216708678923259e-03
2.944631639743221577e-03
7.178433923066463232e-03
8.845412349048160580e-03
5.286679029936153240e-03
6.209156969749381454e-04
-3.355674033708770914e-03
-4.253060003477078348e-03
-1.859055088322810302e-03
-2.609496732444935210e-03
-1.508873932957137095e-03
2.806480948547756052e-03
1.592116515347294977e-03
6.810625860300325175e-04
2.211088337369352015e-03
-1.302783064250284629e-03
-3.449703746113959822e-03
-1.191800581815977145e-03
8.035972081072274929e-04
2.098675344628116776e-03
2.528656332606158330e-04
7.381893134454382138e-04
7.571839701105397176e-03
9.750234692663280883e-03
5.686140553374246717e-03
1.949922698502552657e-03
-3.263015904451464430e-03
-9.124860696622995662e-03
-1.015617691256693288e-02
-6.519254849469637361e-03
-3.210629038311952569e-03
-1.971325142813803652e-03
5.283686630308837570e-04
4.664607696134707472e-03
6.801738938185888234e-03
7.304792752059404391e-03
7.925182014461538971e-03
7.016831649473130941e-03
5.407274110572471426e-03
3.169032585422381157e-03
-2.470273642349109493e-03
-6.061476619331005421e-03
-3.466983130631471222e-03
-1.471202144320716198e-03
-1.828746556109767845e-03
-3.227527307523671892e-03
-6.684353802907870047e-03
-7.168778423653065536e-03
-3.940677562130517550e-03
-7.173799060810713687e-04
9.665976317364550607e-04
-2.885051479827643352e-03
-3.695782023055582937e-03
4.403091199786977362e-03
4.524051036798207130e-03
-2.055076627486719567e-03
-1.589303860928503644e-03
1.703164725828070348e-04
9.816566009257985097e-04
-9.132801335608442799e-04
-6.447568418631802710e-03
-1.859077393093111442e-03
8.625403441023282367e-03
9.359791168656634783e-03
4.618240822613349852e-03
1.324449652003325574e-03
-6.273272792081706958e-04
-8.962609178765335288e-04
1.064646554793192897e-04
-2.150793098299874498e-04
-2.269814268708803245e-03
-1.807573863985058012e-03
1.614290147002381184e-03
4.206449224146402086e-03
4.089175333998074438e-03
2.264062344832993602e-03
7.020788884291202792e-04
-1.018346992123001860e-03
-1.897477146598795881e-03
-1.221897141258555634e-03
-1.455742216079963921e-03
-6.526032514291426690e-04
4.314485922786122536e-03
9.078767858399137969e-03
4.822239628504229429e-03
-3.839692800308277133e-03
-6.151333820209981679e-03
-8.091209528442167009e-03
-1.128265021067986242e-02
-8.026926742007204144e-03
-3.489705745169208520e-03
-2.705506749856765973e-03
-7.860676686165555616e-04
3.793867877547572182e-03
4.682001814233722851e-03
1.825386140549363403e-03
8.521632824823514949e-04
9.428151505017016553e-04
3.046139787320817707e-03
4.892534244071176062e-03
2.956721509532700583e-03
3.064073993760076022e-03
6.101009635511176789e-03
5.059274155655260272e-03
-4.694639359648297705e-03
-1.162824887520007289e-02
-8.187440457441677241e-03
-6.507119645418907999e-03
-3.024329073211115635e-03
3.461873822475959161e-03
4.230435320645557253e-03
4.391667898453597250e-03
1.480144906078953264e-03
7.900987703838323935e-04
5.279506310914863082e-03
2.486002273353280292e-03
3.577021287730503267e-04
2.637461434869395500e-03
2.204138388174881578e-03
-3.703934228435229372e-03
-1.031568492283621054e-02
-3.372544056721320238e-03
5.046556866954043062e-03
4.985451367792725214e-03
6.046040443729391693e-03
4.210976819291778472e-03
-7.722857992681190793e-05
-4.448517311002415583e-03
-3.809404194566956472e-03
1.701119357279201301e-03
2.543714312092883525e-03
3.721909845220899155e-03
6.769689412856783224e-04
2.628712118106159464e-04
4.850887066928480026e-03
2.498925406699155187e-03
1.027067727901161652e-02
-7.535897142112776143e-03
-4.791149579527149982e-02
-2.565077015883838671e-02
9.332748872585214239e-03
2.211774103899433880e-03
6.332273694947676904e-03
1.520291919121980438e-02
1.177844017233676752e-02
9.157509732766530922e-03
4.319542668236721165e-03
-1.321615438915277546e-03
-6.024578105760510643e-03
-2.561012255191321297e-03
6.565427938898454408e-04
-2.860077954569719642e-03
2.396665472043199314e-03
5.878479562946539901e-03
2.850609667252694979e-03
2.920071479096426805e-03
1.295730671239160104e-03
1.106716828551745869e-03
7.400744149197889185e-04
-2.990889258839647680e-03
-2.672115038268520378e-03
8.630120462457843526e-04
4.875808946598048782e-03
8.187701850951382629e-03
4.814231648149252564e-03
-5.614935184045700273e-03
-1.240408873512786024e-02
-1.174312553093374671e-02
-9.598257030214701196e-03
-6.476642380136437421e-03
-3.603677017760762054e-03
-2.272440723252026982e-03
2.995080248710460654e-04
4.817839679133966921e-03
9.153955355886009976e-03
1.087707646410102785e-02
9.504402916661184794e-03
1.959535105339353656e-03
-4.384196201308354461e-03
-3.102719804868513294e-03
-5.999873774886903960e-03
-4.951875323824624781e-03
6.371146296771125310e-03
1.004292185086805983e-02
5.959058581112043618e-03
-6.205332382280836796e-06
-4.472161500532168335e-03
-4.889040056546692554e-03
-6.862645179589053381e-03
-5.396298365929337940e-03
-7.703392610830495871e-04
-8.024279786425848101e-04
-1.443023825737153876e-03
3.270342595706177830e-03
8.869252700348112181e-03
6.168834407072646200e-03
4.449215203728412033e-03
5.802499190669228694e-03
9.821233927102233918e-04
-3.116932663286164267e-04
-4.474885896170999883e-03
-1.119995409828511077e-02
-3.753185681529636140e-03
2.646265333784523100e-03
3.473579038448242930e-03
4.313237656946869447e-03
-3.500209018109850644e-03
-9.598796649195429770e-03
-7.540257046410608725e-03
-2.800925221829637241e-03
8.220253011116515542e-04
-1.136802237071540909e-03
-2.281448458701839689e-03
-8.242415403636298979e-04
7.939642547660072033e-04
4.121845037329071107e-03
5.032454069558565078e-03
3.456695586778078030e-03
-6.672804060322125395e-04
-6.718332923858570845e-03
-6.797028078837174733e-03
-5.283229141269678211e-04
5.354339180283325221e-03
7.929309918301078244e-03
8.465021429055571978e-03
5.324550041130844333e-03
5.971173367226905110e-04
7.146191746149788311e-04
6.351089115307291576e-04
-4.811586487072582971e-04
-1.532900948798895263e-04
-2.660307919756971749e-03
-1.288932839978256884e-03
1.509772142544088883e-03
-2.422008716680936619e-03
-2.189147819427354758e-03
3.051412994127528002e-03
3.946868368045506476e-03
5.660985675847748748e-04
-2.240584248781940686e-03
-2.480802517757543487e-04
1.519626964334190459e-03
1.281664830106829479e-03
1.647646422731039850e-03
4.075659922084449950e-04
1.034593735001498567e-03
-9.045091903017366724e-04
-7.541569588650223754e-03
-5.859632980995061260e-03
-8.937087491982123686e-04
-7.874333510899027364e-04
1.062189949183526107e-03
3.439322704479331073e-03
1.666013084420236903e-03
-8.346895437712027657e-04
1.158209998803067919e-03
9.981787436874201957e-04
-6.925228182373759610e-03
-1.032573564692183636e-02
-8.719241094885671339e-03
-1.122600928034980620e-02
-8.206404721813108025e-03
3.032345109076105879e-03
8.264216094410074820e-03
6.460349496618886418e-03
7.195328331456641614e-03
9.244055931931999606e-03
7.783536553745949021e-03
5.632058718565696211e-03
4.920783813762039278e-03
6.061147472170244112e-03
8.345142942290023624e-03
6.025442400789326851e-03
3.606462532729913951e-04
-1.724449429545009231e-03
-4.412095759356700342e-03
-1.127609300289950794e-02
-1.587318302753360985e-02
-1.720757979636942936e-02
-1.756798637246552094e-02
-1.508820944719460599e-02
-9.634220785529314102e-03
-2.374782888984553701e-03
5.369091843309588274e-03
1.255988404368662062e-02
1.597830260998564511e-02
1.507385359928385335e-02
1.541190029286322247e-02
1.422546856406117603e-02
1.370845702849913909e-02
1.928483274911117068e-02
1.938867290705192925e-02
1.215359354158132739e-02
4.507957538974698142e-03
-2.119041763087416066e-03
-7.628302267706814181e-03
-1.487530421652087653e-02
-1.770826775427518374e-02
-2.121858226799581276e-02
-2.749382925707053241e-02
-2.265359342070745810e-02
-1.618133891670523947e-02
-3.776181986142079870e-03
1.055595608643643268e-02
1.115550421723425327e-02
2.608687340239264005e-02
2.246892122509696818e-02
