5.472835979955825367e-03
-5.792485254074389127e-03
-1.238355966857386525e-02
-1.890207826888462908e-02
-1.879699938220409303e-02
-1.245693683728280564e-02
-1.066097373212172156e-02
-4.845760426005518359e-03
1.633958982934865471e-03
6.517627930971179283e-03
1.545314035717530038e-02
1.816567921341902606e-02
1.548463504622781504e-02
1.681544188492304498e-02
2.160951610985356597e-02
1.939607068131003059e-02
7.314726594764706796e-03
2.564636926975144560e-03
4.417429461522511674e-03
1.878843812435563969e-03
-7.266751436686617969e-04
-4.656593513494736852e-03
-1.195838303305126957e-02
-1.612868166694084518e-02
-1.150113315660966119e-02
-4.136449913580378390e-03
5.065079206360084078e-04
3.846809939164095096e-03
8.703404915942564504e-04
1.025240069940662599e-03
5.641811564488095204e-03
-1.847449821357955531e-03
-8.021971584849465001e-03
-4.148021936317648414e-03
-1.921929043285614848e-03
-2.836922023449343563e-03
-3.592232379729649525e-03
1.489123661667573562e-03
4.575380575364622684e-03
3.668590591818782568e-03
7.786334108945249313e-03
5.279054161133547515e-03
-4.651442106740794578e-03
-1.124174979136771842e-02
-1.070564553413890993e-02
-4.233828711452463159e-03
-2.987593167304134281e-03
-2.244506544154745414e-03
5.352186241254931059e-04
-2.005573625528801578e-03
6.181506684597093881e-04
1.022568876665800978e-02
1.631213321359680640e-02
1.163849084740920664e-02
3.906805353692008147e-03
2.388728034444384529e-03
-6.517959022686641880e-03
-1.375617231227213230e-02
-7.072979309716195470e-03
-4.329787714749386285e-03
-2.672783630291135880e-03
1.688326818831171246e-03
5.992467432113997598e-04
-1.957775427255690603e-03
-4.403902293738960576e-03
-3.397497998093367694e-03
9.956991063549607088e-04
4.670416643619515473e-03
7.076785863398660226e-03
5.379610814741921446e-03
2.994267925475318885e-03
1.360729188585966696e-03
1.413145452420916685e-03
4.701675560497234341e-03
4.082868467211280862e-03
1.246562503329540694e-03
2.230793942530771325e-03
6.554314444048896064e-03
4.767191555518469383e-03
-4.800203518195795584e-03
-3.373221904043467289e-03
3.213563012161569071e-04
-7.720601264411697945e-03
-9.977705038515218700e-03
-5.960104552920540873e-03
1.839641835397784573e-04
7.921724679032708313e-03
4.858415430711367222e-03
-2.473726514151216270e-03
-6.003379050307594555e-03
-6.709840752747102399e-03
-3.907383171829372295e-03
-3.505625490337300337e-03
-3.840242481970891804e-03
-1.803738072049373238e-03
2.453654900760872349e-04
-4.414038366231879795e-04
-2.920386986609849016e-03
1.258917250583422741e-03
4.846733594669414176e-03
3.162607058955253445e-03
4.021454202941135078e-03
2.871669039469086724e-03
3.371285904537954427e-03
3.746479826280835895e-03
-4.823475232952832942e-04
2.914046753236726028e-03
4.167734297372428960e-03
4.454772968413656196e-04
2.362514544177059771e-04
-4.822565653777840904e-03
-2.128706645812110561e-03
3.320085865825428244e-03
-4.942611180723231051e-03
-6.183088418257705159e-03
-4.353141423795097581e-03
-6.169546168215571391e-03
3.313385098928198821e-03
8.660255289411807403e-03
5.207004158161483362e-03
5.027773030337720321e-03
2.161551577126004809e-03
-2.397451880269463320e-03
-3.703116745543793154e-03
-2.422402138456555398e-03
7.297853950841374365e-04
3.471119978508864588e-03
3.660408016371230738e-03
1.171771465970873486e-03
9.687840746780570188e-04
1.351567773459081637e-03
-2.094193981446973440e-03
-3.611383842690174279e-03
-2.305077052442537286e-03
-2.292635800081667917e-03
-3.512038959812648509e-03
-2.585341987463061954e-03
1.574042542356582060e-03
2.413361465813549777e-03
-4.315859461429940929e-04
-2.329425365336218294e-03
-3.210782739916807644e-03
-2.313460728548305274e-03
-1.419216269196991792e-03
-2.356697738989142928e-03
-2.085071235299493404e-03
7.479257040762071458e-04
9.518341933805683211e-04
-2.495609421405994496e-03
-3.178166626348912904e-03
-3.125273559423266852e-03
-1.924911446424104784e-03
3.426699766212942984e-03
6.700999755019655321e-03
9.690055675571464591e-03
8.854649471790723703e-03
-1.978681431458021583e-03
-9.872767283172221089e-03
-7.525588562955469289e-03
1.244474180132851531e-03
5.362671139618947758e-03
1.542429316927936478e-03
5.405005285033482113e-03
1.087297778061844730e-02
8.823269294896542853e-03
6.499952568602371597e-03
-6.877842934345360960e-04
-4.898282376921718126e-03
-2.158472360004555935e-03
-5.794871024405194061e-03
-6.497643892464669002e-03
-2.571274326271540296e-03
-4.608123697512669578e-03
-4.358211222284706990e-03
-1.796115350002750778e-03
-3.370657239641878383e-03
-4.215895472600108239e-03
-2.631365654673267513e-03
-5.984057180040922583e-04
3.028780378102156369e-03
4.816705770461000673e-03
-8.815433863470520468e-04
-5.204881250337127507e-03
-1.420171252810164316e-03
4.641014429695449633e-04
-1.850587203119206676e-04
2.218834001497788262e-03
3.991999459847664702e-03
3.845987644337339490e-03
4.559395924720080831e-03
5.220634445888675847e-03
1.394042793074889899e-03
-1.947408439728723784e-03
1.337712161133403077e-03
1.566827377021399797e-03
-2.596234853096617869e-03
-2.352225534328838876e-03
1.035031591051904093e-03
3.769480785422746772e-03
1.319426604963757320e-03
-2.993143105937380588e-03
-1.891852783590441955e-03
-3.791991789735410512e-03
-8.264462662883246755e-03
-6.500352691556312255e-03
-4.192526684448750519e-03
2.667874539727239230e-03
1.337625304979993268e-02
8.964366003342778833e-03
-1.090693539135055828e-03
-2.063898073916809513e-03
-4.386187897013568184e-03
-3.675629031849895687e-03
2.085531390840577627e-03
-1.092720570871793129e-03
-6.921305464174590250e-03
-7.502303801641492867e-03
-2.481312773668687549e-03
7.816768976996412571e-03
8.918091407083297145e-03
3.465269508838865128e-03
3.061761580768592589e-03
-3.896955244519773043e-04
-3.791862542542636912e-04
3.010377556594867696e-03
-4.038748639478655783e-03
-5.371659028095736657e-03
-1.015495629798763942e-04
-3.263087865106171180e-03
-2.383367334524699125e-03
1.130917522769791595e-03
-7.414429493288071139e-04
8.559861717018608322e-04
3.452956233282420372e-03
2.497439817360536194e-03
-5.819777200780793186e-04
-3.294592763764926571e-03
-2.048309721282974213e-03
1.510217582492001144e-03
5.040080289116873405e-03
4.059336324425378249e-03
7.728106653230239643e-04
6.231845103567631864e-04
-1.263501430635162936e-03
-1.912647822959131355e-03
-2.313319540757012669e-04
-2.951018873952697668e-04
1.240345898128821000e-03
3.646463089311673144e-04
-1.466207909923490042e-03
-8.451636219072933623e-04
-6.747743747273322813e-05
4.045997814455352080e-03
2.428191020367960039e-03
-3.586328180459402368e-03
-3.264538321733376474e-03
-6.183055248336560318e-03
-7.171118941912179093e-03
-1.306268981757434215e-03
-1.720427166688337679e-03
-3.724885866307877259e-03
-1.574524653216478626e-03
1.100399106790169758e-03
2.113533849710983337e-03
2.953638324807254518e-04
5.774415100427258713e-04
1.256176864550560173e-03
2.950848471699282338e-03
1.158866447262538353e-02
1.528286463886182819e-02
7.901914431542986575e-03
-2.558670379967526928e-03
-1.257358424495637859e-02
-1.309347952145090317e-02
-5.377643504398844400e-03
-2.196871497014507655e-03
4.436020300568761766e-04
2.649475765717354634e-03
1.252514769951162000e-03
5.382215141034711776e-03
1.014633318425874238e-02
9.359407778761734062e-03
1.346619477530965362e-03
-1.509302830067761440e-02
-1.550346843207529163e-02
2.326035915815381056e-04
2.176705252495129972e-03
-2.195236141189823979e-04
5.299938992060378856e-03
7.270424769675877009e-03
2.870079031333134644e-03
-5.570226635237954423e-03
-9.112147062553376670e-03
-1.652524138396184320e-03
7.340080953684091462e-03
6.751298894215927195e-03
-4.115143894580850078e-04
-2.856287244864592467e-03
-2.901825408144531864e-03
-1.178448658971149908e-03
3.243786438413761263e-03
8.053939466022127982e-04
-1.485574408721192880e-03
5.885193942596145603e-04
-1.927424028096546855e-03
-3.378038457170886091e-03
-1.574056883607533389e-03
-1.661249197715428724e-03
-1.628434791768077101e-03
5.805461095636237252e-04
1.841274685818333713e-03
-1.931808346780215357e-03
-7.556389384327957641e-03
-8.431909195135296395e-03
-1.145305981876986075e-03
2.633775329525483381e-03
-2.895844183089136582e-03
1.303149772084156131e-03
8.216645892433959916e-03
5.920298414267141478e-03
8.064313232300170456e-03
5.362865304657044897e-03
-1.967070971014619855e-03
1.964275754105850383e-03
6.071007510078373429e-03
5.825128489069232758e-03
3.378474884649586892e-03
-1.082513314777458447e-03
-1.865981234726269084e-03
-1.185223413215051374e-03
1.147812844933810209e-03
-2.800351531730563628e-04
-5.362035332460167274e-03
-7.246991433750070519e-04
2.678632156343853030e-03
-2.863578241247814564e-03
-8.143370864902537212e-03
-1.144585045234718795e-02
-5.006481784931601613e-03
3.454464590683697239e-03
6.201641515076336758e-04
-1.579486387827039534e-03
-2.015239998390534141e-03
-4.664429947939277739e-03
-2.783174874760600565e-03
3.916239139928752140e-04
1.637805306971495739e-03
1.237214301656555790e-03
2.093339359930487375e-03
4.667291439623550732e-03
3.218262900273730943e-03
5.813377851407965612e-03
6.793100802174889714e-03
-7.762769555415282435e-03
-1.439942583364952310e-02
-4.473422466728006405e-03
2.266842512966239613e-03
5.956593371249099649e-03
6.465015689262169213e-03
3.352542902176483715e-03
2.429080538394119779e-03
-2.968377194580144873e-03
-6.146172545428963373e-03
1.041979914281304914e-03
2.612923839115012352e-03
4.257512234694043685e-04
6.125023941123416450e-03
6.920931535077986217e-03
3.216950549837004156e-03
5.940988311587940690e-03
4.089255025271776832e-03
-2.247009176593137581e-03
-3.390087749086583956e-03
-5.135757567590053425e-03
-5.414476696799177050e-03
-3.186866960946867656e-03
-5.590880435448073761e-03
-5.104867469363769984e-03
-5.873060453918953249e-04
2.704723572439429865e-04
4.053492652784496282e-03
8.190131932649898083e-03
4.220057347214461324e-03
-6.792780607240131224e-04
-8.686993780279921029e-03
-1.716572185030680944e-02
-9.215924884406923034e-03
1.594278962607631380e-03
2.689444299805328602e-03
4.392842992549217396e-03
2.491911318393132471e-03
1.618826785562475605e-03
5.980497439672878383e-03
1.237664145899827891e-03
-5.332436991546597727e-03
-3.285175774528798723e-03
2.630311730383719845e-03
5.694236389676345100e-03
3.047836729184463626e-03
4.063279471491022810e-03
4.585951021087810754e-03
1.591275341299405689e-03
4.378143499801877975e-03
1.922805252448085093e-03
-2.441706456690407798e-03
-1.537778615088808290e-03
-8.603513759758176643e-03
-1.094087166769598662e-02
2.335986585091058142e-04
7.592326914491590896e-03
6.351484836005116819e-03
2.071213780638144972e-03
2.236992573353872122e-04
1.072699120259239291e-03
1.184295408439775684e-04
-3.643258330748631087e-03
-5.258905790246011340e-03
-2.509130358474808038e-03
-2.332327654756095620e-03
-1.740879401385584139e-03
2.322371227973161339e-03
3.283827409826102321e-03
3.213368805937994160e-03
5.051703179427798410e-04
-4.696155125613210406e-03
-4.930004458814074390e-03
-3.067291415895054274e-03
-5.464310536798148250e-04
2.063890471618497809e-03
1.913112208452300142e-03
1.417364469454244526e-03
4.316634561183682172e-04
1.238240550640481823e-04
-1.146450709735965558e-03
-7.450733278603549267e-03
-8.515824572393155406e-03
-6.214063434069201078e-04
8.777889009775039809e-04
-3.199699678179665063e-03
9.650161419731462025e-04
7.096409994018735949e-03
6.758106347766465634e-03
3.278388979713366992e-03
1.467812091055618537e-03
3.844398414677215915e-03
2.043378797317744588e-03
-5.121661877853337123e-04
5.388573938881943345e-03
6.455034634627221553e-03
3.570159920199754335e-03
3.547467052530063527e-03
-4.524632627139332439e-04
-1.382615367280543451e-03
-2.856025928949318068e-05
-2.238851237375234088e-03
-8.630425225237700832e-04
1.223608705575003099e-03
-2.896831273220794398e-03
-1.289449972917104149e-02
-1.589445933263600869e-02
-3.096764818464471224e-03
6.479113194547582791e-03
3.744922052537652535e-03
3.796205032287533194e-04
-3.103529934380430070e-03
-8.403565064112527780e-03
-8.263621476882324068e-03
-8.970127576399002361e-04
5.524654554901667521e-03
5.494509240174811314e-03
1.060871825101195390e-03
-2.693111105134584618e-04
4.544184441899711858e-03
5.038072367887285082e-03
-2.271089402363105569e-04
-1.865294555269331796e-03
-1.645933234753266120e-03
-1.645060613957921017e-03
1.193842462960359799e-03
4.993874876018660966e-03
6.801157825837728446e-03
6.249271697138097069e-03
2.331559311279220691e-03
-2.843327110464945011e-03
-4.061845587358618899e-03
-5.514227593636813335e-03
-5.499634042283854142e-03
2.522588262219917742e-03
5.019068115233448445e-03
2.085756790622901591e-03
4.606589811336142710e-03
1.657146799858219988e-03
-3.120050417226234978e-03
-2.046139327636154522e-03
-2.506390666242663736e-03
-1.968053253106498478e-04
-1.041089268746766845e-03
-8.126323076577492144e-03
-5.544631095950034762e-03
-2.098318628733835019e-03
-1.185992564136641343e-03
6.310710075931951456e-03
3.653314429984724863e-03
-2.266898753075473609e-04
8.127842139257169737e-03
3.186047338027955464e-03
-6.448926620301425466e-03
-4.371590566827096395e-03
-4.608079514783288214e-03
-7.199907505894523503e-04
2.460092738596756333e-03
-4.221079737392025022e-03
-3.303540061137915686e-03
2.176179732717552738e-03
4.492899712711178120e-03
3.974047147240092163e-03
-2.853893281831876988e-03
-7.678147569713184364e-03
-7.180190064820816606e-03
2.251952339948629837e-04
1.007353768053151355e-02
7.128572813628611220e-03
1.324401155644866577e-03
5.441531836229442781e-03
9.691040530326345062e-03
5.904862412153737659e-03
6.045908832751997362e-04
-3.490103464116951076e-03
-1.315654452195303553e-02
-1.206476587808163504e-02
1.700360531966376701e-03
3.076127364860698193e-03
1.297568108612229916e-03
2.153488482485916948e-03
5.507279735447059930e-04
4.183448138587062166e-03
-2.165508301034725375e-04
-7.130663837792232049e-03
-2.369581702085063208e-03
-9.802352116952610210e-04
-5.100066862992124698e-04
1.493064239996992875e-03
-2.772045603422664591e-03
-4.429177085888746923e-03
-2.943605522144174431e-03
-2.635018049020156246e-03
1.645263843483836703e-03
7.443390774755269737e-03
4.944311166978230566e-03
-7.220191947217765856e-06
1.880254451967269856e-03
1.302217066322398573e-03
5.177298231617428461e-04
2.556122592135457935e-03
-1.118861243891048436e-04
1.168251514770287085e-03
-3.193450846467848743e-04
-7.567398123578078679e-03
-4.516629834072385247e-03
-2.987186008926095288e-03
-4.672593095583333841e-03
1.368010028176948421e-03
5.216752987803744898e-03
4.747465653033588334e-03
2.234560974003789099e-03
1.194499358068948803e-04
2.057763947677124867e-04
-1.588775617427319944e-03
-9.658419524250656243e-04
1.492308079139084524e-03
2.336621980399463967e-03
3.109770333338318735e-03
1.407358368863237310e-03
-2.025798859651951715e-03
-3.919023466516596832e-03
-2.744492917629899002e-03
-4.760236840532469302e-03
-8.516966876501263009e-03
-3.318939568738193610e-03
9.658860179720388977e-04
2.980521034114758626e-03
7.834567436349481467e-03
4.423825638948518379e-03
2.973147845377702939e-03
7.033117818383005648e-03
2.375187601429609198e-03
-2.272086271305731337e-03
-1.755818292475139512e-03
-5.462146630195526160e-04
1.951521032899373662e-03
2.646409453173371399e-03
-4.140338992903285224e-05
-3.521369530287835666e-03
-1.258105072253073347e-03
2.911661490721213948e-03
-5.975915876626075596e-04
-2.065178418457185982e-03
7.082737663999028911e-04
-3.104237984042797476e-03
-5.109013806863110102e-03
-1.012637251538815210e-03
-1.606827858451164662e-03
-2.552500620677468270e-03
-1.744003054606000974e-03
-6.877117594547620637e-03
-7.460706464140695604e-03
-1.177183742936912560e-03
-9.964424733902337765e-05
2.409136986937149283e-03
6.277889058494508755e-03
8.093208946133443249e-04
-4.538198546580196266e-03
3.465601554650811727e-04
6.293735159282051045e-03
3.138987169713951860e-03
3.570301687874671186e-04
4.054357019972579766e-03
7.464589242966501509e-04
-3.305260932039625569e-03
4.352063406419735304e-03
1.014362825642975245e-02
8.649121183870712992e-03
5.620849302298258285e-03
1.047981936091060698e-03
-2.836448581392812893e-03
-7.225532521714644364e-03
-1.011028730169404727e-02
-6.287259335359810138e-03
-1.969529317808959516e-03
-4.424331640438998263e-04
1.795516351755370964e-03
3.545361566167924954e-03
2.354475390102495416e-03
-5.192755999329824474e-04
-8.482056832193361285e-04
-1.874105346361046222e-03
-6.069571221865371728e-03
-6.476689555430769837e-03
-3.557506259736869809e-03
4.161854577530635092e-05
4.590322684706921348e-04
-1.802845144188806046e-03
2.977175273656951573e-03
3.321078107384213812e-03
6.447046959694584549e-04
7.702026648815474275e-03
5.753820418857538699e-03
3.769648367757857596e-03
7.899940945735971567e-03
-2.623436756210573693e-04
-9.449847946128644982e-04
-1.627693407979491488e-03
-1.132932396461166884e-02
-4.218425357373719632e-03
3.917148603124259915e-04
-3.086518786460380986e-04
2.970582116316463663e-03
-8.024393423451651672e-03
-1.045088202757524232e-02
-6.897490098964403557e-04
9.891003746758625197e-04
4.840531401104061771e-03
4.177258735927072419e-03
-1.442188824312682846e-03
-1.505871896771713951e-03
-2.460642894991816199e-04
2.346607488230663917e-03
2.242201475957335266e-03
4.704299251797575306e-03
6.577972551991947449e-03
-5.306212356657302037e-03
-9.499004590299744977e-03
-1.735608460266873255e-03
-1.034257847706346323e-03
1.524764030817944835e-03
7.057549912546217177e-03
5.722702216494466101e-03
3.485237138890261675e-03
1.704952116744814150e-03
-1.145097547049296139e-03
-4.914459057907357873e-04
1.320717238618598194e-04
-1.809498411494577658e-03
-1.562696632529814254e-03
-5.597541365613615920e-04
-1.024467395949485264e-03
-1.922441382450856785e-03
3.101949115298488263e-05
3.732251252122284653e-03
1.436022865773387783e-03
9.702119993780294535e-04
3.480894525360293899e-03
-1.971899548368401516e-03
-2.617373919589709164e-03
1.400678652261727304e-03
-3.420246621754026353e-03
-6.888487381733622572e-03
-4.744272487343139701e-03
-3.535529254137653992e-03
-5.067637329870136251e-03
-2.006130793104555186e-03
7.357319504211846939e-03
6.431341903173296709e-03
-7.480112116496860902e-04
-4.189408718068951022e-03
-6.653924618047741754e-03
-2.110854167759568072e-03
1.899148254666623101e-03
2.843676089917499504e-03
6.004781790787771904e-03
6.414774073874990584e-04
-3.518778949849070675e-03
8.593314487684128007e-04
2.222092535499027230e-03
1.859680985687340833e-03
-4.228031854338503738e-06
2.607565013008452445e-04
4.286589177658080459e-03
2.695770943728024224e-03
-9.936221645725777825e-04
-2.066576798354596931e-03
-4.358018626361311303e-04
1.823085773914285418e-03
5.170722494142860302e-04
2.312164644315050331e-03
4.650547145141568570e-03
-6.172905285480763393e-04
-3.803535774372565886e-03
5.257961929606067269e-04
3.400007186849420514e-03
5.543603304372533500e-04
-2.379531615611621843e-05
1.532483691975147604e-03
-2.888893001197437999e-03
-4.625962083284454809e-03
-2.447749006227557898e-03
-5.219739825562201216e-03
-2.920481460126345390e-03
1.780078032215152897e-03
-4.309489249987234587e-03
-7.860995742991351565e-03
-1.012091136792311321e-03
2.410308228426026253e-03
4.334869890208908633e-04
2.544586676736826456e-03
3.874817507428263055e-03
-2.177352361208037025e-03
-2.612492183970944494e-03
5.057596328781826557e-03
6.491124191613184546e-03
2.228767604113833165e-03
-9.430184018479054317e-04
3.105141234537049568e-04
3.265691437589182591e-03
1.550078851625572235e-03
4.668408783075181281e-04
-1.354810151633542006e-04
-3.023775454290033790e-03
-4.412990081871613970e-03
-5.670646316645034518e-03
4.477040783402688371e-04
8.090939228367059755e-03
3.294378786486532734e-03
-2.338470529273289412e-04
-1.422410768771940892e-03
-4.887178864695532025e-03
-1.121872416411845213e-03
8.435564727002012190e-04
-9.983952426301103235e-05
2.022612766708683542e-03
-8.197457256275963999e-04
-1.920375912172605885e-03
2.235083502157999332e-03
-4.868926514557155982e-04
-7.125849788871482966e-03
-4.944914520834996566e-03
3.656485825704934665e-03
4.343542223141629889e-03
-1.214603757699363401e-03
-8.875844744140234379e-04
4.429074277578499540e-04
-2.912409882050617359e-04
3.138431495273599162e-03
4.821685603490943016e-03
4.280155344335415113e-03
4.397455761905872361e-03
-2.648878962975141377e-03
-4.109332301835437982e-03
4.188220394177338650e-03
8.651123421332134909e-04
-2.965585206266410385e-03
7.532818472631364537e-04
-1.433365122692959771e-03
-1.664349045367293336e-03
-2.986420431456992142e-03
-6.213669131858601084e-03
-1.026649617771889554e-03
-1.477104270240976432e-03
-4.479536011641518586e-03
3.889461813802675620e-04
1.240539702239426036e-03
7.189459688359775037e-04
3.304452529550283655e-03
3.734543202417941240e-03
1.954663596839076138e-03
-2.147176654513926336e-03
-3.484021869782866730e-03
1.405717864287713134e-03
5.950554019503547475e-03
6.546108994641346851e-03
5.531690739661412545e-03
2.013061211776470075e-03
-3.904753109675899829e-03
-4.186897221674672730e-03
-1.993623226560976066e-05
-1.203504645496118785e-03
-6.589617911443546375e-03
-1.121466840973388626e-02
-1.254134389102937522e-02
-7.507036978997374405e-03
2.424367040550506718e-03
7.375649024325306273e-03
4.358091018256612069e-03
3.725428867652878177e-03
2.590519339367306721e-03
-2.487030458782562604e-03
-2.241945552947735738e-03
-4.192685094209347278e-04
2.619576454573184412e-03
8.754307658532710368e-03
7.909773502749765581e-03
4.113158025101018925e-03
2.230022495437203756e-03
1.302272890629456188e-03
4.363469582290201328e-03
4.716575374955790136e-03
1.604530581888966977e-03
-9.149961666474696470e-04
-4.149689876455241525e-03
-2.129261985934363145e-03
4.282272196598128564e-03
7.577591179314275074e-03
4.552898404334078906e-03
-1.713366394954938133e-03
5.705131135430815980e-05
3.279082568493642789e-03
-5.962315459236842280e-03
-1.857431822569398372e-02
-2.453410370516895950e-02
-2.365970141263408488e-02
-1.871403751011108813e-02
-1.009130258656310355e-02
7.010629427810439844e-03
2.482305393629390469e-02
2.908456461296015857e-02
1.790978041177186328e-02
1.657210502605535206e-03
-3.689076505877196370e-03
-1.435374305116306681e-03
-6.404607283977944987e-03
-8.522557319612395627e-03
-8.274445870693297690e-04
-1.179385689674293991e-04
-5.922261454062051692e-03
-7.107844027644764397e-03
-7.018998684715618656e-03
-2.212075408944270787e-03
9.764425989386642246e-03
1.657716167010058611e-02
1.368619291112443959e-02
8.679691581058532682e-03
7.391286542753843988e-03
5.442569408562640716e-03
1.105343995590859271e-03
-1.244649830825686910e-03
-7.017849868387242805e-03
-9.333718877086442933e-03
-1.693922887882354494e-03
-9.832042256303593405e-04
-2.594829683783321517e-03
1.104353633165903363e-03
-5.234479577214892635e-04
1.146681128969357418e-03
6.205684122914290231e-03
5.511629366642308188e-03
6.507460809114428736e-03
6.886364418535994777e-03
6.152519042743290201e-03
9.343113677956428956e-03
1.221509095879276877e-02
1.196972118441540049e-02
2.807797236822080506e-03
-7.013076810560456460e-03
-5.672694523061052631e-03
-7.449284935874202380e-03
-1.135513307361335489e-02
-1.001683670097276713e-02
-1.560575085175315221e-02
-1.807553970747773769e-02
-8.542516652117934303e-03
-2.365510465502352298e-03
4.388584876483651344e-04
7.206388530565731310e-03
1.663279842463072714e-02
2.476609645191069423e-02
2.876013723238304148e-02
2.930308859083281814e-02
2.498939145965391878e-02
1.846243308920456419e-02
6.892339603829628590e-03
-1.031136313832346253e-02
-1.759914617377721091e-02
-2.664094170755718430e-02
-4.910657189004975776e-02
-6.049428629068053648e-02
-5.998874446862249854e-02
-5.977181876057249127e-02
-5.354236036036835733e-02
-4.291518747571154008e-02
-3.006189317611804995e-02
-1.380814800416254630e-02
7.607831782197430103e-04
1.736583167672465719e-02
3.958626992208465895e-02
4.955334671442222089e-02
4.158701833879029780e-02
3.775483898420353007e-02
3.604328580629832801e-02
2.262226102372805192e-02
9.437907842702339054e-03
2.016546283397817503e-03
-7.308695138372785054e-03
-2.161971944007261628e-02
-3.527459855434435937e-02
-3.505007740700209068e-02
-2.087463870404928853e-02
-6.497627280163006253e-03
2.699710833037426063e-03
1.316913516537474536e-02
3.396389242412254511e-02
6.965095612271895997e-02
9.805264514523220898e-02
9.143882255987777208e-02
7.017786706160562826e-02
5.487249861603035739e-02
4.500898673129034161e-02
4.884614076974524294e-02
4.747064785939703740e-02
3.287259329319573709e-02
1.834633426870697567e-02
1.262936771472601173e-04
-5.705783356200248846e-03
-9.849167326923086510e-03
-2.353282866096043785e-02
-9.797343997297062665e-03
8.960876741744342594e-03
7.381052171157378994e-03
6.236125337380613379e-03
1.290351528643155204e-03
-1.352922712790886536e-02
-8.202210810047338985e-02
-2.085893868774719162e-01
-3.016672894844048547e-01
-3.462358907126426577e-01
-3.574556416415101689e-01
-3.280879479431244028e-01
-2.638600962533240724e-01
-1.242402883873702096e-01
2.696047833830120949e-02
1.186571012336826159e-01
2.286488084363380857e-01
2.870057897092077592e-01
2.640482565324562825e-01
3.044193694938718275e-01
2.940000650557820783e-01
1.540959415679431233e-01
5.835306747512484377e-02
3.054574606559346678e-02
4.668850426978757989e-02
7.043496622410355679e-02
3.421686397139862834e-02
6.897563731038566792e-02
1.856123903460091540e-01
1.930095341219273675e-01
1.091562688625917349e-01
6.603430465194838617e-02
6.282422710079706152e-02
1.234688225291123882e-02
-9.569467103587953050e-02
-1.715168865308409618e-01
-1.874864592506234606e-01
-1.936822292810396473e-01
-2.199813356021409760e-01
-2.269796029913227209e-01
-1.801880493770544600e-01
-1.087580541707244969e-01
-1.675721978700372983e-02
4.786805951562710798e-02
2.391610648670628586e-02
-1.745193906310524984e-02
-1.591299209898001943e-02
3.807610957897274162e-02
1.113153482109841830e-01
1.116106419307813097e-01
6.884000156738448450e-02
5.708249809179147261e-02
4.210851660552623887e-02
-1.026129548377748869e-02
-8.522386280835957117e-02
-1.462856056003689620e-01
-1.540464098400592952e-01
-1.004934348172135394e-01
-7.059990267487936677e-02
-1.011621071983118958e-01
-3.076632046500656428e-02
1.461819329216668684e-01
2.066943147991033569e-01
1.261904022619912413e-01
3.602457262513068109e-02
-5.870489791318444367e-03
-6.329004911667956458e-03
-4.797189583430169399e-04
6.091109981933460690e-03
2.383808795191855526e-02
5.274430947069752573e-02
8.259759388307132133e-02
8.405163341557601864e-02
6.471175893967395787e-02
5.050278245777069935e-02
3.974486038141006317e-02
3.348096806659766472e-02
2.804277914455478513e-02
1.574140215090201814e-02
4.971784511856097363e-05
-1.758191569645592076e-02
-3.447698599809554537e-02
-4.844972992511449583e-02
-5.967032111409016626e-02
-6.410694002696404326e-02
-6.863356823178427824e-02
-8.026155461632239474e-02
-8.099926795805813262e-02
-6.281545393831097779e-02
-4.137162246778347541e-02
-2.194889032074748281e-02
-5.525731657391681761e-03
1.315781581149393260e-02
3.931874288483058061e-02
5.532879753781713011e-02
5.321795190314223406e-02
4.054187169282751080e-02
2.297125337822749150e-02
5.908579422388436468e-03
-3.533368207692139367e-03
-4.715586080689370893e-03
-2.383348062450511146e-02
-4.119662686809651836e-02
-5.825553213355813727e-03
2.723712234290311812e-02
8.426937570969959476e-03
-1.058916170379046659e-02
-6.943277285135360070e-03
3.494897583078283854e-03
8.807879142124915364e-03
3.730943667288986673e-03
3.126501021246131003e-03
6.291958728950945885e-03
7.406381303481406747e-03
1.405285000284480466e-02
1.850596726674591866e-02
1.637626923555318692e-02
1.445225409188014530e-02
1.081244299865580932e-02
7.660547605502641272e-03
4.290858780560421679e-03
-1.107813908522404904e-02
-2.567324741001401900e-02
-2.611725203772024412e-02
-2.629004677573655580e-02
-2.156011310988160262e-02
-1.666361338384164323e-02
-2.069701534866267081e-02
-1.006234184514308728e-03
2.999136579477713893e-02
2.938134368897793794e-02
1.041510048069425876e-02
-3.554256172501806671e-03
-2.863884079408843351e-03
2.935238754458717458e-03
1.000658625624832295e-03
3.851671135159379870e-03
4.726255533068460420e-03
5.050156796233840886e-04
2.173463701734936263e-03
-9.556132269322933914e-04
6.168154286718022065e-04
7.295782239921459224e-03
-2.474863689250751632e-04
-4.917588114696496739e-03
-9.587063763489569145e-04
-1.247081404640106072e-03
-8.673394111756611846e-03
-1.991040089205551103e-02
-1.336468927071233527e-02
-2.930600564766881484e-03
-1.242882776416342691e-02
-1.219939224611779442e-02
-1.448571998530773100e-03
8.785303721943981108e-04
5.586670732998618577e-03
6.873498892533289051e-03
6.937606991515282012e-03
1.246053533766540780e-02
1.087610592555735868e-02
1.081524063929222186e-02
1.489577722446760316e-02
1.522518182965865684e-02
1.810730130124361612e-02
1.605054470765761646e-02
6.446415581660160619e-03
-5.147536516614035704e-03
-2.028112596390741970e-02
-2.222048111139681911e-02
-3.911079087796763380e-03
1.167075207508467584e-02
1.054035820183675184e-02
-7.791121224407187955e-06
-7.887675456283910203e-03
-9.818317785463078276e-03
-8.187827979117998436e-03
-6.936859838328439734e-03
-7.882875484872172919e-03
-7.036896199023694176e-03
-7.547870542957592875e-03
-1.059428666825103747e-02
-8.645013316527606212e-03
-2.648757051194065328e-03
2.586407429582595393e-03
3.498416978767068114e-03
3.131539876460758594e-03
5.521203632515955112e-03
4.399229091825301863e-03
5.244326259007752421e-03
9.252375219323353064e-03
5.202918362064121692e-03
1.140303338901551633e-03
-1.658031715121782886e-03
-4.799746149035520604e-03
3.349087226230331067e-03
1.007926212949959710e-02
6.494729446697366897e-03
5.305794357594910242e-03
4.145406083185937222e-03
-4.636107297834836860e-04
-4.416330104969196091e-03
-5.630177846772027594e-03
-2.631730136358450232e-03
-5.899196578134926431e-04
-2.350978232670557829e-03
-2.377783180159584366e-03
1.027383256994230786e-03
3.512206540712114761e-03
4.154018811260162120e-03
3.615515341513251407e-03
-2.387324305250461322e-03
-8.069445285810007348e-03
-1.992981310491280262e-03
7.455586578971649427e-03
6.773384716880533583e-03
-1.620660462375605906e-04
-2.278170649375849035e-03
1.488962933593843000e-03
3.290121628770407720e-03
3.582104696501411251e-04
-4.680950822514309828e-03
-7.307758651738265922e-03
-3.978683762252970164e-03
6.338727695188026883e-04
7.270164813079837366e-04
-3.782531739410302952e-03
-6.112699894336006377e-03
-1.206490180264455439e-03
1.332580370270693973e-03
-3.255235365399252075e-03
-6.949312053933947610e-03
-5.753803069951024182e-03
-3.489143978406041295e-04
2.836731010110516479e-04
-4.148685091011694755e-03
8.112998160265449737e-04
8.326330348155969174e-03
8.445319782280084203e-03
8.420155843909206753e-03
7.775723414667266679e-03
3.971765096059269411e-03
-1.935969575516593858e-03
-4.915522967018842032e-03
-2.557293682377276625e-03
-3.195910492606145702e-03
-2.095840573584724278e-03
7.082674260634082416e-04
-2.312127577725787975e-03
7.607943521774228248e-04
7.437060976088951531e-03
9.498878571505988896e-03
1.016711821270937718e-02
3.824196501047110244e-03
-2.998411724179034753e-03
-1.518009889623517716e-03
2.069536626230103656e-03
8.792640455590701237e-04
-2.146817967412056362e-03
-2.590734941475107429e-04
-6.767252547394975344e-03
-1.189087836442622587e-02
3.667091603038560854e-03
7.507798549046537824e-03
-6.171265009461362029e-06
1.218977874022621633e-03
-9.002782493929955068e-03
-1.118569791436679201e-02
4.217202234639532386e-03
5.132508374563254580e-03
2.090442789901899613e-03
3.630882320350479857e-03
1.153150061251396888e-03
3.837108316231980371e-04
-4.883590048762697158e-03
-1.143192407013736249e-02
-1.240973068380755474e-02
-1.428307617785800829e-02
-1.016738876475272932e-02
-2.683560419610661087e-03
-1.052123956960733606e-03
2.891487631419791763e-03
4.897302887398804691e-03
2.134943090315038691e-03
7.207521138901797769e-03
1.258804837009607110e-02
1.000280672492294236e-02
6.773270544104125976e-03
1.829635616746934802e-03
-2.588922340440916029e-04
5.504154087481814145e-03
7.212557340084133246e-03
3.693583937274262825e-03
8.618636168278299547e-04
-1.715265539801390324e-03
1.732998882059204240e-03
7.779245476419325601e-03
9.850322377026874895e-03
1.315394446058545941e-02
1.166775555355495896e-02
4.763547738589932190e-03
1.382300557450317179e-03
-6.748264027679874363e-03
-1.314425315393504684e-02
-8.381852368002052842e-03
-1.071150910781427587e-02
-1.662706323761601809e-02
-1.131941209446950432e-02
-7.309928287230181738e-03
-1.060378425059100085e-02
-1.068182019826999750e-02
-5.116051414815685205e-03
-3.174115916937061358e-03
-5.360623103389220052e-03
-4.966046000496194233e-03
-3.610532525930308916e-03
-5.489283336702058995e-04
8.520783179043097929e-04
-8.783893363645983200e-04
3.103625600779655238e-03
8.795895097536110888e-03
1.483109602927306682e-02
1.862447583355877553e-02
6.648672742086172462e-03
-7.316043783599747961e-03
-5.877195118727354325e-03
7.404950418242009806e-04
1.327735056454262732e-03
4.673814036304414104e-04
6.780299619090550574e-03
1.296714768751500678e-02
1.455090097136988413e-02
1.546698771971288106e-02
9.325596490821276216e-03
2.701730458489346159e-03
3.510966578639290910e-03
-1.731088825371400117e-03
-1.192663975181588142e-02
-1.102615856443628015e-02
-4.514774139783141703e-03
-5.211011334046418766e-03
-6.007433329440791010e-03
-5.315426600774494220e-03
-1.123100765289306024e-02
-1.445358542593959926e-02
-8.099464834787272957e-03
1.848464741425771872e-03
5.287419197328916028e-03
-5.360856742740637221e-04
1.491748550522882261e-03
8.606147167097415521e-03
5.618696022986902593e-03
3.621724090279134205e-03
-7.330825460978437295e-04
-1.395508947559480177e-02
-1.255427627957182539e-02
1.171717955706070777e-03
3.036504459519841648e-03
2.632817427910570662e-03
7.460158165207647629e-03
3.991889149547650506e-03
-8.104902877755055472e-04
-4.036628755506774767e-03
-1.060041110185663306e-02
-7.506552059207491877e-03
-2.955149296313829715e-04
3.672930546545842036e-03
7.960674327762221059e-03
6.141782218967098937e-03
7.450247227204902581e-03
9.139664512366973970e-03
1.685988860671888386e-03
-9.598773106857864902e-04
-2.042572235879861094e-03
-2.313943330744729944e-03
3.052799057704479353e-03
3.221468865570364850e-03
2.525884380581449110e-03
4.429725500459360393e-03
4.187453748320349965e-03
1.598932415454942975e-03
-4.675164263850519007e-04
1.542806794323647304e-03
4.285125704715871033e-04
3.702402353874448119e-04
-1.711005871439893371e-04
-8.951992291437439048e-03
-6.837840496456514330e-03
-2.680372294249423314e-03
-6.323426504379467926e-03
-4.887301915784577873e-04
3.405524757342742823e-04
-2.407446693099625154e-03
-1.306434572397294799e-04
-8.481444022528299848e-03
-1.256422415561622187e-02
-6.746400237447852666e-03
-4.047791936950424600e-03
-3.794670919544089623e-04
1.412278469096944983e-03
2.653897591434195135e-03
8.889833850598816839e-03
1.403108562160840407e-02
1.200140231084569770e-02
5.700198908617554530e-03
2.969646220417163085e-03
8.771619003721566055e-04
-2.370811975294074246e-03
-6.628250635308131217e-03
-1.302417998707046040e-02
-9.625858871511136852e-03
-1.061451399052466132e-03
1.633571903413144209e-05
1.062853833441563915e-03
3.862599146186028974e-03
6.477601085746029566e-03
1.120960507144063562e-02
1.850921509402914111e-02
2.134792636328534943e-02
7.743652174969428009e-03
-1.125932799857243261e-02
-1.905689859306057901e-02
-1.596272446675522233e-02
-7.463972478330201978e-03
-6.234926262066309635e-03
-8.493206751120458906e-03
-1.366599281142145614e-03
3.088584336391091752e-03
1.884675314953514376e-03
4.969155047340609137e-03
5.726253338947154790e-03
1.631307168992046511e-03
-1.568517768800069571e-03
6.271707256393314195e-04
5.509728596307999701e-03
-1.618468032426449406e-03
-9.638064813302621436e-03
-7.333648162058969446e-04
2.922053036003686554e-03
-3.104363019381006089e-03
-1.089821760156291144e-03
1.850135018113808778e-03
4.519093008580557340e-03
4.478857796486519251e-03
-3.293939034332373818e-03
-3.623904523731230534e-03
-2.016575681528517212e-05
-7.132542470289272331e-04
2.004869059567134480e-03
3.407725736988670082e-03
9.253964641826144255e-04
-5.444572874869219449e-05
1.482100302747885005e-03
1.967923603443789624e-03
-1.517469770211512213e-03
-2.964367256635478363e-03
-2.185428195878815882e-03
-1.705479024479731806e-03
-3.480990914803041149e-04
-1.094136690689897964e-03
1.261768704715144880e-03
5.965312933342623199e-03
3.861434847928958344e-03
1.083539588886371858e-03
1.993332519460792526e-03
1.989966856737625418e-03
-4.001390993907864933e-04
-3.909823580325140144e-03
-5.962136753923909238e-03
-4.834003151053397999e-03
1.217375307956250919e-03
4.666238780876197541e-03
-1.799639470651741117e-03
-6.200988848860283439e-03
-1.708136928390191402e-03
2.659558462248195684e-03
2.575092336160022741e-03
2.204709169560239990e-03
2.438925284371143594e-03
-1.342938624227106971e-03
-4.000513508488080447e-03
-1.149528859186638207e-03
-5.260770034302352741e-04
-1.871747024994484991e-03
-3.364308631774148503e-03
-4.551708341835352355e-03
-5.888189128171424699e-04
1.809912528860091029e-03
9.769679131683172476e-04
8.723051470999862488e-04
-3.377764730350552285e-03
-1.713839639139328906e-03
8.519721139247119976e-03
9.037408582867188789e-03
2.751064860536540577e-03
3.089785996159217455e-03
5.915334182778230442e-03
4.220844921715916770e-03
4.001838250034466839e-03
5.258664945788860123e-03
-4.149420961395916020e-03
-1.174779266433102244e-02
-5.652351938257678919e-03
-4.524964070947178930e-03
-7.588038364232193092e-03
-2.591873716141070670e-03
6.284146000705496645e-04
-2.967186077360439798e-03
-4.576821046457956420e-03
3.095420112667876967e-03
1.156747332433773201e-02
8.330828670178635001e-03
-1.557926280391419343e-03
-8.835622670165306503e-03
-6.310376439895742581e-03
1.003967776000701554e-03
-2.242046674281949429e-03
-4.635530335741501994e-03
3.200352406847640271e-03
4.374163210121260158e-03
1.182837034041082404e-03
3.477212613511358828e-03
5.620097199387923820e-03
6.447538160666120219e-03
3.153535023847582608e-03
-3.289355696870274043e-03
-2.791305253805426330e-03
-2.360380487157129608e-04
-5.624121647864474896e-04
3.082067481689624786e-03
5.076019178407788733e-03
7.148407080381995833e-04
-7.446773831983415602e-04
4.369228366015541617e-04
-2.815107376975541347e-03
-7.213456443357788885e-03
-6.139390813757136106e-03
-1.015763890992384079e-03
-3.970850062900873039e-04
-3.601523394171793867e-03
8.994312361263432113e-04
6.743055455017706208e-03
9.504802653192471161e-04
-4.437001206489809939e-03
-3.043367643447369118e-03
-3.049794635370893688e-03
-1.957080545203906258e-03
-1.573660559002832901e-03
-1.589310252773885402e-03
3.173469185871133965e-03
5.161068475516981252e-03
3.217505831959518916e-03
-1.384765698755281108e-03
-5.855862756028069882e-03
-2.427255526634536018e-03
-1.009111870622174433e-03
3.125748505196520276e-04
9.035450974105558794e-03
8.276378954157963611e-03
2.349813851470099798e-03
4.051540926826061387e-03
2.927434806906396327e-03
-8.967345893329701709e-04
-3.160860714532363110e-03
-5.484086100904519111e-03
-7.098099674958936690e-04
4.963446550717769828e-03
8.948914867734034670e-04
7.711058566339555132e-04
3.258776346400985274e-03
-4.758309670780259092e-03
-6.239898042925391339e-03
-1.109913528289281648e-04
-4.276437551896819056e-04
-4.152540119769672074e-05
-9.099528829389941665e-04
-2.977846113464689389e-04
3.138679754518397969e-03
-6.944974219521328224e-04
2.244621457614380446e-03
6.856925317600687762e-03
-9.070017505974281233e-04
-3.996999786430469569e-03
-3.470871680343329355e-03
-4.443564382377397648e-03
-3.234813257030367921e-03
-4.645083437900878257e-03
-1.145649541300387863e-03
3.456261624583372837e-03
3.663319749091719594e-04
-1.600271363829473608e-03
-3.013057721941233766e-03
-1.915938675713798342e-03
5.164184669661280903e-03
5.046071449051452336e-03
-2.504772405068379174e-03
-3.396008332347454951e-03
2.771978579416200811e-03
6.890409095743147035e-03
4.382338761980420980e-03
-1.617330239872324200e-03
-3.528043621779668789e-03
-4.196924841478966790e-04
2.880818167674407612e-03
3.282193892883769181e-03
-3.719251783216672206e-04
-2.849988410383852248e-03
-2.581557026230252294e-03
-3.772633995869644190e-03
-1.002395670977474212e-03
5.343297771606178581e-03
6.714524409064130152e-03
6.072029791361663320e-03
4.413638544043270613e-03
-2.563809531228066103e-03
-6.278299472986487856e-03
-2.329778590712543781e-03
-1.261036318685110520e-03
-8.110916126470290319e-04
2.551306321885989364e-03
4.930849882719540427e-04
-1.402416265599215877e-03
-1.793462606185405265e-03
-4.579798317076110535e-03
-3.221973755586697314e-03
-3.314021349227445901e-03
-2.664122376531719971e-03
2.201899076510635284e-03
-1.059873762060511504e-03
-2.755979346934337576e-03
3.438693293534053012e-03
6.163386947665918693e-03
4.998604432373149678e-03
-3.842778053303975636e-04
-5.410372162157500199e-03
-4.484438327007221961e-03
-4.452416004092250249e-04
2.815702562608915840e-03
2.580777685423959995e-05
-1.564551133604240264e-03
1.151219558290709436e-03
-1.252774728628160746e-03
-1.495470631775459901e-03
5.112090271794034885e-03
8.044128290324237956e-03
6.432061379454444630e-03
5.541253909296471776e-03
2.790228680066869204e-03
-2.205630916169616391e-03
-3.245884737736748956e-03
-3.982290495152334374e-03
-6.743000571412045147e-03
-3.476718542660536902e-03
2.086928411249851928e-03
9.442231656401423381e-04
-3.929794401105258725e-03
-2.621377331875848673e-03
5.321938284608584112e-03
8.269337230681446035e-03
3.892705187174193022e-03
6.251759235674400313e-04
1.684852426034414482e-03
1.542934825548096175e-03
-3.942397371802592448e-03
-9.271720815254234568e-03
-7.954365005066681149e-03
-3.135937919519438122e-03
-4.192537294724183947e-03
-5.638274685342283335e-03
-1.272164362832041212e-03
-1.082846566177121835e-03
1.996270039433657370e-03
7.095806293971437979e-03
-2.370476409696844968e-04
-3.836894060270123075e-03
-3.064945467868123059e-03
-7.088169232368178585e-03
-5.472976551926726600e-04
7.366744342387936302e-03
7.359094535605816695e-03
1.127155629905461989e-02
1.262879719000096178e-02
5.743364233922681507e-03
-8.164397089976168764e-04
-3.325445282944602433e-03
-4.618089341106380689e-03
-5.162732592156156312e-03
-3.784599121175016671e-03
-9.011133957961452515e-04
5.230677088959880677e-03
7.940905244957960005e-03
4.516071509877155228e-03
4.008080889433590817e-03
2.237562144779377954e-03
-3.083325664157374104e-03
-6.045260895035271809e-03
-5.371139212681468392e-03
-2.611900749161206277e-04
1.302220204671115976e-03
1.156110642325073462e-03
4.631516777427276653e-03
-2.813933311471618912e-04
-5.795032217307485682e-03
-3.065760250907572336e-03
-6.498521424502567805e-03
-1.071421454053839324e-02
-5.466708487616380244e-03
-1.033341429187129750e-03
-1.827876676795467956e-03
1.362873866246271071e-05
5.802621167174434012e-03
7.474402746268827766e-03
5.954685397772952957e-03
5.779471418688748169e-03
2.047183978617805877e-03
-3.856955302972849085e-03
-6.621380396595089729e-03
-5.731281313010793028e-03
-1.838455351089703007e-03
4.416447696151720357e-04
2.434282265874769102e-03
4.799230845315854456e-03
-7.824566619836399468e-04
-7.089116644618537709e-03
-3.252796859963814208e-03
2.588395552977854758e-03
2.289926868587862513e-03
-7.741939534129070599e-04
-8.169792292421650310e-05
1.155001574307088549e-03
-1.541716634578089561e-03
3.200118667759053190e-04
6.495748701529348475e-03
7.194018417945029220e-03
5.029518237760802549e-03
4.025473313562686131e-03
3.318411813676036114e-03
7.172526588829001432e-03
1.215012018884681876e-02
6.602482442211060100e-03
-2.597511860692941417e-05
1.718134221767043165e-03
-1.897309218662056578e-03
-8.831029604423990681e-03
-1.188020325669551791e-02
-1.152916449079496169e-02
-2.062839026746146002e-03
-3.019761067239824966e-03
-1.401627987198511560e-02
-3.832702715072137684e-03
6.365978470006994697e-03
3.560266114694291689e-03
9.229684712713180292e-03
4.790858171504285869e-03
-1.218980097641503973e-02
-1.359985705924758939e-02
-5.571652422268849950e-03
-1.460667282392391934e-03
-1.111176897994897586e-03
-2.679823304797067807e-03
-8.013683207236520657e-04
2.891749095941056197e-03
5.427360329836143638e-03
9.674212985152759459e-03
1.089817057143417471e-02
7.521557820114206476e-03
6.982970353933313883e-03
4.148544557964053102e-03
-1.219717546037338762e-03
-7.305252606057952881e-04
-2.224992582005031264e-03
-3.557690242768327647e-03
-1.274639061188161896e-03
-4.998326049520321855e-03
-5.391412001454198681e-03
-2.094836011017696831e-03
-1.719099793746735848e-03
1.748377481354642521e-03
4.033106250021504971e-04
-1.112696854247231804e-03
1.980923741114480868e-03
-7.615727100719222329e-04
9.051601412841216773e-04
4.001526933370608274e-03
2.163644677612504893e-03
5.599948202510903437e-03
3.880957379807759879e-03
-1.412027052779709800e-03
8.909913878265562914e-04
1.619551187287260677e-03
8.715783274165842106e-04
-1.463947348365840734e-04
-4.648573532827943687e-03
-4.908944393117779803e-03
1.129644074105707317e-04
1.910028814715885931e-03
2.522675732856643040e-04
7.236297720794199759e-04
2.422449829559291615e-03
4.218926288801796293e-03
3.709131986839535929e-03
-7.816220877115356716e-04
-1.844212109178868441e-03
-3.738864103067977927e-03
-1.204748937919744405e-02
-1.470338603899549144e-02
-7.854674790468798781e-03
-1.718027556587615199e-03
-3.019899052905367738e-04
2.101249478499628721e-03
1.336618497406786904e-03
-3.140321085319667735e-03
3.246956169762487982e-03
1.011146307005805073e-02
6.474116333375515807e-03
3.564611210328301732e-03
1.047486935615742250e-03
1.019290489432571681e-03
2.999915716986064837e-03
1.691683890267035905e-03
2.823010926038908679e-03
9.624729873744028571e-04
-4.430274271091710382e-03
-3.704740164445759296e-03
1.906076584466559823e-03
6.126705971992503497e-03
4.523916056074051006e-03
3.435141654710957386e-03
9.828552645727468839e-04
-4.750818640493416518e-03
-3.315668758575327033e-03
-3.314628295597703018e-03
-3.924618867202576619e-03
3.389719755666259948e-04
-9.668430900877749128e-04
-3.313950403210842071e-04
1.151686319652214113e-04
-1.270454432117093047e-03
4.636078792393093922e-03
3.598787908135300459e-03
7.236408225140640235e-04
4.842200113297097895e-03
3.349118294422368317e-03
-8.416942716798485758e-04
-3.645853818395356372e-03
-2.681117973017116754e-03
-3.365910174099275964e-03
-7.974650506050841650e-03
-1.972610585362622165e-03
-1.731651612211802858e-04
-5.741791210917653564e-03
2.281560110086728167e-04
4.702551565643317034e-03
6.407569813843478831e-03
7.903308741400626170e-03
2.588037067464787726e-04
-5.629756071636001467e-03
-8.456271295935156168e-03
-6.794334214572404079e-03
1.657105494485290901e-03
1.162451449712470063e-03
-4.316279878089053848e-03
-3.555354310521061708e-03
9.368780500142588315e-05
3.679396405430554289e-03
5.855343879748489168e-03
7.774085123265619089e-03
7.542643271833647522e-03
4.787561562755607812e-03
3.140377367815725112e-03
2.059248408246299681e-03
1.514594580919140666e-03
2.292735728110858345e-04
-2.312502250639490633e-03
-4.078591581708716253e-03
-2.691046402402009607e-03
2.113557192735335949e-04
-1.859440370184728755e-03
-2.264384167669860129e-03
2.352603356180625778e-03
2.798069221701404447e-03
1.604946649616709924e-03
4.522113603010858933e-04
-1.794169699208522000e-03
-3.919432586959471082e-03
-4.328113126503924275e-03
-6.926843679054932312e-04
-3.229401925048088276e-03
-6.230319201270276275e-03
-1.277679967129750948e-03
-3.012017039970742074e-03
-2.390263919395700740e-03
3.316112219499532231e-03
5.750333738937715971e-04
1.454999260582966018e-03
4.660295257111491882e-03
3.782342418483840198e-03
6.174563183762314493e-03
9.415827389781928833e-03
8.866059523343067586e-03
8.288183440248481787e-05
-8.154063779855348290e-03
-5.814566832299372830e-03
-1.934462682447504181e-03
7.245466689393033214e-04
1.564305481062781182e-03
-1.671598968833883829e-03
-4.956246032123055173e-03
-5.125097270593271213e-03
-8.158763429107177174e-04
1.600246355469469011e-03
1.505472805184537638e-03
2.362715813684874728e-03
1.554642189487721914e-03
3.684000888551699007e-03
2.909598006237739710e-03
-3.471647150734909811e-03
1.035224186231490252e-03
7.426867704043978689e-03
6.888924872059118756e-04
-4.324417155938485753e-03
-2.537271669688558311e-03
-3.179265986528857866e-03
-1.870027215792658716e-03
-9.995894780152965627e-04
-5.250948128515591472e-03
-2.834345764320769269e-03
5.948141096307315093e-04
-1.806553426570406190e-03
2.252990644626763714e-03
4.537037397258145491e-03
1.569293031734788875e-03
5.647552766240794900e-03
7.542744958675055671e-03
2.853777899951224703e-03
-2.285507245801137680e-03
-8.072943737797941624e-03
-7.628757352217289088e-03
-2.641274401186611588e-03
-1.286556120542974805e-03
2.627948562143312978e-03
7.480214370262966775e-03
8.039542558776733433e-03
8.078872359745139023e-03
3.175368066076769084e-03
-3.399989530373037985e-04
2.156576581981394392e-03
-1.700588183994890127e-03
-3.014629084773648177e-03
-3.202775827515209287e-03
-8.418033077840848463e-03
-1.679606306158605783e-03
-1.083185009328977658e-03
-1.103794560031237139e-02
-5.214866198579186374e-03
2.510557401002883743e-03
3.555662714058638839e-03
-6.640898674703959483e-04
-6.060733788395941853e-03
3.481199387604440223e-03
7.689894915310200967e-03
2.198665259435815533e-03
2.428870251389238927e-03
-8.030508312517045449e-04
-2.942437729132972970e-04
6.061303966594550367e-04
-1.204263406804364622e-03
4.061076444776045256e-03
4.743467226093159457e-05
-2.938884629373378615e-03
3.657987696325621860e-03
3.547957435661048815e-04
-1.361186495734788412e-04
3.572508701689216127e-03
1.461386492169715204e-03
2.114923081462783024e-03
7.422194325782045018e-04
-1.335343886922707272e-03
-2.718717624863339183e-04
-2.202893702449792383e-03
-3.332158481930222287e-03
-1.544753625933530756e-04
5.792036204063233731e-03
3.838309287362487356e-03
-9.074732508539226639e-03
-8.958138315911927732e-03
3.767255102727410949e-03
2.220670158179144371e-03
-5.286901627846126751e-03
-1.666935831961316493e-03
1.611541742030202663e-03
2.159588407221802332e-03
6.347352776998484332e-03
5.853434844272841116e-03
1.524203779915686520e-03
-1.842135891348833454e-03
-6.971138923544141323e-03
-6.619473953779929018e-03
-1.811654757446609990e-03
-2.034973192060972411e-03
-1.044572246821279466e-03
3.037661185867131675e-03
2.080065561874649537e-03
3.975752745465608201e-05
1.338919987447770733e-03
1.751726303467966359e-03
4.709754684312036747e-03
7.574647051408471554e-03
1.164077300762467789e-03
-2.292325170075192649e-03
1.556597121496775590e-03
1.867928491380795898e-03
2.363051221591658344e-03
2.121495456862485928e-03
6.208772904034952356e-05
-2.767941848601761668e-03
-1.101069318362267110e-02
-1.298250019281498892e-02
-9.021175367151926250e-03
-8.132564495360877430e-03
-4.173761647019350214e-03
-3.938489715834986651e-03
-3.111323210263959062e-03
4.238650207748017630e-03
4.505814595293358357e-03
5.892082877467928054e-03
1.180969995168175239e-02
1.591205155407684341e-02
1.822051822536241428e-02
7.703455261908129410e-03
1.466942793496343010e-03
1.267145782870039185e-02
1.427191687127215072e-02
5.587119835837969783e-03
-1.641713562090125252e-03
-1.124200660437859635e-02
-1.516728742628306072e-02
-1.355360814709844625e-02
-1.607575049308724788e-02
-1.551978374658633843e-02
-9.663236581207861747e-03
-6.440301546086850057e-03
-5.642921180215617998e-04
4.823957287843769898e-03
6.595440707803250195e-03
1.579834714580250973e-02
1.044178633696059288e-02
