-5.976592179467794114e-03
-1.842174493343010783e-02
-2.156684279372573371e-02
-2.874404234156799354e-02
-3.200750657207591943e-02
-2.455827052112427925e-02
-1.104569727397507542e-02
2.376761082224094091e-03
1.603295492088336813e-02
2.537679249880293170e-02
2.832366458729584230e-02
2.809347013971748297e-02
2.611395214075893506e-02
3.039526686161942229e-02
3.070371626724562736e-02
1.894427448535383751e-02
1.130229687910822012e-02
4.603980417782865299e-03
1.424987208351535632e-03
8.167305965769236856e-03
3.021122882976243988e-03
-9.793745350383468301e-03
-1.500896725428195987e-02
-2.062530515490709065e-02
-2.377177081273583459e-02
-2.181306433484101956e-02
-1.865799784524707280e-02
-1.335740133556797757e-02
-5.110462329057568164e-03
7.760012929084843074e-03
1.161941288426654971e-02
3.338702525405560888e-03
4.917506949559552823e-03
7.533522332586832168e-03
1.147102921230466798e-03
3.663111813524826642e-03
5.078954021982824522e-03
-3.892305608014429586e-03
-7.986647994761680511e-03
-3.801370466432510333e-03
6.727985780657013554e-03
8.958891587588169170e-03
-2.784308049807065252e-03
-7.496179771624799162e-03
-7.341245640921657475e-03
-7.244638557903740859e-03
-3.337783522380252318e-03
-5.328892459782632110e-03
-1.804890039683414507e-03
8.392886667461038272e-03
5.886910713007653326e-03
2.531044629707440360e-03
1.108687346820132202e-04
-5.836392274646986719e-03
2.070792221352224429e-03
7.379042803337737197e-03
-1.755944490890203437e-03
-3.910239470659607024e-03
-2.538065314295044790e-03
1.042564834711656296e-03
6.668674847901462886e-03
1.673117797781991951e-03
4.694825781816832320e-03
1.322766959711702515e-02
3.882677511595920318e-03
-4.651049312780979050e-03
-3.781709109114616066e-03
-1.507095848317938427e-03
1.101446561102062882e-03
-2.657561427326931994e-04
1.939177095826942780e-03
2.296971896274660040e-03
-2.860769211295610334e-03
-1.381808914248945424e-03
-2.280243191465739904e-03
-2.875171699549659669e-03
1.528728163441783359e-03
-1.534707159721013497e-03
-2.220103041759222129e-03
1.030992163627766607e-03
-8.987642906320718241e-04
-1.931653290637812184e-03
-1.378534720093266752e-03
7.525060792484807243e-04
-6.434646228629420546e-04
-6.072022736638912031e-03
-3.535152341844058875e-03
2.687051740596873954e-04
8.605186338251236827e-04
3.249570719076261011e-03
5.896429780538836596e-03
1.026753602432811836e-02
3.961454242612317926e-03
-9.954716010651230504e-03
-6.033931759512688175e-03
1.495791645547482878e-03
-2.017069588776087153e-03
-1.903412295799471665e-03
1.008562935576492320e-03
2.327018574914488987e-03
6.704366914100381124e-04
-1.698816380603274936e-03
3.158376766013662722e-03
4.567313320992541503e-03
-1.016352856984671909e-03
-4.515837435097357425e-03
-8.089052381709403022e-03
-6.540316957520317387e-03
2.174249906409239826e-03
6.144149249942075508e-03
3.374819769476916035e-03
2.614901933413184189e-03
6.437865612963090088e-03
5.831390472537817567e-03
-1.108791019278199076e-03
-5.648564496620045450e-03
-5.828634013994431554e-03
-4.013623208420093701e-03
-1.142270453186041779e-03
2.182429075384394960e-03
4.933756031749470319e-03
5.595260258799690349e-03
2.549727826105360230e-03
1.941957544768536394e-04
3.471688382764306913e-03
1.434441712609024798e-03
-4.874280464978722992e-03
-3.070332743188533987e-03
-7.836797053244667086e-04
2.478491953879709362e-03
5.090083113516636650e-03
2.160021543985696365e-04
1.242700200143509199e-03
4.725039553289636001e-04
-5.818886964350633746e-03
-4.697714414261434804e-04
1.324006892408341202e-03
-7.617383869894708490e-03
-7.388059770268456429e-03
2.150176230501948428e-03
4.370905739913016723e-03
-1.812081661702592134e-03
-1.272392701501857048e-03
8.522123283603228513e-04
-2.389653388956913815e-03
-2.517822021811662141e-03
-1.724909249246832268e-04
2.390514527370787064e-03
-1.786007655882480318e-03
-5.514137371292957869e-03
2.424184878411184737e-03
3.496387531972417612e-03
-3.372913711404298921e-04
-1.197110879567941195e-03
-4.063401718908904968e-03
2.731523187965387311e-04
4.567987903699176930e-04
-4.948226218430705828e-03
-1.509661328387311950e-03
2.847848355052122298e-03
8.270180219019006296e-03
9.655908887813631145e-03
5.334327519019491266e-03
5.332455277214942675e-03
5.986268632126155341e-04
-3.209159633821506187e-03
-2.803394877690075851e-04
-2.142786425472376771e-03
-1.774920133005048742e-03
4.032193240891435160e-03
2.773370408025099647e-03
-3.665288661681882516e-03
-2.343101118732588209e-03
-3.032924555343185277e-04
-4.840500852509886653e-03
-2.692374152658342113e-03
1.071970716816189086e-03
-1.189900254396679749e-03
-2.325291501181527812e-04
3.837736911152008889e-03
7.466350610619067532e-03
6.057509661845120359e-03
1.108418000019839068e-03
-3.771311784590491382e-03
-7.967218910898174467e-03
-5.276120880587953713e-03
-3.226572526976746562e-03
-1.029656001610761542e-03
3.733998861505080039e-03
3.993671249942289158e-04
2.109407337371268284e-03
4.324944772895548614e-03
-1.291701046938494891e-03
-1.202457049236356403e-03
-1.135955935773514704e-02
-1.996759030324432582e-02
-5.836314806309091108e-03
-1.516705755135698249e-03
-5.989443520144171335e-03
4.914782583898420418e-03
1.421314859613930989e-02
1.024141684363225058e-02
6.758006095946532399e-03
6.701006575955697868e-03
2.114513169785294053e-03
4.461241209277566318e-04
3.572397698623866382e-03
3.417964871080186613e-03
2.342004185299657090e-03
1.840377850539100767e-03
3.777029871561329941e-03
2.123479363034582162e-03
-3.042841333646170709e-03
-1.764153576272542998e-03
-5.821231359804898177e-03
-9.358367893919717143e-03
-3.744991069602799250e-03
-4.624084420021139924e-03
-3.529173732054241043e-03
8.636395912702649839e-06
1.782249220100017061e-04
4.737499063086964522e-03
3.246805091523146444e-03
2.910191941435928686e-03
6.082326537295048609e-03
-2.992083810666740316e-03
-5.999957835444677187e-03
-8.789315187085317525e-04
-3.195944974568511870e-03
-5.308176978384901695e-04
6.369570512056819435e-03
4.828629589072016073e-03
1.127713133787570888e-03
6.605506463403464611e-04
-3.690825935830935539e-04
-5.016376212412332423e-04
-2.907976065142934934e-03
-9.789672239726144448e-03
-6.216665465551446043e-03
1.398006556388832174e-03
-6.760879585344547376e-04
2.345873206233322142e-03
6.017499001123562986e-03
1.829833171295847842e-03
2.415784518420231470e-03
2.350676061615641736e-03
-2.127971850051759654e-03
-4.995663673893444533e-03
-5.123656020823960482e-03
-2.538243297091339517e-04
1.585827114436862053e-03
4.221372511869612596e-04
1.350825185058857720e-03
1.763389809925942908e-03
5.876603030142564868e-03
2.228522022520929274e-03
-5.447845531170152772e-03
3.284958351845105717e-03
4.441703522153891276e-03
-5.384820137388276334e-03
-1.072003664093272753e-03
3.789925429683274616e-03
3.370842248829817190e-03
2.899248350722227405e-03
-1.251244131225833899e-03
-3.532007928497328270e-03
-5.270155609561471069e-03
-5.317018706668915837e-03
-1.269374820524826232e-03
3.707517866217492283e-03
8.955287932910407922e-03
5.774694581157990142e-03
-2.850492274958663086e-03
-5.413154981784164266e-03
-2.776450132727907843e-03
-8.325759883740454798e-04
-6.144361511094269430e-03
-7.780086925865726394e-03
2.655394049755049196e-04
2.234934447233582686e-03
5.779263716391917338e-04
2.693485472348835195e-03
4.086827086952755234e-03
4.562396616661138632e-03
3.036356795509911020e-03
9.735627697362233559e-05
-1.497044964901828252e-03
-2.074444392968127597e-03
-1.422809458463023761e-03
2.166919933141125357e-03
3.875295956410260839e-03
-1.638082036069810673e-03
-2.922269801198174553e-03
2.590314288746226393e-03
3.605832460204939048e-03
1.476867798401688926e-03
-2.861316375014826951e-03
-7.072558429318650565e-03
-6.196428364893825577e-03
-1.100975949286086067e-03
6.165513041439169006e-03
5.814334947434241299e-03
2.040828253959551045e-03
3.136620203615643563e-03
-5.529258014211926560e-04
-4.352596775164455437e-03
-3.638049005660087820e-03
-2.102173779225863237e-03
4.518222068181832266e-03
5.969647976052408836e-03
-2.153541740877977593e-03
-4.553344821230108190e-03
1.335061913710851897e-04
1.590192249702599998e-03
4.109614179181374314e-04
1.541635117206551072e-03
-6.727564174471385369e-04
-6.600063672722093940e-03
-6.876675221552239724e-03
-2.843909095061001539e-03
6.818108166348371517e-04
6.738423371778529299e-03
1.132736749964287706e-02
3.080579464598103435e-03
-5.288374490333541331e-03
-1.929542073243077421e-03
-4.853516970742062682e-03
-6.818945722358577335e-03
2.030180585630370939e-03
3.322637119801593805e-03
4.215104346736329652e-03
7.755762795214794433e-03
3.645199293147300713e-03
1.001369294380645078e-04
-2.396528354578285336e-03
-2.063277915461197379e-03
-1.747742870395986234e-03
-8.101550295860963230e-03
-8.091138414556683575e-03
-3.593804700576876815e-03
1.836517166443130730e-04
7.502151446917792142e-03
8.633619505233273983e-03
5.056012851140085848e-03
4.882539660540324671e-03
2.263910952482744640e-03
-3.708960354821460269e-03
-3.799499555671293719e-03
1.052418366215601307e-03
7.311434233146430666e-04
1.593406877444447515e-03
4.721722741188069498e-03
-2.654404638755854381e-05
-3.554413299709420666e-03
-3.470549411901332343e-03
-5.278953365179518860e-03
-3.867089320537590597e-03
-2.418458743184790684e-03
-2.230334318899549178e-03
-2.842504474413463955e-04
7.971998913733843468e-04
2.231262839543717881e-03
3.308304410079864789e-03
3.083838994149649092e-03
3.955842126306808974e-03
2.296288205524779982e-03
-3.989792537735377745e-03
-7.150554757407561954e-03
-3.244471610628241187e-03
-1.672867299164313955e-03
-2.039728757053712888e-03
3.943907572955061835e-03
4.154953574358013699e-03
-1.896477847571197400e-03
1.704666095045458130e-03
2.110817287939862133e-03
-5.883531914263478296e-03
-5.790469365021098762e-03
-2.465240304769015199e-03
9.812552290764033503e-04
5.901548940845374215e-03
4.997126129214390228e-03
4.985368833311032595e-03
5.132506392252542300e-03
1.048875313234474927e-03
1.121098379580651909e-03
1.647865164236090099e-03
1.240063738584568954e-03
1.542972894487328213e-04
-3.387500800897164880e-03
4.431219171421010763e-04
4.495810976504889360e-03
4.002421277828525849e-04
-2.361071104666323094e-03
-3.276382315813895860e-04
2.377918304224575785e-03
-3.823527361756344240e-03
-6.182741042368380784e-03
6.512441529867719903e-03
6.357465735345528904e-03
-2.600554414925891969e-03
-3.472752397354655646e-03
-1.206575882879586462e-02
-1.477859343854686508e-02
-1.819867534549586422e-03
4.674616088828546442e-03
3.180048143693509338e-03
1.887948507373799411e-03
4.668571545301953597e-03
6.996637198078702741e-03
1.517378786940840833e-03
-2.180984032623331514e-03
-1.541097817814958935e-03
-2.429862834713803800e-03
-4.583592649117913982e-03
-4.718064814470732289e-03
7.734014024793903685e-04
4.078938323511380930e-04
-4.793283548762700824e-03
-4.996338900304902043e-05
3.937919001400429046e-03
5.452233204442771645e-03
7.258410794990960077e-03
2.920299043005259733e-04
-1.858886235820738503e-03
1.204238437384530340e-03
-7.247173417705059326e-04
8.678181547717765492e-05
-1.378228094637163345e-05
5.991623779205556156e-04
2.217329840288113918e-03
-2.632697747209119046e-03
-3.036087989370583971e-03
-8.770964045863419200e-04
-7.757349765331214390e-04
2.191699972181467785e-03
2.634607129058347524e-03
2.908532410281248343e-03
-1.318341543813494453e-03
-7.106817928878248272e-03
1.900456744921633729e-03
8.695728937626120633e-03
5.115537407872940145e-03
3.835751413061198184e-03
3.180165191968451432e-04
-2.088626700306251034e-03
-1.373645094128044062e-03
-1.861553750916679047e-03
1.087339415881726293e-03
1.358682568514851460e-03
-1.784394505477536908e-03
8.386575226422130673e-04
1.500644327058155494e-03
-4.117562746139323895e-03
-4.559454341464059396e-03
-2.833560767061516460e-03
-8.199175478344167614e-03
-9.601125050508335645e-03
-5.711100127496143188e-03
-4.813448840179365869e-03
2.985335921653390311e-03
1.153618064184632440e-02
8.965410815037979861e-03
5.049335147864351253e-03
-1.720812388505381894e-03
-8.842367982643466878e-03
-4.451135949619982636e-03
3.718078897022089732e-04
1.119373272995429110e-03
6.185622787988663898e-03
8.934761651969443108e-03
5.582489587871866145e-03
2.808876467077978806e-03
-3.707205793532754789e-04
-5.064551286184586915e-03
-2.909295556668702130e-03
1.124985560059623682e-03
-5.051655009229470868e-03
-7.739273665205652353e-03
1.462787599065273197e-03
6.763586592303023719e-03
7.861089834013179622e-03
8.215129816139287930e-03
1.875759892043085512e-03
-2.416500795741048386e-03
-5.875955218955478294e-04
-1.332075268903130938e-03
-3.360236986621878332e-03
-1.255430138602350171e-03
2.535195269264768105e-03
4.778112888613099494e-04
-5.092022734427097130e-03
-3.961602945451117401e-03
-4.116051408772184199e-04
-2.261451773589509984e-03
-5.180899718702438803e-03
-4.753459395617769256e-03
-3.915713069340181519e-03
-5.437160355169320947e-03
-2.213907561403527600e-03
6.405482945748899003e-03
8.100151222094868417e-03
5.901396689903173377e-03
5.879708643158241925e-03
7.442457864141997521e-04
-2.841233369849402272e-03
1.124637900889641695e-03
4.994270591124618880e-05
-2.172915683336914920e-03
3.267478983372425032e-03
3.751562735658842823e-03
3.601640337865072861e-04
1.198433716988499872e-03
-1.548535357050629703e-03
-9.510914163963100562e-04
4.113484556897386429e-03
-5.592265379762547057e-04
-3.527231936291055567e-03
1.445653261157704380e-04
-5.642653884794336184e-04
-1.353447878938010074e-03
-1.301053341822517055e-03
1.167806873890371924e-03
3.982381023517892610e-03
-3.473209037647585675e-03
-9.856124543270483249e-03
-9.187590355896536887e-03
-6.499429603213963298e-03
3.250256029649548420e-03
8.911867240303879625e-03
5.583691757386833807e-03
4.851730906228203001e-03
4.451188266949699344e-03
3.124623139761586836e-03
1.749772185950369601e-03
-6.009093486859675261e-04
-4.087805978779907728e-03
-1.046975093255981745e-02
-8.723738613777206122e-03
-5.201522554812184999e-04
5.162275090506754892e-04
2.829704224025688351e-03
6.023491201222806388e-03
3.110617925600276962e-03
2.821767148502047663e-03
3.324494656803993458e-03
1.309589601504907407e-03
1.694734575079157295e-03
3.285361254625974916e-03
3.360621364006542190e-03
6.468744442418368663e-04
4.124014420277182045e-04
5.048155498715609958e-03
2.009768582156880312e-03
-8.331002544591856532e-03
-8.179336095955395264e-03
5.279333797740820436e-04
9.929249847170770402e-04
-5.239633649061277432e-03
-6.039296114098375266e-03
-1.024385317033608619e-03
1.598466042966585144e-03
-3.691245945656066807e-04
-3.987393163575447667e-04
2.684064956951062991e-03
4.502891329456601074e-03
4.508782955489360617e-03
2.773373364486008633e-04
-4.879568728502200331e-03
-1.633790948495182551e-03
2.172835184090474766e-03
-1.479496167529164652e-03
-1.322785090466620456e-03
5.101889086381050393e-04
-5.046168797717806923e-03
-5.355670181724667307e-03
-1.636566615439565518e-03
-5.053923639726426442e-03
-3.965371718203413061e-03
1.855506495394220259e-03
3.688684723073488037e-03
5.247234381284166492e-03
5.523990106111552160e-03
6.204151059020033415e-03
5.014635097719587556e-03
-2.977288839051835632e-04
1.771122512925817028e-03
4.608789785783435136e-03
-7.813808346255914344e-04
-3.036904937211103855e-03
1.056049627623910402e-03
4.308307548982010828e-03
2.797411776296827683e-03
5.441884232934959863e-04
-1.816306161776517266e-03
-4.795145451019688400e-03
-8.705396320052323630e-04
2.132654475103356716e-03
-2.434361222696532125e-03
-4.062855427492490824e-03
-2.826532534349997716e-04
4.151637023595357995e-03
2.841774852226474756e-03
-7.331535728078510160e-05
9.583303186403134295e-04
1.666021116045224813e-03
3.841947633490035239e-03
-6.674771314812413467e-03
-2.499334639148050388e-02
-1.816575275116147706e-02
-2.706559831501050180e-03
2.265619510645776932e-03
8.218214147471182562e-03
1.103415658377281464e-02
7.891661955510330048e-03
2.388882387857125915e-03
2.110379788940132308e-03
3.849516145082902165e-03
-3.057597562412362781e-03
-3.697666304862556267e-03
-9.862366246156844055e-04
-4.099979104318233862e-03
8.518618020026678169e-04
4.547803223349949214e-03
1.982666443203288421e-03
2.623718523978154846e-03
1.988581097061366439e-03
7.091799800296480320e-04
-1.148484281911296787e-03
-1.506654287296160235e-03
3.615819292028191710e-03
5.488724969942299602e-03
4.028679426926096326e-03
3.067268139527099240e-03
-2.665659914683888871e-03
-8.750874263036943421e-03
-6.818662719971392040e-03
-3.389445775460687028e-03
-3.361895706796507767e-03
-1.413046217987488137e-03
6.223146460181978173e-04
1.138329184777780523e-03
2.641747614914810322e-03
6.355706234890281733e-03
8.578883864058162514e-03
1.451539720442295185e-03
-2.528999556777054240e-03
-1.473013845708859239e-04
-3.209808299384578952e-03
2.329933356037321764e-03
7.773907796408157343e-03
8.667203084225227330e-04
2.960390810833805290e-03
6.878885985250451918e-03
3.809526960018626372e-03
-1.569732974486245502e-03
-1.329556469649702602e-02
-1.682384001015574046e-02
-8.771836783440950872e-03
-2.374097147885966420e-03
-2.762046176342787367e-03
-4.416346970822931407e-03
4.364098041917049975e-03
9.181518435219483340e-03
3.578448726477708852e-03
1.371404086651614816e-03
-2.810025176318146130e-03
-4.426821231167729111e-03
-5.231819286975908931e-04
-1.121533284576332196e-03
3.487740955636295923e-04
3.932842954127390572e-03
6.627759249133312498e-04
-4.372844920342268404e-03
-8.526230794117851432e-04
2.000278966361408294e-03
-3.744070189803606809e-03
-1.778865244593316654e-03
1.736668147903661997e-03
-1.488158614124849123e-03
2.086629774123477995e-03
6.824302185788031633e-03
1.150347610579107935e-02
1.225705921825882838e-02
2.251906853146135035e-03
6.813338678538860896e-04
2.185789053227295883e-03
-2.700855125510296002e-03
-2.299075419414677718e-03
-2.862431096367436950e-03
-2.435287680764371479e-03
1.684271453842289476e-03
1.312655923291688141e-03
1.310040730704154031e-03
-1.804264295608675210e-03
-5.283701038450682765e-03
-1.377961792097117744e-05
-1.158842807716206191e-03
-9.813819364178197682e-03
-8.579521757960967970e-03
-1.062847247103103181e-03
2.610199392181536925e-03
3.524290807687737673e-03
4.203977813973076676e-03
2.939210494640350207e-03
-1.094164080866520845e-03
-3.940026673822241178e-03
-5.139839151834683061e-03
-4.221514033644463079e-03
6.996581029847518318e-04
2.881003910357200250e-03
3.137519103551835581e-03
4.815404966345606524e-03
1.184080871574355988e-03
-3.367874573457520487e-04
2.569711162903854599e-03
-1.859412652700773378e-03
-6.124491270278063955e-03
-2.416256058854235594e-03
1.545617705779141725e-03
-5.413285589027784332e-04
-2.124985492043700731e-03
4.375879059221873119e-03
5.768400900702269629e-03
-7.792237288773286134e-05
-1.178132273859788717e-03
-1.827295311010131759e-03
-1.464808396811565980e-03
2.053804443333045841e-03
4.909797907187016079e-03
6.338056041187768372e-03
3.449092017446750598e-03
9.260553391167759569e-04
-1.346304682396181219e-03
-3.871637806198223453e-03
-3.834614553564440458e-04
-5.918523614501024037e-04
-4.597099131910174948e-03
-5.341137057860592327e-03
-5.083509117600432808e-03
1.442301163658506885e-03
7.088225711284782890e-03
7.036903110413350072e-03
6.952165971426219580e-03
2.583810814619596358e-03
-5.839641114530344859e-04
-3.488594536222028395e-03
-8.571907119420721713e-03
-5.589203718805993946e-03
-1.549155169982607393e-03
3.779892787878444968e-04
2.895725295450622336e-03
2.383232836293668316e-03
2.519211853076623164e-03
1.342317265448392857e-03
-3.467524776772426803e-05
-1.316100067228832262e-03
-5.329439207704374584e-03
-5.059670493598544469e-03
-3.857927944614980131e-03
-6.426082543710427003e-04
5.706321626920316317e-03
4.379516209099381871e-03
1.251780748626991641e-03
-1.978578230485993940e-04
-1.614548130082789097e-03
-7.938505600861314694e-04
-2.234312818039335072e-03
-2.550382616791574755e-03
-1.615830191775732621e-03
1.649058197235373066e-04
5.750723642183513951e-03
6.583459365497854911e-03
4.315679182092445505e-03
3.622804721056327362e-03
1.307600972496633044e-03
-2.835819082924331738e-03
-7.982054341739609413e-03
-8.513860824287525220e-03
-4.999995305434996005e-03
-6.664157580821953881e-04
4.114530920438857001e-03
5.246150531983491752e-03
3.496464059796570382e-03
-1.115836401452148042e-03
-2.848735768450065542e-03
-1.066510002604179356e-03
-2.909959103668077317e-03
8.379473742991045337e-04
2.820424337837189408e-03
-1.637819294589262266e-03
3.770505575073887332e-03
9.409548646180479134e-03
7.097181905225229993e-03
1.889595317364824731e-05
-5.559824520849600098e-03
-1.450894022561789124e-03
-1.110007407628648378e-03
-3.864640566880293924e-03
-2.999671157909719350e-03
-4.001160456722268645e-03
-1.175130647190795238e-03
3.411274679879853101e-03
7.587722561375810290e-03
9.299015547311204055e-03
8.053669122201002201e-03
5.853185500220625670e-03
-5.023186957181970634e-03
-5.954403797834756200e-03
2.229888289781112049e-03
-7.350332049076952574e-04
-2.746041248806655680e-03
-1.349679213140204254e-02
-2.015150617832078134e-02
-4.192364070536149477e-03
-9.551128312232553055e-04
-2.767101964952380696e-03
3.564836655544266920e-03
1.886456708900693469e-03
-1.006127435522005285e-03
-3.702736954208959118e-03
5.206149254873364794e-04
6.140922641625394356e-03
3.030429655160154275e-03
6.112938083179388776e-03
6.877263797387159552e-03
2.145004072523286690e-03
5.778488944146548080e-06
6.194418239035865033e-05
5.416833530533677124e-03
2.944028836779476448e-03
2.032143174264959594e-04
2.446631292158143924e-03
-1.867219941191592368e-03
2.904773831626766400e-03
5.352181608941447739e-03
-2.282826900966686626e-03
-2.975512663437610873e-03
-5.938047232726935930e-03
-5.244639652918298145e-03
-6.822078687264477616e-04
-1.158724117182671201e-03
3.371647043705498607e-03
3.260468132869143946e-03
-1.718046819861279544e-05
-2.983294943367152891e-04
-3.380103989938884959e-03
-8.583446727002791952e-05
-1.719911474350154824e-03
-8.134405315174520965e-03
1.113732939534921144e-04
6.510663129974246510e-03
4.327309568697102100e-03
2.749024982743912809e-03
-1.784950598488326597e-03
-2.693060814671193511e-03
1.060305896022069793e-03
1.143534191979996874e-03
-1.222501726885872209e-03
-3.129839132582163709e-03
-3.836770819358554293e-03
-4.456619835271480659e-03
-2.668857670039845829e-03
5.779591394038893250e-03
1.149851940168120958e-02
2.348580603612359166e-03
-8.559172691094000043e-03
-2.675174010912541485e-03
4.733067124574127579e-03
-1.170963270955695885e-04
-1.751018747832810887e-03
1.053881845253331956e-03
1.612501835122018973e-03
3.694335686357900616e-03
2.166710718402347236e-03
-8.422229856034498755e-04
-1.517018937842464030e-03
-4.847108526549101341e-03
-3.957869027761376675e-03
-1.192421829816859256e-03
-3.723321663775143280e-03
-1.917129162912424275e-03
3.888247197351695373e-03
6.386446510915718203e-03
3.981426167715613681e-03
-6.466719858220133527e-04
1.744093115974478881e-03
4.803293049858971264e-03
6.075224406556828296e-04
5.723629866979302629e-04
4.965481362307197152e-03
6.748180577375088168e-03
6.882286482636385330e-03
4.841333918640156747e-03
3.383300565189015490e-03
1.634220929228915632e-03
-1.598128494294187487e-03
-1.781295126851016901e-05
-9.717798534164361329e-04
-7.775773899041244809e-03
-5.503436029047846165e-03
1.645254322890810300e-03
2.899270028051641971e-03
4.753408445433231731e-03
3.045737135779992034e-03
-5.761777958194114375e-03
-7.384006682652695039e-03
-3.891648091702342056e-03
-4.374488720012247901e-03
5.908875994397916505e-04
1.128923215265038686e-02
1.684579459683192490e-02
1.631157515791721579e-02
1.300609072736270792e-02
1.225214015372835807e-02
1.346341523274959331e-02
7.737308599495229533e-03
-1.900584905572234688e-03
-7.613538582552766866e-03
-1.252516669920005800e-02
-1.997224584053316002e-02
-2.580046715656324208e-02
-2.470293202511594094e-02
-2.284396502156574305e-02
-2.318216334412761745e-02
-1.710754422593995655e-02
-1.043644598612278665e-02
-8.068552628531438370e-03
-3.485929497778204531e-03
4.072679553091790305e-03
1.651971916402069501e-02
2.310031352347793540e-02
1.643308387080463784e-02
1.485775335115859658e-02
1.598620955605711824e-02
8.337267287988253672e-03
1.194922099325529310e-03
-4.806126005557133721e-03
-9.679806914420260866e-03
-1.440641789947979222e-02
-2.812162763933214946e-02
-3.854620005245514014e-02
-3.546038865217233937e-02
-3.016496473239700313e-02
-2.476567190264162763e-02
-1.197242122036514672e-02
5.830969568281783692e-03
1.629175633967585440e-02
2.444945973422259222e-02
3.922719698813892375e-02
4.135859779384649243e-02
2.780351189070500578e-02
1.084148754316792591e-02
-6.939345623556168914e-03
-1.122865120217405623e-02
-9.676734772941612828e-03
-1.939203182186985050e-02
-2.239550900209385034e-02
-7.298001275015938982e-03
1.957467548839976132e-02
5.103853463688105829e-02
7.960769698498348923e-02
1.038290279615987632e-01
1.175943054864299897e-01
1.164268763317039684e-01
1.134363797909875571e-01
1.124574037092514606e-01
7.382605306061726380e-02
2.882716082802483631e-03
-3.431691032508341066e-02
-8.754347132326034675e-02
-1.960035803961511225e-01
-2.491148838594030579e-01
-2.367535557817500858e-01
-2.148837149938767621e-01
-1.638728021302278959e-01
-1.016426746293336014e-01
-3.955075249742557447e-02
3.691709168506865368e-02
1.084080606039749400e-01
1.378491437831562694e-01
1.076948267093668504e-01
7.095240843009548160e-02
3.779513897850511617e-02
-7.809958805644805734e-03
-3.596958455525037929e-02
-9.182962536457411895e-02
-1.411769941961046881e-01
-9.712518300154819595e-02
-2.460426245054969999e-02
5.815408635864309506e-02
1.439537113134310431e-01
1.878829605407352776e-01
2.290789264112272350e-01
2.214277913550418142e-01
1.459659624871793016e-01
9.104739744855359918e-02
2.294442254641478052e-02
-6.091968825336316340e-02
-8.003598419082313953e-02
-6.823703123692760608e-02
-7.795608920947195986e-02
-8.985974411853522859e-02
-9.386543988393698801e-02
-1.079284509885160420e-01
-1.084713371996795656e-01
-5.992419161822202384e-02
-2.612622473047649871e-02
-5.289807444450216750e-02
-3.428159396463965197e-02
7.406389074934255357e-02
1.412970744282759372e-01
1.160933927914082758e-01
7.259081890295289441e-02
3.362173251932797091e-02
5.656003490463352816e-03
-4.890215886976419235e-03
-1.800330480358985560e-02
-2.272214603096362265e-02
-2.191367813009333435e-02
-2.441532310041400616e-02
-2.072563809632717302e-02
-2.826070572402028178e-02
-2.733216163260542009e-02
1.789528177917072433e-03
1.330283429947499464e-02
3.902578663780113203e-03
3.103019467284994816e-03
3.378729669089034198e-03
-6.303603044799661447e-04
-1.068404192694575976e-02
-2.747403287874651198e-02
-3.492154832578091284e-02
-3.268898789558700307e-02
-3.190789741203889363e-02
-3.531808664483333110e-02
-4.354090590188734039e-02
-3.286064646550194979e-02
-2.512764330329239886e-03
6.041407795524269229e-03
8.867625731544240622e-03
2.735129776815976854e-02
3.286823017485455967e-02
4.008626882244150508e-02
6.435769961510333370e-02
7.182574022617189968e-02
5.398496467043328167e-02
3.517298014695176278e-02
2.359694544867523697e-02
7.238250147146493667e-03
-4.739480094758162163e-03
-1.605254189184096526e-03
-4.717086788789265350e-03
-1.527587246640438497e-02
-1.668237910391457898e-02
-1.445185100278718361e-02
-1.523855939227695966e-02
-1.210582105109983368e-02
-3.022319995145102915e-03
6.395436929709599240e-04
1.381516203807377609e-03
7.413387891884843338e-03
9.179786003944605602e-03
5.355755988778495950e-03
2.621824429073740977e-03
2.445244143423414267e-03
-1.341577359971677730e-03
-9.957904657011408880e-03
-1.292390324510441120e-02
-1.800838325205689899e-02
-1.838237558080513950e-02
-3.217283590224729803e-03
-8.297387758192108524e-04
-7.739654106114597469e-03
-6.617677611695005173e-03
-4.665691667792991500e-03
-4.593807947745809557e-04
-2.816813418719043421e-03
-4.336435534125940988e-03
2.173432672449636220e-03
-1.555804770977899836e-03
-2.136865897595043810e-03
2.335324907992368526e-03
-1.278324126723880908e-03
9.902750621595057205e-04
2.774412606130833864e-03
-1.946396253022353263e-03
-1.859045192148577356e-03
2.613660550603859561e-04
-6.371615412759062784e-04
-3.589820301584730356e-03
-7.643687667325603334e-04
2.968560362912605645e-03
1.035214475574873006e-04
3.569228147815265047e-03
7.435070721627455928e-03
3.070567296716247233e-03
8.675641758445356861e-04
-1.491127255878753376e-03
-2.416936556175017237e-03
-8.957848054891223970e-04
-3.328371153848228535e-03
-4.026707736665785476e-04
4.975544490039053754e-03
2.936190559587670019e-03
3.389895970725820447e-03
5.323984227585156805e-03
-9.534273251413120584e-04
-6.745847590576446381e-03
-4.568461508674665980e-03
-8.463096151029463651e-05
4.874194102208950601e-03
6.742786268786164078e-03
1.621992068859853635e-03
5.933212736647986742e-04
3.970386858542216714e-03
6.406732271346240667e-08
-4.408231465530890181e-03
-3.460597220503797231e-03
-3.077040458583419572e-03
-3.818536046421133843e-03
-5.931406969902092846e-03
-5.278628469512863970e-03
1.806804226757367836e-03
4.830097485298444002e-03
2.691369209188132841e-03
2.308649603198293689e-03
-5.130047357049380072e-09
-9.169141038689880736e-04
-1.278289055512211742e-03
-4.962317595539026890e-03
2.799363572534673667e-04
5.505600492065682722e-03
1.666717631715097184e-03
3.467407332429263845e-03
2.025678721403720555e-03
-4.878714897075527718e-03
-6.110797909969010143e-03
-6.966120148960383215e-03
-1.998891196716357649e-03
6.643034295574826685e-04
-4.993675110307752019e-03
5.028627371799344707e-04
8.368367081495292972e-03
9.872291021276043479e-03
9.436228997225033083e-03
3.441212143726017116e-03
2.969302357910365894e-04
-3.607401357560503438e-03
-8.279963592815171511e-03
-2.872622722234523078e-03
1.825393330564850040e-03
3.818917727545415638e-03
2.378310168921269566e-03
-3.024566988249877131e-03
1.442015024031525518e-04
7.271650643349800462e-04
-3.164100715817257450e-03
2.730686705855254581e-05
-1.320918409268361307e-03
-3.669905873311112010e-03
7.420888363502619548e-04
2.313210444942797456e-03
3.312158673284091616e-03
6.356887263729391058e-03
6.681232184436108369e-03
3.583998230111409226e-03
-1.229339513152392189e-03
-5.049440037967348541e-03
-7.004263602466260195e-03
-4.047619681863018001e-03
-1.024852910638189400e-04
-7.510112615008340039e-04
1.561095580511537686e-03
2.640528822113309346e-03
-1.885713925201338735e-03
-2.069682146180915235e-03
-2.712082429913210274e-03
-5.718453355847347326e-03
-4.809325387150240397e-03
-4.905715969369227845e-03
-4.132234341979418996e-03
3.192808092204944522e-04
4.620513756948227760e-03
7.208517478704050581e-03
7.385031571927431863e-03
6.514007467415846089e-03
1.455735482793058888e-03
-4.706769142415577999e-03
-5.378320180537603766e-03
-5.092466059755389358e-03
-1.941895356790903802e-05
7.070621015801061005e-03
5.467765784117022479e-03
3.073393842059376005e-03
1.853501845781077356e-03
-6.660823929247907099e-04
-1.064989236473830227e-03
-3.688841261695104384e-03
-7.052200948619435396e-03
-4.755615069768899354e-03
5.461535218767071733e-04
1.183103007514509000e-03
1.283452607072394663e-04
4.833323024478788400e-03
7.110097160274281812e-03
3.689707815474511671e-03
1.178848119412469198e-03
2.375709356031025562e-03
6.454963435000511500e-03
1.504540701917106427e-03
-9.420008574136525328e-03
-6.630973644942453685e-03
4.670535538601187052e-03
7.640509831630696788e-03
5.127203949491551671e-03
5.859124324636247848e-03
-6.696088951913220337e-04
-1.329495266271433704e-02
-9.038866580773323098e-03
-5.101257845928286938e-04
-5.877528665883288532e-03
-4.250431505299856472e-03
8.069463793771223040e-03
3.391538336960126833e-03
-1.657237395502997312e-02
-1.682599364456064533e-02
-2.671025453419993874e-03
-2.198751191419919503e-03
-2.289774605365027266e-03
3.565427191747436858e-03
5.754039211144209610e-03
7.902430371854944624e-03
7.135740434752882791e-03
5.370499150009070202e-03
4.157003539863355669e-03
1.390823494407785995e-03
3.397092023337529385e-03
3.380058930645260962e-03
-2.115899943566340157e-03
-4.062375769455758671e-03
-3.508672645945341492e-03
-1.246859719620325470e-03
4.108206375446457441e-03
8.497454083974571859e-03
9.455641664491618720e-03
6.979882772625737447e-03
-9.141141166778472306e-04
-7.443541691271266490e-03
-4.527373449747419329e-03
-5.369210162487659740e-03
-7.356979992058290153e-03
2.885568838046457564e-03
5.350728975767039992e-03
-3.369175285349416699e-03
-6.427673743955275923e-03
-5.087494188026402304e-03
-1.925966506212354462e-03
-3.437157763781788829e-03
-5.013918876274827026e-03
2.820584519260387404e-03
6.454280456027224402e-03
1.457291585066345079e-03
-4.893894495292233637e-03
-4.928451017803251420e-03
6.025070930345268697e-04
-1.212664019773478444e-03
2.461038158628868640e-04
6.999467157498736811e-03
4.530981162956746952e-03
6.466911642382776847e-03
1.265023098458235504e-02
9.130515453616858124e-03
3.442167098428642723e-03
3.731671197318733174e-03
7.298474814935894915e-03
1.144810706454841252e-03
-1.206150336695168204e-02
-1.916316703156522444e-02
-2.136664923061624283e-02
-1.578983351892676579e-02
-8.295035197327469551e-03
-7.317595629740734041e-04
1.474824491499198385e-02
1.993774126079367326e-02
1.415677141583526755e-02
1.227978189874116832e-02
5.061454055550247515e-03
-5.532114564784519802e-03
-1.069755954771571017e-02
-1.057507971278915174e-02
-7.223833486578838670e-03
-5.488365958985090380e-03
-5.032580947304487497e-03
-6.825267975694775287e-03
-9.548295891830734308e-03
-1.128931724724132994e-02
-8.591373338873256951e-03
7.083606378491432744e-03
1.828623155554853774e-02
1.273647037416526621e-02
8.411054758346692140e-03
7.924660399148018494e-03
8.419309095325230169e-03
8.653929808294338888e-03
2.259070474139188156e-03
-1.385280591841349168e-03
-1.088896444518496452e-03
-5.360839860562910050e-03
-6.484780781656289059e-03
-1.876923268832259798e-03
1.549939546088367195e-03
4.381435907418018694e-03
6.308220156941633967e-03
5.027098525565825912e-03
3.876661236853101798e-03
1.115246373278412379e-03
-4.243335877832662452e-03
-2.714069355239407712e-03
-3.283412406057578171e-04
-7.309288881504062176e-03
-1.240290191879600545e-02
-1.200672388715940883e-02
-9.936764510214839835e-03
-2.776107116005378794e-03
2.748193868066441115e-03
2.930860822805772276e-03
2.489035062885313395e-03
-9.674725408212454629e-04
-4.365687660596298189e-03
-1.627624012871613322e-03
2.927420829386655730e-03
5.436259116493099598e-03
8.286562440238747287e-03
9.783458701805516564e-03
3.474588801280462363e-03
-2.433362801514539313e-03
3.250116528520850725e-03
7.286493258927309070e-03
7.961820201479041662e-05
-7.024110114566562042e-03
-6.810475355112157424e-03
-2.864781129815042234e-03
-8.661029727900803644e-04
1.229633096733628427e-03
3.915215211108378709e-03
2.091443391801321543e-03
4.078346415516686000e-04
2.309584257137486702e-04
-4.881290710713109609e-04
6.897511551047731855e-05
-3.287725695859940872e-03
-4.610545732621630644e-03
1.685131380493531082e-03
1.183398912897148502e-03
-5.564715779716612916e-03
-5.775768772429190623e-03
-2.238186685889521910e-03
-1.677952077439952261e-04
1.652476393630957201e-03
7.759149190192225374e-04
-2.475983530960889582e-03
1.159748357423322218e-03
6.878969936530643370e-03
5.770367725481307178e-03
5.736295334354693000e-03
6.374217959550107504e-03
4.016239964175005034e-03
1.557232248982669308e-03
-2.846269160906236915e-03
-3.337726746604710842e-03
1.008928028825818767e-03
1.755013438488040728e-03
1.054801654113868498e-03
4.948482740003163488e-04
-8.036255692659829628e-04
-1.063458514027986607e-03
-2.207989318070940725e-03
-3.099834147501934808e-03
-3.239208853923410212e-03
-5.605470876259320730e-03
-6.797055528354448498e-03
-3.511627236553939869e-03
7.393298790805337851e-04
2.001778290184943413e-03
1.703888865781778925e-03
2.692712743775179784e-03
2.091304614152195238e-03
-1.411070736471119278e-03
-4.855525007454636159e-03
-5.315981515551637844e-03
1.909728060510030440e-04
7.073183876081566047e-03
6.650871477375164612e-03
-2.912581953506355385e-04
-3.254005715804242620e-03
1.578955060688337761e-04
-1.476946948859666868e-03
-4.987793312604598371e-03
-3.896133209757843881e-03
-6.179251746329776813e-03
-7.379686368616895573e-03
-5.666627692654308511e-03
-1.556636596614582521e-03
9.384194429449873448e-03
1.365887589437392302e-02
1.234469271685450023e-02
9.083790275802758676e-03
3.971410980495893332e-04
1.913584964567547871e-03
3.307666283337358255e-03
-7.641382846850004349e-04
1.481008666086713150e-03
-1.608809991391031008e-03
1.377373904348145510e-03
6.779184927733576324e-03
-3.393111780120452482e-03
-5.075576711790785213e-03
2.295641455231159801e-03
4.948858138145629040e-03
7.605398172954819062e-04
-4.740084080881672331e-03
2.580673019004910834e-03
-2.594493349420711240e-04
-6.501000987805749358e-03
2.724127895418151316e-03
-1.023601653277177344e-02
-2.429929448626836144e-02
-8.043762592052484603e-03
1.484056439043139174e-03
-1.032235830376541019e-03
6.298453216709964508e-04
3.345058209018406895e-03
3.100288750341595803e-03
3.162849941131717392e-03
6.088667372150262727e-03
2.927475621708999082e-03
-1.141753909478574608e-03
-3.330000103101092394e-03
-5.786711506226006364e-03
9.398405123199392395e-04
1.922727229510537471e-03
-5.505822112827519522e-03
-1.835315790043378498e-03
4.678119987386437049e-03
6.068255252995154170e-03
7.222693664143886236e-03
6.893499671940963788e-03
4.871111475031723610e-04
-5.238588865097453494e-03
-3.580040095403518084e-05
5.735592599619483700e-03
6.754254537113714082e-03
4.001533841089864249e-03
-1.980168875397226094e-03
-2.280596290806640673e-03
-3.858691309115025708e-03
-3.953738045962556721e-03
-7.114373394574600648e-04
-7.002413662047164353e-03
-3.989743833900259197e-03
2.745657977554909288e-03
-4.157413973150247445e-03
2.354687061307172557e-04
7.857432058328495811e-03
5.032524579437673215e-03
4.316536968541296801e-03
5.697156100839459707e-04
-1.641022141347648873e-03
-1.276367755825808664e-03
-3.712885128148173033e-03
-2.362876419192881661e-03
-1.956075418655201480e-03
1.957462204389800314e-03
6.653097290185508612e-03
1.432644580040660963e-03
1.200534715797644527e-04
-1.095958585633823295e-03
-5.418069081886254038e-03
-2.269997408153875441e-03
-3.959093109284017066e-03
-6.439058222763248060e-03
-1.103250403151046248e-03
2.112918350844730092e-03
6.149997058810552711e-03
7.146387446924031342e-03
3.223431095459637283e-03
3.048126018599054982e-03
-2.748797580381414675e-03
-1.122764562180251190e-02
-8.432203106709583104e-03
-3.101561957947748110e-03
-1.655749784204882434e-03
1.558817014404000230e-03
5.023826767499559899e-03
3.705468603476359118e-03
-2.451452941605928009e-04
-2.549802767227897417e-03
-2.390599670700413373e-03
-1.761959679588609136e-03
-3.204426121224103908e-03
-4.632398084574878595e-03
-4.150162755795318466e-03
-8.313735212797372003e-04
6.052018609424099881e-03
1.230500833249729108e-02
1.460843243960992244e-02
1.007276470993110490e-02
1.426273534198423815e-03
-4.998715080427130163e-03
-8.295461951151671814e-03
-3.075068320842569338e-03
5.195089830233969204e-03
5.838292290444086451e-03
5.615004092904129530e-03
4.292332067585234549e-03
-7.913616836065023256e-04
-3.949913169095486953e-03
-4.375817030066450793e-03
-4.486794252750470405e-03
-7.470109245055284175e-03
-6.685812086206507389e-03
-2.481076015286810908e-03
-2.405432562413687986e-03
1.101723272592715092e-03
4.079420992654687883e-03
3.733042453489422013e-03
2.029476874717114389e-03
-8.098842595495620023e-03
-9.755842965683825252e-03
-1.308036729922312097e-03
5.980650128239535426e-04
3.933251423801893340e-03
3.897994790109921611e-03
-6.458352954208276516e-05
2.507413388048310501e-03
6.574812985602491305e-04
-2.809823015021205989e-03
-4.563361821163932578e-04
8.416853640817784001e-04
1.815401952787029519e-03
2.438874789661051121e-03
1.075788947938744041e-03
5.810227150730466143e-04
9.364777220328403219e-04
2.144128044064128134e-03
4.597889938722515488e-03
3.689071837880415154e-03
1.867207420557581883e-03
2.818487479351425903e-03
-9.248153176444339233e-04
-3.684943735279195588e-03
-3.041309533558239978e-03
-4.439183369100180299e-03
-1.371320667887165803e-04
8.164582835674282684e-05
-2.537964586733394701e-03
1.556657748776407550e-03
-3.907578758956665836e-03
-6.766845150374367103e-03
-1.868582448668341554e-03
-2.968923156463097301e-03
9.998776922740984334e-04
1.786248783090852409e-03
-1.694049454584261715e-03
-1.281225395588158570e-03
-2.495532726752972864e-03
4.241363286778047220e-03
6.003550358792346386e-03
-3.951775084446321282e-04
2.348017769052446711e-03
2.156470240704493838e-03
2.259431851929742142e-03
5.976204420412023488e-03
5.234934140829819275e-03
3.913956520515821103e-03
-1.177301678480746801e-03
-1.442434044582182814e-03
-7.685559022764262924e-04
-8.392936452145770623e-03
-6.235451093468330659e-03
-5.603731651025365378e-04
-1.129417717636242496e-03
7.614855397748279209e-04
1.700813525085995755e-03
3.723334576304297271e-04
-1.874004579208689769e-04
1.443619374804744901e-03
7.218336647211653304e-04
-2.291113001673737541e-03
4.386585073829587004e-04
2.779090882528535179e-03
4.088530566467069374e-03
5.592134508549572586e-03
1.662460497444413722e-03
-1.259970847569251125e-03
-2.847072305428779895e-03
-3.336127945567410324e-03
-2.667828135090643225e-03
-6.993412315854135447e-03
-8.115431478215704222e-03
-4.855855127471291402e-03
-3.646769786712234646e-03
-1.962258586870238315e-03
-7.817766686851898789e-04
2.631692256835582028e-03
5.823957957698042663e-03
1.541081050394855307e-03
-2.200247212113841909e-03
-3.362401733295368325e-04
7.065741211613652982e-04
-8.823420598104150196e-04
-1.713722653935360982e-04
4.469929196832140086e-03
7.384526453295361080e-03
4.416530936412122431e-03
-1.775693839513893795e-04
4.207378334049076060e-04
3.472927950352473151e-03
2.402868498684472900e-03
-7.798313904870274055e-04
-1.511539759896016449e-03
6.897046244716018926e-04
3.812561843014236444e-03
7.612948887010533190e-03
1.090536089372999042e-02
7.580876024477785531e-03
-4.175789859876665594e-03
-8.690520918467975475e-03
3.108351001782821803e-03
-1.229116325250985582e-03
-2.279090736756815214e-02
-1.421496484814367862e-02
3.006906483367689786e-03
3.197682600834737300e-03
9.056042283645411237e-03
-4.834581072982774459e-03
-2.317500409443021617e-02
-2.764212570307567063e-03
7.324319503662934418e-03
-2.162969526761226047e-03
2.068876456561615212e-03
6.302523711478342909e-05
-4.254093416518721013e-03
1.839515080426705126e-03
6.767079790558848916e-03
7.100283916317165142e-03
2.274534710033449068e-03
2.119778302627484817e-03
3.039491687437836757e-03
-3.026287170009233588e-03
-2.481453331487576755e-03
1.915133774576816819e-03
3.503234977951956864e-03
3.202726916724734675e-03
2.733795473958422657e-03
7.283381309607896842e-03
4.682848146283139119e-03
-3.949337644465450436e-03
-5.795834102054209409e-03
-6.025246483468821995e-03
-3.833595105206939919e-03
-4.064628427398159216e-03
-9.368267324409774652e-03
-7.717812598721806618e-03
2.014550109937215516e-03
1.109908597099498739e-02
7.029762304845317555e-03
1.595337023267764292e-03
5.858470596217854771e-03
-1.362851226192529110e-03
-8.700834218035347761e-03
6.904163299708083925e-04
8.059887211658648895e-03
7.444307186555583315e-03
2.687957037941653658e-03
-1.474307977192464538e-03
-2.124251066159905423e-03
-1.030861961444143587e-03
1.436484318021562885e-03
-3.859101637331172410e-03
-1.018636918719561905e-02
-7.435059744936975759e-03
-5.301850390050851305e-03
-8.122366141132023824e-04
6.675821220681479352e-03
7.650035678997878230e-03
4.567818274915417219e-03
1.382470239008223595e-03
-1.852437922698894901e-03
-5.258981805764256778e-03
-4.571483563626849503e-03
-4.148409875391108489e-04
3.240832087320360926e-03
6.807440117912530106e-03
2.874126816972743213e-03
-3.814380711866406995e-03
-4.380760149167688654e-03
-4.021444446192510777e-03
-1.958832838562901170e-03
-2.668439708158856522e-03
-2.347955676563393945e-03
3.045544095748291963e-03
-1.384684854487908340e-03
1.150843903092381394e-03
1.216358753993241996e-02
4.580716276369222947e-03
5.869172724832826329e-04
2.934021099339188549e-03
-8.008796147880813815e-03
-8.084099168929867463e-03
-2.111071474858476347e-05
-1.012404842526953971e-03
-9.311633964742430190e-06
1.062454681787228239e-03
1.748752494923438289e-03
6.921264075083575096e-04
-5.367259031780104682e-03
-4.933329706657506569e-04
7.498554890999916366e-03
2.409029692557755967e-03
-3.865243884892687314e-03
-4.572933050754628310e-03
-7.732479109941467824e-04
3.011760209204297160e-03
1.671130489580648429e-03
2.203586381409553246e-03
1.355115002024481329e-03
-6.164001494063930942e-03
-6.669461786746665004e-03
2.076103288403402438e-03
5.640775329918690240e-03
4.012459655902930397e-03
4.269933575805677506e-03
2.797133406684561285e-03
1.853331289155796474e-03
5.373746902519035626e-03
3.665488257617937132e-03
-2.701394564915112276e-03
-2.750504791222048353e-03
-1.686936902486814004e-03
-6.273610846483664190e-03
-8.361132077265883214e-03
-4.836213020616883865e-03
-1.938001610202962337e-03
3.719208591441599252e-04
3.391368302136924060e-03
6.199505594425700622e-03
7.033268330209434087e-03
9.739762674982725427e-04
-5.451624449887062032e-03
-2.747694363913901795e-03
3.552736091264845205e-04
-3.382833711436907670e-03
-5.212400409736619479e-03
8.425877493515286382e-04
4.934790378364601465e-03
1.480082837377608629e-04
-4.450545331690810430e-03
-5.239396111918464410e-03
-4.819524665962279623e-03
-2.646486429441813684e-03
-2.109213636275687493e-03
-3.812068770738711622e-03
-3.455236051046246207e-03
4.253943063607698583e-03
1.559741929953970679e-02
1.537154246357398148e-02
5.354865115157512317e-03
-2.837220318134786416e-03
-9.124858010856776863e-03
-9.330861394098357436e-03
-2.336491993588406431e-03
2.421864899780142889e-03
4.266725779354529555e-03
6.373641721750250046e-03
5.585347585744020182e-03
2.847398722219287529e-03
3.869327519193085973e-04
-2.984467344292044723e-03
-3.358770700426195414e-03
-9.126955808937832048e-04
-6.657108522051275595e-04
1.463952196567285587e-03
3.342288600389033745e-03
9.487363400510790291e-04
1.755998220131615344e-03
1.594826694160399443e-03
-2.184550636110455489e-03
8.212159802588859213e-04
9.662464709984039390e-04
-6.456571926882297835e-03
-5.456730664740265350e-03
-1.674716813987197879e-03
-1.319230362089333138e-03
3.579063720729244030e-03
4.069072001734235985e-03
-3.011519085557226930e-03
-5.318172449526705273e-03
-2.968966246717870492e-03
-5.315611301972557670e-03
-9.767956424085301112e-03
-6.044402522357986661e-03
-1.908809263123132901e-03
-4.212891680185765209e-03
-1.404529424085197795e-03
7.881907785677717826e-03
1.289427240914476670e-02
6.432525625432522313e-03
-1.459098995269888241e-03
-1.883675592443675301e-03
-4.173488782424399079e-03
-9.673656770626956006e-04
6.654668618006891190e-03
4.886338064497678518e-03
8.093869831265183487e-03
1.142599650148614331e-02
1.751854347193709934e-03
-5.156337613833252877e-03
-3.860044005603073102e-03
-9.742353646258983756e-05
-1.420603522171798305e-03
-4.195277047104946540e-03
-2.386012573277187729e-04
-5.122605706067940787e-04
-1.473088445685154799e-03
1.586837881006241497e-03
1.417383967683688963e-03
5.370930200335815967e-03
1.068289436754474644e-02
7.222458317654774189e-03
2.424285532580498781e-04
-1.733693946903397398e-03
-9.852316280584827793e-03
-2.049035228495213121e-02
-2.631526048778626455e-03
1.039249556831047840e-02
-1.158131516226914692e-03
2.299968242817690758e-03
-9.945428151388043675e-03
-2.621531774129208167e-02
-3.310355822220947862e-04
7.061412759192317069e-03
-5.493829002432827797e-03
3.013576773562032154e-03
4.229083505917990461e-03
2.819830674245801284e-03
6.285623719695285737e-03
4.773104184497616205e-03
4.435048280260855784e-03
-3.658440141494524213e-03
-6.768862848968874857e-03
3.659726014504868959e-03
5.309374352020467848e-03
3.112371894229359025e-03
5.712938156126338290e-03
2.034081367477085303e-03
-4.078538825432219579e-03
-2.188824931361289979e-03
2.669430608644596942e-04
7.024710913561926610e-04
4.895787337086050447e-03
2.792037165543300239e-03
-3.119172657532943375e-03
-2.534444532115366806e-03
-7.616425169513687393e-04
2.701403772059530681e-03
1.338847053447376079e-03
-3.088480784438574645e-03
1.119911719416468148e-03
-1.931061550139091809e-03
-7.960705427065978279e-03
-3.564447625112288857e-03
-5.103590797731800618e-03
-3.794552948690565856e-03
7.029381143081881757e-03
9.522095807654578151e-03
8.198145940272450610e-03
4.113181026916158146e-03
-1.504075233085167386e-03
1.576725547975614929e-03
-2.189690590355109466e-04
-6.196246536162342694e-03
-4.751715293091892008e-03
-2.665720605509184788e-03
2.284211529757625321e-03
2.877619777114996148e-03
-1.002610696138171980e-03
6.622023695598368287e-03
6.228296954346497364e-04
-1.994053826922638495e-02
-1.297845806488539568e-02
3.281454401823790876e-03
2.505952198826660524e-03
4.885304857661573741e-03
6.053359439089731064e-03
-2.470199770597087622e-03
-3.152246558244567367e-03
-1.185317901169638012e-03
-4.649287249979105335e-03
-4.514545264350211008e-03
-1.966316522750797581e-03
2.056106524173192951e-03
1.362903811393958260e-03
-3.651473059392514476e-03
6.214140790376830766e-03
1.673852897328947931e-02
1.005142834303028240e-02
3.102020541064213002e-03
3.667666904594868611e-03
2.962558308414522338e-03
-5.906181610768759284e-03
-6.877004271492834220e-03
3.029420124417943946e-03
4.646097124350713286e-04
1.059945446078528570e-03
6.232782591061565222e-03
-1.779185334423851643e-03
-3.741781474775839750e-03
-6.083247645534082745e-03
-1.029308736742140171e-02
-4.623468640677499270e-03
-8.727804319682336623e-03
-9.058586857986756710e-03
2.431281374141103929e-03
4.962753571764854515e-03
5.902176149999894747e-03
7.238708330473533036e-03
4.461989777465216744e-03
-7.611998096256327589e-04
-4.228251779307835856e-03
-7.590431031823343571e-04
-4.369194066243523760e-04
1.281690475195550270e-03
7.733402527259220123e-03
5.544464572162721532e-03
4.872567603144872979e-04
-1.910551618171870379e-03
-2.445910156998431974e-03
-9.469781086276869361e-04
1.051252059681422046e-03
3.197618076558929497e-03
-1.269711179904921446e-03
-6.751397421160185847e-03
-5.325692908105718153e-03
1.077561330112164050e-03
7.136402291152200462e-03
2.468155570473929902e-03
-3.017400996592028897e-03
-2.642129280965277091e-03
-5.202507841846303917e-03
-6.055911448716621778e-03
-6.622610357138191545e-03
-5.210064958279664316e-03
3.149366396339363904e-03
8.749766980146305231e-03
6.373084073119215757e-03
-4.454954415019716086e-04
1.867248828005220549e-03
1.103124796962719374e-02
8.869619171722135237e-03
4.314869934709922999e-03
4.479181651839667794e-03
7.298231266961881496e-04
-3.739045424135149179e-03
-1.530332682713968825e-03
1.059582098421864944e-03
-8.097778316345335264e-03
-1.389924446044221197e-02
-9.512664711562040729e-03
-1.571685386877873930e-02
-2.183003795055053764e-02
-1.680594096833110118e-02
-1.140254835726053038e-02
-3.501367392985818821e-03
2.689365042753668646e-03
9.540493375595742592e-03
2.063602740625109302e-02
1.908766601618809219e-02
1.655099352702326526e-02
2.534591043435967944e-02
2.423227306936542175e-02
1.820977251045110060e-02
1.945044097331080635e-02
1.548589193401928715e-02
6.812853393039101924e-03
5.702646416164410892e-04
-5.682209345925717456e-03
-1.793815567390572366e-02
-2.773644714306800624e-02
-2.458935341186380130e-02
-3.003964172470166560e-02
-3.450497671791332571e-02
-1.618493020937106577e-02
-5.118638024489041011e-03
2.316483275965217949e-03
1.073127920780411054e-02
1.178747306006841175e-02
3.373575966818476851e-02
2.574473475051040905e-02
