-2.186873646651231809e-02
-1.567029380717373938e-02
1.105923504144505805e-02
1.647696137614752462e-02
2.830880571783258443e-02
3.546878025352687147e-02
3.563131108230145616e-02
3.582546253355350235e-02
2.526297725412126813e-02
1.402544569478174526e-02
-1.249104661350919137e-03
-1.650512144080856086e-02
-1.983356795066694780e-02
-2.746633136366275971e-02
-3.999968726060518232e-02
-4.524722838515915502e-02
-4.536263059664605996e-02
-4.661428476345768485e-02
-4.606547296106004025e-02
-3.508228322649434988e-02
-1.935453909625661773e-02
-4.296065096082856902e-03
1.059601682343528847e-02
2.302384014876680818e-02
3.077741683863766120e-02
2.892468020467696410e-02
2.735011496308633813e-02
3.105751874424296510e-02
2.534716062083625099e-02
1.362703000428793984e-02
4.378796299931310594e-03
-1.036133262978136075e-03
-2.003135653527323909e-03
-5.596687736582265163e-03
-1.021443266623738022e-02
-1.253160736017118991e-02
-1.324689412117850337e-02
-1.473949872110144610e-02
-1.960544137913496424e-02
-1.361762978166397055e-02
3.494542403872172038e-04
6.140241669626851639e-03
9.509678574559966152e-03
7.883339698700720169e-03
5.454207730261451982e-03
1.270581466043697004e-02
1.565532601319387720e-02
1.403240186517202420e-02
1.404218627757884176e-02
9.576037516722885751e-03
4.022391747908896434e-03
1.759121149818113853e-03
-3.057974183403440417e-04
-6.242130510593455785e-03
-1.464716438659149824e-03
9.132619942424291190e-03
-1.313528002350070230e-02
-3.651730659760084319e-02
-1.786690638381959600e-02
5.690878302235802266e-04
4.600168542722106804e-03
1.154192648936444923e-02
7.001958004824822800e-03
-2.081564521898736624e-03
-3.653120632620768422e-03
-3.870840753522251931e-03
-9.021082830036456814e-04
1.681869482570265981e-03
-2.136744897365998666e-03
-5.282094785149546272e-03
-2.915725114207846393e-03
-1.276816360364291204e-03
-6.195895032210185999e-04
3.286309191241132584e-03
4.142794414058362240e-03
8.373298267880924630e-04
-6.877408590342381101e-04
-2.815876232245002019e-03
-4.646849465641365515e-03
-7.282231238843856706e-04
2.867214317340287168e-03
2.220442062349622849e-03
4.897202768495424220e-03
5.439836903363655558e-03
-9.850810358944788597e-04
-3.232389319577499455e-03
-3.787011693900049249e-03
-3.908639473421002264e-03
1.380461988010966371e-03
-5.768623529005803205e-04
-6.548029812403011532e-03
-2.962147128188411752e-03
3.691062138286479652e-03
1.071683914572862245e-02
1.347572702754942439e-02
5.567672779823836654e-03
6.828847385639698862e-04
1.028227576821846194e-03
-3.777960743070412405e-03
-2.612663382606008819e-03
5.951643303414584640e-03
6.267788225898459492e-03
2.201919811136386889e-03
-3.700240877639366169e-03
-9.795770193293433861e-03
-6.453481888090676147e-03
-4.831102850343846865e-03
-4.292581523979343595e-03
6.694636439162474952e-04
-5.906728772135991408e-03
-8.955392732528388161e-03
8.001688106342594526e-04
2.004270531631622242e-03
1.495974490599394184e-03
4.047074559451318936e-03
2.721714854126477089e-03
3.382844337176265509e-03
1.524076274896348383e-03
-3.269154305354325402e-03
-2.068363114376321928e-03
3.233827958156833271e-03
7.063765876083073769e-03
6.693001730845874776e-03
1.533269725583877568e-03
-6.608433123832161034e-03
-1.060547651926904526e-02
-7.579081805191145195e-03
-3.828060913203690935e-03
-5.459954006511015621e-04
6.557986883788258095e-04
-2.613239920160193106e-03
-3.686651082038004852e-03
7.991445404810871905e-04
6.226745860077735270e-03
7.687134446159480002e-03
4.509855315498727084e-03
2.790122267264980895e-03
4.194779584133721470e-03
1.234676407920681481e-03
-9.832654259617509915e-04
5.416125898949721018e-03
6.893141992575584423e-03
3.760762279320630386e-03
6.370185730379305210e-03
2.742346570411672863e-04
-9.319656587994971236e-03
-5.211722977275808251e-03
-2.653592157787949130e-03
-6.705657125367125819e-03
-7.289783648203048728e-03
-6.832334454391206756e-03
-4.064335467770238859e-03
-6.722116466842840629e-04
-1.340715405355445526e-03
4.531253528090757599e-04
3.620771834436206389e-03
1.445238277866496687e-03
-1.475938034548590540e-03
-1.960591306079948522e-03
-2.174835442644038573e-03
3.809808719675636390e-04
6.082268267209972080e-03
7.735147380488289690e-03
5.351294600179382251e-03
6.970752103345339429e-03
7.864451769388918628e-03
2.840229745288689375e-03
4.495788511095119263e-04
-9.945456045832479393e-04
-4.843952556053313964e-03
-4.771198382209775914e-03
-3.914388630594579574e-03
-1.860379613065738695e-03
4.498364549564053474e-03
8.418266076080874877e-03
9.215822112818933265e-03
6.486884704768031314e-03
-2.258468064986998008e-03
-1.005405309578546666e-02
-8.451873881218884693e-03
-1.036570590833227291e-03
-8.344601847015268355e-04
-7.440760372422564398e-03
-1.262554720271020191e-02
-1.624905985366264724e-02
-1.820144480136771936e-02
-1.846663601396487941e-02
-9.336096793641631905e-03
1.061224977161878517e-02
1.967604245695453793e-02
1.274601730022876557e-02
7.219981928830086944e-03
7.594642091027998046e-03
5.563666884145689051e-03
1.656649846487908686e-03
2.389517664304908681e-03
1.716968014097907443e-03
-1.681426512681036050e-03
-6.818950326840792549e-05
3.527081118427441951e-03
7.354178869282890739e-03
1.011862845586940403e-02
8.013799568802805473e-03
3.866897451385276595e-03
6.128128233614193142e-04
1.236226403439216921e-03
1.067496414280388016e-03
-4.313711403487910205e-03
-5.499116410342990563e-03
-3.594938912905720416e-03
-4.914980373064301022e-03
-3.442747446970871681e-03
5.858702602060049088e-04
2.021497314743946755e-03
3.074095487887386520e-03
2.716682335035202917e-03
-2.926109569578347032e-04
-5.098397307174101865e-05
-3.061377895739007815e-04
-4.703918839523171976e-03
-3.413596300268351928e-03
2.424148228835820186e-03
3.884457221820404507e-03
-4.176828049777483618e-04
-6.931067068713697883e-03
-9.121229424539092911e-03
-8.815094955085258158e-03
-7.830391087562718275e-03
-3.191882593111404227e-03
-3.196263511933396251e-03
-9.700728934720143776e-03
-9.571627095308302136e-03
-4.902497696598336757e-03
-6.849970053833222099e-03
-7.414474203284416101e-03
8.295620206903116028e-04
1.157429987893062936e-02
1.928549879590148175e-02
1.594932155301234666e-02
7.196084097879279495e-03
7.031726193332499611e-03
9.484014208884889233e-03
9.343110940906057885e-03
5.069615337080085604e-03
-1.356155918469103888e-03
-6.838678469972594423e-04
4.990446342161751567e-04
1.192770652813135261e-03
3.735148230127196579e-03
4.277546494372964458e-04
-6.232151929543959393e-04
1.127433174210607371e-04
-3.972234640774778558e-03
-3.524134535178969664e-03
2.878052710580618519e-03
8.779047219249271408e-03
6.223484095610966674e-03
-2.879779908713521810e-03
-1.067289748356990177e-02
-1.201835963566265722e-02
1.013765046630987939e-03
2.653513026638733459e-03
-1.733335149278850476e-02
-1.526928065068416940e-02
1.368359351492113608e-03
1.073548824488071473e-03
-1.176565143961388459e-03
-1.150946998018632602e-04
1.044083261490128065e-03
2.935650172692577838e-03
3.829931410743761771e-05
-1.142306203860272464e-03
-1.347298271177010129e-03
-4.599898948200781615e-03
6.562680907491063621e-05
8.264334076994247699e-03
5.288042186860106124e-03
-1.276534283112999366e-03
-1.064690106753568523e-03
-1.216651496599414846e-04
1.208530808812918527e-03
3.955692100832749504e-03
4.454508721384762941e-03
7.149208516784464826e-03
3.409800000698408502e-03
-8.545257553220797844e-03
-7.465153143441126578e-03
-1.022542795272530104e-03
-1.785120441116964203e-03
8.802799545102272388e-04
2.054722094509380068e-03
-1.618064437038297266e-03
-1.721697965914850388e-03
1.856706931689572349e-03
5.422959843952909059e-03
3.736657665289535701e-03
1.961923699665298754e-03
3.397793971147277693e-03
-7.129820002843090601e-05
-1.756679375590655939e-03
1.801300869689074265e-03
2.146142760980848403e-03
4.202833732208985503e-04
-2.377904863207794869e-03
-3.191413552118022891e-03
-2.129719227859903658e-04
-2.366223516611897990e-03
-6.083874185927037187e-03
-1.671040103076880086e-03
2.894756913145707985e-03
9.193777278056741026e-04
-1.525604228293473167e-03
-1.654718865478673438e-03
1.503141060497449437e-03
6.660688662528248954e-03
4.931708816063730405e-03
-9.556637657196713053e-05
4.765761884076770861e-04
-7.946410803224229855e-04
-4.155271128949962998e-03
-2.429391047437951662e-04
5.232711423362928181e-03
4.574160523548253220e-03
2.005468523027247214e-03
-1.906845879181300789e-04
-5.694358668742755675e-03
-1.297193159955352393e-02
-1.352920453258100661e-02
-5.154235171368006657e-03
-2.588513953693914065e-04
-3.450444691847243985e-03
-2.140171588483561101e-03
3.362122506661565182e-04
-1.745085630622010726e-03
4.027756400044033014e-03
8.355136534561154876e-03
1.224381509320209352e-03
1.361839814874610602e-03
6.807526952698937477e-03
2.070948950228787121e-03
-2.400153865054638087e-03
4.225926956851565504e-03
1.125515352188200154e-02
8.084489692611898648e-03
3.740311314912585661e-03
4.332556170132250729e-03
-5.512061630690027938e-04
-7.182903394740199760e-03
-5.253993213322193448e-03
-3.609866489363171282e-03
-4.982853773789324044e-03
-3.763281407253187168e-03
-3.294993221852402301e-03
-2.085421311034994047e-04
3.855975203615733850e-03
2.044231289273275125e-03
2.586934608950224816e-03
9.441463969795901336e-04
-6.393652829511878126e-03
-4.673701825987911472e-03
-5.321928928958697801e-04
2.699139363206436203e-04
4.314989353730876165e-03
2.681874136984727271e-03
-1.574588342588230817e-03
-5.337335347494105448e-04
-2.307346792983353944e-03
-3.281790937495810724e-03
2.188399165738607894e-03
5.040423535258468229e-03
2.018557359162282197e-03
2.706070557794266161e-04
1.261043716236813234e-03
8.285201192129248125e-04
5.962462552942456332e-04
5.601542635965027972e-04
-1.453841446135291891e-03
-5.458878656870740000e-04
1.181951761189629652e-03
-1.445763147078964108e-03
-1.390392160002473570e-03
1.882079564124033554e-03
1.491920883749224503e-03
1.647764279703331806e-03
2.723496140317406295e-03
-3.413520820218379943e-03
-1.145922640807837782e-02
-1.182219776272106990e-02
-7.847458120331326364e-03
-4.637092513968145598e-03
-3.099425208466234562e-03
-3.010792532711692449e-03
-5.564702449920733845e-04
5.120420104229002692e-03
7.800757948337280409e-03
7.674214967738841701e-03
8.348733533921957536e-03
4.202046681557795524e-03
-1.327140936680727863e-03
1.596424454128437262e-03
4.378655782070489492e-03
4.157394109461779071e-03
8.959311119565072437e-03
9.479490467712963983e-03
2.913381569910157738e-03
1.026963369787646128e-03
7.165869315010708982e-04
-3.093925176340581000e-03
-5.125935336534726168e-03
-1.838699482451477268e-03
1.896978841641628255e-03
-3.688755629720008502e-03
-8.792392027793707876e-03
-8.643292867802018515e-04
3.255737752490202395e-03
-4.777397391843834357e-04
1.781099180815812807e-03
2.427232882851121723e-03
-2.645383251019018788e-03
-4.798273400366105321e-03
-3.643938947074175372e-03
-2.069431238109160475e-03
-2.640982894706574071e-03
-2.745989004650247964e-03
-1.441732664572992597e-03
-5.323482634843342866e-03
-1.048178873290564472e-02
-8.819037149548953139e-03
-4.184583762295455457e-03
-9.931649809282159808e-04
1.286715173132379217e-03
2.113341900675837215e-03
3.312993303573931805e-03
4.616987505705470035e-03
4.577196928291318336e-03
8.883090838183041807e-03
1.125569069504994170e-02
5.778849334737848516e-03
3.665744495173987177e-03
5.484556398635024536e-04
-4.344660409257031231e-03
2.182400331227652649e-03
8.171522254213907377e-03
4.281316002118324034e-03
-5.765945696372243691e-04
-3.704241586148797512e-03
-3.746322063679771372e-03
-3.285587272179241354e-03
-2.822138763090861410e-03
2.410432856290963596e-03
3.519886769383139078e-03
-5.330582515250357513e-03
-8.814107726654146421e-03
-1.395853918676030932e-03
1.689833753629026115e-03
1.496481225821781440e-03
6.494678119339536773e-03
3.725395860681027151e-03
-6.537360652827470774e-03
-6.454243796609515464e-03
5.764917168143432816e-04
5.459788959105670025e-03
1.082222704139692085e-02
1.156493701907709316e-02
3.455161025382902373e-03
-7.043407248476171723e-03
-1.700380743770211686e-02
-1.708514927000135894e-02
-6.124781256001608082e-03
-7.231503165277085440e-04
2.449293716575758756e-03
4.739781359771759461e-03
2.358503237608158484e-03
4.920553983113668851e-03
4.977098949428090079e-03
7.856138474648648867e-03
9.181154706258017745e-03
-1.526091958305644466e-02
-2.695939860311584099e-02
-7.824888369506214150e-03
4.557833130508258564e-03
1.120586259174742930e-02
1.451984434821235008e-02
1.098139979259526479e-02
7.937360290094362669e-03
-1.685028140356526405e-04
-5.706592119061418625e-03
-3.574259758955595188e-03
1.003773208584553180e-03
5.458224734546900971e-03
1.769675210735624114e-03
-4.726875246808031651e-03
-8.004032334077253175e-03
-4.562969043771934047e-03
5.877760621198740987e-03
4.979563329610176177e-03
-1.683727075785128920e-04
3.681236204175442669e-03
-5.710134614342571129e-05
-6.870552023761656094e-03
-5.741831370550710967e-03
-4.656111058331249657e-03
7.707687775673758472e-04
7.777729395665877385e-03
2.686379498398992240e-03
-5.797844543341880083e-03
-7.327390849538132148e-03
-6.601241300552362391e-03
-6.244524198834173513e-03
-3.800672923125273869e-03
2.774058448953069852e-03
5.017389471985323791e-03
7.597977047489748795e-04
3.273610755428789983e-03
5.151766569911723180e-03
1.308598646801933420e-03
4.656276310653076171e-03
5.069299874384110456e-03
-1.362330932903151135e-03
-2.912364421164606847e-03
-1.493105714820624347e-03
6.308849934802436034e-03
1.430893981628303738e-02
8.747891131026030997e-03
1.263000113348019572e-03
-8.002034986617152009e-04
-2.626500385843656433e-03
-2.014578163209609397e-03
-3.150708240548384925e-03
-8.187868124990609064e-03
-8.122883150029678798e-03
-6.052380302536932571e-03
-6.998799437042774359e-03
-2.838574612654946264e-03
4.644442279254342235e-03
6.399478631060257112e-03
2.824059134590292328e-03
-2.332195288026426292e-04
2.452920363807412291e-04
-1.954892429796649834e-03
-3.210843865042052863e-03
3.622509534493331858e-03
6.365353290830409044e-03
2.335729818749425826e-03
-1.716206847347332776e-03
-4.861147902512395237e-03
-5.383853537750563772e-03
-8.622783556348731157e-03
-9.153432920238244522e-03
-2.438805522891050823e-03
-2.082136787706246207e-03
-2.722602086381495021e-03
1.198205866025755162e-03
1.419654282244750586e-03
3.139597804152410507e-03
7.964001113910478338e-03
9.918406687396946059e-03
7.232021302460806336e-03
2.371329787744256255e-03
-2.508064121417340978e-03
-4.728196466613868686e-03
3.627286026758870692e-03
9.350155182682472199e-03
3.721306138397096914e-03
1.428572267249469431e-03
-4.781362839097538786e-03
-9.200268843312747052e-03
-1.777871066095663543e-03
-1.171968794092837938e-03
5.013263372375936083e-04
2.610341493029744164e-03
-4.310876925035858620e-03
-4.982440991166926184e-04
4.977851908583697145e-03
4.218230851104740400e-03
4.949729931300502796e-03
-1.420093540443481076e-05
2.117800281827273735e-04
3.640036710517332175e-03
-3.556485775310695924e-05
-1.387734604916255384e-03
-1.614065512395042225e-03
2.027453931023946113e-03
5.575613760457794922e-03
1.602115352143517347e-03
-5.709473093126940903e-04
-6.693265839028411310e-03
-1.205327747065181206e-02
-4.814284925563412643e-03
9.751699242214234738e-04
1.525732670667364656e-03
-3.838142459164234094e-04
-5.960433681636252874e-03
-6.412967327776354989e-03
-1.132866155187509062e-03
2.059017052943319659e-03
3.871012851092659086e-03
4.626206335408470857e-03
-1.214745872732157306e-03
-5.565073392303119919e-03
-3.710853201204203106e-03
-5.644291090996153386e-03
-3.020548485969623553e-03
7.072669484225323211e-03
9.240385236832383831e-03
2.884201082349996045e-03
-1.906285090837887526e-03
7.695987859876092258e-04
-4.175150924852247497e-04
-6.377281687149158156e-03
-6.094137146093527588e-04
3.958739165495502033e-03
-1.155494614567039043e-04
2.471614471965677060e-03
9.048955685427345977e-03
1.127167559177227364e-02
6.420584299279432847e-03
1.638441000128049510e-03
2.473156945765783189e-03
-5.083213779822396382e-04
-4.758758342337398098e-03
-2.581595401290244420e-03
2.753900250659581297e-03
4.812217813117160986e-03
1.669135039592397479e-03
-3.233600244050495627e-04
-3.149053027396110736e-03
-8.292174500235373336e-03
-8.747887666960222491e-03
-4.840336663883689113e-03
-9.138134060386157893e-04
-2.596810639202585570e-03
-4.126282253488764047e-03
-1.763436458558689454e-03
-4.541854476023204044e-03
-6.999995749214525447e-04
7.747453042390778886e-03
2.067498516814010069e-03
-3.323394949200901820e-03
-2.985396106572981312e-03
-4.885300836236944680e-03
-6.902094406072527277e-04
6.215696748310981477e-03
6.573136947887606336e-03
2.607087351480294642e-03
5.006435240336338122e-04
-4.624105845258646812e-04
-3.314310684909655032e-03
-2.561586054833948824e-03
-7.672811717157408846e-04
-3.346270824060495336e-04
6.948038535006678413e-04
-2.333905090140042833e-03
7.939194528726605145e-04
9.109740463964033710e-03
6.711950340071858208e-03
3.610602347720033405e-03
4.692531005719119408e-03
4.743112996439443826e-03
3.771233150114117454e-03
-2.167000067337057894e-03
-2.702511650510369852e-03
3.751748518122418295e-03
3.922418622247525639e-03
1.228006143210940955e-03
-6.127423438287752343e-05
-5.027599519800430563e-04
-3.336431877617309499e-03
-8.407490445809358282e-03
-8.140920543994189379e-03
-4.114630259355408874e-03
3.005603486695250645e-04
-9.938491299486236843e-03
-2.902517427214719101e-02
-1.500019490256733479e-02
1.149514924273803071e-02
1.303783063912479501e-02
9.990529941615682724e-03
4.346127709166506745e-03
-8.653921707199280873e-04
5.895298686055764487e-03
4.298787629567480707e-03
1.622968781220013182e-03
8.196370225589628272e-03
5.553765077797629020e-03
3.407212092963084671e-04
-1.154659223084112969e-03
-5.005492400971279024e-03
-4.963098919243860707e-03
-1.638907368762162076e-03
1.937916790927639386e-03
1.703021092575115417e-03
-5.249171742675623649e-03
-5.422216940106886970e-03
1.317741884829324271e-03
4.366768251330195409e-03
6.428520866916111881e-03
5.136251224288910025e-03
1.337034998200486210e-03
-3.336999928706351729e-04
-3.505118436856716809e-03
-3.917771945434876668e-03
-7.527316994071044706e-04
1.295269965036890611e-03
1.467152742456410150e-03
-2.658491598698516784e-03
-5.611438604025419802e-03
-4.356241951110176140e-03
-1.136606986822430269e-03
3.370109961144525552e-03
3.387477769876740766e-03
-7.027317575677803759e-04
-6.562395510354718936e-03
-6.574289586953521898e-03
3.931429817416684860e-03
7.483357246508343628e-03
3.901786031467866910e-03
3.641451502888048454e-03
4.383638273230194143e-03
5.036065664986742914e-03
-2.970890484598956785e-03
-8.220317554169628144e-03
1.438844880352857557e-03
7.195898437149457309e-03
7.233942219503720038e-03
3.872891447585010988e-03
-2.968557667111340701e-03
-4.264352787012554852e-03
-5.546085833851103694e-03
-5.391323806099583733e-03
-2.810851783615710576e-03
-3.855867941920491492e-03
-5.535923955193935118e-03
-6.270231094473064162e-03
7.924379817025738355e-04
5.923903182271451733e-03
4.305984856526148298e-04
1.938127177802791146e-03
3.923482235251855160e-03
-2.936818456085785352e-03
-7.451687162587846205e-03
-6.311023229317620255e-03
-1.650222744642607792e-03
4.789974366420397399e-04
3.579367943861715747e-03
6.126189237719419436e-03
2.096472858509857654e-04
-1.173930821901626731e-03
1.383869410576997559e-03
2.549352257381210483e-03
5.867645496916369489e-03
2.415681107138704410e-03
-2.092600294182107509e-03
-4.543173384057921926e-04
3.672602187659866884e-03
9.413843591035919722e-03
7.962530217275647776e-03
3.122512876423452505e-03
3.152418903611221151e-03
5.484432936387488621e-04
-6.949213175140037113e-03
-1.003938156628213577e-02
-1.403084784947256905e-03
4.504637748527348315e-03
-7.923967955844665864e-04
-1.266122197332047571e-03
1.221097708953801462e-03
-4.020001336692760954e-03
-1.039183690939790745e-02
-6.303751888724116667e-03
2.288016533883344139e-03
-1.029526086396114013e-03
-5.053336446197923514e-03
-2.202868226616422863e-03
-3.225991185907405457e-03
-7.177081003321571402e-04
5.345502320546265118e-03
8.838353422421131242e-03
9.854152543584532992e-03
2.098146174343957625e-03
-5.251038568013915823e-03
-3.059657843186581235e-03
4.463298209316064573e-03
1.178908505038116054e-02
6.915747320003936410e-03
-5.565769266288478172e-03
-1.088032919626094261e-02
-8.299636949202543815e-03
-3.332414579703396086e-03
-4.402303254283620841e-03
-6.354665305201208717e-03
-2.992423391396820901e-03
-3.685885191925841829e-03
-3.989927426806803325e-03
2.485319689412764446e-03
7.666120925761574396e-03
7.732335929553779338e-03
4.289716035122331968e-03
2.394935438130707875e-03
4.779970449896052734e-04
-3.738977370654464252e-03
7.688569607430620909e-04
9.150807148616173572e-03
9.353138643742047939e-03
7.793148235670793386e-03
3.390586033125522411e-03
-4.688771862392507664e-03
-5.286238600039220095e-03
-1.461910011343909395e-03
-1.051831858004712884e-03
-8.229263708609902209e-04
7.844408810137863024e-04
-2.272559600817313820e-03
-8.825754396671374458e-03
-6.383868314903387228e-03
9.136278853388148189e-04
1.533224013035415761e-03
9.954985966664363535e-04
1.586246150069195275e-04
-1.458303584900887909e-03
7.635524400107574546e-04
1.551739466964008806e-03
1.845983232179019976e-03
5.338441480259933578e-03
5.743082724224848543e-03
1.851995160045412630e-03
-3.376062732984490798e-03
-7.296177987927177609e-03
-7.190401370761701633e-03
-3.865238688948881025e-03
1.066224325872791156e-03
1.264852146543291077e-03
-3.425942448639960648e-03
-2.710636616044580140e-03
-8.463143513047953958e-04
7.380739348199088796e-04
9.808337842916629162e-03
1.231459918953141212e-02
4.030457528037162916e-03
-1.774756192978127348e-03
-5.926322600836085239e-03
-4.060174242219341534e-03
2.702440168169518639e-03
2.795889987968141512e-03
-6.565501613730940263e-04
-6.509029703342588541e-03
-9.421117334830000217e-03
-4.513453859851654024e-03
-3.661983850330841495e-03
-4.747035549529159300e-03
-1.204071556130672030e-03
6.148669676803226363e-04
-9.943856437678168063e-04
-2.092903043790062846e-03
-2.454264765784010694e-04
1.637448309687641965e-03
5.831347539518126101e-03
1.133781590269740749e-02
9.900296425200625847e-03
6.285990159708701973e-03
1.004801173851743376e-03
-1.734916285158747068e-03
7.846929065552126978e-03
1.370171984579939863e-02
9.227429500547865843e-03
3.231609578601688133e-03
-4.652359180214769331e-03
-7.341378356947279860e-03
-3.655770625047753599e-03
-5.343793791976112189e-04
2.141270090643178641e-04
-3.207731348194776955e-03
-5.386844335581212131e-03
-2.411233778462392677e-03
-2.557136473819329910e-03
-2.725428864232245455e-03
7.953226005163576903e-03
4.111023314852082881e-03
-2.680426260514693487e-02
-3.414801599252595410e-02
-1.198858051876333132e-02
-3.134918391358639065e-03
-8.704802692353669387e-04
5.894249008926407199e-03
1.071893029649093748e-02
1.172435355330140455e-02
4.691217537397329891e-03
2.521762676885240442e-03
4.512155370180505505e-03
-1.006848986840611689e-03
-1.166541904762221629e-03
2.412142820140445506e-03
2.130152926283888253e-04
9.776528311979107086e-04
7.254483907361533937e-03
9.651547383846345238e-03
5.733933335808101030e-03
5.784020141072806175e-03
6.696056349613769068e-03
2.625625847998659494e-03
1.869538977420530379e-03
-5.448986529066070748e-04
-3.608136366106089090e-03
5.304328649944995908e-04
1.963562898378470867e-03
-6.507637201674767091e-04
-4.045115213922290641e-03
-5.927773687274970338e-03
-2.576677167850054042e-03
-1.466904542583913774e-03
-1.201011582208398338e-03
3.670117645953304493e-04
-2.838133493840827234e-03
-6.251062857958723969e-03
-2.989988369615897198e-03
6.928325028976848633e-03
1.325084697813713047e-02
1.466853457738561024e-02
1.566572254967342134e-02
9.655177614997999605e-03
6.600036544953974404e-03
6.018234528679476843e-03
6.182243603657568837e-04
4.382080135450975092e-03
2.851674804210855250e-03
-5.516947767862466663e-03
-4.738752680132034614e-03
-9.170198979558938368e-03
-1.257641859858071171e-02
-2.198220119791096869e-02
-3.829964548143222069e-02
-2.382224754288252491e-02
-5.719771061552790005e-03
-6.197892192933821681e-03
2.073559220984630760e-03
8.283273182533437001e-03
1.086768251125925545e-02
1.886025045070621742e-02
2.198575821387539764e-02
2.416104718288839687e-02
2.645531795567628713e-02
2.371494720128139097e-02
1.715769947326833272e-02
1.114851824529539646e-02
7.123406585439558472e-03
-2.546924119032874592e-03
-2.043149174650748037e-02
-3.707861777075249082e-02
-4.223001714673109419e-02
-4.366567726260146137e-02
-4.533963206150668640e-02
-3.863278109588583198e-02
-3.205200140714943580e-02
-2.264669463645660810e-02
-5.654935592470279257e-03
8.802605071966743133e-03
2.586185280256513008e-02
3.924597040820571037e-02
4.326693333852738022e-02
4.588354645828249256e-02
3.945704848681649141e-02
2.590721738672858640e-02
1.664895667589126257e-02
1.179358209934636657e-02
5.746019986372088821e-03
-4.372712899946897339e-03
-1.732583186478143383e-02
-3.217959767943275040e-02
-3.574920863205682114e-02
-2.608920508060411786e-02
-2.018605307826997278e-02
-1.602159268538027106e-02
-1.331075341450025512e-02
-1.978417759134106294e-02
-2.192783491571755755e-02
-1.162453514047913014e-02
-7.573005343339115659e-03
-6.968541583988581423e-03
8.338001007297876979e-03
2.050407706909033317e-02
2.831325056995195183e-02
3.656584343493702455e-02
3.069120407774715911e-02
3.847137375063714587e-02
5.930782823591927710e-02
6.980763117283560193e-02
7.989637988854841888e-02
7.394358973643065658e-02
6.588106437678126204e-02
6.682197465665282166e-02
3.972751435589910035e-02
-3.282829198313333766e-03
-2.850490405362486254e-02
-1.083940277524274819e-02
3.801656672184051955e-02
6.793600370963247259e-02
4.928709855657760486e-02
-3.083394779730396981e-02
-1.116574815875248927e-01
-1.768671852073601669e-01
-2.826882406865871555e-01
-3.433828534260243148e-01
-3.212884198508205169e-01
-2.541521773315417176e-01
-1.076524145775999558e-01
6.762442904152379287e-03
1.887977725801037732e-02
6.155453695800836705e-02
1.877272883246875745e-01
3.221675762126114395e-01
2.902266248624029710e-01
7.722539031630470951e-02
-7.231978281764396554e-02
-1.342145026276744257e-01
-2.005915369289590633e-01
-1.822183880767546116e-01
-5.902302511591837886e-02
1.090985355287734659e-01
2.419209194005262908e-01
2.735022486617838533e-01
3.106867456191318988e-01
3.902546357961916845e-01
3.667234946232318937e-01
2.190444103303197110e-01
5.758191736975913633e-02
-5.946013091597533023e-02
-1.376365872909611487e-01
-1.850194262877860318e-01
-1.985972439321834482e-01
-1.572507178928310434e-01
-5.875638666567102597e-02
-1.159078043048065478e-02
-5.953432486010019897e-02
-8.720856572006195628e-02
-8.045747513306135412e-02
-8.042424679602036552e-02
-5.503860656994685047e-02
-1.272236600964931838e-02
1.414655698549646679e-02
-1.777773117655055690e-02
-1.259037375738017717e-01
-2.350446482096850420e-01
-2.695277979273424940e-01
-1.958228412666875029e-01
-6.659156992186320012e-02
3.547180529257113000e-03
2.703102743720505949e-02
1.246350406497251095e-01
2.526286069654971045e-01
1.954022656570719441e-01
-3.390794573857311422e-03
-9.596473060334574645e-02
-7.305162909380075176e-02
2.766480284332242627e-03
8.151123130861542831e-02
9.108212683597215198e-02
1.354248755143172556e-01
1.971749090547693650e-01
1.282939839938378734e-01
2.196961091973986119e-02
-1.826162369805376870e-02
-3.190464645679698397e-02
-5.528575468453089670e-02
-6.149053975630037333e-02
-1.636013927993068898e-02
2.458898992894469060e-02
3.941205718050734552e-02
4.566229331790292584e-02
6.027063107745271597e-02
1.113193010667918037e-01
1.112882566363398301e-01
4.951465249447525169e-02
1.101185145638103498e-02
-3.666076108343949841e-02
-7.579876020392077585e-02
-7.597324753182210788e-02
-6.097242242522608185e-02
-2.779654262990314748e-02
-2.006814452438497945e-02
-2.298625782965770664e-02
-1.182738292993307239e-02
-4.883878080662527182e-02
-1.042915931609464525e-01
-1.104845686181137182e-01
-8.948957998356626975e-02
-7.393355234677434495e-02
-3.608612543348935914e-02
1.051162514333969615e-02
-7.077489611464028241e-04
-3.234453871884666182e-02
-4.814406284501834832e-02
-5.552389589649754653e-02
-4.977253870343845837e-02
-3.975426186411773477e-02
5.419431258144356833e-02
1.703840228843724047e-01
1.383623259483366952e-01
7.377249863008016051e-02
6.826438268373787033e-02
5.959442064960748103e-02
5.917061277728274948e-02
5.373986571245344818e-02
4.467076854417986048e-02
4.279018911438056683e-02
3.228945177499659841e-02
2.256136963185643995e-02
9.201035546571260243e-04
-1.415575052202294563e-02
-3.045930287271054332e-02
-6.454578115837045216e-02
-6.227544843286503262e-02
-4.847935022403750821e-02
-4.992601143228195260e-02
-4.602643575800439979e-02
-4.969901509991028754e-02
-4.163758727447383623e-02
-2.483488048334396917e-02
-1.043921671248240583e-02
9.475596037597504295e-03
1.525889339363116493e-02
2.032468005123314742e-02
2.290329736941373526e-02
1.528812218964285471e-02
2.112101005655877758e-02
2.309172576661756848e-02
1.836374099543106042e-02
1.495137488352628330e-02
3.138010148172074541e-03
-6.918892973507401699e-04
-1.271701990566986590e-05
-6.400408308690151357e-03
-1.031864607709462485e-02
-1.005490908076558595e-02
-8.244597009488402461e-03
-1.064847504759897263e-02
-1.157948245468954328e-02
-6.500974644217227816e-03
-6.938259596843085811e-03
-8.168922854162267294e-03
-5.169086043702674112e-03
-2.494916457952744970e-03
3.062205384249081473e-03
8.104838191394857921e-03
1.004826807665226869e-02
1.212058829951679143e-02
1.067879791560160871e-02
8.966490452229492272e-03
1.016302489897798374e-02
6.897199178004752990e-03
3.701058717466014676e-03
5.643119933403275938e-03
5.493101850171279964e-03
1.068277780516189946e-03
-4.419881113443057535e-03
-6.368928579959846903e-03
-7.827225546335952328e-03
-8.177311092305013934e-03
4.805976342117695066e-04
3.915814147594388200e-03
-2.997421259220579143e-04
-8.586854826879512228e-04
-7.873337226167061859e-03
-1.252215839006006783e-02
-4.289354984177320800e-03
3.333559656603176822e-05
-9.863903268706216820e-04
-2.450463969071758549e-03
-8.520371018878090605e-03
-1.212667566859895220e-02
-2.134321208022417656e-03
1.120495616636283005e-02
1.154671608380199686e-02
8.923006977104167362e-03
8.814017970111429068e-03
5.854239085421790965e-03
6.155066723577960405e-03
5.621969839407065656e-03
2.957694474611001403e-03
4.546264245214533956e-03
5.748995858817304398e-03
4.293961878742791859e-03
-4.157485525315488852e-03
-1.555161793385246953e-02
-1.450637648706649442e-02
-5.586286301267095675e-03
-2.046378137847680925e-03
-5.102643633787904559e-03
-7.032407227832352010e-03
-6.081408429204752421e-03
-5.835449503444526884e-03
-3.696747258744294447e-03
-3.835365686978275783e-03
-5.136376884889829603e-03
-4.353738762482658835e-03
-9.347853673387623158e-03
-9.576765798625425444e-03
7.216250614182752408e-05
8.760823456754655847e-03
1.758274877176334294e-02
1.981405749180527309e-02
1.407362295787787342e-02
1.023395671969624075e-02
9.391877454044584780e-03
1.382586608700629889e-02
1.630550534605331933e-02
1.335249914605033013e-02
1.024665174968474382e-02
-1.216962411710033722e-03
-1.333638371033871693e-02
-1.438462329952111714e-02
-1.371808492594302382e-02
-1.043218569963493339e-02
-4.698327098476393245e-03
-6.707131415377935030e-03
-1.045416790022044538e-02
-7.124808529865622568e-03
-5.232977274419529619e-04
4.192599998487710894e-03
5.984133091567137540e-03
8.189840467570735916e-03
1.069293872714640638e-02
2.462942332094486108e-03
-1.096984110668959046e-02
-7.355453656985985224e-03
5.602055004959400827e-03
7.427829901839685771e-03
-1.993625496399884043e-03
-1.335334466737260473e-02
-1.264908490034023780e-02
-2.496357550156868676e-03
2.885434551684095197e-03
7.446317656202373729e-03
9.919019232810596595e-03
4.277815438550892566e-03
-2.340462600965493266e-03
-8.897647374156311684e-03
-1.421364446858278813e-02
-1.150530633357942957e-02
-7.601936818836251518e-03
-1.281953711034622759e-02
-1.766681552286394549e-02
-9.956809017794035835e-03
2.818085132468423504e-03
1.512131477517228428e-02
2.400217712692317290e-02
2.073240530685842645e-02
1.247963390426228523e-02
5.873674889607359735e-03
8.904268873972244307e-04
2.806482534560599245e-03
3.828482505181527492e-03
1.612142561879190313e-03
3.420345709170611107e-03
4.275513876860390604e-03
4.047832825309407960e-03
6.877007550211418178e-03
1.140925249864893458e-02
1.166060554067223365e-02
4.517660462760362747e-03
-5.993305210657494907e-04
-2.312528167179518819e-03
-4.290734406090147661e-03
-8.066842455826164424e-03
-1.320692523897676850e-02
-6.913773160035193224e-03
-7.780910519643828441e-04
-6.817955730766571062e-03
-7.069609010749796155e-03
-6.215473726657661131e-03
-4.851770769115987085e-03
1.450892172440672269e-03
-7.088152908906854635e-04
-6.350178316488401618e-04
-2.546604384303910798e-03
-1.164892585083169077e-02
-8.742144155662445043e-03
-6.879041270557019298e-03
-4.177128832519501692e-03
4.790864743480980487e-03
-1.007664708005285171e-04
2.082851336545663663e-04
7.123479008784771790e-03
-5.242658383512380357e-04
-4.756563239483486104e-03
-3.433017604484328057e-04
1.141626732808048803e-03
6.116781312428316462e-04
3.875888731031752570e-03
8.460472499328240345e-03
5.688337330137183123e-03
3.639941083185902447e-03
-2.950109098490829012e-03
-1.745743327845456980e-02
-1.441449309658879470e-02
-2.425418366679908590e-03
3.860905995460834836e-03
1.432444649678570221e-02
1.743938987008794572e-02
1.338153482033189838e-02
1.477560385836776229e-02
1.087431066844850129e-02
4.896032545112804536e-04
-1.546935349204985825e-03
6.479870995058609716e-03
9.929573055189617331e-03
1.985329430439201296e-03
-4.927478116285316338e-03
-3.085636378732092670e-03
1.522233210070399016e-04
-8.127635185202865872e-04
-1.958407551813910220e-03
-2.771577593313109475e-03
-9.219919868173508809e-03
-1.897392122491469574e-02
-2.172142307899856475e-02
-1.349470404918893911e-02
-3.324315656670733844e-03
3.229985366588639540e-03
8.076110070736573776e-03
4.382590187905360118e-03
-3.914844062949143083e-03
-6.383341498399579261e-03
-8.590171334834677958e-03
-6.587541875862519374e-03
1.167885796444872743e-03
3.022952036860295823e-03
4.033790749446876725e-03
8.258821265504439138e-03
9.696507611526631459e-03
7.569619674133856897e-03
4.304772269510871198e-03
4.334040120695738067e-03
2.489018042069396103e-03
-4.912138338024541438e-03
-9.380107535219858392e-03
-9.191937946000030765e-03
-3.141059808543800354e-03
5.499786554904863810e-03
6.065829815760002096e-03
4.402560554077668969e-03
7.791944282641953545e-03
6.819434534287393060e-03
-1.342500453268840590e-03
-1.775895466400147227e-03
5.013576861621542834e-03
4.888915589800013704e-04
-4.364853172433987363e-03
6.570135532689555177e-05
-5.928085730251301741e-03
-1.327668610554185412e-02
-9.802051138617243545e-03
-8.615450319828785175e-03
-3.894820009093858271e-03
3.180310857332733013e-03
1.074655327026491055e-03
3.453350614886271236e-03
1.245041890077413886e-02
1.255596449665485718e-02
9.135996611057411662e-03
1.038890786781592260e-02
4.963186226388782360e-03
-5.970064558820621474e-03
-8.007267066446038112e-03
-5.627130462712528168e-03
-6.912259812018877077e-04
8.149369837302723740e-03
7.371666128513375098e-03
-1.506873777222342194e-03
-8.159435556870578768e-03
-9.410819410489185133e-03
-5.911398839838303935e-03
-8.381285925470684933e-03
-1.047256184194059712e-02
-3.363841239319446431e-03
-3.199463095659411428e-03
-5.736047649771235275e-03
2.981538700646732629e-03
1.093144430309550205e-02
1.131325661488072516e-02
7.891618617699878643e-03
2.155015363873999217e-03
-1.642519837920074525e-03
-3.629991508662637565e-03
-4.106171865398221439e-03
-9.373008311032839188e-04
1.599380068310631529e-03
2.071385251260447584e-03
-4.514382601819139605e-04
-8.464147791545655400e-03
-1.232044824147942794e-02
-7.655252496964753614e-03
1.037555785993555298e-03
1.114247976573292873e-02
8.857173528779320112e-03
-1.897614235241614974e-03
-3.246339179212298642e-05
8.133375591134721014e-03
1.259056087592016517e-02
1.031955270838829167e-02
1.780527755497025681e-03
-1.076357010248803984e-03
-4.054645405261730375e-03
-8.394111534951382778e-03
-5.921120568970534084e-03
-5.449544882368670060e-03
2.556375285928043015e-03
1.489852941456895966e-02
8.380340283005192209e-03
-6.098131717762376135e-04
-9.145457319058291354e-04
-3.699749500251466559e-03
-7.819454496405062877e-03
-9.593905078377608017e-03
-4.848560197175899762e-03
-1.603447383364871564e-03
-5.415923465311874539e-03
-5.773857935268521778e-03
-2.831936226006452444e-03
6.025109536090754968e-04
-1.307493720751036394e-03
-5.092322808751930698e-03
1.067076612725351061e-03
1.452723607281518423e-03
-3.731124994420623696e-03
5.534777501429843233e-04
5.513157360179305085e-03
8.568002590158959805e-03
6.225602872674995854e-03
2.090418482916149047e-03
6.430063365341051433e-03
5.104374011029632133e-03
-2.053041628911061057e-03
-4.986651868231919450e-03
-4.862364659514234119e-03
-9.337255171772335972e-04
-3.461053642242049866e-03
-6.915308940318681645e-03
8.818661725393680227e-04
5.213224771024024817e-03
5.693993393408468620e-03
8.599897373017542646e-03
5.208068646716813507e-03
-5.561816593706281862e-04
-2.796277671787277940e-03
-9.075294461812633950e-04
6.779675604971166676e-03
9.079134022255753653e-03
7.805180825218704238e-04
-5.677256377892370490e-03
-7.370852827867631005e-03
-4.417041446640844124e-03
2.324885344338655738e-03
3.128976975209886370e-04
-4.510118613913541123e-03
-2.865159177517714005e-03
-5.155423580885409342e-03
-6.559391661950291809e-03
-3.172449601583386333e-04
3.385272639409438959e-03
4.406309599625326569e-06
-5.940720775702352206e-03
-7.429160685554888656e-03
-7.051198709316890655e-03
-6.150542894146152247e-03
2.597563380097390410e-03
9.509612117579040874e-03
4.918557048187474461e-03
-1.407578974615523743e-03
-2.751076981209586974e-03
-2.855769636882457552e-03
-9.252708016797387162e-04
7.111648285387462722e-03
8.369257723137389984e-03
-1.395159568592663386e-03
-4.674300932466529494e-03
-3.239602023014793476e-03
-1.161756313571162208e-03
5.792553740209456861e-03
6.919669732430641998e-03
5.426842228320198115e-03
1.009812091552690118e-02
9.089336886702534257e-03
1.537634127444531670e-03
-8.150801878524232148e-04
7.521493297240509305e-04
7.411033216402002684e-04
9.075351030354649297e-05
-6.802375201474396456e-04
-1.492782392595751705e-03
-5.806594472381443849e-03
-1.489072406530023845e-02
-1.370267254864959879e-02
-3.210096977651181321e-03
-1.588525101456386831e-03
-1.071347583104545823e-03
5.655286189044837980e-04
-2.283551354095108253e-03
4.376428300900278567e-03
9.697773082913543896e-03
4.686006179408135422e-03
6.026512211072605936e-03
5.303504963595272702e-03
2.031423192516285657e-04
-1.006872848384960609e-03
-3.983280465639941169e-03
1.616460310291737302e-03
1.181094048680868258e-02
1.038793742462545966e-02
-2.044063104520981323e-03
-2.396336501779585890e-02
-2.828063453347596373e-02
-7.331901410467252245e-03
2.768255789436874659e-03
2.050242910186579615e-03
1.580137609942873240e-03
-3.499443016695583477e-04
2.393507733082598544e-03
3.207894097342464581e-03
3.108609340985446501e-03
2.035222847098647897e-03
-2.974726807608970170e-03
-2.918230450029834101e-04
9.796890076661124869e-04
-7.923795020957759370e-04
4.248556913359075558e-03
7.433763491720033097e-03
1.059246601172248239e-02
8.456234345287375054e-03
8.300612878493859219e-04
2.005409879974176957e-03
-5.963058700585843058e-04
-4.400807296008777021e-03
1.300756946243568010e-03
9.455765937004535467e-04
-5.480024504945725863e-03
-1.043729013359021712e-02
-8.385308361766158000e-03
1.515993192298390304e-03
5.243383315116230750e-03
6.059604130806636041e-03
6.681071748525843103e-03
-8.596349173514369630e-05
-2.942169107245242322e-03
-7.886731548674937638e-04
-1.553018170102174944e-03
1.914269120496050114e-03
5.602562305218983935e-03
-5.775570076809995266e-05
-5.285925233180091901e-03
-4.851362235097355334e-03
-4.013887781767458765e-03
-8.613431732301917842e-04
-2.123146713879606271e-03
-7.700913137316951415e-03
-2.420835064088318941e-03
-9.119787241971263414e-04
-7.554718392914546582e-03
2.113514925749150446e-03
1.151810034582737008e-02
6.568594293263539836e-03
7.343897049178559067e-03
6.894622907214610283e-03
-4.306942914761944380e-03
-1.176149273061625339e-02
-9.101933980617309128e-03
-1.965984565537787655e-03
3.220757269806834733e-03
5.515743367168498765e-03
2.757029356660882936e-03
-5.144229858839727797e-03
-6.512355189456144403e-03
-3.698680638656343285e-04
3.552401384324975660e-03
7.048359381274754525e-03
8.696132407666942385e-03
2.864521564424050981e-03
5.572257993229886089e-04
3.080364640558088275e-03
-2.235260585783258470e-03
-5.341935084045828369e-03
-3.167644012851757694e-03
-2.452430863929978572e-03
3.227870142133854904e-03
-7.785841846634400550e-04
-7.743095783381427621e-03
6.739818488148593446e-03
1.270856416784962688e-02
2.004569976271397373e-03
1.387964165648965459e-03
1.108980008765958741e-03
-3.956647261149829828e-03
-5.445148199579208544e-03
-7.147083504985773071e-03
-7.773365049180368073e-03
-5.145541495710517776e-03
-3.230369932929303550e-03
1.242718694722775045e-04
7.525602223453824180e-03
7.887805231573367590e-03
4.262508838501850340e-03
6.217998657562683745e-03
4.141246607312789154e-04
-8.180851781681947738e-03
-8.169743791630946703e-03
-5.056632922977593800e-03
3.215576367135498156e-03
7.896259870903402436e-03
6.609205843318815762e-03
7.128281226947127090e-03
2.856583750921978023e-03
-9.600660027400726880e-04
-2.905522387176265667e-03
-6.538502409538749123e-03
-5.411477901776294737e-03
-6.660987232249518386e-03
-1.171760656917500074e-02
-1.243709181153234908e-02
-5.438251560040026356e-03
5.356694910180167732e-03
6.349908294694610322e-03
2.697606425650992280e-03
4.820701044316748340e-03
6.135598215141350835e-03
5.058437807152073307e-03
5.200795570844651307e-03
8.874009705402065296e-03
1.047546985176915982e-02
4.123062807352525366e-03
-2.298570977744295463e-03
-5.132599322399062150e-03
-4.632343584656594543e-03
-3.385980701659066158e-03
-6.236796049466395570e-03
-4.062459861671741806e-03
9.670762410826436303e-04
-2.737286176153225919e-03
-3.032389673741211610e-03
3.381145745240018031e-03
3.133919771027630398e-03
3.219420584662564203e-03
8.509251889918575257e-03
6.079482054382955372e-03
-1.520113194162217574e-03
-3.883988313087740740e-03
-3.927182753675448855e-03
-1.826570439804710028e-03
1.335667811800433317e-03
-1.708362845870549981e-03
-5.011316899927797247e-03
-4.147806051270423212e-03
-5.689368159885901596e-03
-5.004110058459229626e-03
-4.471486425043320412e-04
8.839560317452871494e-04
9.420741803640628707e-04
-7.501856900197274467e-04
-1.563318729428359467e-03
2.573870724194981998e-03
3.380729028903033465e-03
4.488021371819250760e-03
7.222747927572240219e-03
1.731872085452092636e-03
-2.661390228520754860e-03
-4.117946306524012702e-03
-9.292183633658994066e-03
-5.552998178271105305e-03
5.826717963696528314e-03
7.555536344900325163e-03
2.361649864019608417e-04
-4.609081730650593095e-03
-4.445660005412788857e-03
-2.532462725348640607e-03
1.944349032518835011e-03
6.299254452079031986e-03
5.274830271014309402e-03
1.128962721326860069e-03
-6.998746742392018654e-05
2.726739163847460932e-03
2.919026965497280995e-03
2.601120689189401897e-03
6.367181152792538573e-03
6.254145891694119601e-03
4.312136508943065043e-03
3.309661453709739683e-03
-1.174132761223328552e-03
4.412731442582563837e-04
4.882736862940520624e-03
5.221605669270728070e-05
-5.538728829056831574e-03
-8.164202840885852880e-03
-8.901897591452968828e-03
-5.640372979867597919e-03
-2.600317483416911095e-03
1.097767399919845864e-03
2.155866064429504472e-03
-1.068988864079534586e-03
-5.963188870532387838e-03
-2.110645820983260423e-02
-2.395887320687286118e-02
1.672730671394606888e-03
1.226742106294113552e-02
4.553192906584228872e-03
6.304145303921733848e-03
3.038451851149132684e-03
8.361729226991455400e-04
8.667094181119220503e-03
7.284090365505376842e-03
4.417472891995427586e-03
7.600740292384412615e-03
3.750504593218363745e-03
-5.747680082416771127e-03
-9.757713650700067937e-03
-5.785011895156724412e-03
-5.880644695735004306e-04
2.115863854552201516e-03
2.072444463780536220e-03
1.018184974543847633e-03
1.773011055664877123e-03
-6.005742455239332020e-06
5.738897316443552967e-04
7.482854640801292825e-03
8.098059996973947308e-03
4.915023799926824567e-03
4.890593212404223053e-03
9.802578343260526933e-04
-3.682550495166257969e-03
-3.510945503289905102e-03
-1.171796340233179426e-03
8.070954845310184672e-04
-2.424294007091993240e-03
-7.856675341785445896e-03
-7.445670387640075140e-03
-4.232735921362571797e-03
-8.389826914977983104e-04
1.254814218630432481e-03
-6.617300963604002585e-04
-1.270264148144391834e-03
4.264561572667887007e-04
1.966530100861271779e-03
2.979994787725717686e-03
1.534672497904013755e-04
-1.231607936570441875e-03
-6.531728607979006649e-04
-5.624270481446142292e-03
-9.705141440880100251e-03
-7.045483395742664287e-03
1.705487052962890906e-03
1.046163653248797024e-02
9.265953566562233276e-03
4.173911922612690874e-03
2.902541156475793062e-03
7.634233653486300914e-04
-3.961004013891794573e-03
-2.248384460476009292e-03
3.996757932649144633e-03
-1.452506354312510647e-03
-7.454687410855710336e-03
-2.991124121259228739e-03
1.353514566110336666e-03
9.023883765192400666e-03
1.009976795376175268e-02
1.334935751321181903e-03
8.154059336809840394e-04
6.637478429417662060e-04
1.989040496451674174e-05
2.699356966861862252e-03
3.288269248586484644e-03
3.804632553823222591e-03
-4.084502059186312373e-03
-6.794588816392055364e-03
-1.412713975762700360e-03
-7.557489669025781523e-03
-5.188804802537629220e-03
6.188467277270161705e-04
-3.169382997242854803e-03
-1.236886864378212861e-03
-7.423027645736569695e-03
-1.075588816676001543e-02
9.539936536822916577e-04
5.308936961320055888e-03
7.015392111917921614e-03
4.830760028949215336e-03
-1.824465403322415337e-03
-2.878894401173478883e-03
-5.732612702715253819e-03
-1.227445290177891233e-03
1.060367677979788016e-02
1.447850607501831484e-02
9.853984865905045243e-03
2.492345451049127929e-04
-4.440913409946704513e-03
-7.718535535776367175e-03
-1.163262126305555054e-02
-6.145554620087761641e-03
-1.456837346376706503e-04
2.743020629838528214e-03
2.638075041840669960e-03
-1.818568426558865711e-04
5.487867524883973530e-03
1.074311158613518863e-02
7.105159403251871779e-03
3.711357322561691097e-03
2.901285925893495963e-03
-3.818959930129993451e-04
-7.610474863003600758e-03
-6.548122519687691288e-03
4.068381227288943129e-03
7.576666030399235342e-03
1.487733162849049114e-03
-4.771362944035783919e-03
-3.880206572131532448e-03
-1.598941732724192943e-03
-4.488047299932799300e-03
-4.436774407635108927e-03
-2.549373651320008521e-03
-4.088725149343767906e-03
-5.837027493241396352e-03
-5.504738188283008447e-03
-2.214313431563745983e-03
2.923792391987451757e-04
9.217371961023310438e-04
8.183761020416660233e-04
1.520542151662132666e-03
4.448832525453012485e-03
7.660294646568801321e-04
-3.587643352294690550e-03
2.144593109382759554e-03
6.323328398770079045e-03
6.121581446913245197e-03
3.082153613732696411e-03
-2.961491602403328732e-03
-3.084136916587497650e-03
-1.506238711299200117e-03
-7.428760279191236717e-04
8.051395586392688132e-04
-1.831633016584663159e-03
-4.906898091609681462e-04
3.819147737195785486e-03
4.276905519940590698e-03
8.782073155460473970e-03
9.937906575014986837e-03
3.894205041253013568e-03
2.472850155206777947e-03
4.704960587752568947e-04
-3.764717614934116538e-03
-3.545778673282692917e-03
-1.991669995551667311e-03
1.424294846612874418e-03
1.697367102346247119e-03
-4.048680704715677120e-03
-3.922888018145032595e-03
-2.825646930833849903e-03
-7.068381436004911311e-03
-5.065537200525315267e-03
-6.941980644997142007e-04
-2.868363752213913629e-03
-5.114389321449377100e-03
-3.659837953190887751e-03
-9.052675688139025191e-04
2.194126079376310014e-03
5.026175647791814895e-03
3.310682132931572555e-03
-1.213753961490022940e-03
-3.825814083939645355e-04
9.103568336216660232e-04
3.868056232591872553e-04
3.956217635908482709e-03
5.107063957240413031e-03
1.353358887811806095e-03
-4.423665455508114970e-03
-9.105966311117996009e-03
-4.717718037080117707e-03
1.699832793441692202e-03
2.471010347360245649e-03
2.496159043977740251e-03
1.782940206366995977e-03
-2.544122991054277930e-04
-3.041989030234168185e-03
-2.458857769755714521e-03
3.951729185935694971e-03
9.020048893796943704e-03
9.546131151792576139e-03
4.612861547703702055e-03
-5.535742268885067170e-04
-5.646761382312032434e-04
1.106813055885518519e-04
4.925411217483455922e-03
8.366798869627637206e-03
3.081189753581079719e-03
7.482956855423059236e-04
-3.478056047632355511e-04
-4.287654483484436632e-03
-6.251664742534717399e-03
-5.803017545778842851e-03
-9.060675032696041426e-04
-2.309829897559879941e-03
-1.092190838652403080e-02
-1.039088294452402035e-02
-2.835478768824493435e-03
6.552817175875083437e-03
8.399415733698276099e-03
-3.793593247919516999e-03
-9.238869505651222530e-03
-3.357509364513732841e-03
-1.381176145762599275e-03
-1.350720845183733679e-03
2.344856895057630640e-03
6.824880078922231780e-03
6.956249508940216646e-03
2.562867301204175240e-03
-2.747785118349216696e-03
-7.227870579690689502e-03
-8.182658946416150950e-03
-6.389244102723288729e-03
-1.147397841619964129e-03
9.054410766935836602e-03
1.124263894196594893e-02
4.170569308329847603e-03
3.906506525695130350e-03
7.431652421059885272e-03
1.160593467321700822e-02
1.165238129919876110e-02
-8.965089862965316264e-03
-2.313033575451077170e-02
-8.768670864711251497e-03
1.758841663677150700e-03
6.117981051992535911e-03
1.351860141769981385e-02
7.886953600206482104e-03
4.753757546546063780e-04
-9.850603848889625570e-05
-3.185437741864529174e-03
-5.180371112206282914e-03
-4.289967367631748393e-03
-2.119935035891484104e-03
-4.144413249156019170e-03
-1.134819247591721189e-02
-1.108348335354272275e-02
-2.823619582506491695e-03
2.659319207335004032e-03
1.564549239168796678e-03
-6.209805020794447860e-04
-2.321929322091341365e-03
-6.706073566529044926e-03
-5.799542979191007336e-03
-2.649567874614904613e-03
-3.008519083664961975e-03
2.450025825941841168e-03
6.339518775490935072e-03
3.856266053553809511e-03
3.072956718870223716e-03
2.030434996862806943e-03
4.988697944734025655e-03
1.206733266245852386e-02
1.474633225596522559e-02
1.462768464109961281e-02
1.244423758849429705e-02
8.491650993378646595e-03
5.372498234997167416e-03
1.458426295707565502e-03
-3.942166791035094618e-03
-9.321439252385247190e-03
-1.496258990831148862e-02
-2.174005709120589713e-02
-2.507599423646008491e-02
-2.127785453857166525e-02
-1.362977667224016948e-02
-3.914178434854642674e-03
5.336201985014469781e-03
1.104696314103214769e-02
1.722030482326007000e-02
2.344493572492154648e-02
2.464083996657514750e-02
2.741498695575756220e-02
2.977062645290154061e-02
2.142088720420275844e-02
1.467750184950513542e-02
1.081268729152731235e-02
-1.002361712869673455e-03
-1.016815505919520073e-02
-1.636012541058291803e-02
-2.578318011662009829e-02
-3.853874765647347794e-02
-5.228583835119470641e-02
-5.430049078913743582e-02
-4.994437796753097014e-02
-4.040954467084920121e-02
-2.027237512785557555e-02
-5.988073024020268420e-03
6.748912675987883865e-03
1.928506822064952192e-02
2.279777267128796706e-02
3.013508561895580570e-02
3.664318084182804219e-02
3.709844005370364212e-02
3.174898247694044051e-02
1.904300842944688446e-02
3.325551149667644105e-03
-2.350913325564676221e-02
-2.438303887275243553e-02
