-2.711967274979865811e-02
-3.822988762589925316e-02
-2.377797581818552261e-02
-2.565982464662803705e-02
-1.252547132519929267e-02
4.497762852049010975e-03
1.996871544334563597e-02
2.817202521149150818e-02
2.616842730906010842e-02
3.161078223620919503e-02
3.021441764584405221e-02
2.389477995522573325e-02
1.935194416411282689e-02
1.100500400164814395e-02
8.634498593339383701e-03
7.006363108896459385e-03
-6.727069388254526203e-04
-1.427224848166114279e-02
-2.405593018664959476e-02
-2.115526963083874668e-02
-1.924455255257796066e-02
-2.186332717396440029e-02
-2.468008369965504767e-02
-1.954583534852519927e-02
-7.819844663856663491e-03
-1.780642988858499890e-03
9.714862053632832006e-03
1.784797603435701527e-02
1.149346080664331166e-02
8.219287793352174354e-03
6.507149041887769561e-03
3.844604784709249566e-03
1.737631552856493990e-03
-1.810306605136244957e-03
-4.627858463503737446e-03
-2.848499468769548782e-03
9.165856823074957152e-03
1.066946257717718907e-02
-5.680911809379613972e-04
-2.973081611082430131e-03
-7.405461345807049997e-03
-1.279669766465037564e-02
-1.352191204666661900e-02
-1.396355194464796341e-02
-8.879844760183287430e-03
-3.177655109881950476e-03
5.007081863141049985e-03
7.596403951168288933e-03
5.355485193837887688e-03
1.762881871515966162e-02
1.995306750423279235e-02
8.031638500554934973e-03
3.357812214399154196e-03
-2.521463529563538683e-03
-3.736599221386879052e-03
-4.620981870676908743e-03
-1.142223373514464173e-02
-2.460533702884996291e-03
1.272568787452390583e-02
1.430658777768762172e-02
8.470983214270247016e-03
1.960457280409470902e-03
-2.089524677938652854e-03
1.152515378504086153e-03
6.705089638997454790e-03
1.717867416276933588e-03
-8.186952007729193098e-03
-1.216681166983468905e-02
-1.218781550511967987e-02
-6.096430866832639427e-03
-1.501669610789389516e-03
-1.002806527227764928e-02
-1.917438855111475160e-02
-1.671450035608649382e-02
-1.027044826834869889e-02
-3.552724268905033383e-03
8.017529150015486814e-03
1.512984396910725844e-02
1.206101305071991675e-02
8.399207730832285862e-03
3.708221984804352910e-03
-3.520830569935161315e-04
3.339170613765070480e-04
1.391923449954428631e-04
5.808976463122513846e-03
1.516628430560075166e-02
1.234252268875320885e-02
6.464351381480541725e-03
5.366428044466639048e-03
2.594370592321094873e-03
1.599730891135777312e-03
-1.283224930903547516e-03
-8.052912913607164491e-03
-8.755187066973037571e-03
-6.655683750661639531e-03
-3.017860425554044507e-03
2.896842794475328140e-03
3.524944375757151430e-03
3.262253142716952520e-03
-8.258359886092337798e-04
-1.024109648025979362e-02
-1.155422091507165260e-02
-1.178755770358516988e-02
-1.395542506739282616e-02
-7.629861142546144094e-03
2.689594062321931048e-03
1.062543059991132369e-02
9.267124641317417422e-03
8.779861775692542015e-04
-4.119001183326080617e-03
-7.429466380438421239e-03
-6.679379602306439144e-03
-1.122507539085642898e-03
2.717219987752090941e-03
9.707457290107388698e-03
1.944762857567401693e-02
1.910336437567584575e-02
1.152917897919004779e-02
8.801234121732429486e-03
3.557417853782525365e-03
-5.992192235187253704e-03
-7.072697251629006879e-03
-4.293652017405371647e-03
-3.746621293552509883e-03
-6.239917272691004532e-03
-7.374716367428824255e-03
1.441516149161490776e-03
5.151403000148691534e-03
2.801640782047139927e-03
5.105747759200730818e-03
-3.618999911811037178e-04
-5.808884933359344943e-03
-6.039155636240487422e-03
-9.534062266952844644e-03
-9.414698646461732226e-03
-1.088848923638173483e-02
-1.215106453988682410e-02
-6.507874401757431440e-03
-1.056136462642817339e-03
5.298065821092440807e-03
9.858434231991822574e-03
1.217654700624466388e-02
9.308605414511613579e-03
6.577150726392615903e-04
2.295815084708901013e-03
5.154778593072649635e-03
1.883859053973178238e-03
-5.216822020845954602e-05
-5.543064392750600596e-03
-5.207072676950231203e-03
-9.987066784307770811e-04
5.336848052748650005e-04
5.289301304954142392e-03
1.829412939431077946e-03
-3.438296525672894077e-03
-2.297535269245260491e-03
-1.854444009106574667e-03
4.081982489626940179e-03
7.888664415798801732e-03
4.735886460711244243e-03
1.560441511650539296e-03
-6.802687387496344227e-04
-2.401763469673237270e-04
-3.441156603534373422e-03
-2.468927775300883923e-03
3.851396435335001974e-03
4.580149369234435826e-04
4.901109629893321377e-04
2.953393758681155997e-03
-2.514996900798831172e-03
-2.661892905381917345e-03
7.619267003057238479e-05
-1.080998706542351216e-03
-3.511884582044978026e-03
-4.772279442319498667e-03
-3.814375771163622600e-03
-9.086879625840465786e-04
3.903155919030060553e-03
9.965476545735184061e-04
-8.154084355578679810e-04
1.793967186918304663e-03
-1.264846740358525380e-02
-1.950226595591387363e-02
-4.566535436278489068e-03
2.539220191417153414e-03
7.305533444814424349e-03
1.330809085180762602e-02
1.170919613407716761e-02
9.208504985140910856e-03
3.232604667090504397e-03
-4.295117575204217579e-04
8.552289144509136239e-04
-3.653829132878673707e-03
-7.041676233186551850e-03
-2.338404464407699886e-03
3.625604511510628495e-04
-2.207447691722667828e-03
2.545071880576051191e-03
8.405508250916068208e-03
3.118155823756745167e-03
2.315173575663887016e-03
4.641516999442172296e-03
-8.891887335306237865e-04
-4.206254608989262213e-03
-2.861471365581009021e-03
2.182008031753797112e-03
5.252442277374168300e-03
2.047228938274098286e-04
-7.537346753129574653e-03
-1.541929993735955198e-02
-1.477360094001459526e-02
-7.172060950302330817e-03
-1.445832094194618445e-03
4.711962512215161873e-03
3.701496907672556340e-03
1.448346440170077349e-03
3.246578636782257530e-03
2.363964949173186312e-03
1.040860576318049409e-02
1.250883025820561170e-02
-3.725984527300208165e-05
-3.185832678540497214e-03
-3.667907613979404409e-03
-3.319532733689747449e-03
1.502155782397265708e-03
6.275482846621333998e-04
4.467784962290723486e-03
7.988388268684852925e-03
2.375677865206052286e-03
4.646823062879408724e-04
1.664344934033532702e-03
4.127951187510007667e-04
-2.301104046710766328e-03
-3.092080001274573851e-03
-3.946142360438713304e-03
-3.623955032528317164e-03
5.909185767333217541e-04
-8.653211802778679532e-03
-1.514076927129741693e-02
2.422683729285503643e-03
7.232588688851140056e-03
-1.668213521011803566e-03
2.234482749824181786e-03
2.137863101932785392e-03
-4.426860178571421015e-03
-1.358640665033579355e-03
5.934414074332595469e-03
4.328607181606525765e-03
-2.529470168354037876e-04
1.215062492416500630e-03
-2.006649431066535438e-03
-5.477470106333355224e-03
-8.700167183041043880e-04
1.570572941902080534e-03
1.384515806356971870e-03
7.849265151903207696e-05
2.951846920553576666e-03
9.923950997980626049e-03
6.485322364389939191e-03
1.261267374399737719e-03
3.412141387096323357e-03
4.471944325748418957e-03
1.479626007263502461e-04
-9.506787124379478121e-03
-1.212891219250074835e-02
-6.429682353684666556e-03
-3.763474024179777264e-03
2.495389203911260474e-03
8.218952998030739504e-03
2.006073425578728218e-03
-4.493150152727053669e-03
-3.676980359125404593e-03
-1.922903675301873561e-03
-2.806444829115416466e-03
-6.437168270527573490e-03
-5.691135334457125133e-03
3.253431678276609996e-03
7.300340238803547030e-03
5.625554629686340888e-03
9.488456122369618925e-03
1.036502329049689836e-02
2.380329668760267255e-03
-4.032576597438492297e-03
-2.928801167047792239e-03
1.155305301205411658e-03
2.643656664401833334e-03
4.006335804165217680e-03
2.683801469303763367e-03
4.155800747315615174e-04
2.847760817903362621e-03
-2.978567617420432162e-03
-1.206361504685719323e-02
-9.970477741601329116e-03
-6.399861975062851385e-03
-2.731203813359159727e-03
5.268254716928424172e-05
-2.825189002935182998e-03
-2.241995700608181812e-03
3.379004764353014598e-03
6.184252467125742926e-03
2.733582025987763182e-03
-7.743361621209265272e-06
-2.357065784626233653e-04
-2.995156324627216721e-03
-6.312155225758261110e-04
2.944004434951505000e-03
1.628870352889319906e-03
3.267838800213471780e-03
3.596793113946320300e-03
1.436710859540778727e-03
3.723644677750342306e-04
1.603645984893189470e-03
4.476311981767529431e-03
-9.107042179952949115e-04
-5.017620369359779287e-03
-1.434229294136540130e-04
-5.219377389157685114e-04
-3.876188581156364815e-03
-1.646552589779868734e-03
5.107129790673307392e-03
6.512148068422700387e-03
-7.838351166408703352e-04
-3.193192036622040549e-03
-2.976743911487170040e-03
-3.343761919842163591e-03
9.282128832966627914e-04
4.535667742192157730e-03
6.446534748264922537e-03
2.427632740140696008e-03
-3.113403652499246305e-03
-1.389067896777490714e-03
-4.067271789155155193e-03
-4.885587388757934094e-03
2.172019852474157964e-03
1.256597040181504314e-03
-2.162845848768420176e-03
-2.907373618010808316e-03
-3.765617123520155225e-03
9.924280809290014077e-04
3.817536638029233025e-03
1.654765190911513043e-03
-2.062544954919305878e-04
-2.605331959671271496e-03
-1.981968159840556448e-04
2.562159817629863171e-03
-2.458959276975787936e-04
2.622136331016053715e-03
7.131541718184966280e-03
2.840856685923646117e-03
-2.461743174221322442e-03
-3.473370362668099041e-03
-1.791834897399602507e-03
-2.778335378525204936e-03
-7.696132058585702755e-03
-7.686592474066568891e-03
-4.356087311299158132e-03
-1.191046763572839798e-03
1.808709148356648939e-03
3.581352486351082557e-05
1.574397341789681576e-03
6.299515544916117760e-03
3.374682714969459447e-03
1.777853514664863273e-03
2.452199233012406204e-03
-5.011596935384588034e-04
-4.533682642702998710e-04
6.340921560889787104e-05
3.064849834548926191e-03
1.091858239967735504e-02
9.641957446036453910e-03
2.450328249704217254e-03
-6.875679409513471519e-04
-4.077122479452136711e-03
-4.248475228330900015e-03
-1.701087796377095777e-03
-2.141378609070056747e-03
3.272518774892050133e-03
1.016109891237768244e-02
5.530220982750541289e-03
1.732740679370858589e-03
4.557420754413901536e-03
3.334798499596071907e-03
8.568171260188782272e-04
-3.402191786974567266e-03
-1.346294657804961506e-02
-2.255453211925222134e-02
-2.229330264574002837e-02
-1.505418933752136930e-03
1.496645444943229923e-02
-5.799248635126436589e-03
-1.948701927319397564e-02
-1.420927806695385185e-03
4.733449217379999234e-03
-1.267965735760232708e-03
-1.047721854647607614e-03
1.178501007707804648e-03
6.761028209271125258e-03
7.813400454401943016e-03
6.794822272874309795e-03
9.881872138375541806e-03
4.995384826900537041e-03
-1.493642803979179992e-03
-1.084362735391632962e-03
-2.473145438292737659e-04
3.914967697962844738e-03
7.794899828958677841e-03
5.009450886441651346e-03
4.715020400125632602e-03
5.204080805261567313e-03
-2.240532711214081492e-03
-9.534386181255112211e-03
-9.958308109955300857e-03
-3.334744067340543461e-03
2.743777148003143790e-03
-1.352249081346093952e-03
-3.807739273553858040e-03
-5.885465513947857460e-04
2.424685901325683568e-03
7.796490440008455557e-03
4.896682114522243542e-03
-7.808301569167111142e-04
1.229712464241114293e-03
-3.638181720815441937e-03
-1.042220847991286344e-02
-7.649937115186791411e-03
-5.789704232202294186e-04
3.550532997366334827e-03
3.847167996367110640e-03
8.796129280501843728e-03
1.118389794720400093e-02
6.855076083405917467e-03
2.273004751993674272e-03
-5.113575260576957125e-03
-5.481329629908503892e-03
-4.180199866868061602e-03
-6.794589226669473306e-03
-2.466783201851814513e-03
-1.088815068629822407e-02
-2.073175887982858442e-02
-3.323020736748353611e-03
1.164988557316722767e-02
1.065047738089441344e-02
7.163794736968026773e-03
1.427376929561523407e-03
-3.024123581176892074e-04
-6.171029654102080627e-04
-2.798510681940549315e-03
2.294768900883383499e-03
8.658828649070892877e-03
4.038939851057369614e-03
-4.069137798958052943e-03
-3.356637428871733688e-03
-6.681673580875520163e-04
-3.614020149824826063e-03
-5.206278152144268485e-03
-2.706196706621997149e-03
-1.353155880201704041e-03
-3.990403475015491031e-04
3.652846415968806666e-03
6.496449573965084288e-03
5.227609363240752829e-03
4.144175842325885199e-03
2.445811975489393247e-03
-2.618324883914022270e-03
-4.406518515165919365e-03
5.318222359628941263e-04
3.018554790261953648e-03
2.416016443171590134e-03
2.720620815442664330e-03
-1.630076281364105026e-03
-3.546354764187968807e-03
1.205305259322461122e-03
1.240412304893846588e-04
-3.024804015388314615e-03
-1.596221226339913707e-03
-2.907056354637254335e-03
-5.686740128282717806e-03
-3.828472192629213118e-04
9.897217862942772615e-03
1.190518677828166991e-02
7.303673723959010905e-03
2.112639619726889521e-03
-3.176568418513566958e-03
-2.571144349461799376e-03
-6.293431205075618372e-05
-4.988134872025197248e-04
-3.485831853611169595e-03
-8.092415707793112686e-03
-3.703812702021190648e-03
-7.818901942688281665e-04
-7.800862876519560479e-03
-4.279121428979126840e-03
1.038998560146440478e-03
-3.822341726977231385e-03
-1.235137895970985693e-04
6.193184153195661033e-03
6.741295365875943271e-04
-2.683401023519165970e-03
8.104765890110936667e-04
-9.852773673494664985e-04
-2.921384057568311623e-03
1.625818169854107353e-03
3.186402778235853436e-03
1.588885432853493016e-03
7.973930089806062710e-04
2.109389048383325483e-04
1.410255830274520809e-03
2.324914270961401293e-03
5.300105259480310770e-03
7.281388986292364369e-03
1.851597745443784790e-03
-1.571854029431070778e-03
-2.857967895770737853e-03
-3.965888885293145094e-03
2.343084194184142722e-04
-5.361242587901203201e-04
-2.624679268258906396e-03
2.482438055297770275e-03
1.564711758178646264e-03
-1.820061408018328313e-03
2.001976391657341037e-03
6.082650746477383588e-03
3.485288245303113340e-03
-4.863468188225790988e-03
-4.929724754657562047e-03
5.943716302675088698e-04
1.503747395484796327e-04
4.481807393367983131e-03
6.389488907692273366e-03
-1.509597802579406038e-03
-2.430649385768929825e-03
5.986514809097314826e-04
-1.141542804976327622e-05
-1.961689927196994063e-03
-2.734561917300946943e-03
-2.363211000296936565e-03
-7.054968235371442825e-03
-5.266485125542039007e-03
4.110906037877572715e-03
2.141778618928295332e-03
-1.840916416213124246e-03
1.317084600761195398e-03
2.723021574775544816e-03
-1.714742229573946661e-03
-5.571204590240397096e-03
8.319706649996104096e-04
3.899314560989544827e-03
8.749441370134696926e-04
5.260720754424420484e-03
3.478671865586999232e-03
-1.471852570002429427e-03
1.842503954155308692e-03
-1.445688945597820626e-03
-5.748774679289183828e-03
-2.574920881927927896e-03
-3.963408455675416532e-03
-5.496565395831415519e-03
4.560074098485320383e-04
4.502293647281700555e-03
5.335537031490527639e-03
7.720433990451440118e-03
4.312662756561072563e-03
-7.256900484996647600e-04
4.377561731724343742e-04
-3.285779537982741211e-03
-9.003524376099374463e-03
-7.414167048851770005e-03
-2.514117710453772810e-03
3.454186267530413336e-03
3.885305487132623223e-03
1.088429642228757720e-03
1.722089042696506268e-03
1.760464900321816011e-03
3.141469562982794964e-03
6.314009291552009461e-05
-4.117558305902019322e-03
2.856774367448952634e-03
4.063277339832723281e-03
1.076932993297403376e-03
6.883945612493135024e-03
4.717871723647730497e-03
-1.620778925141463673e-03
1.128719492323757533e-03
2.610313966947763568e-03
-1.493766683647380130e-03
-1.713169911442777435e-03
4.613738426088634034e-03
7.549281488538926894e-03
8.896620477639323107e-03
5.162253725719300954e-03
-1.539497234592530905e-02
-2.607407328006034961e-02
-1.568766849219889459e-02
-7.791235804828915840e-03
-6.008730132936252388e-04
3.470475133859588987e-03
-2.100824500300899609e-05
9.548358344865472613e-04
2.147215092362441541e-03
2.259188576741468467e-03
4.124411629177301107e-03
2.288204354639844246e-03
1.325251745276070621e-03
3.623302296957127411e-03
2.469734501519699806e-03
-4.650454091531285201e-03
-7.325141244069597289e-03
1.021789739486444679e-03
7.357899446366487385e-03
7.549141754796264217e-03
8.232177810696433840e-03
7.096925787618317376e-03
1.179086480220801255e-03
-4.878246007391686366e-03
-5.439463375317927195e-03
-5.736792678573947139e-03
-5.981986069933617825e-03
-1.736886883544246866e-03
2.923784151892613739e-04
3.197957638983914361e-03
7.517492666516091201e-03
4.899779931149371957e-03
8.252345617939633397e-04
-2.213005325746243441e-03
-3.333802698190830964e-03
-1.333404424171159841e-03
-2.079826094942860328e-03
-1.982244885111810427e-03
9.040131312474088349e-04
1.203086233066719699e-03
1.310265862988474863e-04
-3.228833534974198585e-04
-1.369559340617069066e-03
-5.041999101981493696e-04
1.675945662178247213e-03
-2.190235062335415487e-03
-2.637132988216245311e-03
5.218646435239961655e-03
6.511697316747475789e-03
5.075910576503695794e-03
2.822593825463049454e-03
-2.924277729808421027e-03
-4.275297886696303139e-03
-3.479758741813249179e-03
1.508101198450981749e-03
2.841217273331220336e-04
-8.287089421563708508e-03
-1.457692584170099679e-03
2.864042323762517467e-03
-5.779604513783042838e-04
3.130669211265829470e-03
-2.808604298488438203e-04
-1.529583356340546204e-03
6.692041556783465822e-04
-3.471544169488729494e-03
-1.672853527219413713e-03
-3.461110347552483202e-03
-6.458940979800965008e-03
3.570600555033657652e-04
4.446888317924527385e-03
4.313355043626289700e-03
2.520794568042580234e-03
3.355644460334311976e-03
3.584105767838171707e-03
-2.369248607562953086e-03
-1.333349158742458580e-03
6.194032087353853458e-04
-2.310839836512824149e-03
3.336718636563351529e-04
2.424812097199421836e-03
3.843798845640085350e-04
-4.006268094377788032e-03
-4.758466041983415266e-03
8.918282952137487375e-04
-1.017517389982164301e-03
-3.422175391793479127e-03
1.389672419759073203e-03
-7.373424298766086907e-04
-1.375187862372044805e-03
6.524547483146099849e-03
8.054613360081491064e-03
4.308421867477889647e-03
2.329570027463231767e-03
1.547736912873701838e-03
3.512069023209394951e-03
2.815819862622310609e-03
-1.980388668568356086e-03
-1.734120468642479009e-03
4.084719940411091557e-03
8.146734374051641317e-03
2.010124816083179618e-03
-7.178931214741787227e-03
-4.360371043365071121e-03
-9.737782670611080504e-04
-4.544689188614579878e-03
-6.500751581224009819e-03
-8.867932661318057852e-03
-7.172753363848718977e-03
-4.109399254222677648e-04
4.619512107975337753e-04
-2.238317494467604099e-03
2.492898720396540067e-06
5.368347040618752161e-03
3.493713529407044532e-03
-2.382013978071161487e-03
-3.073377243175142749e-03
-2.638114373582883809e-03
9.347058533610297110e-04
4.288363329105559542e-03
2.611672011485886673e-03
4.371815540606430531e-03
2.907391965006667946e-03
-1.642177366991333246e-03
-1.610025799179279024e-04
-1.074219549482183450e-03
-7.983581263258851795e-04
1.520223275559481717e-03
-2.288899735149720234e-03
-1.219242635895488982e-03
2.592399641693368152e-03
1.603338700866728962e-03
4.501890117899708804e-03
4.762693897706777105e-03
1.162622798073735444e-03
1.970366333490848956e-03
-2.766492711400355894e-03
-4.926024646987172372e-03
3.656832421411473476e-03
3.729653139566961161e-03
4.205018334753930775e-04
2.975110985173557094e-05
-5.047845719636626788e-03
-2.555381706163410531e-03
1.403618494465706801e-03
-1.638753603846276321e-03
1.517260957036285817e-03
2.779407854433479062e-03
-1.231108604655147855e-03
7.080102940514126876e-04
2.690335213940755164e-03
-2.851741543440044460e-04
-1.191013190746458873e-03
3.405147040593338881e-03
2.379051907575080275e-03
-4.694591363456374067e-03
-4.524258474201172005e-03
-3.145725874004329237e-03
-2.754486984152310428e-03
1.091880922701475055e-03
5.258173477165463492e-04
-1.741630255558390293e-03
-3.311569449172382332e-03
-6.365256190124599783e-03
-5.339445397824428736e-03
-2.021140607588471985e-03
3.856186664792060864e-05
6.106741187594545966e-04
7.541067647720476035e-04
4.613153845042484817e-03
6.312678155311064743e-03
2.443880498505279428e-03
4.001233104531833583e-03
8.078588638333149621e-03
2.403222453386271665e-03
-4.193475130748148746e-03
-3.415881675334689598e-03
-2.153460299004665915e-03
-8.411269059453824973e-04
1.354247372519699812e-03
1.895962715864711210e-03
6.733411587082258586e-04
-6.759508944544129119e-04
-8.643626983256742259e-04
-3.166574047379375721e-03
-2.599319131387230197e-03
2.514283930261205927e-04
-1.727508791361876848e-03
2.067564382138814983e-03
3.987824566208792582e-03
1.115143240232575449e-03
1.028483098208298439e-02
8.791173086148119237e-03
-3.354613905927782223e-03
-1.096795295574437773e-03
-3.291041876194807005e-03
-6.674174162491705586e-03
2.338394599123085928e-03
4.725667426690590214e-03
2.603790899257666085e-03
4.330526733324796193e-03
3.144567837624241691e-03
2.124465913607553186e-03
4.902882835109576877e-03
3.517794884988559734e-03
-4.880883622096849651e-03
-1.571719029545964527e-02
-2.749427665063133505e-02
-2.351815029247912581e-02
-6.795085649542286898e-06
1.067021228015014103e-02
2.958190351520274125e-03
-2.669906884451356006e-03
-6.237387869615382361e-04
2.935994202451391085e-03
1.040857842935721941e-03
-2.320489349635586937e-04
9.058641836023514611e-04
3.363926001850160372e-03
9.071691294099751279e-03
7.757476270308964576e-03
4.586331744421493981e-03
5.604195195153078776e-03
5.127136718750820816e-04
-5.429934709879867538e-03
-2.388929666807606666e-03
5.907075893240898261e-03
5.249204795967982867e-03
3.667674550031546133e-04
3.710134073542883937e-03
1.417535960585115072e-03
1.864156947515656815e-04
4.906673554798010768e-03
-2.376726643777750413e-04
-3.537495121526645393e-03
-7.336321868651463074e-03
-9.904580041103939331e-03
8.392131932270977370e-04
1.082236502402758593e-03
-1.980120071299385810e-03
3.562823714648997216e-03
-1.915173472958852361e-04
-2.394396184652760121e-03
-1.275854378556049232e-03
-4.034692672930430442e-03
-4.458916447826815829e-03
-4.942286068800750415e-03
-1.898624400066993871e-03
-1.901521125538971834e-04
-5.130784849973772568e-04
6.663038672552918339e-03
9.832969496364913145e-03
8.307239161367305919e-03
7.545405953098319705e-03
4.023586423522821851e-03
1.335044789055808614e-03
-5.338295033684056258e-03
-1.050769237303247200e-02
-3.991787147170791292e-03
1.810640672531820027e-03
3.314940010193315103e-03
2.702900458659963142e-03
-4.919831234426760500e-03
-9.629612038981051961e-03
-4.451278327930735870e-03
-1.301253146102927761e-03
-1.910379352635569209e-03
-5.835583383657947732e-04
-3.551338002542386244e-03
-3.409155805014298362e-03
6.662375806921017746e-03
8.767315158671584036e-03
2.728624768245756314e-03
2.714940141533332360e-04
2.595060028459538382e-04
2.822325867920439171e-03
2.357683732764244422e-03
-1.041262197811894516e-03
5.615344490003607979e-04
5.137176585315766583e-03
8.303014754874250836e-03
5.913782835100475123e-03
4.491427314838214620e-03
5.490727862136171415e-03
-2.262532885109432620e-03
-5.779792349836487646e-03
-3.523523066604121283e-04
-1.458262788003566145e-03
-2.153521819343269701e-03
3.873492944321780575e-03
8.748508139072646086e-03
7.332845604467680065e-03
1.993135922815320298e-03
-5.097896360300886980e-04
-1.299399438313931284e-03
-1.535988476304530172e-03
-3.642983374185870035e-03
-6.869688714497682903e-03
-2.147467531297723824e-03
1.269761537816972274e-03
-1.600855519634708513e-03
3.974404412298567857e-04
4.238446050726772489e-03
5.821382395322413639e-03
6.367942983729371099e-03
7.532568531061203596e-03
7.782477311214635110e-03
4.356373782761532865e-03
4.778555137171309336e-03
2.378176430231229189e-03
-5.230077750310835674e-03
-2.555872412412696706e-03
-1.640147409796618950e-03
-8.748025218277333259e-03
-1.204116491788824982e-02
-1.784543895677996247e-02
-2.283902868086256852e-02
-2.311897848539532299e-02
-2.404486285900049591e-02
-1.572923046655971130e-02
-1.440326299880104926e-03
4.413552983547923067e-03
6.950135047336423490e-03
1.181505114750828166e-02
1.233225074189465628e-02
1.231035895783396360e-02
1.725455962333824825e-02
1.195952552672052346e-02
-1.358866090828277865e-05
-3.080407196134381589e-03
-7.574010513552725463e-03
-1.034601278749907108e-02
-7.642690288398303229e-03
-1.020867471592109416e-02
-8.734304110599933751e-03
-3.534162974558083085e-03
-4.621238998298107109e-03
-8.356467071223163887e-03
-1.130173781351166348e-02
-6.127710275619107153e-03
7.581883241586918204e-03
1.373440697974037672e-02
4.090330274729433307e-03
-1.026035714340812859e-03
1.002586169658150998e-02
1.404600772342145046e-02
9.525966856157051799e-03
1.185979792898937853e-02
1.181631105322776196e-02
-5.397544182578573567e-03
-2.687115922741104349e-02
-1.187366150098265009e-02
2.603983699079061298e-02
5.126649005549826360e-02
7.933675592428250656e-02
9.054142511995109943e-02
6.649892981649697943e-02
3.984490608370946929e-02
2.905109755874577329e-02
2.966498471617182164e-02
1.071754058748918687e-02
-1.225611235906294214e-02
-1.254817635444467790e-02
-2.268068984487594392e-02
-2.648051451230870948e-02
-6.274501790878637963e-02
-1.801172160244294274e-01
-2.417048244790043487e-01
-1.966524975114496143e-01
-1.481761619037280930e-01
-1.060507928474652695e-01
-4.158729736461488219e-02
2.839014708963361402e-02
8.500958080313637810e-02
1.168498597153357077e-01
1.219214376990651605e-01
1.329312325408287254e-01
1.388061388484226610e-01
8.259531696323071936e-02
3.307086005208158264e-02
2.376213403189311735e-02
-2.054431403700054254e-02
-5.083924127564652673e-02
-5.540620147793075961e-02
-9.609965674521477041e-02
-1.086350660937751705e-01
-2.067766161961235791e-02
1.280504437727391642e-01
1.938707835440727778e-01
1.521675735524693762e-01
1.475816955196185276e-01
1.600786467598676044e-01
1.014759744738696623e-01
1.288238622888051091e-02
-6.206450903825912885e-02
-1.210009896594319984e-01
-1.963216616642481371e-01
-2.519823977713368524e-01
-2.086531718348516307e-01
-1.246447751984822161e-01
-7.638727373058024073e-02
-2.121050197487594352e-02
8.492999193998219953e-02
1.450177142195681890e-01
8.739844523124498665e-02
5.336606522622296817e-02
9.925859394086233856e-02
1.223441810968584897e-01
1.140216706523039802e-01
8.735255790814912269e-02
4.324600650799750867e-02
-1.115308198455826003e-02
-1.108481240701083698e-01
-2.113118978830583750e-01
-2.306963838132229938e-01
-1.903827459319259174e-01
-1.360274911578233381e-01
-5.740339475377417844e-02
4.741230005867556885e-02
1.129399809877861954e-01
1.219460311346986375e-01
1.363192611466018112e-01
1.347841310186804475e-01
7.494077593360688738e-02
1.225327368422700521e-02
-1.855717378380182525e-02
-3.534981815937362354e-02
-3.820447643432103857e-02
-3.473435077242494756e-02
-3.430889223525252635e-02
-1.557827938786708610e-02
2.757233248792451477e-02
5.560978434646226404e-02
4.467958376744301380e-02
2.925917234840625172e-02
2.690387595483801839e-02
1.469512388269260221e-02
1.148558065667466301e-02
2.822452502426344573e-02
2.371662907531515291e-02
1.089677562319790391e-02
1.648616129296916546e-02
-1.411736124617847532e-03
-5.117139468634030602e-02
-8.898969887771167320e-02
-1.007026759789263620e-01
-9.208502585120785511e-02
-7.110760711848704285e-02
-3.516628483741306155e-02
2.675787100689336340e-02
7.045951487208111652e-02
4.732617061886217058e-02
8.634184414832242818e-03
6.333407536429748810e-03
1.473378616214921118e-02
2.758115911574248597e-02
4.198599339958731386e-02
2.921627866166488091e-02
1.972002546255512828e-02
3.271952767036519216e-02
2.400683343933094488e-02
-4.390845278497863000e-04
-1.017506919636649611e-02
-1.702613970358868647e-02
-2.961063836974114211e-02
-3.546628061720269454e-02
-2.521606213940082858e-02
-1.714127522344118665e-02
-1.679235821269448731e-02
-1.356782416770065461e-03
1.187279332647909851e-02
6.320591294952732780e-03
1.941722734333547421e-03
4.111534999609526252e-03
9.204883167529577526e-03
7.138149825824677622e-03
-5.290356664767176384e-04
5.658272303249714183e-04
4.079728478830215409e-04
-5.976408808220501486e-04
-8.046729962268410214e-04
-7.287620916869876758e-03
-7.340785499662926331e-03
-6.764904262470498864e-03
-7.943163319987423324e-03
-2.717121516446467048e-03
-3.199310053954512213e-03
-3.847939848656627485e-03
-1.610252130280608951e-03
4.932052287307694917e-04
7.681785461180269323e-03
8.170221544225766963e-03
6.273219996702517412e-03
7.470929102756459009e-03
5.512878291692799824e-03
5.769745220671646489e-03
7.971302962613654628e-05
-5.633748281999014472e-03
9.155408782073722268e-04
6.353787977682652348e-03
8.194063287156397313e-03
6.467826247337633318e-03
2.849752651798798629e-03
3.675307890186735576e-03
3.217127177621558701e-03
3.137459752176437449e-03
2.996539972719103068e-03
-2.880100492313913182e-03
-1.343320435232526165e-02
-2.355400564186878321e-02
-2.020911959828139426e-02
-2.731971828696814000e-03
1.321872124353621301e-02
1.533724553825126062e-02
1.257549596101962402e-02
1.731916296334082978e-02
9.319835278973053264e-03
-1.384783541531749151e-02
-2.731302063467545838e-02
-2.730937752151289463e-02
-1.825978272583205983e-02
-1.681689150639923552e-02
-2.097041290053729135e-02
-1.033750567835858662e-02
-4.751519736501444956e-03
-4.478435546379829629e-03
6.066087309263471124e-03
1.332722077131113896e-02
2.490139242453452001e-02
3.215769428492633308e-02
9.892976079797713082e-03
-1.701249412407350795e-02
-2.385032611174544778e-02
-1.833430044091135386e-02
-3.349295416966941406e-03
2.020181434985119512e-02
2.849198923579736656e-02
1.401610096300229258e-02
1.483612534431956627e-02
3.194328349784832793e-02
2.842394150009740564e-02
1.264183055177886018e-02
2.498774077716254920e-03
-4.465773333528922501e-03
-5.462946551465565695e-03
-5.875711051831366931e-03
-9.736800202454331393e-03
-8.980497971410863686e-03
-6.223947547657485840e-03
-6.496140940402818191e-03
-5.000131329807890740e-03
-1.619036827726340940e-03
-1.280437197886475807e-03
-4.032936519098978198e-03
-8.255525683425987346e-03
-1.440311484064408717e-02
-2.076898087104564125e-02
-1.991826425341030812e-02
-9.350768571828463674e-03
-1.678303561061854007e-03
-4.958092874941186223e-04
8.603396296080810177e-03
1.563865677947691088e-02
4.341191856611138246e-03
-3.271611848729881304e-03
-2.316328927689717673e-05
-5.388654048428602157e-04
3.356718810030768878e-03
4.886314793226662415e-03
-3.059487096332466800e-03
-1.210657505293045435e-03
4.579069121551319205e-03
4.602645464045248234e-03
5.724126684395058375e-03
4.834444153621779601e-03
3.630389297293726020e-03
3.086250250047273703e-03
1.835295057348330754e-03
3.276770654063175178e-03
4.067376837508379639e-03
3.986813333498017906e-03
1.615444057068218375e-03
-4.034885715264467654e-03
-8.112691777462193582e-03
-9.679106416636974741e-03
-6.114097113419278071e-03
-3.761279813134254559e-03
-5.503659989496962820e-03
-2.014280547805227632e-03
8.687724375270797477e-04
1.376744384205921693e-03
5.297087504691978116e-03
7.374316866841937324e-03
4.895920484199031350e-03
2.295531820442028078e-04
-6.397888494079443386e-05
3.439978779490093569e-04
-5.881656122706920009e-03
-4.655348744439287249e-03
5.569857370457940472e-03
8.503016479678148290e-03
6.304804021957931791e-03
6.232803255522445518e-03
3.288241772025486849e-03
-2.261355723884731286e-03
-1.336238223861912523e-03
3.249599022418950636e-04
-4.610416590908893858e-03
-6.035954125895573973e-03
-2.811622912688080660e-03
-6.902183662661990488e-04
1.594360248232224234e-03
3.723701512090628850e-03
8.195575174454612297e-03
1.038815469527472335e-02
2.842928508949053683e-03
-6.735136370202739198e-03
-1.746546528418477240e-02
-2.579877435044507575e-02
-1.351709110308129194e-02
3.445376339809239335e-03
7.696962338437818470e-04
-3.789581900362822692e-04
7.293326027641397133e-03
4.005269897199483647e-03
-1.454698406954397193e-03
1.922993154297586221e-03
2.262058156684068882e-03
-5.582382747876863185e-03
-7.350311999960459919e-03
2.647564163174517555e-03
6.531776347158409213e-03
4.018506744258970240e-03
7.483841061747852248e-03
8.719505813627142013e-03
4.451499102876399494e-03
-1.463134549789088653e-03
-6.265870503051463106e-03
-4.122981677148265800e-03
1.814724342392776872e-03
6.467797559135888587e-03
7.437681600121258917e-03
6.074607392953811948e-03
5.893081786171609684e-04
-1.092242300123003398e-02
-1.086336360339929322e-02
-1.158147254055684472e-03
-8.850034564790315323e-04
-2.953200631442975174e-03
-1.624021669249662864e-03
2.294447953718524967e-03
5.514474844586733995e-03
3.376480408565272172e-03
5.268185763092373894e-03
6.292704670832036280e-03
1.876100284122541586e-03
-3.067715079568544834e-04
-3.488925906590024766e-03
-3.092872975565584895e-03
-1.535083891289851189e-03
-1.309351481620383596e-03
3.327537741009195613e-03
-2.062268924276487291e-03
-7.211204543706994929e-03
-5.863763203137833079e-04
-7.192590156404291436e-04
1.813427865500970206e-03
-5.735319640438466996e-05
-1.864453335761170893e-02
-1.598650243614714236e-02
4.863346147453928570e-03
1.024751441133088872e-02
9.633485302921383081e-03
1.015935370974323758e-02
5.826709210369465132e-03
8.076590530775040484e-04
-4.260192040289064938e-03
-1.219364750350989020e-02
-1.404461154773546487e-02
-2.461413200700830490e-03
8.396101680708870779e-03
1.143999729657579553e-02
1.203034165640575956e-02
6.381575962100484792e-03
-9.392709418054706041e-04
-2.766312477719851896e-03
-1.639770941779481904e-03
2.402531999414100590e-04
-2.323304291547923818e-03
-6.518147189840181079e-03
-5.100096243228120947e-03
-3.296835720373042164e-03
-3.707727932969473884e-03
-3.236018070726161700e-03
2.524689902556339445e-05
4.329431543187349171e-03
3.233668260183857838e-03
5.871092721095554209e-04
1.768655193563878521e-03
2.182100144553363388e-03
1.830035486453506855e-03
3.103482444528114260e-03
7.704668551047975933e-03
1.187465353144186858e-02
6.165965739664937620e-03
-2.169401633443378535e-03
-6.015217568592894776e-03
-1.123697734172071465e-02
-1.286738802857144946e-02
-7.484088269504401286e-03
-1.503037451466335056e-03
1.685149915951245558e-03
4.826639741371012080e-03
1.252497881607328792e-02
1.211141882588758281e-02
1.304857441851743540e-03
2.155531182361571129e-04
7.773238682057632618e-04
-3.808234737103497348e-03
-2.327051167910071383e-03
-4.791068507677741749e-03
-1.007777597254689607e-02
-9.413923640384944114e-03
-8.826191661743421069e-03
-5.102549047107902275e-03
-1.796271604577636544e-03
-2.713972870630644661e-03
3.296703270179169839e-05
1.105207925926735869e-03
-1.514499608769438602e-03
-7.130528046127878987e-04
3.348538292710505002e-03
6.894540694983210087e-03
3.026569880860705344e-03
-4.287511520336080573e-03
1.292972653882193000e-04
1.193077868550487114e-02
1.316985581740535635e-02
4.472838029160448176e-03
-5.316240285623642431e-04
8.471448097086673899e-04
1.381561892721120018e-03
-1.945976743561972713e-03
-3.073577715321941951e-03
-3.512857545722877458e-04
8.209963471094407434e-04
2.669535202325070550e-03
3.965696908893779141e-03
-2.187802349728379153e-04
-3.061635046818589855e-03
-1.118571025532272322e-03
3.074203149620630734e-03
4.749671162031567431e-03
-1.327607727154985493e-03
-4.891073951281105225e-03
-3.038370703423694166e-03
-7.263027585996912477e-03
-8.886505342643775604e-03
-1.435823482061599756e-03
2.033341217213856418e-03
4.386779610238122559e-03
7.393570481578826646e-03
-1.400365284296555901e-03
-8.039234069518331333e-03
-1.385262251404371665e-03
-1.597868668964180609e-03
-6.674910317570404913e-03
-2.854024327775024281e-03
-1.144327911743556192e-03
-3.223481021671774013e-03
2.748045336645981666e-03
1.058300629853779241e-02
7.939350823159135873e-03
3.692522181793039555e-03
4.453228591782871018e-03
1.416118271333187319e-03
3.385123846324779003e-05
-1.377640754125812215e-03
-7.643692452092358015e-03
-2.976480634618940396e-03
3.283595412905694275e-03
2.354317287714611986e-03
6.125757872283922947e-03
3.595259107002307143e-03
-2.847742547576670100e-03
-2.543724707383138422e-03
-1.962168086225282368e-03
-8.129316889140944177e-04
-6.987781738083847713e-03
-1.378287468820486514e-02
-6.866502893072854406e-03
4.436508383811034960e-04
1.403583021404314866e-03
-4.506200004859016103e-03
-5.711532737416730177e-03
6.322967772753483248e-03
8.402708621228403840e-03
4.551164014952324005e-03
4.584274797868178805e-03
1.005419513953560284e-03
3.659072219679170880e-03
3.428417049000917916e-03
4.889738036597927624e-04
6.320975582008818254e-03
1.441109917829714020e-03
-5.889424267801385976e-03
-1.483741380121078070e-03
5.144604278468493160e-04
7.122492711384947710e-04
-1.532813565700712460e-03
-3.100800582814341837e-03
5.235832620595907289e-03
1.112871361126023528e-02
9.961274498004501349e-03
6.381006414585686792e-03
-2.605603221825477864e-03
-8.968090468286324390e-03
-7.911397967031146700e-03
-8.246813502086454417e-03
-6.040250439160797617e-03
-3.976283484684495391e-04
-1.581900476436404017e-03
3.738273034351131605e-03
1.342123388851016071e-02
4.244138984621705080e-03
-4.122398056985272612e-03
-5.973538484617564419e-03
-2.039943818003368825e-02
-2.048781664564473803e-02
-2.389347727999975406e-03
1.277578454841500752e-03
1.058107122029651763e-03
9.779844327701094769e-03
1.265104099354666042e-02
8.204125322387676930e-03
2.471226052340699895e-03
-4.324086426382748108e-03
-6.435658532028386974e-03
-2.869206238515086167e-03
-8.811506886586802437e-04
1.146816883501890292e-03
4.191883918067461985e-04
-3.997921411927683570e-03
1.509240531988061259e-03
6.973117752443199792e-03
2.057054691386339673e-03
2.723399336383721270e-03
4.911635034622815164e-03
1.524386448648459499e-03
9.929440909551318258e-04
4.402892274853938701e-04
1.104213625406730249e-03
3.730597194092073136e-03
5.634863288459740840e-04
-1.690361581373811322e-03
1.506322835031794188e-04
-2.683551567166472807e-03
-7.002176498914548276e-03
-5.415411656529499351e-03
1.357019471111044380e-03
8.620449643393431061e-03
8.846958364558964866e-03
1.485051631620947854e-03
-3.034652587761307169e-03
-2.893385205064011399e-03
-4.712111737454076701e-03
-4.960434491749768186e-03
-1.267618364164369536e-03
-2.773717874380880397e-04
-1.554483819062635157e-03
1.883671262676756171e-04
3.993530525068794343e-03
5.045343920619918716e-03
1.974042167615649730e-03
2.565232710479766897e-04
7.343503885781862712e-04
-3.103447808506088965e-03
-6.346406288359050796e-03
-1.999417217358374649e-03
-6.880384917696883947e-05
-2.276711585576061004e-03
2.149484671671662416e-04
5.524112430023284852e-05
-3.463807886233990878e-03
-4.811799311986837907e-05
1.441703141492560632e-03
-3.610838613711826912e-03
-4.800552668985427415e-03
-5.651760936359035911e-03
-6.842012662669674089e-03
-2.178519631372299078e-04
3.603256491272845748e-03
4.973621328848787729e-04
1.806867235889828048e-03
2.175562439012119868e-03
1.906138967948677954e-03
7.808598908238689046e-03
7.173587203301052574e-03
1.867528993947358039e-03
7.350308823512616231e-04
-2.862893715859614460e-04
6.375059724596105967e-03
1.131045737288762128e-02
-1.895704722223553649e-04
-6.174947753115399111e-03
-2.613964158801582865e-03
-5.696299827373768609e-03
-4.877415795570689584e-03
9.699530670827173802e-05
-2.280033031057100354e-03
-2.477481910821231498e-03
7.772346760894565743e-04
1.830409800770679222e-03
5.623951710848903475e-03
4.678782467524104753e-03
-1.465210304993014995e-03
-2.075781874994712549e-04
-3.045198419229644534e-04
-5.316378531530580043e-03
-3.252274476429619157e-03
2.437656915629037718e-03
4.543550883440911937e-03
3.869635423792856885e-03
3.237171790561274055e-03
2.556453410718735261e-04
-6.384757077276235343e-03
-5.561998735604403200e-03
-1.504753993941760010e-03
-5.696926464178288414e-03
-7.635195478436045992e-03
-4.165183468905014029e-03
7.178024076468545551e-04
6.808873903518213380e-03
5.783996237619993576e-03
2.793937292075407506e-03
3.663730162420169786e-03
5.363074536290292783e-04
-1.907809004717303481e-03
-4.824747771559242601e-03
-8.751762246317974434e-03
2.417685861899596979e-04
6.212634392352524466e-03
-7.733602385312361672e-04
4.644786802674922329e-04
4.114442356907829952e-03
2.269610523939908850e-03
1.800690930531914733e-03
-1.450958755210985133e-03
-1.624617084120688355e-03
4.036328358777008371e-04
-4.017979967819077132e-03
-4.272767263073002850e-03
1.859681035719750039e-03
3.893363554055779066e-03
1.462558240978445619e-03
3.666063210474418931e-03
7.087864376467731264e-03
1.973613957907712879e-04
-4.762544986213513264e-03
-1.252779087065422885e-03
3.074549575183733747e-04
1.912172567903933475e-03
2.667044674318493763e-03
1.314272275362099451e-03
-1.751768898723493747e-03
-5.953030833856144503e-03
-3.471737206032973581e-03
-1.766798352315819077e-03
-2.933038685692557213e-03
4.178933192288863182e-05
-1.620162890020793688e-03
-2.383339770129805791e-03
4.337463374906245540e-03
7.059788857478706964e-03
5.478472734694666939e-03
3.905139208403275719e-03
-2.036730012563325214e-05
-5.895349637039915859e-03
-6.124801196234607586e-03
-3.593199390922132601e-04
1.780318594239542473e-03
2.997488136338265739e-03
4.077313171317048165e-03
2.137102647311131011e-05
-1.857525100951107995e-03
-1.985461820210467684e-03
-5.106687310047828936e-03
-5.710451176132139324e-03
-3.103037259731736448e-03
-1.882489315829859655e-03
-2.786767824218855816e-03
-1.226239600394578950e-03
2.591561801659055583e-03
4.254720449034691404e-03
4.805816716572046572e-03
2.449710368518095722e-03
1.501548710682935580e-04
1.427072716408339268e-03
-2.668314901095436304e-03
-5.944685968402259324e-03
9.864006635836276241e-04
5.264270202948994129e-03
3.638161259201245969e-03
1.531691534079018379e-03
-2.683459881230886024e-03
-3.195887531451294984e-03
-1.160250971979903938e-03
-4.300555472637273245e-03
-5.722594397083246610e-03
-1.937605370436035809e-03
2.112757141857499969e-03
4.251479757075831561e-03
2.908138216556705510e-03
4.062541476486121635e-03
8.532346869621877661e-03
6.529504507971339682e-03
3.012707075344818811e-03
2.925875602391356505e-03
-1.982902307662202501e-03
-4.841435938008052144e-03
2.057438528716393558e-03
3.467676638627077267e-03
-1.379766239840784538e-03
1.599913397207502249e-03
2.308161624980869988e-03
-2.145382724027819401e-03
-4.827252872454016559e-04
-1.280315898872481407e-03
-5.745077892831526069e-03
-8.078365153223861228e-03
-5.762647105895433997e-03
3.536415498617589276e-03
-5.095872625603445338e-03
-2.151110643970350136e-02
-4.734181484196776923e-03
9.801349276661413396e-03
-3.374749096642097341e-03
-8.813831054896394124e-03
-7.183233350609588910e-03
-3.434431667190796476e-03
7.200084004117365127e-03
9.608781331479106583e-03
1.140408040201502417e-02
1.590696444570794538e-02
8.917134612072382532e-03
4.777710623185367142e-04
-9.784820322183457493e-04
-2.038420752357908601e-03
-4.059817824212197043e-03
-2.967835923007585992e-03
2.173020336751046219e-03
3.485252023590790661e-03
4.452067038364167402e-04
2.467487708863035957e-03
7.552598654273039169e-03
7.361739231359099370e-03
4.164274321055635997e-03
1.090641763155948641e-03
-5.472257048853164905e-03
-1.050701957514292920e-02
-1.041140456273104142e-02
-9.342705266665250405e-03
-3.694376271454777576e-03
-7.680303109759225883e-04
-4.060671654306982799e-03
-1.328257596429746525e-03
-1.806792153849584321e-03
-5.478282727211018083e-03
-9.796612105059426985e-04
2.943175583327158301e-04
1.549059167582812844e-03
5.227629929851184895e-03
5.289026439287806275e-03
1.072816414506700192e-02
1.013905773087330452e-02
1.483181882975837928e-03
1.218214524432337416e-03
1.142406004851366811e-03
-4.644702189776751615e-04
-8.896267564666350157e-04
-1.931220611142168107e-03
6.652627642215056458e-04
2.397042619161741678e-04
4.446409306088313132e-04
3.087501058595326382e-03
-1.991054909299676701e-03
-6.735525373030012281e-03
-6.152008879891293983e-03
-3.419084012102869673e-03
-3.466865651374701103e-03
-7.089655243324374800e-03
-5.137534592597428618e-03
-4.925820161692023511e-03
-3.569395512890371179e-03
5.945740794179936797e-03
5.121445741211593482e-03
-8.497329678681414967e-04
8.088036746144833906e-04
3.497537476195466521e-03
4.045930965952396728e-03
3.783901983605247703e-04
1.498422511783618644e-03
6.433435943854044770e-03
4.517970022374975629e-03
2.663496164821079967e-03
-1.983663765896653483e-03
-5.362082446488091077e-03
-7.275048515273028994e-04
-3.279730244456796617e-03
-6.041889836570902769e-03
-4.163785439271633641e-04
3.906036376627722382e-03
6.666681881831670008e-03
5.796401788285053189e-03
5.139125256080821075e-03
4.134017115409455677e-03
-3.930243928184888255e-03
-5.316967789495011601e-03
-1.675744597745131232e-03
-2.402700431598584797e-03
2.307413781662562280e-03
5.628142575827222750e-03
1.147973880929175142e-03
-8.148928683219329146e-04
7.633818102695459455e-04
1.641906396581074238e-03
-1.810537614589629272e-03
-4.423310436733681947e-03
-3.214062494983683550e-03
-8.446454784832448104e-03
-9.570186309433204377e-03
8.980356046385162740e-04
4.243692905142652100e-03
4.216298454393076385e-03
8.457116173403634099e-03
3.821414259014323418e-03
-5.530410414226754820e-03
-7.933646790122813458e-03
-6.964238159201447363e-03
-5.115517440760465433e-03
-4.551827997366643093e-04
2.429289889592248664e-03
8.433447122064008372e-04
8.203924974924206061e-04
2.214766048916032640e-03
2.427835912835346957e-03
2.404994032031076718e-03
7.670177078677601137e-04
5.055746701869000704e-05
-6.116562455313319466e-04
-2.790079864904016892e-03
-1.308286494077514879e-03
3.072167214720876709e-03
6.500846676463192982e-03
5.179055075731452476e-03
8.218081196095948417e-04
-2.688993445034567015e-04
-5.655377175399144921e-04
-2.392403652849500945e-04
-5.987105778200348940e-04
-2.232267942613790860e-03
2.542954114862941255e-03
5.682840490525726575e-03
2.086920506608520680e-03
7.075893433057732452e-04
-7.781276069813948190e-04
-4.054021634022461802e-03
-5.987194284040120787e-03
-5.029182513081046496e-03
-2.644841653010325706e-03
-3.442816228493637224e-03
-4.009858569985417197e-03
-1.028037460538472033e-03
4.536915369952515542e-03
6.819912401445379566e-03
3.947960241530991746e-03
6.383072424920255283e-03
5.937100599005647877e-03
-3.223659519966416091e-03
-5.234083247465927576e-03
-1.676312031576990920e-03
1.695437454041096763e-03
3.764094561185403216e-03
2.884713388836279268e-03
2.725412880043307298e-03
-1.703341037254727007e-03
-6.032823236487737904e-03
-5.740829744284334062e-03
-6.093122909227524295e-03
-7.835697797778372364e-05
1.082379263870215892e-03
-7.848169134016456244e-03
-4.728569919967134765e-03
3.186296382932296903e-03
6.480606160777747753e-03
8.369229066507319348e-03
7.746422896303035467e-04
-4.871291837523229404e-03
-2.279175995882048306e-03
4.043382327182776627e-04
3.958529852721392323e-03
-1.130503573495676012e-03
-6.230787953791346902e-03
1.956612451604435639e-03
4.250449943546849921e-03
6.670550862621966613e-04
9.652810885646180040e-04
-4.119848954523638689e-03
-1.047625765745949927e-02
-8.844781108201754324e-03
-2.269664266631946353e-03
6.581054621799014214e-04
7.050297870544726224e-04
3.029706750964453014e-03
3.705269447489436315e-03
7.022192560981231103e-03
9.510569167882131775e-03
4.837508959237958941e-03
4.064184949422791453e-03
2.643869968170867342e-03
1.104699195635425695e-04
2.779594268030089691e-03
2.658654096150924774e-03
4.958474650803332273e-03
6.102237867365735598e-03
8.819027409375042228e-04
-2.844426562375545597e-03
-7.416498540546578519e-03
-5.003965862927030155e-03
-1.785545049634972709e-04
-1.918208949674694375e-03
1.180134819051174323e-03
3.631764172145348756e-03
4.973136553379733059e-03
1.877785442989276642e-03
-6.149713505002925122e-03
-6.127084746995450828e-04
-8.610524417414099421e-03
-2.842967292842202634e-02
-1.769724531114880497e-02
-5.079266166546844707e-04
6.453849759449851314e-03
1.107186967748435662e-02
4.520201095087641487e-03
-1.034269470143359777e-03
-1.636338991724536028e-03
-3.116645953028916987e-03
-1.635005989257816861e-03
1.993554947671265058e-03
3.255952218428768887e-03
2.657477842029453536e-04
4.033114296798895326e-03
6.405723399700215953e-03
1.081692975732001039e-03
5.210708111726764652e-03
4.726812056691918895e-03
-3.971624353277416314e-04
2.761971383689010035e-03
-2.288967049924439407e-03
-5.717520496013666145e-03
-4.460323370733350248e-04
4.212757691892617985e-03
8.168439092809801072e-03
2.889958047679716275e-03
3.456271234067369671e-04
3.303870857441170567e-03
-5.011352845752808666e-04
-4.790558770242910134e-04
-3.980873332076807249e-03
-9.252290754526833194e-03
-3.928393610522495916e-03
-4.188329659716700723e-03
-3.405337150120019314e-03
5.690171574931175529e-03
6.032035529684101963e-03
3.361533995287092642e-03
5.758147243014199827e-03
4.505693687156661284e-03
-1.534721375629500824e-04
1.687200199323909944e-04
7.500325377776395630e-04
-3.062744104861007521e-03
-1.967320761777114312e-03
-2.125663053703258712e-03
-8.204071459310518719e-03
-6.074959833009149074e-03
-4.367725766972224049e-04
9.647358773115213750e-04
8.568946658856133308e-04
-6.775382460768932490e-03
-1.375548487723898816e-02
-6.381095095002268028e-03
2.253190713148296026e-03
1.910888380108130861e-03
3.612872318863531110e-03
7.812179563681749539e-03
5.765935832507223559e-03
2.632225440056863101e-03
1.271325119842107608e-03
-2.485625936228026949e-03
-2.204014790636047751e-03
2.355974773335529990e-03
2.091567266493079679e-03
2.484191597386022771e-03
5.722246062158013388e-03
3.813999445301518958e-03
5.931880264121250097e-04
-1.431403326247705429e-03
-2.553469209588813370e-03
-1.248788043255102216e-03
-2.642478173883870598e-03
-1.038977994226522247e-03
4.227968457494332699e-03
2.184659784315895036e-03
1.081932365865648834e-03
2.768751295773104210e-03
-3.346930811712908824e-04
-9.785441982961260755e-04
-1.052777857110798860e-04
-3.069744287191198025e-03
-3.995175289397512146e-03
7.810042964793235867e-04
3.678159971956048054e-03
5.898015135884344083e-04
-5.248660352734027144e-05
-6.227988920013936835e-04
-4.040858689665574252e-03
-2.850744684380476877e-03
-1.280978525845698907e-03
-1.345689561168999029e-03
-4.911999723095790936e-04
-1.377517621220414497e-03
-2.674959146678898819e-03
-2.058865568379744312e-03
1.984535038264536883e-03
3.631881699266886580e-03
3.494567206780683361e-03
6.991920289759438224e-03
-2.019381843442466041e-04
-9.949124317024401684e-03
-3.464692018766691011e-03
2.603013762540378872e-03
5.038413311579022398e-03
1.001767735511478047e-02
6.155142027564621324e-03
-1.499962928381656140e-03
-3.661282580293324321e-03
-5.704939139298947394e-03
-9.606750330342552630e-03
-9.405480258383185424e-03
-5.241875513931148513e-03
-3.966097343576554385e-03
-1.364514640940439442e-03
4.612595191429831772e-03
4.504522968256811054e-03
2.043659923319882544e-03
4.346992519064613383e-03
3.847842493170119515e-03
-1.531565332006398859e-03
-5.392986585030307839e-03
-6.257521496042314259e-03
-4.812836060019901399e-03
-1.986569428847571699e-03
2.199884276309553403e-03
6.719865024189406767e-03
9.674313309463913185e-03
1.140130475795698116e-02
9.484837582476727744e-03
6.692179678429529058e-03
7.209862972802563372e-03
5.683138019807592103e-03
1.978587688195526141e-03
-3.048490639771430765e-04
-3.353341264028858915e-04
-9.992905956875378255e-04
-6.014191690983706345e-03
-8.025440664168921254e-03
-8.958330382844601966e-03
-1.594902091389456197e-02
-1.982914262368360228e-02
-1.867725796073221520e-02
-1.570899104904199817e-02
-6.693452948353104288e-03
7.027310097697582816e-03
1.618242518050309539e-02
1.828351937735064534e-02
2.035252598279268035e-02
1.715173868993653122e-02
1.018387993708091445e-02
1.215996242199600397e-02
1.559744842579819171e-02
1.414585358998646930e-02
5.957717174616443227e-03
-2.819767455103153880e-03
2.166552372206021621e-05
-3.683844836605328771e-03
-1.890735878721065341e-02
-2.904842368805895039e-02
-3.306724277911779475e-02
-3.121110393053552756e-02
-2.790606479263874062e-02
-1.923123329947599644e-02
-7.850155350345534855e-03
-4.363145453971041011e-03
3.777612768345708742e-03
1.265534389359375747e-02
1.985774781017020721e-02
2.594609691939498558e-02
2.077290432419034993e-02
2.281234757966117688e-02
1.129671179123661016e-02
