-5.014826925137952458e+03
-3.795481846778409817e+03
-2.894654656352266556e+03
-3.006306128094996893e+03
-3.030370684967655507e+03
-1.044904261846791769e+03
3.413072802375569154e+03
1.132473268927677736e+03
1.447179665285078727e+03
2.667135555029422449e+03
2.503322089824507202e+03
1.902801550557867813e+03
1.633566973569500760e+03
1.571676491857052270e+03
1.850972466322480614e+03
2.920504425419731888e+03
3.255587618976489011e+03
3.405167411580905082e+03
3.837297149183390047e+03
4.660017561488998581e+03
5.199341083868948772e+03
5.818421786827047072e+03
6.079299997141144559e+03
5.820897846626068713e+03
5.540272783817990785e+03
4.919519126428126583e+03
4.293659260109343450e+03
3.391702597029273420e+03
2.686583641500315025e+03
1.846400981670855117e+03
7.821936930412358606e+02
-2.506000733647281820e+01
-5.732532387987935181e+02
-6.794605754147187326e+02
-1.057684464984087072e+03
-6.568388496844204383e+02
-2.477629226621715191e+02
-2.782883597004107514e+02
8.245805805177234333e+02
1.648916760114739873e+03
2.240838834286426845e+03
3.201521803809291214e+03
3.588992048380823235e+03
2.779234625710019827e+03
1.865134969129394676e+03
1.344048555889250792e+03
1.128514745203481425e+03
4.521447057996275021e+02
-8.805265223857870183e+01
-1.157541896424541164e+03
-2.089152162689636953e+03
-3.223062275705882257e+03
-5.192309429164505673e+03
-9.347955341538976427e+03
-7.759864225656030612e+03
-6.120825112523592907e+03
-5.022767672325690910e+03
-4.088802054787875477e+03
-2.450043496820670043e+03
-1.819151285388429869e+03
-4.312190970085963500e+02
1.445960209842496852e+03
2.345670981153039975e+03
2.100740778976074125e+03
2.048200624595764111e+03
2.353053791379259110e+03
1.839384919968824988e+03
1.114198912910316039e+03
3.815239244647998476e+02
-3.185750933198098096e+02
-1.392136633391584610e+03
-1.617026929253797562e+03
-1.710166349300458023e+03
-2.576465534629251579e+03
-2.905969085167841058e+03
-2.632658102027785844e+03
-1.673232268860831255e+03
-7.516019841972895392e+02
4.871468761660407836e+02
1.416039925638729756e+03
2.424180714793888001e+03
3.294580055807786721e+03
3.696355540942741300e+03
4.221464761756619737e+03
4.086885928870420230e+03
3.594647906850698746e+03
3.149800504496532085e+03
1.937378004953735854e+03
5.473457806639565888e+02
-4.683672727482663163e+02
-1.870886008703399284e+03
-2.589205769308948220e+03
-3.055282907629016790e+03
-3.019017746524890754e+03
-1.949316964420008617e+03
-1.051301675667793688e+03
-5.240574561495500348e+02
4.334373225738787916e-01
7.282437555869115613e+02
1.828466077489391409e+03
2.797128070003939229e+03
4.188336422347919324e+03
4.624097951365642075e+03
4.562226256059476327e+03
4.117696885010042934e+03
3.090597727290774856e+03
1.829934945313557819e+03
4.236000507126178718e+02
-6.545527062056280556e+02
-3.063541593409414872e+03
-4.465484073609996813e+03
-4.970487624756544392e+03
-5.214656875001455774e+03
-5.220957618694032135e+03
-5.425435520459815962e+03
-5.109982769094312971e+03
-3.870687589566496172e+03
-2.920545627530695128e+03
-1.997436791854717967e+03
1.534871827455495747e+02
1.706142134884093139e+03
3.095596013470817070e+03
4.398742265390059401e+03
4.922445616076163788e+03
4.956619835455390785e+03
4.923207810079074989e+03
4.097123810495838370e+03
2.967344069897596910e+03
1.624807776729474199e+03
2.664617772013011745e+02
-8.269143552398340944e+02
-2.042456022123858247e+03
-3.084260734941882220e+03
-3.832543002539360259e+03
-4.122291149743418828e+03
-3.913565325022267643e+03
-3.550370428600898322e+03
-2.547784937068498039e+03
-1.373861714918880580e+03
-5.025294972706549288e+02
2.981098081786975058e+02
1.324943140404363930e+03
2.570879262127727088e+03
4.379883993807531624e+03
4.880864261950299806e+03
4.668757570581732580e+03
3.664505193716410304e+03
2.883997781994826255e+03
2.235981462410391941e+03
7.801850043461471387e+02
-6.113862542454744471e+02
-1.211863590344784825e+03
-1.316356366600283991e+03
-1.859962639988100136e+03
-1.979719060141949512e+03
-1.677550775973583768e+03
-8.987089462465471570e+02
3.896647145388633930e+02
1.753546493331176180e+03
2.659915526745513944e+03
3.736732691235613856e+03
4.142013925846813436e+03
3.914838549112004330e+03
4.179939488284509935e+03
4.075248596576078853e+03
3.778649031691283199e+03
2.327929994446480578e+03
1.420924341573877882e+03
1.612592237797452071e+03
1.117963788004656180e+03
-5.829824466671685741e+02
-2.408637947408168202e+03
-3.792208644081154944e+03
-4.480699492632187685e+03
-4.223237343276892716e+03
-3.502801927959747445e+03
-3.143358948922057152e+03
-3.215773591716822921e+03
-1.779026564137800051e+03
-3.471374278163028748e+02
5.798104783550168122e+02
-1.882299773702558241e+03
-2.048790463003274454e+03
1.204023801676791550e+02
-1.742812675641703891e+03
1.516478555832438587e+03
1.188157201492877675e+03
-1.475947757751300060e+03
5.182386491783043994e+02
-8.062312439549913279e+02
-1.808633390019999069e+03
-2.899248715899107538e+03
-3.050907248448302653e+03
-3.148508914242264382e+03
-3.413189520333917699e+03
-3.330027101312602554e+03
-3.253052212758284440e+03
-5.478200790808454258e+03
-1.318569972703877283e+03
-1.032350555350928744e+03
-1.917581442415375932e+03
5.006723038615472205e+02
-2.334868746233595971e+02
2.388925766605184890e+03
-8.480278442151046647e+02
-1.564386073966668164e+03
-4.004269030015803310e+03
-3.812821881700001995e+03
-4.751070019194979977e+03
-3.446952051667404248e+03
-2.013569267901756575e+03
-6.410147667393811389e+03
-6.322707609931055231e+03
-5.031185106038617050e+03
-5.568803190418296253e+03
-5.887674391000929063e+03
-4.475550184582377369e+03
-3.525408526202169924e+03
-2.055419143081984203e+03
-4.613422097056283064e+02
1.628631975578125548e+02
1.363216251271290730e+03
2.898710562812326771e+03
3.773424856044394801e+03
4.189400697467070131e+03
4.450425533375072519e+03
3.187365545366780680e+03
1.949294409711819299e+03
9.303065848002059965e+02
2.441124333814960607e+02
-4.656319182809491508e+02
-1.446951686146410339e+03
-2.615478333444999407e+03
-3.539252922845806552e+03
-3.595192011310075031e+03
-3.600035940828181992e+03
-2.606633969746986168e+03
-1.523032034975861279e+03
-1.580995457617810018e+02
8.552327946002250201e+02
1.601925835676172937e+03
2.435017893692423513e+03
3.473413762458024394e+03
3.677182078436991560e+03
4.382022700781182721e+03
4.727180343074101074e+03
3.162407752073167103e+03
1.956429291314070042e+03
1.219633963306596570e+03
1.231607421604589376e+02
-1.225641989135845051e+03
-2.474484397891691060e+03
-3.813225606772261472e+03
-4.549314776073048961e+03
-4.511901019856604762e+03
-3.831100771233667729e+03
-2.508019322540200392e+03
-1.618484398801302632e+03
-1.545504255005873574e+03
-5.200065590661807846e+02
1.227274213796294362e+03
2.961304305382971506e+03
4.291902853031604536e+03
4.586907706733893065e+03
4.983186007605170744e+03
4.941214544235038375e+03
3.623699337334264783e+03
2.775393065235164158e+03
1.303391863651377435e+03
1.098342629867402422e+02
-2.419454882586594067e+03
-4.241476581500006432e+03
-3.491325277695765180e+03
-2.884911407896337096e+03
-2.540258787626064986e+03
-2.730321937144684853e+03
-3.097041727090559107e+03
-2.286459341013929134e+03
-8.286204934818415495e+02
3.545287110753221214e+02
1.608163873733607034e+03
2.861380637946860134e+03
3.714085987724262850e+03
4.382320419157038486e+03
3.910177015062270584e+03
4.374608129587250005e+03
4.052586924997229289e+03
2.946104294964751716e+03
2.450090742312770544e+03
9.434992786237166911e+02
-8.147075466390174370e+02
-2.554536514251408789e+03
-3.792187167771138320e+03
-3.800843501463471966e+03
-4.096453467653674124e+03
-4.769946149780787891e+03
-4.479431003395077823e+03
-3.348961976383377532e+03
-2.204565651191841880e+03
-2.561189437676482612e+03
-6.478667655911469410e+03
-7.847044246833434045e+03
-2.176383185477691313e+03
-2.316800469996811898e+03
-5.764280422484428527e+03
-5.697839667769158950e+03
-5.214505494060569617e+03
-5.413310797548063420e+03
-6.099256887128008202e+03
-7.518471183720799672e+03
-9.635061179810480098e+03
-1.098733449749068131e+04
-1.164509122529864180e+04
-1.074092809254361055e+04
-8.611830619731352272e+03
-6.614060698462911205e+03
-6.811295273091896888e+03
-5.765430706888922941e+03
-1.309913985002827076e+03
7.881001101000772451e+02
2.199046312104898334e+03
3.114513103311538543e+03
3.937384250475206045e+03
3.859168640473909363e+03
3.687451849801187564e+03
3.485519499934068335e+03
1.790789547513856405e+03
2.308596161483298488e+02
-8.539928516104780556e+02
-2.196377755236326266e+03
-4.240719173922710070e+03
-6.553422650396370955e+03
-6.395015770752444041e+03
-5.812172352724674965e+03
-6.159299895154236765e+03
-6.131758587755149165e+03
-5.183872672433030857e+03
-4.305011882887886713e+03
-3.310792325331222855e+03
-2.412977772776697293e+03
-1.785033410195902661e+03
-1.358318254838365192e+03
-5.353083215954654861e+02
-2.543911289491830416e+02
-2.200093898635359437e+02
1.003591204889422670e+02
-7.070453305958581041e+02
-2.503929346742717826e+03
-4.421219806977889675e+03
-5.088858025915689723e+03
-4.337713285857985284e+03
-5.174632273953340700e+03
-7.446596353626191558e+03
-8.702887252104947038e+03
-9.322223333737019857e+03
-9.569384098592890950e+03
-9.074529801450058585e+03
-7.706102001220182501e+03
-5.574582805910585193e+03
-4.785169160029851810e+03
-4.633277699510327693e+03
-3.235344786794320498e+03
-1.642688754164472130e+03
-3.246787364382449823e+02
-1.754806427922187950e+01
4.099783289266136990e+02
-3.974801061263084421e+02
-1.067071006665436698e+03
-2.703103930161241351e+03
-3.951632033861495984e+03
-5.179843486530591690e+03
-5.262021748034320808e+03
-6.409512903498853120e+03
-7.265726247326373596e+03
-6.010983606169873383e+03
-5.417528418331387002e+03
-4.223809696733056626e+03
-2.158123220680608938e+03
-3.668029171389845260e+02
7.838425213057488463e+02
1.836446639713148443e+03
2.865639619005160512e+03
3.386094103443922450e+03
4.037670226509644635e+03
4.837218671964976238e+03
6.525456751894603258e+03
6.783144387470984839e+03
6.209121399995337015e+03
6.066221899765875605e+03
4.426147985188711573e+03
3.067556713331712217e+03
1.783205944032579964e+03
9.648848900951369387e+02
2.921470259184010843e+02
1.354907677992155755e+02
1.229566054861868452e+03
2.733013872628803256e+03
3.913550127231821989e+03
4.678799368112494449e+03
5.631497509085447746e+03
6.444254165959699094e+03
7.705682174926526386e+03
1.018959484438412437e+04
1.274577595004156501e+04
1.241570812003687206e+04
1.098408197244147959e+04
1.098472007125269738e+04
1.015324953689577706e+04
8.755173015033153206e+03
7.273009901516396894e+03
6.449425566847022310e+03
7.978027382024553845e+03
7.168595234812007220e+03
5.279702312179087130e+03
3.907761500584905207e+03
4.206365610945158551e+03
4.652297107275065173e+03
4.895107358834588922e+03
5.756483348755480620e+03
8.307239790667748821e+03
9.988972735178702351e+03
1.160439927528300359e+04
1.266228287082226416e+04
1.217850417055585785e+04
1.150889723184123250e+04
1.184606812078005169e+04
1.353481900666735055e+04
1.255105660778709171e+04
9.867618835575030971e+03
7.043269276804981928e+03
2.588699855250801647e+03
-5.243396428527704529e+02
-3.064084091100864498e+03
-2.836605069055146487e+03
-1.452965267547959229e+03
9.375380725756040192e+02
4.017798813900275945e+03
6.488855062101764815e+03
7.098847934270379483e+03
8.260524476216001858e+03
8.569871842543754610e+03
9.104261133407486341e+03
8.394360972949432835e+03
6.092054124346571371e+03
5.499725273846036544e+03
6.814301648876950821e+03
5.655433008583703668e+03
1.211649313837816180e+03
-8.062884854736098532e+02
-9.008888829208561901e+02
-1.813885859603964263e+03
-2.512267992663963469e+03
-2.986069531196736534e+03
-1.483377697757354099e+03
-4.340842454360944771e+02
-1.480615760470739815e+03
-2.613839728900848968e+03
-3.588638182138311095e+03
-3.576295240700056638e+03
-3.390489743881594222e+03
-1.880992408065127847e+03
-2.319065344516384073e+02
7.462709818248935107e+02
2.495378395077054563e+02
2.949668688571534148e+01
1.241552845885635634e+03
1.996750717197177892e+03
9.087036021060865778e+02
-3.566960125089892131e+02
-3.448892165719777267e+02
-2.740582644443461504e+03
-6.783178637593430722e+03
-8.440311302540134420e+03
-9.527547880793077638e+03
-1.240328362252691295e+04
-1.324705577283382809e+04
-1.353335097349045827e+04
-1.318447593699534264e+04
-1.290985970852281025e+04
-1.123987444651106853e+04
-7.781840464923675427e+03
-6.735087871575658937e+03
-8.204871701391652095e+03
-8.247355433249307680e+03
-5.568949968865993469e+03
-5.944019792530350969e+03
-9.950800376194758428e+03
-1.497258079873498173e+04
-1.697863004149971312e+04
-1.970318847377657949e+04
-2.274853443599963066e+04
-2.373910926900065897e+04
-2.463519306571711786e+04
-2.878316661478340757e+04
-2.996242368273047396e+04
-3.019930739037655076e+04
-3.013310189205977804e+04
-2.939805899378529648e+04
-3.063450952027477979e+04
-3.165074826121907972e+04
-3.218290195030319592e+04
-2.921628865273150950e+04
-2.249423085101307151e+04
-2.175998000723736186e+04
-2.689944151294551921e+04
-2.920092564512278841e+04
-2.639383636763160393e+04
-1.931778584904179297e+04
-2.032220186544407625e+04
-2.558746123660198646e+04
-2.727709731835539424e+04
-2.924952682027699848e+04
-3.208225551807957891e+04
-3.334789777089359995e+04
-3.451291513233762817e+04
-3.531681258159917343e+04
-3.381017007514981378e+04
-3.260063210747476114e+04
-3.142775473360879187e+04
-2.882612232490763563e+04
-2.037828206869758651e+04
-1.473478001163242698e+04
-1.073418168474168488e+04
-1.089202560126912249e+04
-1.058598805200574134e+04
-8.188676566920335972e+03
-7.776877080958354782e+03
-7.151037677382795664e+03
-6.961733623002926834e+03
-6.391169975177025663e+03
-6.535240732848466905e+03
-6.055654836328822967e+03
-4.356299392053790143e+03
-3.331983830164635037e+03
-2.890641231399917615e+03
-2.307382731416184015e+03
-7.606594975725742813e+01
3.603376784967741969e+03
5.956082669404544504e+03
8.887864970614071353e+03
1.300059261517287996e+04
1.711031341236405933e+04
2.115983094074770997e+04
2.524405774712359198e+04
2.904491984630436855e+04
3.289318937177460612e+04
3.726177145086759265e+04
4.196551425654706691e+04
4.553509823567663261e+04
4.706917293542645348e+04
4.883136629949651251e+04
5.305835892862180481e+04
5.630580397218728467e+04
5.904333460153581109e+04
6.220045132229779119e+04
6.592745883687435708e+04
7.105999813013967650e+04
7.596989740758101107e+04
8.089851191617545555e+04
8.506856116899747576e+04
8.927072348515971680e+04
9.365080453907165793e+04
9.725231086128010065e+04
1.004346425354093954e+05
1.031021949679692480e+05
1.022991986947480473e+05
1.100260069992725621e+05
1.207849486442673660e+05
1.373611949625702109e+05
1.489959133976908633e+05
1.487410954924841644e+05
1.298511247717134829e+05
1.078811853530271765e+05
9.519915863937351969e+04
8.615209059383644490e+04
8.425579460870183539e+04
8.499051584991191339e+04
7.793435384297331620e+04
6.524145099329366349e+04
5.287300614811442938e+04
4.245320617179144756e+04
3.019514094705080788e+04
1.741191319586073223e+04
5.952791825983230410e+03
-7.165112078594447667e+03
-2.158167739863207680e+04
-3.620867256356108555e+04
-4.947999610486185702e+04
-6.264550379401844839e+04
-7.764824890020744351e+04
-9.194011711654330429e+04
-1.042419277849649225e+05
-1.142015588677658379e+05
-1.214009728487309621e+05
-1.289160846874586859e+05
-1.395038060921461729e+05
-1.490469707643165602e+05
-1.566233124587730563e+05
-1.631316203685565270e+05
-1.664457826977067161e+05
-1.673554627614699712e+05
-1.649714383162878512e+05
-1.616294567474965879e+05
-1.569371258225424681e+05
-1.522601002607323171e+05
-1.479599932952306408e+05
-1.424665756164050836e+05
-1.340096820869318035e+05
-1.246958888818088308e+05
-1.187766352976407215e+05
-1.083235747743163083e+05
-9.231523099341773195e+04
-7.410112351532884350e+04
-5.738898784732298373e+04
-4.223045129532665305e+04
-2.622904838336664398e+04
-1.176111077050630411e+04
7.209823345733951783e+02
1.227985155122051037e+04
2.244710634587714230e+04
3.313535849872106337e+04
3.806238811013205122e+04
3.874397660302055010e+04
4.018891462291614880e+04
4.058987757942076860e+04
4.305987148813700333e+04
4.647172470322831214e+04
4.940136596093145636e+04
5.184257953043899033e+04
5.357639451934142562e+04
5.454877292045440845e+04
5.610163867284000298e+04
5.714905564638705982e+04
5.794190063566082245e+04
5.835925155322195496e+04
5.884322192148499016e+04
5.775401801681936195e+04
5.481880031539321499e+04
5.060677893417351152e+04
4.663130321458182152e+04
4.331268096656837588e+04
3.899417814139295660e+04
3.428104222783474688e+04
3.067970795848225680e+04
2.810269555669343026e+04
2.533947368758609809e+04
2.195364063350887591e+04
1.962257568957964759e+04
1.939180634891626687e+04
1.817988037742923916e+04
1.560732746112823224e+04
1.312563008740517034e+04
1.008924557641711363e+04
7.668716478571167499e+03
5.078656349758280157e+03
3.986746126778813959e+03
3.501680900851051319e+03
1.589145109622890686e+03
1.160815632821939062e+03
1.916312579147917631e+03
8.463146969982478822e+02
4.208086771311096186e+02
1.595721505328415333e+03
2.849723259024137860e+03
3.319620271605379457e+03
2.841365395929606620e+03
2.172886246018880229e+03
1.330874429828308848e+03
2.879895641264477490e+03
4.621050140009252573e+03
4.349276139933960621e+03
3.606431981298305800e+03
4.274209301872877404e+03
3.923368191590419883e+03
3.080750364923469078e+03
3.203224112262872950e+03
2.485449936476026323e+03
1.344293605326369970e+03
3.016756858922975653e+02
-3.484695701452912431e+02
5.308195685079169834e+02
7.584340692989611625e+02
8.751305507768475991e+02
1.331567520944157650e+03
2.081688039170739103e+03
2.638550763003576321e+03
2.157093218235509084e+03
1.510291334398745903e+03
3.088023089093319982e+02
-3.666007551309862151e+02
-6.643855780774488267e+02
-1.785968176460238737e+03
-2.923753648339585197e+03
-2.863141915602341669e+03
-3.885408850579676709e+03
-6.026635694673564103e+03
-5.586288536511260645e+03
-3.952673634954088357e+03
-7.062119034238252198e+02
-2.251168922423233198e+03
-2.344777190990157123e+03
8.273205049711230004e+02
-5.115507093326765244e+03
-6.470471945471384061e+03
8.712291708925084777e+02
1.823909357877425236e+03
4.789852464022957975e+03
6.072586047756958578e+03
4.827440151419977155e+03
-1.158254517272453540e+03
1.076694046357589741e+03
1.648574611433893779e+03
-3.406198530530090466e+03
8.386855890257879764e+02
1.656513807344673978e+03
-7.255715424561219606e+02
-1.405463031365480219e+03
-1.263095622872265039e+03
3.018709118704740831e+03
2.080475670885593331e+02
2.013137722587588769e+03
2.564923387532250672e+03
-5.970836524027335912e+01
-7.396661659321825937e+02
-2.734848254972875111e+03
7.066131343412409649e+01
2.083660134335024850e+03
3.772263314990502295e+03
3.515585288734996084e+03
3.544375917147855034e+03
3.951309874666275391e+03
3.686270519801525097e+03
2.735894368060875877e+03
1.971859684851429847e+03
1.175751959665695040e+03
8.662049535776251332e+02
5.967631240983371299e+02
1.448985286692842180e+02
6.873364221258432281e+02
1.933886291559755364e+03
1.894016610864235872e+03
1.035058524687710133e+03
1.150730934076679887e+03
1.309807093179634194e+03
1.434918304077318226e+03
1.922331736288917682e+03
2.797519866063157224e+03
2.631912285905322278e+03
2.679658973855400291e+03
2.756361236271676262e+03
1.794793787096922188e+03
5.051697498470434198e+02
-1.072336892701782517e+03
-2.523428946609758441e+03
-4.568867110285104900e+03
-6.632280079380002462e+03
-7.467350481663147548e+03
-7.967892351809404317e+03
-8.974980182137598604e+03
-1.161850559726390202e+04
-8.761916086759927566e+03
-4.305157662510672708e+03
1.089824400872375065e+02
1.618665115012478054e+03
2.656790171446902605e+03
3.826772082717667217e+03
3.942972468553234194e+03
5.038719183915629401e+03
6.387235805578829968e+03
6.885726435962640608e+03
7.568296868934197846e+03
7.463065320176018759e+03
7.535192323636185392e+03
7.131683689003642030e+03
6.941655647552581286e+03
6.368268400500161079e+03
5.178584149615984643e+03
4.660471418414195796e+03
4.362903483921197221e+03
3.848031924180469559e+03
3.230192392043680684e+03
2.555935473595376152e+03
4.992181641597202315e+02
-2.272709869283529827e+01
2.207378940619056266e+03
1.732810834329843374e+03
-5.319659055378426871e+01
-6.452807196051478513e+02
-2.386268752439097625e+03
-3.796986465935728575e+03
-4.517061780075594470e+03
-6.930131736714924045e+03
-8.431930342220859529e+03
-9.110227318656918214e+03
-7.367772817869122264e+03
-7.389081545210615332e+03
-8.330751530333414848e+03
-8.732467451978978715e+03
-9.286842196110443183e+03
-9.990407425203706225e+03
-1.052566754193860106e+04
-1.113610613715951877e+04
-1.139924783896367626e+04
-1.096155866996269651e+04
-1.140644783860250391e+04
-1.241830776723275085e+04
-1.299441985102706712e+04
-1.344015873022493543e+04
-1.394703910145607915e+04
-1.281335903772334132e+04
-1.099440082350167177e+04
-1.163648932789755236e+04
-1.212788929807841305e+04
-1.243892045415323628e+04
-1.226979340681665235e+04
-1.391967697002979185e+04
-1.806771765331138886e+04
-2.180408485312103585e+04
-2.123781818147940430e+04
-1.929490466044915229e+04
-1.662337882056425224e+04
-1.509219229662160797e+04
-1.340401228621286646e+04
-1.176444694027822698e+04
-1.054674185612595284e+04
-9.534499498777648114e+03
-9.814473772478886531e+03
-5.718639508162143102e+03
-4.611147643173021038e+01
6.749749594759973661e+02
1.370443119570702720e+03
1.940436625171813148e+03
2.375800104478629692e+03
2.045624358198746677e+03
1.490897769089251824e+03
1.940549003428528749e+03
2.518131275258611367e+03
2.674101120624540727e+03
2.579186952732284681e+03
2.743065266214814073e+03
2.608232753799125476e+03
2.737431569631752154e+03
4.042446011539894243e+03
4.291931641401846719e+03
4.131446898659466569e+03
3.963603643998988446e+03
4.286237034720365045e+03
4.509954065920691392e+03
5.059171953296913671e+03
5.495285840730229211e+03
5.344601289111930782e+03
4.542605708337114265e+03
3.633109989633970144e+03
3.621595928395846386e+03
3.772454244277157159e+03
3.179097001869466112e+03
3.619759119215696046e+03
3.702642049931047040e+03
4.145877151247577785e+03
5.118771438713174575e+03
5.668565061602988862e+03
6.853508825298045849e+03
8.015943376060204173e+03
8.510081930000287684e+03
8.161941755754088263e+03
8.138677836972085970e+03
7.804786761091226253e+03
8.468110455073016055e+03
9.997282359515676944e+03
9.697167221958301525e+03
8.632965670759918794e+03
7.667906658283985053e+03
6.911047361691611513e+03
5.818715575376286324e+03
6.134144819080891466e+03
6.708618022366646073e+03
6.675477048269009174e+03
6.867180198125935021e+03
8.110754248593232660e+03
8.705056643651932973e+03
7.729915272349670886e+03
7.769442818271815668e+03
7.537729347653480545e+03
7.643123593327886738e+03
7.083068328528011079e+03
6.299165624871697219e+03
5.225918761377830378e+03
5.222793598080873380e+03
5.259195949418129203e+03
3.561567057115604257e+03
2.651403207786901021e+03
1.596146543343201074e+03
6.982856608643395475e+02
-6.196646588830882365e+02
-2.139051906830784446e+03
-2.950300727647028452e+03
-3.213944422532930275e+03
-3.753520856201675542e+03
-4.344374656335789950e+03
-5.409836798506511514e+03
-5.897585424093726033e+03
-5.399341301207862671e+03
-4.459649961922800685e+03
-4.689015363532142146e+03
-4.792136175359602021e+03
-4.248860187833933196e+03
-3.747772274997575096e+03
-3.807466248724278557e+03
-4.188644352384829290e+03
-4.775966235912414959e+03
-5.739235208181122289e+03
-6.731170339425935708e+03
-7.194594909154746347e+03
-7.785398402620335219e+03
-8.205275642100823461e+03
-8.364176423194885501e+03
-8.702017557504972501e+03
-8.792492427206942011e+03
-8.208502988394920976e+03
-7.767992198586266568e+03
-8.190908372639671143e+03
-7.639109366824504832e+03
-5.870398785438912455e+03
-5.184670609266537213e+03
-5.481815140769790560e+03
-4.656998484995742729e+03
-3.925288228191634971e+03
-2.803526814311857834e+03
-2.026657116547187115e+03
-2.207843871266227779e+03
-2.880056338054000662e+03
-2.815235575963467909e+03
-3.297518853519307868e+03
-4.285925100601050872e+03
-4.336427803401146775e+03
-3.595151916188367068e+03
-2.815232509120038685e+03
-1.655887550294900166e+03
-3.951122167231738445e+02
4.060125677983173205e+02
9.630119913950079535e+01
6.396275565354446826e+02
2.183823222906047704e+03
3.811741480287632385e+03
4.422253197731476575e+03
5.049200472819704373e+03
5.387362415822409275e+03
5.070491145487942049e+03
4.428306160913480198e+03
3.541572633249389582e+03
2.905440401954378103e+03
3.896356579777774641e+03
4.152104544882451592e+03
4.428460405158042704e+03
4.465089607700159831e+03
4.941452719946999423e+03
5.969398774311953275e+03
5.800065411964835221e+03
5.350733481122650119e+03
5.948839668455746505e+03
6.686000333105015670e+03
7.177822323297042203e+03
7.385718707651894874e+03
8.221373390617161931e+03
8.434399110512793413e+03
8.313581699628668503e+03
8.444955544484346319e+03
8.152643281283006218e+03
7.274797067903791685e+03
6.484089032365135608e+03
6.148828172847615861e+03
5.807643027070706012e+03
4.588404390622330538e+03
3.550384328955149613e+03
3.683228438068870219e+03
3.512737208778425611e+03
3.905274642955127092e+03
3.222409598840270974e+03
2.298574422644156584e+03
2.463171902574717024e+03
2.662485930362740419e+03
2.184721166163667476e+03
1.328269187719758293e+03
6.728709918034730890e+02
9.493577062882873179e+02
2.232595838360168273e+03
2.498088211750735809e+03
2.036529349410283430e+03
1.815760324947772688e+03
1.617479897331175835e+03
7.254813804431860262e+02
-7.224522178481649917e+02
-1.971602030141041269e+03
-2.760169728489383033e+03
-3.806337739547673664e+03
-4.483409012681908280e+03
-5.015647415014727812e+03
-4.946081986320458782e+03
-4.741693242667257437e+03
-4.923653651632495894e+03
-5.073115806150646677e+03
-5.296257654437597921e+03
-6.219227466452913177e+03
-8.099232987638119994e+03
-1.209729409742146163e+04
-1.385850532868347000e+04
-1.422297675915159562e+04
-1.370172868289906000e+04
-1.410084009887922366e+04
-1.420335206922349789e+04
-1.400436702904521735e+04
-1.450588171972204327e+04
-1.427598288381940438e+04
-1.445068178529851502e+04
-1.477707998121780111e+04
-1.106813877014724494e+04
-6.966691212089584951e+03
-1.128920476488497479e+04
-1.456284761925201201e+04
-1.332368960972749119e+04
-9.539533161516837936e+03
-9.573318549385327060e+03
-1.279701951752890272e+04
-1.170054065010002523e+04
-1.040589448522765815e+04
-9.938060272794036791e+03
-9.070947589567000250e+03
-8.924536183629199513e+03
-8.729731811135285170e+03
-8.138458864207010265e+03
-8.142628673930931654e+03
-8.091146620557525239e+03
-7.600903237059310413e+03
-3.312741979882104260e+03
-2.152552826192107204e+03
-1.919225565734252541e+03
-4.105565036333392527e+03
-1.649357423580637715e+03
1.925221636894942492e+02
4.753792808295378336e+02
1.512300718606893497e+03
2.503279605652282044e+03
3.596719679154237838e+03
5.211932385138448808e+03
6.025024299523885929e+03
6.565254807401338439e+03
7.347814177857798313e+03
7.986815257442812253e+03
7.524609920256929399e+03
6.842303859569917222e+03
6.120022286783349955e+03
5.354745664085473436e+03
5.077789302652526203e+03
4.805373482117270214e+03
4.093664225103726949e+03
3.602879916198040064e+03
3.571284549284087916e+03
3.702082165827250265e+03
3.438501800668002943e+03
3.810786719543364597e+03
5.419126112080744861e+03
6.723799167890877470e+03
7.410117848610396322e+03
7.900271472535194334e+03
8.700449326749561806e+03
9.012853164507290785e+03
8.874519778833240707e+03
8.210527843332823977e+03
7.706089858358096535e+03
7.483282430961454338e+03
7.166248758333350452e+03
7.210496533252055087e+03
6.669354139082295660e+03
5.447221527102166874e+03
5.080328002005266171e+03
5.041613751686738397e+03
4.595287558816784440e+03
4.235089063865749267e+03
3.844363367374528934e+03
3.734280587195496537e+03
4.417026279814148438e+03
4.998848924771888960e+03
5.328808307834568041e+03
5.911224656425378271e+03
6.858163247618782407e+03
7.621272741430426322e+03
7.803812505279046491e+03
7.279702173624372335e+03
6.906845651655690745e+03
6.430842638227655698e+03
6.088701736243342566e+03
5.289338812876506381e+03
4.255730904011747953e+03
3.581969598961623433e+03
2.944126156994003395e+03
2.640295615137745244e+03
2.279547783475904453e+03
1.920008511003539979e+03
2.096752831705423432e+03
2.057800769955328633e+03
2.257309904902732796e+03
2.325390281639171008e+03
3.022130544853832816e+03
3.937536807837057495e+03
4.232658395160164218e+03
4.468519172356059244e+03
4.556078164699146328e+03
3.957365518100424197e+03
3.553401811205705599e+03
2.973151482682335882e+03
2.348481982713502020e+03
1.414321613661222273e+03
5.467039839621409101e+02
-8.094836715564988481e+02
-1.992276265989087506e+03
-2.450726584149998416e+03
-2.216910578777572027e+03
-2.359866765519891942e+03
-2.206646073561409139e+03
-1.684247915008696964e+03
-9.786820181011787554e+02
7.809376070297750516e+01
1.285977102698615454e+03
2.227969554076167242e+03
2.347932986756891296e+03
2.000724130104854794e+03
1.689300910536609081e+03
1.158632101678462504e+03
2.976615838054362371e+02
2.120465752755852407e+01
-2.086873723105330100e+03
-5.203775860474619549e+03
-9.784680319812072412e+03
-1.260067867564019252e+04
-1.282392878436185129e+04
-1.198766535819987803e+04
-4.943937376997686442e+03
-2.465713700045100268e+03
-2.488158109889382104e+03
-2.757346985770598621e+03
-3.510427909006410118e+03
-2.665370912116740783e+03
-1.591114752908415085e+03
-1.000854523953784224e+03
-3.470095571529298581e+02
-2.542193147386373369e+02
1.723318138879311050e+02
8.233637835762476698e+01
5.626239040648763421e+02
1.589838390382406317e+02
-7.472978782767060579e+01
-9.126340904578779600e+02
-2.413932725794254111e+03
-4.075874366425304743e+03
-4.888618087590875803e+03
-3.730323573056594796e+03
-3.105049665088562051e+03
-3.389915963498054680e+03
-3.347062425257063751e+03
-2.694664134539323186e+03
-1.930843165679985077e+03
-1.345728362854061061e+03
-2.854866854064409267e+02
6.698189637112610626e+02
1.574096286957134225e+03
2.447187510170614587e+03
2.730947469121814265e+03
2.876331837358005941e+03
3.639210446241705995e+03
3.733288996785228392e+03
3.578348396827390388e+03
2.894276792288569141e+03
2.270013454613685099e+03
1.664361097659269944e+03
8.600930995719170369e+02
8.320355752136869114e+02
4.330823241322644890e+02
-2.171626929602525280e+01
-4.432647656060577646e+00
1.917666287821541005e+02
8.468473118786314444e+02
1.512817410239799301e+03
1.703463242220891743e+03
1.976596310693100577e+03
2.461117515971452576e+03
2.441000801269715794e+03
2.105262133414821619e+03
2.337864559143535644e+03
2.342648333857459420e+03
1.923528003724116161e+03
2.092500671235940445e+03
1.517515133891070491e+03
4.093530973014425172e+02
-8.581376992466605316e+02
-1.261023192822919327e+03
-1.146364336741306715e+03
-1.199212957661941346e+03
-3.964838405136210326e+02
4.967795444118078194e+02
8.134936798912474387e+02
