3.924410606896715308e+03
4.078539578540340699e+03
4.065162679117710013e+03
3.693525513463045627e+03
3.044839118302283623e+03
2.248422914785622197e+03
1.471601554773729504e+03
8.757187909534710570e+02
9.091960426982200261e+02
1.506479532874579036e+03
3.789872306998652220e+03
6.375647176162226060e+03
7.650266320049005117e+03
8.688030308346927995e+03
9.413242716691647729e+03
9.622211634175964718e+03
9.980267807234768043e+03
1.136372862361683292e+04
1.339490147409763267e+04
1.465204183581114921e+04
1.523347264731193900e+04
1.498450297341922123e+04
1.472935433728061435e+04
1.416515267461449730e+04
1.388217696080362111e+04
1.243772180574642516e+04
1.061014933811427545e+04
9.838800529228794403e+03
8.673010999289519532e+03
8.139178738283432722e+03
8.522709031256548769e+03
9.225990085196923246e+03
9.055313868754041323e+03
8.940086755863665530e+03
8.569533065571955376e+03
8.198882789395220243e+03
7.885504695406095379e+03
6.602680744073129063e+03
5.210662905061545644e+03
2.385603873672395366e+03
-1.375171043577931641e+03
-5.007457658414838988e+03
-7.496800642787441575e+03
-9.300655976440923041e+03
-1.120385735083024338e+04
-1.321628393220218095e+04
-1.384976564407124897e+04
-1.493775783106762174e+04
-1.620084071049824888e+04
-1.480475436551821622e+04
-1.046315238683505049e+04
-1.016367886275743695e+04
-1.486902430124110833e+04
-1.585797145170711519e+04
-1.443931106884735709e+04
-1.308393242614054907e+04
-1.229949998346876237e+04
-9.364678850037589655e+03
-7.471384844046871876e+03
-1.006852949179869938e+04
-1.076192708273200151e+04
-9.506259382482645378e+03
-8.978295424427178659e+03
-8.989920536445346443e+03
-6.191031197176053865e+03
-2.405447198554928946e+03
-3.654955781554300756e+03
-7.799426818464807184e+03
-7.715665802699301821e+03
-6.432559101388166710e+03
-4.797959800989211544e+03
-3.833693134899775032e+03
6.854305363902618637e+02
3.433538237959389789e+03
4.223694771349682924e+03
4.842035460197854263e+03
5.723694308946047386e+03
5.947774103150105475e+03
5.184409382492906843e+03
4.862626681722877038e+03
4.161497009274451557e+03
4.242109224279528462e+03
5.971564941672981149e+03
7.625971542457010401e+03
8.064404436324331982e+03
7.386903636088851272e+03
6.800558201540745358e+03
6.937476457032946200e+03
7.774727900845037766e+03
8.357353592604848018e+03
9.249365264427004149e+03
1.028774595655146732e+04
1.094866238752752179e+04
1.153615664098951129e+04
1.174822855369419085e+04
1.233487777033513703e+04
1.178298205935660917e+04
1.052354423785998733e+04
1.012674899981115232e+04
9.216673524141557209e+03
8.109338157179066911e+03
7.242440519131133442e+03
6.842888782859765342e+03
5.538510167125155931e+03
3.549840683921127038e+03
3.905828449138210090e+03
3.594350820534034028e+03
2.992130015776437631e+03
2.919931571832278223e+03
2.389575777994101372e+03
1.910803554255180643e+03
1.658417794721253131e+03
1.687274495075958612e+03
1.843804000786666620e+03
2.988452045253775850e+03
3.043212813309085504e+03
2.777666802840093169e+03
2.631433797694392069e+03
3.082326948854804414e+03
3.154945124109262451e+03
3.489589428708613013e+03
5.001792440376435479e+03
6.340962611213403761e+03
6.666546317781945618e+03
6.520157759427203928e+03
6.370245101868886195e+03
6.560160719288740438e+03
6.851356594095100263e+03
6.558366349851254199e+03
6.443798749037475318e+03
6.480203303751315616e+03
6.562041994793961749e+03
7.084823246409149760e+03
7.451073813546460769e+03
7.309227644440528820e+03
7.713722532169847909e+03
8.501020496954135524e+03
9.024614572362472245e+03
9.707886007504441295e+03
1.057320834539152747e+04
1.082798518364421761e+04
1.024153585557693805e+04
9.407334312149401740e+03
8.164767999626305937e+03
7.046161190361699482e+03
6.184951518559997567e+03
5.207567959073714519e+03
4.654337898996257536e+03
4.195677491006587843e+03
4.161005183343935641e+03
4.464708431741108143e+03
4.741106581658025789e+03
5.097616077275301905e+03
5.512698924715421526e+03
6.489750584330911806e+03
7.180232454510116440e+03
7.105615226132840689e+03
6.964359471948598184e+03
6.370814578804484881e+03
4.472291911018611245e+03
7.131923257154405746e+02
-2.068113812234669240e+03
-1.986218492958244951e+03
-8.916591807105802445e+02
6.988838164087923133e+02
2.103773249498949554e+03
3.330517212228449807e+03
3.755634482825687428e+03
6.328536748028080183e+03
7.198161545628493514e+03
2.238753413782357256e+03
-3.277355392549857697e+03
-4.760757744504783659e+03
-5.258825336263354984e+03
-4.281785300840510899e+03
2.788559389258585952e+02
2.780616316452882984e+03
5.067933938851377206e+03
6.192207928594812074e+03
6.161087471265165732e+03
5.752076855057975990e+03
5.833683729746620884e+03
6.287584681347402693e+03
4.314257604125852595e+03
1.251327772124130888e+03
-5.255076843134737601e+02
-2.067504240485819992e+03
-4.156944566747331919e+03
-7.032068369082910067e+03
-9.318171212766645112e+03
-9.806510485628770766e+03
-9.145293457675266836e+03
-7.939834365381528187e+03
-6.410216216176484522e+03
-4.443569469046297854e+03
-3.156262739495342430e+03
-1.866322733156153845e+03
-5.899538571242560465e+02
-1.044294035449981806e+02
3.801850751007480653e+02
9.848786390466780176e+02
1.441409584069967423e+03
9.277024754073274835e+02
-2.902057231997227973e+02
-1.151361850741292074e+03
-1.871539734988963573e+03
-2.510637563167952067e+03
-2.347987311087488251e+03
-1.754707261936736131e+03
-1.387634528947072113e+03
-1.867759386681109845e+03
-1.755109164550434798e+03
-1.304449561784296975e+03
-9.385155154032570408e+02
-4.638994016058182979e+02
-1.119530569235226949e+03
-1.923447568997587496e+03
-1.249484953547408850e+03
-1.614934360955170121e+02
-7.829601408249810390e+01
-1.455817695063714723e+02
-1.117150756978075378e+03
-1.865800036504116179e+03
-2.479173416831506984e+03
-3.658776122803368708e+03
-4.940181052108890981e+03
-5.405134503778484941e+03
-5.542301205370842581e+03
-5.400695425362590868e+03
-6.782718350280958475e+03
-8.274168040085793109e+03
-7.095123256338555620e+03
-3.992235404557014135e+03
-1.323869828487646373e+03
1.474813756101742115e+02
6.655142457663143887e+02
1.032542488748167898e+03
9.810205776487655385e+02
9.175856572464909959e+02
-3.341610823969641615e+02
-2.684052629006501320e+03
-3.683806211173636257e+03
-4.609169253151045268e+03
-5.672706038699235251e+03
-6.704683230121595443e+03
-7.404658794017109358e+03
-7.764072090419890628e+03
-7.515134784192831830e+03
-7.802247786494133834e+03
-6.913826229685227190e+03
-4.932522718257666384e+03
-3.781219101337614575e+03
-3.501548773090810755e+03
-3.274239821694943657e+03
-2.345913159551916124e+03
-1.140602499838042149e+03
8.770290464326143365e+01
1.188462993133629880e+03
1.559393932134998067e+03
1.406300328377849155e+03
9.941041245933648725e+02
9.854594448425947917e+01
4.555207739403719813e+01
2.955908944613298672e+02
1.184489734358010224e+02
9.158110792525556576e+01
-5.594501553633245976e+02
-1.904787978658652946e+03
-1.694999313118383498e+03
-1.145337232807948112e+03
-9.251578818177488301e+02
-8.828990886104978699e+02
-3.091410723580738704e+02
8.517398817808915510e+02
2.283668847991699295e+03
3.814729793471205085e+03
5.676618728788396766e+03
7.902925517844499154e+03
9.818439248412816596e+03
9.953278096103615098e+03
9.212847451204541358e+03
7.808587952664748627e+03
6.295705097820015908e+03
5.086187501831527698e+03
4.883945361510897783e+03
5.010717745854294662e+03
6.103892536205827128e+03
7.817111412510903392e+03
8.912335393823983395e+03
1.033585937267523514e+04
1.129191341245880722e+04
1.256749371499891822e+04
1.485077760016219690e+04
1.703367808251531096e+04
1.941011169577312103e+04
2.108704048339031942e+04
2.168354901387192149e+04
1.944119588405073955e+04
1.851017386448057005e+04
1.978327761218729211e+04
1.839388199831370002e+04
1.482804571466995912e+04
1.171563516415306731e+04
1.081071634394588909e+04
1.091831049297683239e+04
1.089218319532480746e+04
1.079093803216832384e+04
1.100211965900393625e+04
1.204441350136497749e+04
1.313268011449421283e+04
1.492145776110827865e+04
1.658458070638099525e+04
1.795001017672609305e+04
1.941669297689278392e+04
2.072886127318946455e+04
2.151995947019951564e+04
2.214111735195115398e+04
2.264448213714536178e+04
2.340043512127236681e+04
2.328274611554328294e+04
2.217464839963879058e+04
2.104911740099246163e+04
2.006702725920526791e+04
1.889582404616629356e+04
1.822647923319122856e+04
1.726468562563713203e+04
1.621154542839308851e+04
1.458495851378832594e+04
1.364095954631345921e+04
1.324372300378155524e+04
1.258885296345284951e+04
1.188942168497509738e+04
1.116408823314400979e+04
1.064192257922495810e+04
1.011413553284975205e+04
8.292167624936386346e+03
5.623961921479713055e+03
2.420059548447718953e+03
-6.081242277769981683e+02
-3.463433124870648044e+03
-6.996251912947466735e+03
-1.053350200105696422e+04
-1.375006548958295025e+04
-1.716980832558642942e+04
-2.044855964644952110e+04
-2.405818579567627603e+04
-2.756157929463729670e+04
-3.133323991705249864e+04
-3.329385911506109551e+04
-3.499220885096868005e+04
-3.683083395882619516e+04
-3.862235402754805546e+04
-4.217399464997238829e+04
-4.608941238211929885e+04
-4.894518391033710941e+04
-5.132144898445717263e+04
-5.009333704971545376e+04
-4.979295850691047963e+04
-4.896767712596995989e+04
-4.821892583960373304e+04
-4.913217652236459253e+04
-5.049910619284602581e+04
-5.265701802750630304e+04
-5.435720141680118832e+04
-5.497267351503230748e+04
-5.463605276078735915e+04
-5.422625350850317045e+04
-5.284146880073686771e+04
-4.943106374970138131e+04
-4.623945627196252462e+04
-4.707018828833979933e+04
-4.593787572911063035e+04
-4.265390980399340333e+04
-3.650303283149295748e+04
-3.610828085726172867e+04
-4.016002234381157905e+04
-4.101646747180273087e+04
-4.088964367859392951e+04
-4.095336486316137598e+04
-4.272092038419770688e+04
-4.293840033391977340e+04
-4.024780309472495719e+04
-4.037700827874788956e+04
-4.156697916605469072e+04
-4.263514066305173765e+04
-4.336988805548896926e+04
-4.373651483745971927e+04
-4.381311482028423052e+04
-4.314386457140996208e+04
-4.199522475554774428e+04
-4.141345941607189889e+04
-4.106252567574151180e+04
-4.021345764450660499e+04
-3.782033347156403033e+04
-3.619741832851919025e+04
-3.539192847639644606e+04
-3.404406572251072066e+04
-3.365929196869069710e+04
-3.318824535003591882e+04
-3.317350107925962948e+04
-3.312463641325326898e+04
-3.264334332395265665e+04
-3.197439162272435351e+04
-3.252239548006767291e+04
-3.260822841073703603e+04
-3.211308241183741484e+04
-3.144713418987873956e+04
-3.131966184458739735e+04
-3.045687986673860723e+04
-2.927103490421799870e+04
-2.782253537104173301e+04
-2.584592505205555426e+04
-2.334474925686815914e+04
-1.974054125237833796e+04
-1.597292580391716547e+04
-1.340361147306219937e+04
-1.115154045212410892e+04
-9.333469630920975760e+03
-7.272257212290806820e+03
-5.102646003882368859e+03
-4.448205465936452129e+03
-5.015588474909335673e+03
-4.540246805042308551e+03
-3.920920737922915578e+03
-5.094942098582722792e+03
-1.429109442146031370e+03
2.360582706965432862e+03
4.814378724059384695e+03
4.416599951826153301e+03
5.170038291804876280e+03
9.717447206103352073e+03
1.311242555943747175e+04
1.694435923818187803e+04
2.093558176260584150e+04
2.379890145078653586e+04
2.751031433730219942e+04
3.102390007437013992e+04
3.416842502311310091e+04
3.750639210678324162e+04
3.835634289220188657e+04
3.839881281970968121e+04
3.880508751245326857e+04
3.957421237446134910e+04
4.101013827865884377e+04
4.338862263950352644e+04
4.552151627189376450e+04
4.795845983051379881e+04
5.071087699452536617e+04
5.162501633015766856e+04
5.400907851922052942e+04
5.789825675276611582e+04
5.948276592046117003e+04
6.287896845149292494e+04
6.656906445050018374e+04
6.856114827780387714e+04
7.083213751952869643e+04
7.400690897664320073e+04
7.512531269469839754e+04
7.572816881797251699e+04
7.634828009246032161e+04
7.643744617807809846e+04
7.938733270930731669e+04
8.452454996485098673e+04
8.596672702064346231e+04
8.507440237112971954e+04
8.500205485565496201e+04
8.466731815986843139e+04
8.371986069644927920e+04
8.332319456120404357e+04
8.396783074639168626e+04
8.824843366441948456e+04
9.249058355438779108e+04
9.396296107744795154e+04
9.511532862467750965e+04
9.634231824959113146e+04
9.691164091213779466e+04
9.792224702871312911e+04
9.765007175891326915e+04
9.615111278066744853e+04
9.447246563761711877e+04
9.256421515101213299e+04
8.969728376842658326e+04
8.547768275649311545e+04
8.846157380609266693e+04
9.156926737706766289e+04
9.566011244784110750e+04
9.741368565676883736e+04
9.320064864297307213e+04
8.645365205924931797e+04
7.940650982334840228e+04
7.520731491393235046e+04
7.521337965132831596e+04
7.336111743960864260e+04
7.093387267996909213e+04
7.046484604751197912e+04
7.216972750442526012e+04
7.033058559709663677e+04
6.693954734563814418e+04
5.991170323161829583e+04
5.059149406970362907e+04
4.359456482643400523e+04
3.604556759981861251e+04
2.797630882060281510e+04
2.325377563766336971e+04
1.996817233277648484e+04
1.885599221979457070e+04
1.609078885779411212e+04
7.806126833781964706e+03
-4.315063154317815133e+03
-2.135766440325903386e+04
-4.155827735488242615e+04
-6.019823623445403791e+04
-7.658777898860667483e+04
-8.175805939140032569e+04
-8.303994072636245983e+04
-9.315300323327213118e+04
-9.836773848848987836e+04
-9.968858350153929496e+04
-1.076906408774064621e+05
-1.160008703445207939e+05
-1.195740933939890238e+05
-1.210019005841669132e+05
-1.176567721969894192e+05
-1.166120507972173218e+05
-1.258736908588117658e+05
-1.309066602689871215e+05
-1.307027134527350572e+05
-1.247505116117582074e+05
-1.282635093067955022e+05
-1.401168982719728374e+05
-1.421428316139433591e+05
-1.437204005065478850e+05
-1.518434920553241973e+05
-1.551117229153396329e+05
-1.640505705378326238e+05
-1.744362905058330216e+05
-1.826068045993942069e+05
-1.864258978787543892e+05
-1.895572495486434491e+05
-1.940384166187611991e+05
-1.993827045613416994e+05
-1.948384500686697138e+05
-1.810138533998711500e+05
-1.799969288396016054e+05
-1.911485728607205674e+05
-1.996475120044870710e+05
-2.044773483503532188e+05
-2.081296038129366643e+05
-2.070468237047742296e+05
-1.885015855151204451e+05
-1.628533376085571654e+05
-1.556414095708720270e+05
-1.572868765453977685e+05
-1.630156154774424795e+05
-1.633645833929995133e+05
-1.461679808234791271e+05
-1.121980786243776529e+05
-9.106156194990867516e+04
-8.923619454873219365e+04
-9.274793605414046033e+04
-9.093982269698084565e+04
-8.564497420860505372e+04
-7.443251140800090798e+04
-5.505240505181800836e+04
-3.098965004473417866e+04
-5.033408291382194761e+02
2.886838980381031797e+04
6.080830036042352003e+04
8.082517535248908098e+04
8.442586149263076368e+04
7.409295529475098010e+04
5.977807586832051311e+04
4.529580726206759573e+04
3.752459933600725344e+04
2.750289244294735909e+04
1.707595062811692696e+04
1.267205379087146139e+04
1.353323262371531428e+03
-7.588286025337051797e+03
-1.291697192741776598e+04
-1.968199098654062618e+04
-2.441172872180902050e+04
-2.347277595978648969e+04
-1.925985824366516681e+04
-1.037386239228643899e+04
1.164913446005906371e+04
3.619784655085460690e+04
6.993281312585534761e+04
9.620938130799531064e+04
1.190726987586470641e+05
1.381017995963963040e+05
1.545074915423046041e+05
1.760804992775593128e+05
1.970833058862024336e+05
2.164391673134388984e+05
2.455402184568815574e+05
2.771563012068105163e+05
3.021500103167971247e+05
3.183476515746750520e+05
3.388033419725109707e+05
3.508120159078564611e+05
3.507793472105241381e+05
3.476768510961040738e+05
3.462478075165691553e+05
3.432362165206573554e+05
3.355005794349610806e+05
3.243873300911401748e+05
3.064459168247008347e+05
2.853584527609340148e+05
2.657799229936026386e+05
2.486308971756463579e+05
2.272236184120507678e+05
1.979411968107855646e+05
1.579321631051849690e+05
1.144602251262147474e+05
7.959065479550008604e+04
5.275362491978561593e+04
3.250019989349516618e+04
1.450907797130485596e+04
-4.297072098392319276e+03
-2.056995396771158630e+04
-2.731598795348046042e+04
-2.772322292678158556e+04
-2.395897136571540614e+04
-1.748992210134822017e+04
-8.516063230097706764e+03
1.435558749609571805e+03
1.242502481249759148e+04
2.541885276103188880e+04
3.626833100902266597e+04
4.022757109217692050e+04
4.552825676330054557e+04
5.364130361224521766e+04
5.387599435648415238e+04
4.810031086326418153e+04
4.066586503548216569e+04
3.270428536985392202e+04
2.568778526825315566e+04
2.206306882550246883e+04
2.207028121746419129e+04
1.982738051252815058e+04
1.431403197761700358e+04
6.970911945636071323e+03
3.605664087535669751e+02
-6.424550994118806557e+03
-1.689213694908576508e+04
-2.964891421974403420e+04
-4.107065762006435398e+04
-5.033315278880629921e+04
-5.707728186725320847e+04
-6.357107545330184803e+04
-6.802141904517437797e+04
-6.893024308702519920e+04
-6.939960709826680250e+04
-7.168745003183571680e+04
-7.414871068355596799e+04
-7.635732728929536825e+04
-7.852334996069237241e+04
-8.068773307476220361e+04
-8.001736599424057931e+04
-7.782709214724597405e+04
-7.763081705479329685e+04
-7.827839963423195877e+04
-8.041262678318898543e+04
-8.279120940736275224e+04
-8.467194683300990437e+04
-8.710447324327263050e+04
-9.035727547242659784e+04
-9.438191200360190123e+04
-9.865981970755581278e+04
-1.026232838651720376e+05
-1.065836237810871535e+05
-1.138637769632714771e+05
-1.224425208128307713e+05
-1.296415508500872238e+05
-1.290946480570298882e+05
-1.307104319791241433e+05
-1.352191396255776635e+05
-1.397328305974843970e+05
-1.470386564241269080e+05
-1.512554703102202620e+05
-1.531758365810287360e+05
-1.577787907290651638e+05
-1.666388312366641476e+05
-1.731832935034882103e+05
-1.770820858647772984e+05
-1.791892546491379035e+05
-1.786478784110274864e+05
-1.729334964405925712e+05
-1.658315949370762391e+05
-1.612304546211394190e+05
-1.567350550467571011e+05
-1.498092912548900058e+05
-1.420107693755518412e+05
-1.342828978885674151e+05
-1.244209641448127659e+05
-1.137547885669923562e+05
-1.030900435281435493e+05
-9.159129666159252520e+04
-7.978797193953006354e+04
-6.984239095337236358e+04
-5.989473556334569730e+04
-5.002186049072659807e+04
-4.026845685290888650e+04
-3.218600299131462452e+04
-2.612256314692815795e+04
-2.168533197476288115e+04
-1.762742106380616315e+04
-1.208136251997234831e+04
-5.238791618628709330e+03
2.741974165622265900e+03
9.552875650629470329e+03
1.594391228047459299e+04
2.240428201222780262e+04
2.899056863150451682e+04
3.509341663856917148e+04
4.123565190319374960e+04
4.721230407722551899e+04
5.250526658835107810e+04
5.759752723175103165e+04
6.242169108270449215e+04
6.605951329080341384e+04
6.991973548630237929e+04
7.383122862255372456e+04
7.716493869964659098e+04
7.954187552306201542e+04
8.237318884026545857e+04
8.457288674370461376e+04
8.556636373609781731e+04
8.676533759311944596e+04
8.792645481335106888e+04
8.872841232375781692e+04
9.025824290382054460e+04
9.261991738326491031e+04
9.519152782799623674e+04
9.983827018627559301e+04
1.060743560866370390e+05
1.101162555215779139e+05
1.119655834518019401e+05
1.131739827744352369e+05
1.140923333217020845e+05
1.138832824546680204e+05
1.118659469533525553e+05
1.086037056638776121e+05
1.055376288377942547e+05
1.032845525701121369e+05
1.019531896590512042e+05
1.021010152965739107e+05
1.037322090594217880e+05
1.050834589261184301e+05
1.015233806784458284e+05
9.709733820684754755e+04
9.343073985738746705e+04
8.914540019926025707e+04
8.408395046588192054e+04
7.959718980397561972e+04
7.622782493177414290e+04
7.215322657153246109e+04
6.734788227799761808e+04
6.182616580525080644e+04
5.643612419738128665e+04
5.154681233055010671e+04
4.759410543856666482e+04
4.256107302174897632e+04
3.660907563235366251e+04
2.911441490119880837e+04
2.178143734464535373e+04
1.673239929148539522e+04
1.290197501661449314e+04
8.804784922559787447e+03
5.605479546001455674e+03
4.078850888429668885e+03
3.238607726769388137e+03
1.436395305363375883e+03
1.117046737017583098e+02
2.698692979026673697e+02
1.135893497069834439e+03
2.673109576510658826e+03
4.549594014821547717e+03
5.169043328370295058e+03
6.863638693016837351e+03
9.764079186054494130e+03
1.359395894358249825e+04
1.658365005008930530e+04
1.900221287957653112e+04
2.284478135134953118e+04
2.679742153633125417e+04
2.905776948071768493e+04
2.950489056150846591e+04
2.947429367852791620e+04
2.861653600244429981e+04
2.683476875871658558e+04
2.447385339688000749e+04
2.178228476379222775e+04
1.806713365167813754e+04
1.324657397975110689e+04
9.180795374072742561e+03
4.686914849601905189e+03
-8.160348639725791600e+02
-5.771271518030239349e+03
-1.016430528121569478e+04
-1.438758941945163497e+04
-1.706383505784864246e+04
-1.893801713520650810e+04
-2.059402828161364596e+04
-2.272118553411681933e+04
-2.587911466703402766e+04
-2.936901342138730251e+04
-3.162516241038124281e+04
-3.092684075012370522e+04
-3.093799305326843387e+04
-3.157144307570975070e+04
-3.304169007089424849e+04
-3.305498248765761673e+04
-3.282934168517179205e+04
-3.261950646050759315e+04
-3.122489526447195749e+04
-3.039635906737008190e+04
-3.140226098046480911e+04
-3.233737402540841867e+04
-3.274263069938784247e+04
-3.273647888292660718e+04
-3.300446351945754577e+04
-3.373734467788723850e+04
-3.481883055524072552e+04
-3.484984131607582094e+04
-3.582834093630785355e+04
-3.694844236850478774e+04
-3.813279820116381597e+04
-3.981914743025876669e+04
-4.091124786603197572e+04
-4.191169826887107047e+04
-4.236594459003807424e+04
-4.318438083442435163e+04
-4.417866059510051855e+04
-4.557041666666527453e+04
-4.675652376954448846e+04
-4.666184430347857415e+04
-4.664705724193475180e+04
-4.629391539018171170e+04
-4.619117164625736041e+04
-4.533027813808522478e+04
-4.401997473805966001e+04
-4.299901933218919294e+04
-4.233002813916991727e+04
-4.231897812714271276e+04
-4.174615781681151566e+04
-4.112679677277171868e+04
-4.041504246833714569e+04
-3.996058094178457395e+04
-3.998467826592478377e+04
-3.852843597890334058e+04
-3.624284368489221379e+04
-3.435034343671855459e+04
-3.329157971672388521e+04
-3.237077726662334680e+04
-3.156716595028258962e+04
-3.100283810531989729e+04
-3.025821961973003272e+04
-2.885432405950303655e+04
-2.773052345711957605e+04
-2.825587937466299991e+04
-2.993389786819931396e+04
-2.988002125609321229e+04
-2.885246414903862387e+04
-2.730452113865288266e+04
-2.644987147749717406e+04
-2.610231188586954886e+04
-2.534983636081112491e+04
-2.498504984536516713e+04
-2.390827000628106543e+04
-2.336724826334609679e+04
-2.226835936413622767e+04
-2.081721467205891167e+04
-1.996352872438240229e+04
-1.763766955997687546e+04
-1.428371003383064999e+04
-1.606387914880877724e+04
-1.577406979247489835e+04
-1.449498923831218417e+04
-1.330320667102238622e+04
-1.205924379120879166e+04
-1.106664236556148171e+04
-1.074970523513053740e+04
-1.033881000015297832e+04
-9.702313888978920659e+03
-7.235065241707673522e+03
-1.780621366006939979e+03
-1.402252422336227710e+03
-6.040389989158427852e+03
-6.526265493571250772e+03
-6.142096870993138509e+03
-4.317374323207384805e+03
-1.020538690413229347e+03
8.138698541262941717e+02
2.493018339017201015e+03
4.346041163187221173e+03
4.929608641836326569e+03
5.850446197098304765e+03
6.837301133082407432e+03
7.855803418665114805e+03
8.565564343474165071e+03
9.447530226673634388e+03
9.533674263196189713e+03
9.545766922219698245e+03
9.661383684274760526e+03
9.863972588903381620e+03
1.030023989554920081e+04
1.049073285053313703e+04
1.027691470517724156e+04
9.714502384857505604e+03
9.859285437407115751e+03
1.023297074867301126e+04
9.621208903902113889e+03
9.432593866896600957e+03
1.022394625229701523e+04
1.074874739637280072e+04
1.127453112057274666e+04
1.213103455339424363e+04
1.336500328976395758e+04
1.447927348284636173e+04
1.465751277521145494e+04
1.467135774412914907e+04
1.549444133914238228e+04
1.546154496614735217e+04
1.489045121752115665e+04
1.529707465283754027e+04
1.400723557215726032e+04
1.275964089674890056e+04
1.296922729830678327e+04
1.421876911207362900e+04
1.441084562247892427e+04
1.352846285742748660e+04
1.276238611815455624e+04
1.256940070450225357e+04
1.215517617576239718e+04
1.276044792542536197e+04
1.417650020454373043e+04
1.540563971113166372e+04
1.722062416526460584e+04
1.783701840697136504e+04
1.827296284133382505e+04
1.818454959317592147e+04
1.807994381549693207e+04
1.793162876794451222e+04
1.747761313139605409e+04
1.664422675311330386e+04
1.531657048574660985e+04
1.397163158883458709e+04
1.289234805834200597e+04
1.189873733885248839e+04
1.051181491899649518e+04
9.157109271099596299e+03
8.543403803249977500e+03
8.808686576893789606e+03
9.539742712673691130e+03
9.983346789933504624e+03
9.762535871350488378e+03
9.333264220668872440e+03
8.779481677948271681e+03
8.416028277865090786e+03
8.835722582802143734e+03
9.244433686057785962e+03
8.523201346648780600e+03
7.576040131335445949e+03
6.679599686739433309e+03
6.364436304483582717e+03
5.396261982485898443e+03
3.820978326188770097e+03
2.648269797721691702e+03
1.528949344138485003e+03
2.189322980282001083e+02
-6.009543957614606597e+02
-8.999598564686800728e+02
-6.439469854363113654e+02
-5.977090663513406525e+02
-9.634367629721650701e+02
-1.191421805590802023e+03
-1.488017999277367096e+02
1.267040485299418833e+03
1.778958113592171458e+03
1.491077104030553301e+03
1.207298073712191126e+03
7.582515306427075075e+02
4.138228038908018220e+02
-2.241011309100160247e+02
-1.503703590561174678e+03
-3.930039157624691143e+03
-5.205156548534866488e+03
-5.970220709238604286e+03
-7.608230348469769524e+03
-1.029709146849014360e+04
-1.418120661466617094e+04
-1.688083998800866539e+04
-1.777488527624897688e+04
-1.746432405629362256e+04
-1.680415321500945720e+04
-1.196021043138915593e+04
-8.876217695253091733e+03
-8.678030851805246130e+03
-7.799545540978858298e+03
-7.072303196978457891e+03
-6.347273016967282274e+03
-5.163692009984788456e+03
-5.093882010424919827e+03
-5.490161567339471731e+03
-6.292583800680366949e+03
-7.983669278467897129e+03
-8.991028837636720709e+03
-9.506384449992479858e+03
-1.010137807421832076e+04
-1.093292054260800796e+04
-1.212581098202374415e+04
-1.268691033336905275e+04
-1.290811058160784523e+04
-1.359818926499489862e+04
-1.388771440425430046e+04
-1.399440707970734911e+04
-1.406114419402318526e+04
-1.441177761393130640e+04
-1.518087244018421552e+04
-1.557432211987233677e+04
-1.601962360914600868e+04
-1.559533581017258075e+04
-1.591526623885587105e+04
-1.503115582925395393e+04
-1.293974207894557003e+04
-1.171989409449565574e+04
-1.184959733554862214e+04
-1.260578176381538105e+04
-1.459827456842914580e+04
-1.663998942057387831e+04
-1.559077421632914229e+04
-1.217144780765641735e+04
-9.568817937546220492e+03
-7.768457170891299029e+03
-5.807914197666413202e+03
-5.278966129909376832e+03
-5.280317503928687074e+03
-4.777721711696780403e+03
-4.124953479355883246e+03
-3.634003016925593784e+03
-3.890886289031077922e+03
-3.223373019444200509e+03
-2.334856506940271629e+03
-1.688603670470522729e+03
-6.780286514654079610e+02
-7.515805077429382663e+02
-8.518171768831576856e+02
-1.822956976663975865e+02
5.434961339595708978e+02
1.247100576411933389e+03
1.506098698552941642e+03
2.115982205933051773e+03
2.631306928489605525e+03
3.188777081588160399e+03
4.698257641215500371e+03
6.851448794910684228e+03
8.513895062184888957e+03
9.405958253465052621e+03
9.959172593577164662e+03
1.030004390893664458e+04
1.043996379088049798e+04
9.729544158941735077e+03
6.332508201048018236e+03
7.546209557850105739e+03
9.717815904368799238e+03
1.248477702513604527e+04
9.882541636668980573e+03
9.299627613904085592e+03
1.166140910461760723e+04
1.054226585728674036e+04
8.073602259405416589e+03
1.062762540377887672e+04
1.223876581979450202e+04
1.155467513812862853e+04
1.090982278624968785e+04
1.598855577006468047e+04
1.644129113039333242e+04
1.496063105581582022e+04
1.646003411054714888e+04
1.562788212165649747e+04
1.667939461986641618e+04
1.655098632830506176e+04
1.601401002497038098e+04
1.781687410538012409e+04
1.684785657877170888e+04
2.006114473808107141e+04
1.813396061272509542e+04
1.870452210357849981e+04
1.857213495974627949e+04
1.310910026486675451e+04
1.427574994206333213e+04
1.877033312803354056e+04
1.955697419218955474e+04
1.965577553634790820e+04
1.724684519806483149e+04
1.854937226815359099e+04
1.769843743145325789e+04
1.824008930898634935e+04
1.673543782504281990e+04
1.724158099565394878e+04
1.805851196222024737e+04
1.786312558064498808e+04
1.725930045004718704e+04
1.676391126427449490e+04
1.592287874587634724e+04
1.465318379669155001e+04
1.314778066653372662e+04
1.202355217787018591e+04
1.105248788040852378e+04
1.065940562013830640e+04
9.518033126951788290e+03
8.001243850262517299e+03
7.667874081330165609e+03
7.340735444182863830e+03
6.121612365545239300e+03
3.744648533375678198e+03
2.652946408169513234e+03
3.681359723409423623e+03
4.547561132146360251e+03
6.019268336112685574e+03
7.004107437978091184e+03
6.575784024409906124e+03
7.506072067654448801e+03
9.292727957427452566e+03
9.747467421083609224e+03
7.735000530449298822e+03
7.467143193068481196e+03
7.327659059855264786e+03
5.810396930793078354e+03
3.374808785359410649e+03
1.465632031443267920e+02
-2.950497604445707566e+03
-6.475058405903629136e+03
-9.777525177332721796e+03
-1.239928196873527122e+04
-1.485449189248855510e+04
-1.762442808229488219e+04
-1.930137851040714304e+04
-2.108863943789236873e+04
-2.194248252215320099e+04
-1.962922697478741975e+04
-1.645619946082341266e+04
-1.476803402130866198e+04
-1.575999647583308979e+04
-1.623710340871834705e+04
-1.642648879860315719e+04
-1.698072258790694104e+04
-1.681911410864079517e+04
-1.591483235820380287e+04
-1.536194423872031803e+04
-1.487053129134893607e+04
-1.355080073735310907e+04
-1.278010502768518563e+04
-1.190274599271514853e+04
-1.018499513219436449e+04
-8.927109155162797833e+03
-8.225228663528469042e+03
-7.401475694927427867e+03
-5.595899877882960027e+03
-4.097673058410980047e+03
-3.939075955125848850e+03
-4.071234563492407688e+03
-4.691340797640926212e+03
-4.779555422960278520e+03
-3.543018214529403394e+03
-2.450794845627819086e+03
-1.284997482793093695e+03
-4.356633308193134440e+02
-1.100675044360597212e+03
-4.750695722138142969e+02
4.720237881629854542e+02
1.739597561205204556e+03
2.301680897198459661e+03
2.971186645540260997e+03
4.065067911037309386e+03
4.450344969594374561e+03
4.429095903815447855e+03
2.700252496098335087e+03
5.297224537347345859e+02
-2.263483699964474454e+03
-3.327315140560986947e+03
-2.693492948681788221e+03
-1.633833512216537201e+03
-7.234994471669930363e+02
-5.305227791661340007e+02
-7.879184514371999057e+02
-1.131625621920732101e+03
-6.615202517141846101e+02
-1.856485580410440548e+02
1.760864153744754049e+03
3.282062520160337044e+03
4.721877337920352147e+03
6.624317067925717311e+03
1.034636259661352415e+04
1.106877692790152105e+04
9.234684954789388939e+03
4.828175325193348726e+03
-1.854731644330912104e+03
