1.868273614871880636e+04
1.952778619593028270e+04
2.100959411108985660e+04
2.005091258425349952e+04
1.765944459012751759e+04
1.469170509932999994e+04
1.743324323406914846e+04
2.167589617836921025e+04
2.578246206570087088e+04
2.607555783186433109e+04
2.264951958260768151e+04
2.100081888466133023e+04
2.184800256837351844e+04
2.313035044414506410e+04
2.207933828226494370e+04
2.117369432561807480e+04
2.122384991008719226e+04
2.074497028080719610e+04
1.989130883776819974e+04
1.923007533557260831e+04
1.939355748468387173e+04
2.176929931113068960e+04
2.451028699155730646e+04
2.126357557974626616e+04
2.005338141305464160e+04
2.065177216852758283e+04
2.057383345643541543e+04
1.997150292367560905e+04
1.859085143497628815e+04
1.696996261438012516e+04
1.656581587342098646e+04
1.622243363877259617e+04
1.571055520202760090e+04
1.476706691153977772e+04
1.574380451639663806e+04
1.738247410295093869e+04
1.945884784795164160e+04
2.033076719549219706e+04
1.835709931124622744e+04
1.759569576707258966e+04
1.898221150373979253e+04
1.952024981267382827e+04
2.052762330458118959e+04
2.006010262323857387e+04
1.852819293421834300e+04
1.683049281712429365e+04
1.754669249268401109e+04
1.747326460265853530e+04
1.584874478460165483e+04
1.435681402015533240e+04
1.350510001693523554e+04
1.440799790009524804e+04
1.301467309364348694e+04
1.088361606341275183e+04
9.934499793263610627e+03
8.449777326204843121e+03
6.689875657641168800e+03
5.337176855148788491e+03
4.149228219572429225e+03
3.208573231818633758e+03
1.302455178196284123e+03
-3.517303415093886088e+02
-1.330580316113515664e+03
-3.121851917236093868e+03
-4.713205639401739063e+03
-4.709139906084669747e+03
-3.233385842393742223e+03
-2.903664531757957320e+03
-3.659467912110123507e+03
-4.493378730543382517e+03
-4.078983237234931948e+03
-2.866759025798589391e+03
-1.682832147172752002e+03
-7.601005692426933820e+02
-1.101871324461769973e+03
-2.728327466543948958e+03
-4.989210811943944464e+03
-5.021232460330521462e+03
-5.681943867552601660e+03
-6.085641708212977392e+03
-6.210715399902738682e+03
-8.210639871237763145e+03
-1.043694076943295295e+04
-1.265711628401737289e+04
-1.551374696404518363e+04
-1.286033692184316715e+04
-1.183823226790306762e+04
-9.922314391123076348e+03
-8.741919681543044135e+03
-8.876862507113659376e+03
-8.590722238601152640e+03
-7.761016378465434173e+03
-6.854189212847118142e+03
-7.382399889403610359e+03
-8.727693079687733189e+03
-9.783481466493063635e+03
-1.009793468259146903e+04
-9.836977929707813018e+03
-9.885662784968471897e+03
-9.311974999838872463e+03
-7.548948617191063022e+03
-5.387725848264210072e+03
-4.827247315911681653e+03
-5.125546517868217052e+03
-5.750501273770377338e+03
-6.848028002363955238e+03
-7.793120133231920590e+03
-9.060515486202055399e+03
-8.654902951046640737e+03
-7.796054707706653062e+03
-7.438803414461584907e+03
-6.078952234562241756e+03
-3.249007561044547401e+03
-2.636717699935955807e+03
-4.209767007284082865e+03
-6.217652134809131894e+03
-7.603856020036094378e+03
-9.081978913752431254e+03
-1.063241606869743009e+04
-1.242538423039140434e+04
-1.497324619327734763e+04
-1.595748728210915397e+04
-1.629055098798783001e+04
-1.698274757034477079e+04
-1.737929442910786747e+04
-1.635442609863839425e+04
-1.191333111962036674e+04
-9.439159111270942958e+03
-9.984970803313717624e+03
-1.047686336514975665e+04
-1.016807176595193596e+04
-8.905782571778263446e+03
-7.329052926897948055e+03
-6.292737061527125661e+03
-4.414559709172870498e+03
-3.695446142614454402e+03
-5.748346473952047745e+03
-9.512133675891967869e+03
-1.035275395991485129e+04
-1.057614933384899450e+04
-1.028019480978419051e+04
-8.809693080471726716e+03
-7.240520297593247960e+03
-3.334530002290382527e+03
-2.214163977856114798e+03
-1.952402569194129455e+03
-3.190057852119860854e+03
-4.087000075487031609e+03
-4.606851583796338673e+03
-4.709343723424468408e+03
-4.367252801543859277e+03
-3.264304712128134724e+03
-1.921185460701457941e+03
-2.057503213098753804e+03
-1.748030628084608679e+03
-6.825440182528466266e+02
1.204245094421820795e+03
3.296599385240293941e+03
5.091920809818003363e+03
6.911549597450723013e+03
8.691542705820023912e+03
1.001510628402493603e+04
9.895520017959472170e+03
9.698953414715299004e+03
9.011545762130113872e+03
7.879562226492443187e+03
7.137132654940814973e+03
7.534271008994162912e+03
9.599072509948562583e+03
1.187275595233140120e+04
1.274659556145757415e+04
1.301942923609670652e+04
1.333327371451685576e+04
1.290516617082078847e+04
1.299125285753838398e+04
1.349841353081779016e+04
1.512334233303612746e+04
1.627294037031213884e+04
1.723699116042036621e+04
1.765025825576737043e+04
1.730874360975062154e+04
1.719030434693908319e+04
1.781175434916105951e+04
1.858871112908272335e+04
1.900865349150886323e+04
1.858010240673127191e+04
1.849744472192075773e+04
1.873234447132909190e+04
1.840042583398516217e+04
1.834484488701402370e+04
1.768705827914010661e+04
1.782354712288564406e+04
1.956268647113351108e+04
2.039967078574185507e+04
2.050170918744785013e+04
2.040397754592441561e+04
2.210867437902415986e+04
2.317179207120541105e+04
2.199349362227576785e+04
1.957875955832159161e+04
1.775855109716695370e+04
1.600390702645208148e+04
1.495775205605344672e+04
1.153639978374422935e+04
8.712717603778513876e+03
8.800621330129219132e+03
8.818799825888963824e+03
1.041920542798647875e+04
1.231461580856449837e+04
1.203952815244665726e+04
1.053841537506584973e+04
1.041169335556871010e+04
1.020600641974802784e+04
1.141882811155796480e+04
1.253642228260520278e+04
1.268229582674417361e+04
1.224980661094434436e+04
1.031834403340336576e+04
8.952102217474139252e+03
8.047439002075784629e+03
6.875822275354984413e+03
6.264277506987897141e+03
6.199700749900937808e+03
5.170428778199540830e+03
3.906485124418316900e+03
4.636764622476568547e+03
5.195434796751321301e+03
3.844543439431187835e+03
1.920028903335859695e+03
5.728005122216004565e+02
-7.280588159374618726e+02
-2.330446098390008956e+03
-3.583646419547032565e+03
-3.332909513772004175e+03
-2.868181365993820691e+03
-3.697338539361299809e+03
-4.093583150640243730e+03
-3.714228570824711369e+03
-3.786512204839127207e+03
-3.743439995374856608e+03
-4.501423192817102972e+03
-5.181751594267865585e+03
-5.898856713889060302e+03
-6.630133684563723364e+03
-6.616904530006647292e+03
-6.955183387663096255e+03
-6.974209694410651537e+03
-6.757302276748307122e+03
-7.322708065385157170e+03
-7.809778193796017149e+03
-8.096881484019957497e+03
-9.119358222537295660e+03
-1.012444985508445643e+04
-1.025015132687959340e+04
-8.947760994051388479e+03
-9.396546261259232779e+03
-9.980608189639578995e+03
-1.037822775285678654e+04
-1.121496112806433848e+04
-1.163013049004230925e+04
-1.142299086300505587e+04
-1.159222207047530173e+04
-1.205658826879537446e+04
-1.180394008119046521e+04
-1.106706061768824839e+04
-9.283953691721282667e+03
-8.523486469823314110e+03
-8.729731263139887233e+03
-8.599941440205551771e+03
-9.416591284448553779e+03
-1.050608780845290130e+04
-8.926063295657200797e+03
-7.575548694233590140e+03
-7.194782272326290695e+03
-7.260436182320830085e+03
-8.320276088728163813e+03
-9.935922533482998915e+03
-7.201034883406275185e+03
-5.070339635268842358e+03
-4.564745709298898873e+03
-4.991782571211410868e+03
-5.731223503262698614e+03
-5.474646755596710136e+03
-5.036079006727522938e+03
-4.307628581034108720e+03
-4.355956219571103247e+03
-4.964929965074785287e+03
-4.349338766760482031e+03
-3.283833010212591489e+03
-2.590858032412224929e+03
-2.060552435573096318e+03
-2.103257895868141532e+03
-2.763571721601424542e+03
-3.473351105250248565e+03
-2.061641894786413104e+03
-4.081565086031045553e+02
-9.226333075579501610e+02
-1.462462595917736053e+03
-1.446890511372463607e+03
-1.263468718075090919e+03
-1.075454238708550974e+03
-1.163978662661247228e+02
6.802670699095214104e+02
4.622397710434856322e+01
-5.144187370384986480e+02
-1.628656393900982096e+02
1.441074348102856675e+03
2.914714649751481829e+03
2.655461781695195441e+03
2.124954421546091453e+03
3.033418919894041210e+03
3.976478506546288372e+03
4.452278440774563933e+03
4.201753611144528804e+03
4.448489705064313057e+03
5.650177968026970120e+03
5.884056074478990922e+03
5.284227647172762772e+03
6.103976903876476172e+03
6.043492862853550832e+03
5.375130622867424790e+03
4.977445277516649185e+03
4.783120874637645102e+03
4.975879899904763079e+03
5.347280814175912383e+03
6.414840396449037144e+03
7.987605116146069122e+03
8.968878964764362536e+03
7.470047892619340018e+03
4.066031354545289105e+03
1.710030692779231686e+03
2.889913283272378976e+03
4.193879749633922984e+03
3.896324976733568292e+03
2.620560965352569838e+03
2.316240137008860984e+03
2.063227205329221306e+03
1.723854163418696089e+03
1.708243027106767840e+03
2.266570832398125731e+03
2.252780966817976150e+03
2.748292865643447385e+03
2.920254645736624298e+03
5.997440294415452627e+03
1.099381488947509570e+04
1.144734971930841311e+04
1.057844307674509218e+04
9.955914752549631885e+03
8.825691877323126391e+03
8.242222268305524267e+03
9.429419590374196559e+03
9.235744927209570960e+03
7.999695552021858930e+03
7.432439529536126429e+03
7.356643467642291398e+03
7.106462333987049533e+03
7.020429641488536618e+03
6.993043875442624085e+03
7.578781638671784094e+03
7.925607609371941180e+03
7.877660739323029702e+03
7.919225158457283214e+03
6.998030134861098304e+03
6.177464916042259574e+03
6.164602998718711206e+03
6.124734473651307781e+03
6.099390253321607815e+03
6.273273678624090280e+03
5.620271790162283651e+03
4.303374868235993745e+03
3.887107262561878997e+03
3.840214611732961657e+03
3.360152622920566955e+03
2.745433898930071791e+03
1.941525729976428465e+03
1.383909306371064986e+03
1.731020775268400484e+03
2.748427574693250335e+03
2.245383760207116666e+03
1.215181114713673196e+03
1.122445463100209508e+03
1.231601597900519891e+03
5.682337306471994225e+02
-7.723615736876142819e+02
-1.213587162611561098e+03
-1.277880254713514887e+03
-1.384928796126482212e+03
-1.904793477370099254e+03
-3.423418383831996380e+03
-5.345587524264054991e+03
-4.875318961383832175e+03
-4.266792007366638245e+03
-3.945760556541506048e+03
-2.642351031649835477e+03
-1.508182249223210874e+03
-1.319614162840219251e+03
-2.421878037318275801e+03
-3.957335063606244148e+03
-2.769082737608477601e+03
-4.754851530552115037e+03
-3.899292330189045060e+03
-2.982871990802453638e+03
-1.699798994779489931e+03
-2.523967114176813539e+03
-2.819348201247878933e+03
-3.127465164357325648e+03
-3.235335785676231353e+03
-3.622373452850879858e+03
-4.427722299077211574e+03
-4.614304502324775967e+03
-4.865745230835084840e+03
-5.533460788939949452e+03
-6.128296839371355418e+03
-7.090129360695435025e+03
-6.520683236297938492e+03
-5.257596706528066534e+03
-4.965686039901967888e+03
-5.546769026416654015e+03
-6.587664056121281646e+03
-7.037365958400589989e+03
-7.114949974822895456e+03
-6.548532109253615999e+03
-6.661491355272838518e+03
-7.145185233988027903e+03
-7.936903422522008441e+03
-8.694950233163686789e+03
-7.599517826348417657e+03
-7.488725617803132991e+03
-8.071709953866118667e+03
-9.097532403606648586e+03
-8.811313671440642793e+03
-8.361104129872748672e+03
-8.788824509382238830e+03
-9.168440446907658043e+03
-1.013395513775844847e+04
-1.118929320764067052e+04
-1.146735112698841840e+04
-1.147691719491597178e+04
-1.017494882171925201e+04
-8.573513761480820904e+03
-9.367489871388170286e+03
-1.091473478318557318e+04
-1.199606863770015843e+04
-1.166341049092890171e+04
-1.061475510170052257e+04
-1.057904432438829826e+04
-9.810010374304391007e+03
-8.897362565773008100e+03
-7.199072731202947580e+03
-7.201863947270237986e+03
-7.600338895866842904e+03
-8.046210216541155205e+03
-7.952049838703700516e+03
-7.916989836604105221e+03
-7.863533115453088612e+03
-7.783829318418571347e+03
-7.349921361813683689e+03
-6.384786714239793582e+03
-4.341268518280170611e+03
-5.365192329656697439e+03
-7.660387327731006735e+03
-1.010450686762352780e+04
-1.399916402945359187e+04
-1.397870599747321467e+04
-1.060850985979083089e+04
-8.038531572913431773e+03
-7.471222960240117573e+03
-7.491258263039014309e+03
-6.847693215866630453e+03
-6.859465368492425114e+03
-8.526371660763103137e+03
-9.431959539252267859e+03
-9.829842197263145863e+03
-9.161773919184723127e+03
-9.296490631892034799e+03
-8.800788199893155252e+03
-5.692568277759327430e+03
-4.065702017766936933e+03
-5.157950496387420571e+03
-4.479076053113292801e+03
-4.236800537578414151e+03
-6.236782859528814697e+03
-6.565045644064229236e+03
-6.202400239471507120e+03
-6.666347669224272067e+03
-8.526693915195421141e+03
-9.202363066987030834e+03
-6.744062116587444507e+03
-6.917489596171376434e+03
-1.001350632264427259e+04
-1.108323606147039027e+04
-8.834591230532312693e+03
-6.391350347007515666e+03
-5.686553350785934526e+03
-6.256168061829921498e+03
-3.416999097290131431e+03
-2.193890757760354973e+03
-8.687733498820608702e+02
-5.075506445409146750e+02
-1.336975451239482027e+03
-3.422832398336688584e+03
-3.532029320052240564e+03
-3.419455870099833646e+03
-3.377219997048064215e+03
-1.936301635059536920e+03
-1.032436604397663359e+03
-1.958631523095893954e+03
-4.486956425375160507e+03
-6.766235413204459292e+03
-5.616414836952777478e+03
-6.121811853470160713e+03
-5.810642950871275389e+03
-2.812658629796309015e+03
-4.568184926190810415e+02
7.329173645161528157e+02
2.471512795216244285e+03
1.986857071326021014e+03
-7.262188927229173714e+03
-1.388067385716786339e+04
-1.050653936086860995e+04
-1.184391221295822652e+04
-9.673074128885986283e+03
-5.950496191788314718e+03
-4.470474442476837794e+03
-2.748287678470035189e+03
-2.716231970445143361e+03
-6.074807605309912105e+03
-6.139247926879697843e+03
-5.560982318025055065e+03
-6.387452263912719900e+03
-2.589051541216282203e+03
5.632766933768581112e+03
7.329696866035593303e+03
5.143607551655304633e+02
-1.894248437477196148e+03
-3.374719627723185113e+03
-6.575475648818684022e+03
-7.349057111388236081e+03
-2.092114212691006287e+03
1.360565902207360068e+03
8.933671002823917888e+02
1.081623682092332729e+03
-8.603600205357590767e+02
-2.974347196800162237e+03
-4.803172616860744711e+03
-3.907709373854001115e+03
4.312244842050216903e+03
6.844775157899073747e+03
-3.293986432937052086e+03
-4.745927263620462327e+03
-1.130433452938174810e+02
-3.255161650168943197e+02
-3.221426201737637257e+03
-3.296593316739616057e+03
-1.234024403462230794e+03
1.412284552252725121e+02
2.185078487132400824e+03
4.325621343758946864e+02
-4.099427935636318580e+03
-7.645144151031096953e+03
-7.482520626731538869e+03
-8.761552917387532943e+03
-4.722428518847909800e+03
-6.415422899460671033e+03
-1.295768464531419158e+04
-1.274131534016891237e+04
-8.857589883359631131e+03
-7.183812785183390588e+03
-2.874990159043192307e+03
1.610652612280661515e+03
1.642884411718462843e+03
-3.106625657025285818e+03
-6.207178685479345404e+03
-1.101080778600788290e+04
-1.441861612013735248e+04
-1.712595550643364186e+04
-1.851802347342702706e+04
-1.445301106386063111e+04
-1.456113007645935068e+04
-1.951051630317169838e+04
-2.167335308680590970e+04
-2.138142658781594946e+04
-2.413690015341946491e+04
-2.560986556304494661e+04
-2.465946311477896234e+04
-2.854147258522299308e+04
-3.512776268690673169e+04
-3.702635507007192791e+04
-2.849051051789509802e+04
-3.103282168365878078e+03
3.179557643779226055e+04
8.122235165234585293e+04
1.539612166849661153e+05
2.349044630554467731e+05
2.469674122605449811e+05
2.307840783864302502e+05
2.483710321030789637e+05
3.459009213889340754e+05
4.779832132375286310e+05
5.389074726737726014e+05
5.721770397428976139e+05
5.526993388350637397e+05
4.395483517117632437e+05
3.000459357677699882e+05
1.859449613490928896e+05
9.623550523628889641e+04
-2.165231695510477948e+03
-1.192485553010877629e+05
-2.007093622844986094e+05
-2.406375175517481402e+05
-2.490069977325490909e+05
-2.396896590038712020e+05
-2.153082019726342696e+05
-1.854841643473562144e+05
-1.641389666226558911e+05
-1.489203017523212766e+05
-1.384806654285103432e+05
-1.315664076329095988e+05
-1.228298068040424114e+05
-1.159549515531068173e+05
-1.166439167361526197e+05
-1.214107949526887096e+05
-1.289716429726555216e+05
-1.387084840981239977e+05
-1.467313284376314841e+05
-1.500330011797194020e+05
-1.435351319696127903e+05
-1.362543596457183885e+05
-1.304192784179217997e+05
-1.241635278108051280e+05
-1.185505935640556127e+05
-1.133488643492147385e+05
-1.093696884508779476e+05
-1.055554585822321678e+05
-1.035764967312429217e+05
-1.039339327395114378e+05
-1.033099342902804638e+05
-1.034346940123888053e+05
-1.004052285947648634e+05
-9.426638268352346495e+04
-8.536696083845863177e+04
-7.508479418187578267e+04
-6.332662157562866923e+04
-5.386920321463576693e+04
-4.495331537951468636e+04
-3.463848102550599287e+04
-2.671232075875376177e+04
-2.239767166139381516e+04
-1.861608979365379491e+04
-8.451066154563868622e+03
3.575851363553114425e+03
1.288523937952543747e+04
1.871470332556382346e+04
1.836921515352455754e+04
1.506550810425133568e+04
1.243798252060709092e+04
1.496350876208158297e+04
2.113053309574811647e+04
2.291371767701242788e+04
2.271878657988256964e+04
2.088957555048234281e+04
2.388375727195882791e+04
2.617015558437956861e+04
2.198255988017298296e+04
1.398467205877800006e+04
3.912202295519554355e+03
-6.602123515159574708e+03
-1.249661809584886032e+04
-1.812559557186457459e+04
-2.348234445514107574e+04
-2.674315320922741012e+04
-2.651353355507699234e+04
-2.395293589711443565e+04
-1.834576488264800719e+04
-9.205519193138476112e+03
6.473238096256166045e+02
1.173616880242878688e+04
2.342836108384178442e+04
3.207324004979288293e+04
3.813924354122975637e+04
4.303663884532164957e+04
4.729253369032756746e+04
5.101599197825340525e+04
5.310792434480357042e+04
5.344439157179654285e+04
5.324627113658299641e+04
5.044350001575558417e+04
4.665577347176072362e+04
4.348179597795163136e+04
4.141631405563447333e+04
3.843197054605891026e+04
3.556828661926910718e+04
3.266463685033025831e+04
3.079723146054322569e+04
2.874628606380752535e+04
2.548083159859833540e+04
2.281181060518284721e+04
2.050031619558672901e+04
1.836421141381258712e+04
1.619720920085414400e+04
1.283694438901634385e+04
7.533888190434828175e+03
3.608462453086619007e+03
6.409293236267481007e+02
-3.439582569388390766e+03
-4.105035815606875076e+03
-1.413219650114252318e+03
3.899012610384944765e+03
1.514851905697025177e+04
2.838907867552043172e+04
3.608501949171776505e+04
3.945870783819573262e+04
3.933860282735440705e+04
3.755912653473669343e+04
3.499731488878737582e+04
3.242807364322286594e+04
2.587762723699327034e+04
1.977598469203625791e+04
1.794416721710074853e+04
2.252924575944736353e+04
2.229333285638639791e+04
2.072252633799301111e+04
2.165824042471768553e+04
2.307181259958122973e+04
2.242249499474281038e+04
1.928840222274239204e+04
1.684460609566045969e+04
1.737817211575731926e+04
1.959598344049093066e+04
2.210962472031830112e+04
2.389186614663492583e+04
2.606750719664067219e+04
2.722891254692302027e+04
2.670819129251388222e+04
2.661879669813625878e+04
2.722929039898878909e+04
2.755772233053264426e+04
2.913435030353943148e+04
2.982351426126854130e+04
3.029917704198479623e+04
3.281627710395622125e+04
3.470888346228265436e+04
3.544502409335078119e+04
3.745536743878077687e+04
4.091148711852875567e+04
4.472431993328437238e+04
4.684290893182336004e+04
4.877192848388267885e+04
5.065176115481229499e+04
5.057882144852262718e+04
4.972881835241771478e+04
4.903951971259255515e+04
4.870430896164447040e+04
4.653680739007581724e+04
4.341739692880330404e+04
4.131571351572907588e+04
4.025249050133411220e+04
3.988438060410155595e+04
3.968070858871645760e+04
3.742401910052345193e+04
3.456991227891464223e+04
3.349791108701503254e+04
3.184366249791542941e+04
2.890098199146023762e+04
2.699362663689413239e+04
2.563127504339688312e+04
2.086941902684754314e+04
1.438492897264331259e+04
9.072530605253905378e+03
4.011772661196859190e+03
-8.537066850161620835e+01
-4.533945050935709332e+03
-9.271096309097971243e+03
-1.412557899996600827e+04
-1.861145340836057949e+04
-2.073255735071762683e+04
-2.095133470220581876e+04
-2.072120646186824160e+04
-2.148108605019621609e+04
-2.297560104917392891e+04
-2.506511937345449041e+04
-2.642827745332298946e+04
-3.108432382687092468e+04
-3.513987791644482058e+04
-3.720932693457416462e+04
-3.948278737617420120e+04
-4.199592177648538200e+04
-4.495215752573995269e+04
-4.679965129170908767e+04
-4.760568570940128848e+04
-4.976621303238842665e+04
-5.228292930894423625e+04
-5.397128328566521668e+04
-5.555537949287934316e+04
-5.773565159057077835e+04
-6.075053729904207285e+04
-6.272881052630555496e+04
-6.354425253730286204e+04
-6.423943140164915530e+04
-6.538174277000040456e+04
-6.566407098605297506e+04
-6.569255225016095210e+04
-6.487983383623773989e+04
-6.422054106269600743e+04
-6.333086267864813271e+04
-6.234171168846416549e+04
-6.197239175969392818e+04
-6.205227415699989797e+04
-6.276295392087829532e+04
-6.325755126752197975e+04
-6.386268501862605626e+04
-6.429824379031701392e+04
-6.514549768278517877e+04
-6.466464966939245642e+04
-6.338744912132077297e+04
-6.402881617601700418e+04
-6.400753181031309214e+04
-6.235957261589032714e+04
-6.017637192413982848e+04
-5.775710849225319544e+04
-5.447388255915412446e+04
-5.141361869203906099e+04
-4.976515588712511817e+04
-4.820620179150709009e+04
-4.371792191924042709e+04
-3.929265116019105335e+04
-3.552147780007895199e+04
-3.273702407356206459e+04
-3.011158248877187361e+04
-2.603102684784139274e+04
-2.131099860316355989e+04
-1.687225076350581367e+04
-1.322947329023311977e+04
-1.061737350513465753e+04
-8.900960663532321632e+03
-7.466385902258568422e+03
-7.067595753283159866e+03
-2.580988970486311246e+03
2.078962384664057481e+03
7.668186993710117349e+03
1.212735269859855907e+04
1.744104666354688015e+04
2.217143191975168884e+04
2.675763465292484034e+04
3.075121361116587650e+04
3.319632651831573457e+04
3.532925089367413602e+04
3.743646929781523068e+04
3.952600787864954327e+04
4.186086425954407605e+04
4.419578525741725025e+04
4.186824380911935441e+04
4.146269062127033976e+04
4.269251399189163203e+04
4.389740075298312877e+04
4.486853850350763241e+04
4.558669269728979270e+04
4.604927582600999449e+04
4.579257077397467219e+04
4.477852304123564682e+04
4.379781065093860525e+04
4.417303525902213005e+04
4.853838900966903020e+04
5.153032974324733368e+04
5.436422060975110071e+04
5.660390902642587753e+04
5.743379991214959591e+04
5.726521025927540904e+04
5.644429969680987415e+04
5.662690134452893835e+04
5.882136324133133166e+04
5.940108081485964794e+04
5.891226099895363586e+04
5.793905990717270470e+04
5.692670086729607283e+04
5.634993436139642290e+04
5.666659579032457259e+04
5.787409739503661694e+04
5.896871987044075649e+04
5.949446482126037154e+04
5.875232552081387985e+04
5.684593285127003765e+04
5.530952180351407151e+04
5.500076373225521820e+04
5.559274278091724409e+04
5.482176232817879645e+04
5.388294183126481948e+04
5.313629313607313816e+04
5.284975081791984121e+04
5.255427996983464254e+04
5.238974500961675949e+04
5.172798729319930862e+04
4.984887976958759100e+04
4.693494359753460594e+04
4.378561956942819961e+04
4.086803798971331707e+04
3.796424875787463679e+04
3.579330981719958800e+04
3.482305836552721303e+04
3.398664762157032965e+04
3.193533768567126754e+04
3.053407688774549388e+04
2.841348406807256470e+04
2.510519787704010014e+04
2.164624768915008462e+04
1.791232699964178391e+04
1.404664063195783456e+04
1.018171567525846149e+04
5.245706901948581617e+03
3.214490344111042305e+03
1.831966537782957857e+03
6.462029458020354866e+01
-2.362207040440567198e+03
-5.269449909052507792e+03
-8.557172948465695299e+03
-1.116327865877282784e+04
-1.445457617255656442e+04
-1.832493406556647460e+04
-2.128284377146674888e+04
-2.326551300624341820e+04
-2.576639887604238538e+04
-2.897526550736435456e+04
-3.149624410902363888e+04
-3.419937143938324152e+04
-3.740106381005480944e+04
-4.007967875921649102e+04
-4.229665697013790486e+04
-4.447851216891728109e+04
-4.591892516851337859e+04
-4.721850630978548725e+04
-4.939130733090542344e+04
-5.156448040910163400e+04
-5.365984206923747115e+04
-5.600434401046510175e+04
-5.761994203441657010e+04
-5.763731787283012818e+04
-5.712818621917022392e+04
-5.750741627357989637e+04
-5.848578647025447572e+04
-5.924307066189034231e+04
-5.970502233881265420e+04
-6.145843499173114105e+04
-6.290216378532108502e+04
-6.433453843218363909e+04
-6.564999606850666169e+04
-6.640250651646782353e+04
-6.587700236850039801e+04
-6.511816091007270006e+04
-6.454067800581987103e+04
-6.428530379973693925e+04
-6.352893628754128440e+04
-6.211924694565759273e+04
-6.077286201512257685e+04
-5.936365619852892996e+04
-5.849549873950038454e+04
-5.779704878226591973e+04
-5.568193519557757827e+04
-5.318973804477867816e+04
-5.152686265517107677e+04
-4.988213714762370364e+04
-4.931720122449908376e+04
-4.916023477186596574e+04
-4.849593536078980833e+04
-4.543634855926023738e+04
-4.166961827304906183e+04
-3.586009543824345019e+04
-3.313663932950921298e+04
-3.225429694818280404e+04
-3.086318191253758778e+04
-2.740050439740100046e+04
-2.509456589818790962e+04
-2.384236889113198777e+04
-2.283118718950729817e+04
-2.242216437225652044e+04
-2.004336982085783529e+04
-1.459543233309111019e+04
-1.127784901128996353e+04
-9.038296879121506208e+03
-6.496941600472158825e+03
-5.119152890089329048e+03
-3.909082739558626145e+03
-2.141432422238424351e+03
-4.605176694010261826e+02
8.267372053748724738e+02
2.843973638082488833e+03
2.558424896884949703e+03
4.125508416960718932e+03
7.627446929574268324e+03
1.001252600123176126e+04
1.106250192158197933e+04
1.199862077160218359e+04
1.336715705776918367e+04
1.376464195906823261e+04
1.460542291559413570e+04
1.568690291193552366e+04
1.682284854121269018e+04
1.775522366742952363e+04
1.939446127698222335e+04
2.112400279602887531e+04
2.131793495189166060e+04
2.167610086986859460e+04
2.166703773864203322e+04
2.214072020393551793e+04
2.388799138689805841e+04
2.576408837580031832e+04
2.563167192941702524e+04
2.512876653714596614e+04
2.539491921309113604e+04
2.695129067585602024e+04
2.840184078298120585e+04
2.806791645337731825e+04
2.790317837790163685e+04
2.885852116922126152e+04
2.963993775151954105e+04
2.913002974456532684e+04
2.839712934452047921e+04
2.771277052166964859e+04
2.761932280726396129e+04
2.775522082505644721e+04
2.851118239520659699e+04
2.858756473412090418e+04
2.813479633692600328e+04
2.798315127472650056e+04
2.771549305380547958e+04
2.729403114240959258e+04
2.609883551867431379e+04
2.596938432072909200e+04
2.530733229755481079e+04
2.355430643013017107e+04
2.188192212804695009e+04
2.052573546282089956e+04
1.939537378765538597e+04
1.907014872200496029e+04
1.781037022060012532e+04
1.627670117861840845e+04
1.603780119744928015e+04
1.571424096630947497e+04
1.268267133677537640e+04
8.193630219965978540e+03
7.140931884290658672e+03
5.628227161929226895e+03
3.775849189283437681e+03
4.401446129844490315e+03
3.012647485949737074e+03
2.739970038756495796e+03
2.480059307294731752e+03
1.107261199592748653e+03
1.001200689927688359e+02
-1.413833808662260026e+03
-3.144203494984253211e+03
-6.648338053849058269e+03
-8.628551732037120019e+03
-8.749582685635983580e+03
-1.144510812407081721e+04
-1.113954103681563356e+04
-9.360637897828481073e+03
-1.255007710098108146e+04
-1.216355750008518226e+04
-1.298776295305566600e+04
-9.828371559154447823e+03
-1.136497591667186316e+04
-1.256536099465209372e+04
-1.146230628952365259e+04
-1.065039982920167495e+04
-1.270334331520590968e+04
-1.167687200561742065e+04
-9.178780498366977554e+03
-1.030565863676715162e+04
-1.156430244895890428e+04
-1.196460760036885404e+04
-1.164236981831086450e+04
-1.419247837605927089e+04
-1.578663094733692196e+04
-1.658673007880532168e+04
-1.528073422759099958e+04
-1.525549096874207680e+04
-1.507089686910633282e+04
-1.396786187259088911e+04
-1.278822297889241054e+04
-1.277582769927505251e+04
-1.404665594374991633e+04
-1.507191894314742240e+04
-1.572083667779102143e+04
-1.611337813794817885e+04
-1.415041097544737386e+04
-1.179295245129538853e+04
-1.030021031358023902e+04
-8.975212014501432350e+03
-8.293879390229103592e+03
-8.542165295682074429e+03
-9.502058509423131909e+03
-1.039045109617229900e+04
-1.104730799502902119e+04
-1.029971046475580988e+04
-9.018903487975476310e+03
-8.124951532316349585e+03
-7.416108136850793926e+03
-6.760367887445690030e+03
-6.825598790340422056e+03
-7.461695906005282268e+03
-8.760778856516992164e+03
-8.259898966661199665e+03
-7.254805156499345685e+03
-7.422338512234699010e+03
-6.934540178789299716e+03
-5.530519261712528532e+03
-5.145259692868591628e+03
-5.141675556701463393e+03
-3.797360866385958161e+03
-3.373285440458213088e+03
-3.458393608997077536e+03
-2.680618274011208541e+03
-1.899178173453420641e+03
-1.358891600236026534e+03
1.764466037377488874e+02
3.112358660024439359e+03
5.108944945051032846e+03
6.484164792681509425e+03
8.875080515609441136e+03
1.183219733716810515e+04
1.476876620977904895e+04
1.755413325907394028e+04
1.880340635620796093e+04
1.756968025477613992e+04
1.804523402453199378e+04
1.868945488203847708e+04
1.994166166811480070e+04
2.170783028428122998e+04
2.260906336669599477e+04
2.236168293033216469e+04
2.268910095473174806e+04
2.360764354379030556e+04
2.327153470297957392e+04
2.284002942710594289e+04
2.364738760886214368e+04
2.350093391800379686e+04
2.311596804968244760e+04
2.266595717341783165e+04
2.191736440915854109e+04
2.166854438971598938e+04
2.053989115478576059e+04
1.995976180103854858e+04
2.049762107920760172e+04
2.078689603166319648e+04
2.086805854591822208e+04
2.110847567492874077e+04
2.224659712792918799e+04
2.317091059773399320e+04
2.427191437033273178e+04
2.522126645221406216e+04
2.403161552423212197e+04
2.150252495770083624e+04
1.808852294097032427e+04
1.524513081867075744e+04
9.999967410585935795e+03
7.898578351690651289e+03
8.055406441939423530e+03
9.200139343579614433e+03
1.018443399136926018e+04
7.781967171544702069e+03
5.455373806938181588e+03
2.196273421112660799e+03
3.514112525048323619e+02
2.143522521895211867e+03
-1.296698237846884695e+03
-1.770521935831712426e+03
-1.639506117926543538e+03
-3.587982782841995231e+03
-5.562263437315702504e+03
-4.662674150238765833e+03
-1.433264196473604670e+03
-1.244215925427949514e+03
-9.739398932893432175e+02
-7.796428620943977421e+02
-1.155683710393219826e+03
-3.039497360022530302e+03
-2.752354176748989630e+03
-1.900434284219363462e+03
-3.858004055438477735e+03
-5.814208322611425501e+03
-6.183216764879580296e+03
-7.186453262142092171e+03
-9.502278782900555598e+03
-1.153392901723558498e+04
-1.264057225683066463e+04
-1.141956601345992931e+04
-1.157625759973096865e+04
-1.303688205373018172e+04
-1.347468229087559848e+04
-1.336895468837177032e+04
-1.278887526227265153e+04
-1.186379335906539563e+04
-1.106315012666319853e+04
-1.144321709106221533e+04
-1.149622017251710531e+04
-1.094152053251720827e+04
-1.074343120547177023e+04
-1.213920489114052543e+04
-1.537605616862397073e+04
-1.602426612297489373e+04
