-1.547796539381177467e+02
-4.359713965986796893e+02
-8.935523321697080519e+02
-1.899570866009328256e+03
-2.511027220210133237e+03
-3.047055852376756775e+03
-3.199725120930819685e+03
-2.975117398180796499e+03
-2.586343078700444039e+03
-2.227413368081613953e+03
-1.257377825071742336e+03
2.237069553913673303e+02
1.125774614149167292e+03
2.155725420906265754e+03
9.494834296167446155e+02
-1.685984751040154833e+03
-5.281788558026672945e+03
-2.459990141941803813e+03
1.745247276479040238e+03
1.751893109183180059e+03
2.136773862966027536e+03
2.632785204940471431e+03
2.754729941167064226e+03
2.130462730389358967e+03
9.127960459154091950e+02
-6.946122152958868412e+01
4.106220093614774100e+02
5.057662594490579977e+02
6.487593668739738177e+02
1.564532064971949922e+03
2.439859184685860328e+03
3.412623968728046748e+03
4.318976836681092209e+03
4.938542679591478191e+03
5.475273387104045469e+03
6.200929758522508564e+03
6.912381975082462304e+03
7.568359853470413327e+03
7.887594998611992196e+03
7.702225029210497269e+03
7.379918515448108337e+03
7.206446164684006362e+03
6.867711590884611724e+03
6.047159531312148829e+03
4.973882016310834842e+03
4.081815860674592386e+03
3.780514679666182474e+03
3.398667927168041388e+03
3.490543326167376563e+03
3.887603835344668369e+03
4.178416899016095158e+03
4.709141695429098945e+03
5.309727575877038362e+03
5.989779216577137049e+03
6.311150496877825390e+03
7.012824798214626753e+03
7.458563929767797163e+03
7.712330733501599752e+03
7.430860696236118201e+03
7.291724516578844487e+03
6.699011875427153427e+03
6.309703097749033077e+03
5.675734537719898071e+03
5.395637804099545065e+03
4.471479037350657563e+03
3.690678491785099141e+03
3.073538836905458083e+03
2.610552289534068677e+03
1.857828667257578900e+03
1.911074366192425714e+03
1.965123907539008769e+03
2.375960583999714800e+03
2.812504970563683401e+03
2.474663836535282371e+03
2.364408441412905177e+03
2.646572802742111435e+03
2.581134110817611145e+03
2.431028018125052313e+03
1.997136040929615092e+03
1.393426187910632507e+03
6.183930882635761606e+01
-1.614698870733372360e+03
-2.823297435225607842e+03
-4.452076151383357683e+03
-6.074099610002373083e+03
-7.208450775835715831e+03
-8.486183416660009243e+03
-9.336335446166884140e+03
-9.989965954667648475e+03
-1.122519039154722486e+04
-1.506187573722216075e+04
-1.701957517857948551e+04
-1.388272705906381634e+04
-1.054733895357233632e+04
-1.376626624792407165e+04
-1.493944801236704188e+04
-1.109790540677035642e+04
-1.194457291733121747e+04
-8.614367222063943700e+03
-1.053924674839870022e+04
-1.131813732937758505e+04
-1.163697373556616003e+04
-1.115971572275194740e+04
-1.119733124067606695e+04
-9.381817982284461323e+03
-1.396708353488544526e+04
-1.293701217996440209e+04
-1.017656666105311160e+04
-6.742646465494332006e+03
-5.745153516993784251e+03
-7.682947056465413880e+03
-5.370835261578705286e+03
-2.270633351821749329e+03
-1.280156532687086383e+03
-3.032439932663030504e+02
5.902946069007500682e+02
8.996203228794068991e+02
-1.372085181880293021e+03
8.423453720488197405e+02
3.381220814716043606e+02
-3.945557876977341039e+02
1.391493480796307040e+03
1.587425565367185982e+03
7.254323898324654465e+02
2.468768383311847359e+01
-3.959284755010472878e+01
6.713325009322464787e+00
2.117613398863882139e+02
6.127585222686371935e+02
1.079923437096876569e+03
2.091553434259429650e+03
3.473904628292915277e+03
4.917191515375943709e+03
5.845646936951896350e+03
6.291631419543555239e+03
7.277444982009218620e+03
7.917324495045966614e+03
7.991534095886780051e+03
8.013383445573987046e+03
7.806121913638661681e+03
7.408018227815353384e+03
6.645232315640739216e+03
6.237920331424940741e+03
5.339298324634665732e+03
3.820555823543908446e+03
2.405275092525822402e+03
1.674861393116718546e+03
1.392655847258161657e+03
1.095989591064114165e+03
1.114926484107642182e+03
1.803665065019011763e+03
2.629490769656989869e+03
3.183906515827721250e+03
2.796020026495699767e+03
3.075429362895156828e+03
4.782732821137768951e+03
5.214465833892023511e+03
5.349841793238807441e+03
5.641041409815307816e+03
5.856303250899233717e+03
5.880458364084279310e+03
5.551863910938137451e+03
5.035865715141709188e+03
4.007379260982074356e+03
2.742581552899001508e+03
2.008030288276420379e+03
1.489887596832775216e+03
8.251399094401584762e+02
2.319282369917685571e+02
2.474111910892789012e+02
7.457637231411335961e+02
8.690752144420857803e+02
1.033455660292568837e+03
1.472925775545572151e+03
1.871708953541627579e+03
2.615996657601398510e+03
3.294910614849365629e+03
3.930524643206554174e+03
4.401962003583143087e+03
4.413463732472241645e+03
4.442184233080230115e+03
3.579187503972702871e+03
2.632542143654748543e+03
1.381253889634209827e+03
3.083395196190396632e+02
-5.192077671684216966e+02
-1.420341072144356531e+03
-2.054946176009025294e+03
-2.170982932447253006e+03
-2.031444616256039126e+03
-1.808219240575937874e+03
-1.219290035645509761e+03
-3.305718028447566326e+02
3.500730162444061477e+01
6.604776860468671202e+02
1.520866557346327227e+03
2.270247114380853418e+03
2.232607195570000840e+03
2.231890556663574444e+03
2.063132731834044080e+03
2.172312213230731231e+03
2.029376852205519981e+03
1.400250886409634404e+03
5.788711563697187330e+02
-4.448207087243894193e+02
-1.441946686736538595e+03
-2.206586102359137385e+03
-2.515789102856639602e+03
-2.465653641782693285e+03
-3.216268311729968445e+03
-3.476677544914303780e+03
-1.470940766910754746e+03
-1.503162007010755133e+03
-5.228382536440820331e+03
-7.381651049483510178e+03
-5.749992979713920249e+03
-4.610507517721041040e+03
-4.178282921803823228e+03
-3.969365810260291255e+03
-4.202839621447476020e+03
-4.601000720287124750e+03
-4.613946996098477939e+03
-5.050819581443076459e+03
-9.247186630883891212e+02
1.383174487633705894e+03
8.236563474335346200e+02
-2.194452065132500991e+02
-7.373288710671578201e+02
-1.421132154050631016e+03
-1.963002686886909714e+03
-1.784077424902392977e+03
-1.042486402018812896e+03
-8.243664792607791014e+02
-4.328408595360271534e+02
6.759630341913755274e+02
1.388902662299119129e+03
1.280837660718607367e+03
1.447624213890820783e+03
1.949074115019376677e+03
2.208077964744106339e+03
1.888414249698611684e+03
1.403926645063291062e+03
1.088479727422452243e+03
4.118080765250269906e+02
-9.502718889702902061e+02
-2.494915848172880033e+03
-3.346376421256950835e+03
-3.695861844708867920e+03
-4.034570522138288652e+03
-4.107682674738342030e+03
-4.089353698701603662e+03
-3.187743657429731229e+03
-2.296952987596374896e+03
-1.554123114459419185e+03
-8.733826096300815607e+02
-2.509146737679914736e+02
3.121229423114988322e+02
3.755908206949607120e+02
1.122678313620082378e+02
-3.840350635993846709e+02
-6.834314985091813242e+02
-1.403107998300399004e+03
-2.176279790936253903e+03
-3.203198537818756449e+03
-3.987086848056240342e+03
-4.815193923184976484e+03
-5.394639005575270858e+03
-5.336621417081213622e+03
-5.480395405794536600e+03
-5.479096859899766059e+03
-4.997888201798899900e+03
-4.068823980962228688e+03
-3.176917914077100704e+03
-2.531111293144633237e+03
-2.057572305531773054e+03
-1.495376342683980283e+03
-9.238287920652621779e+02
2.397573809152016224e+02
7.272115174805098832e+02
1.041419859451767252e+03
7.582970478916224693e+02
-1.422791394844114166e+02
-1.749558746623806371e+01
-3.646081563572554387e+02
-1.514639860712604559e+03
-2.170821304397110907e+03
-2.563355388927463082e+03
-2.972381259886018142e+03
-2.656063990924962582e+03
-2.267541747318281978e+03
-1.704917101343140075e+03
-8.432402356556530094e+02
2.873489814786465217e+02
8.637216527598260427e+02
1.604755335953588201e+03
2.424413378374653803e+03
3.146609038844240786e+03
3.590205498801446083e+03
3.985107088792742161e+03
3.934303597980163431e+03
3.608721624758409234e+03
3.224270903637228457e+03
3.009851737425015017e+03
2.315317730068465153e+03
1.591559834491682523e+03
7.824299608647667128e+02
2.238962228034127975e+02
-2.412030608321549963e+01
-1.637373098763154360e+02
-4.479132544738252477e+02
3.950078249848184697e+01
2.473624990028365573e+02
4.993930873624989886e+02
1.044392602951591471e+03
1.420195479483817508e+03
1.083784397689659954e+03
1.315944969634474091e+03
1.685507198596320222e+03
1.808339726674129452e+03
1.991414498136369048e+03
1.890685198173596518e+03
1.109206754117213222e+03
4.529839871347126063e+02
-6.280405945928804385e+02
-1.877864151035777240e+03
-2.961492602515605995e+03
-3.273053985235073469e+03
-3.275594375662305993e+03
-3.521188246428866478e+03
-3.338913847135068409e+03
-2.312750483640566927e+03
-2.050749713124685968e+03
-1.217976078176028068e+03
-2.124062995441052522e+02
4.338567758367937586e+02
1.236090331222336317e+03
2.109182858783095980e+03
2.786494079119815069e+03
3.569795065455181884e+03
3.646009260776498195e+03
3.392180593241225779e+03
2.636316195111244269e+03
2.126427524298660046e+03
1.628516663389174937e+03
8.225760761569846409e+02
-1.632448752330976504e+03
-4.068700136079417007e+03
-2.214675923008539485e+03
-1.305978593395834878e+03
-1.115174545896032214e+03
-5.735698019162765604e+02
7.885780196462538072e+01
7.436523382537036468e+02
1.589887273815283379e+03
2.464656559000743982e+03
3.303855259453854160e+03
4.173261280222287496e+03
4.753877963801978694e+03
5.068610744367483676e+03
5.170714507322722966e+03
4.794907141079573194e+03
4.170460812427735618e+03
3.625932937812072396e+03
2.876901288496274447e+03
1.661492165533990374e+03
5.889377283793061224e+02
-6.468337763172362429e+02
-1.260657952207931203e+03
-1.490024527550894391e+03
-1.445091046528240668e+03
-9.826882282149416596e+02
-2.126846620886286416e+02
3.259602740349527039e+02
9.959227551518978316e+02
1.388278473923534875e+03
1.974167967200259454e+03
2.435829921436645691e+03
2.756602979458724803e+03
2.600534173657422343e+03
2.504809004785618072e+03
2.144953704227256367e+03
2.290050556432207486e+03
1.841074012395008594e+03
7.362168803877186747e+02
-6.782915809367185602e+02
-2.049311032498580971e+03
-2.927652493454111209e+03
-3.717141015984548176e+03
-4.739620357316023728e+03
-6.210913455581170638e+03
-6.421761333930749970e+03
-5.872907146817414286e+03
-5.245145165834092950e+03
-4.872298611902301673e+03
-4.298088989291081816e+03
-3.754262210690781558e+03
-2.938575743542753571e+03
-3.328796266185526292e+03
-5.098753133609297947e+03
-7.775337835206415548e+03
-1.189937321202262865e+04
-1.228460663244392890e+04
-1.242886664137843400e+04
-1.303304114151454451e+04
-1.370102058643471719e+04
-1.442967230348878184e+04
-1.507191085088986438e+04
-1.501365581312493669e+04
-1.112085207020989037e+04
-7.561445125786080098e+03
-1.228535280322835206e+04
-1.452604258929888965e+04
-1.327162588446904738e+04
-1.183005190655448132e+04
-1.046423957694676756e+04
-5.677090135536834168e+03
-1.005456468225439721e+03
1.456393281881839528e+02
-3.003748272817466841e+03
-6.429539970922274733e+03
-5.885664811353199184e+03
-5.171097479519692570e+03
-5.166876880965397504e+03
-5.542997551668886445e+03
-6.281486317047549164e+03
-7.243356619968196355e+03
-7.838688475814170488e+03
-6.589545841754451430e+03
-1.786969066200004136e+03
-1.024975929028995779e+03
-2.056526058868855955e+02
1.239953815363275680e+03
2.338772594178501549e+03
2.656711758816697511e+03
2.651714927571437329e+03
4.076712298449072023e+03
5.913652239293883213e+03
7.203403532853176330e+03
8.607910854434187058e+03
9.510047037657221153e+03
9.374687066202033748e+03
8.587721659708595325e+03
7.810985415890788317e+03
7.497309908619424277e+03
6.845500073651001912e+03
6.186322806149585631e+03
5.701604052319026778e+03
5.391136990885431260e+03
5.251652880145862582e+03
5.380992703423797138e+03
5.757001841836707172e+03
6.437446991543921285e+03
7.775131036685409526e+03
9.112891518331120096e+03
1.011658504941999490e+04
1.144505410817678967e+04
1.259609902172291004e+04
1.366749088035107525e+04
1.393299888619491685e+04
1.413842700255523232e+04
1.409657901343141930e+04
1.357927329794545949e+04
1.280026643569409316e+04
1.252332208718963375e+04
1.177219259174974286e+04
1.036351657090656772e+04
9.390040674544017747e+03
8.885486369980204472e+03
8.239710161954697469e+03
7.810095549545289032e+03
7.711547436768033549e+03
8.287236783749933238e+03
8.923768399181151835e+03
9.331396420487055366e+03
1.026894229151759100e+04
1.106324359918552727e+04
1.115513005464957132e+04
1.138641767996028648e+04
1.114586559968127040e+04
1.142332040137242620e+04
1.130943697302594046e+04
1.053400333349200628e+04
9.490752181069634389e+03
8.189574755432718121e+03
6.863207097315455030e+03
5.328508536201954485e+03
4.064311128243973599e+03
3.070397620771514539e+03
2.194599413251472924e+03
1.465826433274351075e+03
1.341961125203850770e+03
1.731879217112940523e+03
2.205479800635250285e+03
2.350785156210627065e+03
2.699714230240757388e+03
3.336165192350184952e+03
3.317119106295759138e+03
3.021557574276725518e+03
3.449454062733652790e+03
2.982753257148508965e+03
2.129440686850431575e+03
1.317559092209702612e+03
3.781423359314241566e+02
-6.398587300808627560e+02
-2.289490437657911571e+03
-3.796736754335726346e+03
-5.282616860134037779e+03
-6.985081797920746794e+03
-7.764175806441351597e+03
-7.980822880974363216e+03
-7.860922147781913736e+03
-7.895378606501869399e+03
-7.376071753491899472e+03
-6.455869213251697147e+03
-5.976563526847062349e+03
-5.770974958674456502e+03
-5.346919359644712131e+03
-4.655276073721362991e+03
-4.337838248464348908e+03
-4.631402394716931667e+03
-5.198734812800865257e+03
-6.704684063763027552e+03
-7.744082447904875153e+03
-8.566750167151838468e+03
-9.901497208896495067e+03
-1.146006324541723370e+04
-1.300222814278790611e+04
-1.601375824673835086e+04
-2.000544519102989216e+04
-2.406000205247667691e+04
-2.225310005491311676e+04
-1.606039738168678196e+04
-1.442857618702636682e+04
-1.418331768250379719e+04
-1.389829224977711783e+04
-1.334706949055260520e+04
-1.265329891615867746e+04
-1.236860561743065773e+04
-1.269558428273239952e+04
-1.319781151658797717e+04
-1.247787993439821366e+04
-1.282435188582866067e+04
-1.322887704950542138e+04
-1.363409686013095234e+04
-1.430361030765551186e+04
-1.515306437905728853e+04
-1.606804567600389601e+04
-1.616218993251180109e+04
-1.622908365512350429e+04
-1.634929781105034454e+04
-1.654633307485074693e+04
-1.599976804384075695e+04
-1.558519228034968910e+04
-1.579413029666560942e+04
-1.591308040842389710e+04
-1.504961578442194332e+04
-1.433419433996458611e+04
-1.393730504179214586e+04
-1.363450165873124570e+04
-1.358736997707676346e+04
-1.405240642488181948e+04
-1.510817043768575968e+04
-1.533521904816480492e+04
-1.566817183545226908e+04
-1.634162743163255436e+04
-1.529617744936451891e+04
-1.041640644430048633e+04
-5.408954485347800073e+03
-1.410379389432543348e+03
1.709680616613032043e+03
4.173621820203886273e+03
7.444854701553806990e+03
9.545882497468352085e+03
1.001107199157064861e+04
9.589786712799497764e+03
8.968457389188441084e+03
8.468415920506033217e+03
8.378997944779308455e+03
8.866583158236868258e+03
9.208457917224348421e+03
1.024697867290350223e+04
1.148946352473936167e+04
1.248815126117332693e+04
1.353125249983413050e+04
1.462599404460167534e+04
1.535561362780607851e+04
1.598327723396130386e+04
1.642412667551492996e+04
1.665641130990353122e+04
1.701124880688113626e+04
1.583175282520399924e+04
1.793310187926591607e+04
1.856754674965379672e+04
2.344818615141236296e+04
2.539910860076809695e+04
2.670838630034762900e+04
2.790714669708759902e+04
2.880153237378170888e+04
2.994660457478794342e+04
3.055636234788021102e+04
3.097383007222522065e+04
3.021400340777589372e+04
2.558900453826092053e+04
2.257391029994815472e+04
2.510024319431501863e+04
2.529489135455847645e+04
2.138379051830965909e+04
2.294578550815581184e+04
1.890972539908102408e+04
1.983445410665041345e+04
1.631382456828074282e+04
1.409065067264759273e+04
1.551773439397085895e+04
1.692790191853059150e+04
1.627292467126746487e+04
1.862363076357952013e+04
1.541279473937660259e+04
1.601613442386743372e+04
1.555441515823487862e+04
1.286828727946215076e+04
1.197645161197767629e+04
1.406064906251872708e+04
1.159851810506011498e+04
5.229706567446985900e+03
7.289803308759570427e+03
7.167357216996254465e+03
5.430919728461928571e+03
3.049023722191117486e+03
-1.689794407022759060e+03
-8.379159317503031161e+02
-4.418842508543869371e+03
-4.430979811360450185e+03
-6.411796201634842873e+03
-7.097760583474783743e+03
-6.929354192530979162e+03
-8.219037809393861608e+03
-6.175257346707404395e+03
-5.091492938631776269e+03
-6.188336533216145654e+03
-7.399287539831133472e+03
-8.136822370712650809e+03
-9.488451328186672981e+03
-1.104176258568247067e+04
-1.243331137375024264e+04
-1.396266452771918011e+04
-1.566538884793076249e+04
-1.712100855607937410e+04
-1.840021936426663888e+04
-1.901066067216836018e+04
-2.015391797927534208e+04
-2.085757910356167849e+04
-2.082221158611688952e+04
-2.019937089511374143e+04
-1.891464840321269730e+04
-1.791851554047190803e+04
-1.732550287303679943e+04
-1.717208993795481365e+04
-1.672159313093626406e+04
-1.625358757309554676e+04
-1.577067710200304646e+04
-1.532532014327582874e+04
-1.497311534682820820e+04
-1.493464964644703832e+04
-1.474153903177234315e+04
-1.513439129705660889e+04
-1.671807309420479578e+04
-2.033315824297231666e+04
-1.803560101198227130e+04
-1.627005217993602309e+04
-1.578721836018426984e+04
-1.554056045065565922e+04
-1.473764552359510890e+04
-1.263856397111987280e+04
-1.141033539259274221e+04
-1.033416925111776436e+04
-8.859695014646174968e+03
-7.343385296329014636e+03
-6.112459675612678438e+03
-5.145311912288938402e+03
-3.983288511244911206e+03
-3.324775263579334933e+03
-2.758136409032418214e+03
-2.450709872098520464e+03
-2.102862763613901279e+03
-2.209090795845411321e+03
-2.029958079640508686e+03
-2.058487395556578576e+03
-1.994006791663341346e+03
-1.554987108441717737e+03
-1.260776165547681558e+03
-5.076210694219809056e+02
5.883589872274765185e+02
2.081828783531840145e+03
3.517583964124669819e+03
4.943503556578330063e+03
6.198400084370412515e+03
7.071243495935806095e+03
8.336985541987578472e+03
9.544584224481468482e+03
1.040499244030919726e+04
1.094811293664107870e+04
1.102493477651961075e+04
1.127543437828226706e+04
1.120657272687819204e+04
1.027534920593728202e+04
9.938757160600602219e+03
9.525859682133766910e+03
8.772618321011828812e+03
8.215064876979466135e+03
8.099249272875204952e+03
7.979243019348135022e+03
8.534205332586767327e+03
9.144266877093223229e+03
9.976618373670775327e+03
1.051245376950829814e+04
1.083801417639095780e+04
1.116254640539038519e+04
1.166833050897182511e+04
1.176663861959277710e+04
1.174274642695775219e+04
1.177283610983171093e+04
1.021023647655760578e+04
6.757261816720229945e+03
1.879195728116837927e+03
-4.316816419286883502e+02
3.457937156021894680e+03
5.572355126947181816e+03
2.489197243217141704e+02
-5.027081453465800223e+03
-5.118326324334299898e+03
-5.340346505210795840e+03
-5.122813507501991808e+03
-4.847373258911980884e+03
-4.517487277314407038e+03
-4.342761907921982129e+03
-4.069768288572061010e+03
-1.940817172985271100e+02
3.349729769345922705e+03
3.646175415984108440e+03
4.215728568131124121e+03
3.930855231671667752e+03
3.526041048879966638e+03
2.813755300941235419e+03
1.661422644922079144e+03
5.504789608583944300e+02
-7.156525371441266543e+02
-1.972538816152249410e+03
-2.689753740995854514e+03
-3.730904217999752291e+03
-4.186548573159398984e+03
-4.368214496362544196e+03
-4.478454609534353040e+03
-4.061816485807373283e+03
-3.604753645810282251e+03
-2.992748960433023967e+03
-2.361421756233674387e+03
-1.884231463321466208e+03
-1.438698924812751784e+03
-8.623831209647175911e+02
-4.028301056575430152e+02
-2.435953861270976120e+02
-1.991896130672084269e+02
-6.552313089159054016e+02
-1.071338188134259553e+03
-1.931088968502208445e+03
-2.669129887472234259e+03
-3.248145233496218680e+03
-3.824861993743592393e+03
-4.218899684796730071e+03
-4.400959274292429654e+03
-3.965779542928170940e+03
-3.234976568294958270e+03
-2.196175063497054907e+03
-1.369064882967365747e+03
-4.483652076568820917e+02
7.362377548808151460e+02
2.281094779766212014e+03
3.497504453514919533e+03
4.073798781803072416e+03
4.207177345207969665e+03
4.337860907290317300e+03
4.445076642487321806e+03
4.157066661336132711e+03
3.873955831294185373e+03
3.163935977592393101e+03
2.399285180421194582e+03
1.736499043651506327e+03
1.263362755401034974e+03
8.185944518650794635e+02
2.018545770627995637e+02
1.399855535611226287e+02
6.828982758712642180e+02
1.153626225857590498e+03
1.166168263465312066e+03
7.097582881274681768e+02
1.758488633972952812e+03
2.795396240467143343e+03
3.601385825242361079e+03
4.179490492059164353e+03
4.354712574678766032e+03
4.270977203775933958e+03
4.026283962451580464e+03
3.761574565272974723e+03
2.826817284146837665e+03
1.893840581069673817e+03
1.179555526614673227e+03
7.418437945143009529e+02
2.316071430433744638e+02
-6.393386078019249226e+02
-1.259120464369937054e+03
-1.455811227149035403e+03
-2.010564913088039248e+03
-1.864577882043395448e+03
-1.169978268845127786e+03
-5.008676245340772653e+02
-2.941011755270354300e+01
7.482486626320591085e+02
1.481016049554145411e+03
2.164771357875152717e+03
2.332260202643484263e+03
2.356229167438368222e+03
2.196469392215323751e+03
1.677615910018133718e+03
1.096085714626841991e+03
5.965169230628932837e+02
-5.623792638451311632e+02
-1.639843763721431969e+03
-2.817138620670403270e+03
-3.403664400733071034e+03
-3.666594421246998081e+03
-3.816006830380266820e+03
-3.144077102258484047e+03
-2.390961911583494384e+03
-1.749862810063260667e+03
-1.041044237605412945e+03
-6.077930803750656423e+02
6.699990677128110583e+00
6.841321327157767200e+02
8.512346899847555051e+02
9.747358967711141986e+02
1.110355678928284306e+03
9.977947434417233126e+02
5.028439682985230661e+02
2.624663674861689699e+01
-4.712874411629369433e+02
-1.230922072572910338e+03
-2.529877037814957021e+03
-4.006290451168113123e+03
-3.868636491510958876e+03
-3.718046544931105473e+03
-3.800118152024324445e+03
-3.861871995052114471e+03
-3.872512629067201487e+03
-3.073133294748346088e+03
-2.494903506232215022e+03
-2.047067422542838131e+03
-1.366706636124926490e+03
-9.629372242092572378e+02
-6.248984817347595708e+02
9.045691941305113914e+02
1.628464854328983392e+03
1.446065906323330637e+03
1.039354696345899129e+03
4.135029807582817512e+02
-4.020248282976574501e+02
-1.397943161381985647e+03
-2.037007819271035714e+03
-2.698751012030258607e+03
-3.409025969637663366e+03
-3.519193935483008772e+03
-3.833404560118744484e+03
-3.399598386679789201e+03
-2.560079948618035360e+03
-2.204432747649895191e+03
-1.386916538317298773e+03
-1.083537934444754455e+03
-8.191128557841475413e+02
-1.887715872455192709e+02
2.802658421664220327e+02
5.446322135732767720e+02
8.582964294095716014e+02
7.281179337756731229e+02
2.257367287333113950e+02
-5.839522391064125486e+02
-1.586954122566613933e+03
-2.067801290363838689e+03
-3.090912002034781835e+03
-3.740883159497889665e+03
-4.155931669526605219e+03
-4.485869509912336980e+03
-4.810681024429813078e+03
-5.175147486971256512e+03
-4.687352523624922469e+03
-3.873638474461149599e+03
-3.245943186287112439e+03
-2.655979949291901448e+03
-1.927636740874557290e+03
-1.162826881269649903e+03
-1.037435540625795738e+03
-5.693426258423133959e+02
-1.234531125079902267e+02
-2.862496433236523075e+01
-5.177750819870455246e+01
-6.248690320375638976e+02
-1.316816499538416338e+03
-2.004587624181605861e+03
-3.126046584170980168e+03
-3.998101813609668170e+03
-4.617719409302668282e+03
-5.072849864033435551e+03
-5.405480053219932415e+03
-7.074483884671300984e+03
-9.564694796655227037e+03
-1.172490808092108455e+04
-1.099600763226768140e+04
-1.038984089024482455e+04
-8.681265422521348228e+03
-7.288153854489199148e+03
-6.208338275964602872e+03
-5.865662708224078415e+03
-5.621079702174310114e+03
-5.142447625661321581e+03
-4.420431552034975539e+03
-4.805744209125486123e+03
-5.540778404500475517e+03
-5.601373507656257971e+03
-4.535373625301642278e+03
-4.010614459226545932e+03
-7.580037602614282150e+03
-4.403626882299187855e+03
9.880093201192032382e+01
-2.142620957961009481e+03
-7.092750828470857414e+03
-6.563456126286820108e+03
-5.404531490962236603e+03
-4.011830689029670339e+03
-2.872253706421367042e+03
-2.028603211261657179e+03
-1.306737881372677748e+03
-6.755272160592030559e+02
-2.389061011223961941e+02
1.492315924097819789e+03
3.867232728675933686e+03
6.447932875900998624e+03
7.716498745888744452e+03
7.777987456120788920e+03
6.834517146270206467e+03
6.581135172285493354e+03
5.961877266616337693e+03
5.648809487819505193e+03
5.578011841829750665e+03
5.269572783603621247e+03
5.949609204026868611e+03
6.542258703805767254e+03
7.052581902930730394e+03
7.801686627388032321e+03
8.471670169110657298e+03
9.170591247145748639e+03
9.807533306215391349e+03
1.012954413224922791e+04
1.042067631592968974e+04
1.038807062299316021e+04
1.090273064661884746e+04
1.043669829181397472e+04
9.634996571905312521e+03
8.965651300484805688e+03
7.878637532805028968e+03
6.857940398516681853e+03
6.010518356709221734e+03
5.479340049085483770e+03
5.245399033454889832e+03
4.897742113213374978e+03
4.994358033112849625e+03
5.691258042173508329e+03
6.482430933492670192e+03
7.394780093515718363e+03
7.814500612740027464e+03
8.463629410489047586e+03
8.641123156448315058e+03
8.809060355024397722e+03
8.928231449289360171e+03
8.575856341661543411e+03
7.807827351302821626e+03
7.216950003129235483e+03
6.368090240871138121e+03
4.948395123470771978e+03
4.444698370913947656e+03
3.846862347329840759e+03
2.656804338592249678e+03
2.528412068424802328e+03
2.413530358651253209e+03
1.983100027636354071e+03
2.135058183364705656e+03
2.042052809409268548e+03
2.228860297800251828e+03
2.500618675183719915e+03
2.656018061870669953e+03
3.135925761174236868e+03
3.520186046650520439e+03
3.657706017563720707e+03
3.704376781446617770e+03
3.315022999830927347e+03
2.565534073026793067e+03
1.878780245089413029e+03
8.445310802446374510e+02
-3.313813888514785617e+02
-1.749158446209040449e+03
-3.249998704722819184e+03
-4.599056221800326057e+03
-5.477599225661759192e+03
-5.846770970984238375e+03
-6.305728618326953438e+03
-6.349655778161059970e+03
-6.305715297244298199e+03
-6.194004601973131685e+03
-5.924696717421281392e+03
-5.470934963370351397e+03
-4.753781759705794684e+03
-4.360390007769618933e+03
-4.373922557583739035e+03
-4.523558845826694778e+03
-4.304398393030316583e+03
-4.230615420976137102e+03
-4.977394961407147093e+03
-5.616871909602421510e+03
-6.320251460930502617e+03
-7.571732467417262342e+03
-8.570502569537396994e+03
-9.150772398878791137e+03
-9.449736080680659143e+03
-9.538481741065850656e+03
-9.469114657955578878e+03
-8.909775896085457134e+03
-8.061585389550305081e+03
-7.113663483173826535e+03
-6.264072098592375369e+03
-5.224813181082370647e+03
-4.538935310042284982e+03
-3.680556011146043147e+03
-3.894745020063819084e+03
-6.259599747581071824e+03
-9.775162951110374706e+03
-1.047847249738579558e+04
-1.012863031114768273e+04
-9.362733810538769831e+03
-4.266868616458015822e+03
-2.698058117341747220e+03
-3.085333258557927820e+03
-3.723854586692913017e+03
-5.114639830360802080e+03
-4.513607635540385672e+03
-3.622782680199479273e+03
-2.606340209623246210e+03
-1.430169045411909565e+03
-5.772588976397944407e+02
5.683549340062701276e+02
1.188704989664638333e+03
2.058895994767780394e+03
2.601947638757936602e+03
3.378928995484517145e+03
3.694952363173952108e+03
4.008039685426285359e+03
3.938279700890790537e+03
3.767650293403378328e+03
3.381199654620619185e+03
2.778031341340056770e+03
2.142151252825760821e+03
1.127578934837332326e+03
3.034380561502282490e+02
-3.252484755608335831e+02
-4.634341825646166058e+02
-5.840370134867888510e+02
-5.379558024141153965e+02
2.048964575503634080e+02
1.294670024995458334e+03
2.640477165156270985e+03
3.473482916668330290e+03
4.056858915615877322e+03
4.673725316263468812e+03
5.456218428048723581e+03
6.104505318258699845e+03
6.243665796819510433e+03
6.314893985513481312e+03
6.030336323575330425e+03
4.956114891744514352e+03
3.891319352943467948e+03
3.293024194653205541e+03
2.357354205459056629e+03
1.905420929871469525e+03
1.798332104427387321e+03
1.641209142382447908e+03
1.438205070439940982e+03
1.836516088791563106e+03
2.411303127955583022e+03
3.285730405501085443e+03
3.971026766588990540e+03
4.571341341076332355e+03
4.775910165570653589e+03
5.242912546864554315e+03
5.547497736209566028e+03
4.965823226712474025e+03
4.972034008908312899e+03
5.240359528485203555e+03
4.891986550361586524e+03
4.525059684166116313e+03
3.952590169684544435e+03
3.134748702904621496e+03
2.379669456221545715e+03
9.815119932876698385e+02
8.023961273742563662e+02
7.123753632229950199e+02
1.796590116740235601e+02
4.413876804955167472e+02
1.429652385576098823e+03
1.599804018817373844e+03
1.193995461332630157e+03
3.569217199087558129e+03
4.444691418491908735e+03
5.137635100424793563e+03
5.288181653540215848e+03
5.421507635371694050e+03
4.833753435298895965e+03
-1.469338301855743794e+02
-3.609476609599739731e+03
-3.812786071953860301e+03
-3.914705805609058189e+03
-4.526196622910740189e+03
-5.493200292142160833e+03
-6.440633483817558954e+03
-7.052471624845051338e+03
-6.801589722867648561e+03
-6.973980932196486719e+03
-6.803482183297324809e+03
-6.359948621085264676e+03
-4.889350748702747296e+03
1.566417009340648292e+03
4.098408885000128976e+03
-7.427408743969301952e+01
2.002536616156324953e+03
1.173941655323756322e+03
-1.281999805913874297e+03
-1.371292453976729121e+03
-1.920885607197272748e+03
-2.359635701949156100e+03
-2.829601800422537963e+03
-3.560759812496971335e+03
-3.609085263116594433e+03
-1.161601818529721086e+01
1.043598238103679023e+03
6.855363507471795401e+02
-2.028432692167493769e+02
-4.345506298549293547e+02
-4.425475918273830871e+02
1.301857844547296565e+02
5.396617563051966044e+02
1.106956765830098675e+03
1.867984073125260920e+03
3.187766658457568155e+03
4.195284127686668398e+03
4.671534938889595651e+03
5.005534440568345417e+03
5.051241873924000174e+03
4.841541641888336926e+03
4.701199691122309559e+03
4.273745549534710335e+03
3.676669791035320941e+03
2.537319241014107774e+03
1.262419193745801749e+03
1.121486818553990901e+02
-5.347915760513177474e+02
-1.056243649514766730e+03
-1.189794275972583137e+03
-1.001105137891602794e+03
-7.104509902372785746e+02
2.039493722702161449e+02
1.421205106947209060e+03
1.928281275713509785e+03
1.972072860876192635e+03
3.301618007127077817e+03
4.154846359143309201e+03
4.069311398377481510e+03
4.341390976545331796e+03
3.851593781376144307e+03
3.457745048201461032e+03
2.576836732558559561e+03
1.561275196404490089e+03
3.969774420644995416e+02
-1.041007508379743285e+03
-2.044411586174041304e+03
-2.964171299367360461e+03
-3.109762574033289638e+03
-3.170514330985453398e+03
-3.271380495790742316e+03
-2.814039062655286671e+03
-2.047015946353092204e+03
-1.247204901785072934e+03
-1.022601029413143578e+03
-2.833408018637572354e+02
5.691802866689700977e+02
9.841641510032646920e+02
