-6.245735112873633170e+02
-2.253131186523813085e+03
-3.267877074235534110e+03
-3.103765055037534694e+03
-4.712679622000552627e+03
-8.565581656438076607e+03
-9.024317504555639971e+03
-6.811814815752834875e+03
-5.328879189233864054e+03
-5.477241992543064953e+03
-3.601959424389734977e+03
1.710023825350011293e+03
-1.066140200226585648e+03
1.729739577554003972e+03
3.496916624679313372e+03
1.675417866033042856e+03
-4.358787747948575998e+03
-2.477610227995709920e+03
-3.579858402052524070e+03
-1.599545080244382461e+03
-3.820675073308614628e+03
-4.173193678728755913e+03
-2.821118179029212115e+03
-5.933423557459253061e+03
-3.215072826824624372e+03
-6.152070956748203571e+03
-6.747278952831479728e+03
-6.639650864375355013e+03
-4.382273700739337073e+03
-5.340516159149466375e+02
-3.285216488607233742e+01
-1.487277672308632646e+02
-5.767029449327034740e+01
-1.652726516629423486e+03
-2.964923460440926647e+03
7.278227003496840553e+01
-1.881655647505434445e+03
-4.725188683583225611e+03
-5.948858886769737182e+03
-4.549691376480624058e+03
-4.485735368134436612e+03
-5.571040512912433769e+03
-5.951662028322130027e+03
-7.790570998079840138e+03
-9.704981766408993280e+03
-6.875104182996028612e+03
-9.897836831010197784e+03
-7.816136528555937730e+03
-5.077043581329718108e+03
-2.601636106519117220e+03
-1.506992403520607013e+03
1.281834272773349312e+03
2.544726873856325255e+03
1.961560468157413197e+03
1.476390965480745990e+03
1.377115558418910268e+03
1.417606396007223339e+03
1.049758211593041096e+03
4.064325351672022180e+02
-2.324767499894035723e+02
-4.140546292280015450e+02
-7.675037050921063155e+02
-1.081963577375262730e+03
-1.662539089364405299e+03
-1.698281421427265514e+03
-1.365307759177604112e+03
-9.767645514147097856e+02
-1.437917677586453010e+03
-7.849981516708166964e+02
4.605923757409817654e+02
3.547127530374595494e+02
8.386511307425431596e+02
1.998630385375847482e+03
2.266676861072523479e+03
2.208568349825472524e+03
2.071123502636490684e+03
1.566178275270202448e+03
8.844098364442032789e+02
4.682138493462232987e+01
-6.517628479633921188e+02
-2.189028331637402971e+03
-2.691845163740405042e+03
-2.065187379590637192e+03
-1.957860255950746250e+03
-1.903229095349316594e+03
-1.463389650602273605e+03
-1.405276733156013734e+03
-4.928332707404906046e+02
2.671882579821361787e+02
6.494005352954534374e+02
1.332257654197657530e+03
2.056150010788701820e+03
3.306414724174580442e+03
3.799338279900868201e+03
3.290975200765266891e+03
2.289150345912984903e+03
1.264624581913101792e+03
1.890514928949447722e+03
2.501657460228842865e+03
1.646864308578200962e+03
1.496967996547630037e+03
2.321919152727501114e+03
2.194681714114296938e+03
2.368117972598562574e+03
2.540130392443587880e+03
2.264671613110093858e+03
2.190712775680533468e+03
2.339259650006817992e+03
2.730203084004351695e+03
3.131493036573496283e+03
3.501062675906991444e+03
4.039917519337709109e+03
4.453995829294208306e+03
4.822229110476232563e+03
5.247680296468647612e+03
5.184464944908643702e+03
4.410414081935115973e+03
3.742311630634239918e+03
3.290184545417471327e+03
2.830021471208624007e+03
2.432750465859220185e+03
1.369374087935793341e+03
-1.138190283268266057e+03
-5.897966919218877592e+03
-8.897980945721432363e+03
-8.896192096557209879e+03
-8.751643636256199898e+03
-8.802397002419311320e+03
-6.108404603156126541e+03
6.323194304517966202e+02
9.607712011705461919e+02
-4.783083636923272024e+03
-7.904083280415476111e+03
-8.355369159961943296e+03
-6.821915000483112635e+03
-6.740475716341244151e+03
-6.404251584199794706e+03
-5.595482552812703943e+03
-6.762137268595161004e+03
-4.399175823259091885e+03
1.042466244370044706e+03
4.098455685254332366e+02
-3.764075927602638785e+03
-6.416300481608917835e+03
-6.310829257276620410e+03
-5.589678064122089381e+03
-5.254718139199515463e+03
-4.946997980636640023e+03
1.234823398684748099e+02
2.965777078513132892e+03
1.600967406594849763e+03
4.368129971026457497e+03
6.591214722289146266e+03
7.059207117999912953e+03
7.011139716393563504e+03
6.913067922060155070e+03
6.236106478140287436e+03
6.124111477303181346e+03
5.670059636060900630e+03
5.146066740143060088e+03
4.500131808802851083e+03
3.447267137174203526e+03
2.645534461638152607e+03
2.357892656113451267e+03
2.024309459313604293e+03
2.352900291245766766e+03
2.526657053454996912e+03
2.831534005222471933e+03
3.396597448985160099e+03
3.569864719650932329e+03
3.806293067626264474e+03
4.060955041385718232e+03
3.963925176743956854e+03
3.863256764344856492e+03
3.615948394854659909e+03
3.557041239406868499e+03
3.382562917555610511e+03
2.361532489900511791e+03
1.802023032188764091e+03
1.151012651467792011e+03
4.794662862722401542e+02
-3.658009210607899320e+01
-5.452596705913131245e+02
-7.705222879435453933e+02
-1.052368546893373832e+03
-1.226815799248259282e+03
-1.613783807730127819e+03
-1.893334459509456565e+03
-1.400464194831200984e+03
1.212599791253404220e+02
7.759045861032293487e+02
9.544101539366992029e+02
1.977782542697379313e+03
3.054232489552091920e+03
1.592963281135305124e+03
-1.764135190436166340e+03
-9.976253438751515432e+02
5.505224044048143242e+02
5.677746897661813819e+02
-3.287130867055716976e+02
-5.121642784485320732e+01
-7.259871899365198260e+02
-1.202121066741608047e+03
-1.491637505920773947e+03
-1.627631691417003367e+03
-1.363106267765676876e+03
-1.282023815415095214e+03
-1.365485024576172691e+03
-7.415464167553615198e+02
-2.521555989354442033e+02
1.865432031567519644e+01
1.467655633919353022e+02
3.406575609695293139e+01
6.585376235789318571e+02
1.003344985825111735e+03
1.648496458248403087e+03
2.110650319857686554e+03
1.574817481500529311e+03
5.481448568122854113e+02
-5.245479359051540769e+02
-1.531238841183725526e+03
-2.202086054578346193e+03
-1.647139446148276420e+03
-1.621357638651165871e+03
-1.411713383613524456e+03
-1.391315837589760122e+03
-1.288211674976082804e+03
-9.473726233648138759e+02
-3.177740768098717581e+02
5.566467055546447682e+02
1.042907476912303764e+03
1.279026266709406400e+03
1.335848580824303554e+03
1.543344341854281538e+03
1.786421584458502821e+03
1.869250892031805506e+03
1.729981322527725524e+03
1.362727489298826413e+03
7.994958862411278915e+02
-1.698059162487269873e+02
-1.352113380411697335e+03
-2.444333873657693402e+03
-3.237439701100589446e+03
-2.928132608835736391e+03
-2.818436476623922317e+03
-2.964422734236412907e+03
-2.702827661571760473e+03
-2.578502139864596302e+03
-2.779410843920116804e+03
-3.256428667403857617e+03
-3.292432301689605538e+03
-2.217440988763831683e+03
-2.051509256081182230e+03
-1.905855691153040425e+03
-1.391344267134443271e+03
-8.228510517207685098e+02
-5.976199463668091312e+02
-6.345920131841625107e+02
-1.224481251320117963e+03
-2.222926140485589713e+03
-3.645915535944226122e+03
-4.520977244158824760e+03
-3.752747789967713288e+03
-4.220717493695597113e+03
-4.489303840130227400e+03
-4.340276085560397405e+03
-4.331295994694079127e+03
-4.599454400780811739e+03
-5.104163897707416254e+03
-4.617969462846288479e+03
-3.575496217965905998e+03
-3.093790406434084161e+03
-2.855208299280398933e+03
-2.625762060363205364e+03
-2.121741345168900352e+03
-1.776006804465814184e+03
-1.814716412225291151e+03
-2.078155647515324745e+03
-2.768468640512950060e+03
-3.454029522239480229e+03
-4.396922942476868229e+03
-5.462856878305086866e+03
-5.627973588120751629e+03
-5.631102564504945803e+03
-5.776411199198809300e+03
-5.010464558749350545e+03
-4.263529269133599882e+03
-4.191547104178702284e+03
-3.989480599493123464e+03
-3.452329919305687781e+03
-2.589828985848272623e+03
-1.945183616905741019e+03
-1.647372975375811620e+03
-1.584515177956475327e+03
-1.687782938655632961e+03
-1.692527307890125257e+03
-2.080107462813807615e+03
-2.400218249849617678e+03
-2.710647748770823000e+03
-3.453740348820969302e+03
-4.110705584526308485e+03
-4.963398668450738114e+03
-5.298266704272070456e+03
-5.572944511284178589e+03
-5.475776649074075067e+03
-5.480950807451470610e+03
-5.171610218580038236e+03
-4.448850279552661050e+03
-4.007834750136072216e+03
-4.049483252800828268e+03
-3.108630454198312691e+03
-2.201268377553568371e+03
-1.407288911731432563e+03
-1.211873094169466185e+03
-4.631145870068511954e+02
-1.890631624264445350e+02
-7.334031592098333476e+02
-1.159970148981014745e+03
-1.213035343657580142e+03
-1.519604837967824324e+03
-2.404624209476260603e+03
-2.926306346313215272e+03
-2.418990503275908850e+03
-3.462171559338106817e+03
-7.409327952748992175e+03
-8.915095760692214753e+03
-8.587501769488149876e+03
-6.437551645323694174e+03
-5.825583144789347898e+03
-5.834882836347829652e+03
-1.536708462341610812e+03
-2.645313916374365817e+03
-1.568869848490637878e+03
-8.394571731051285042e+02
-1.813075367035631643e+03
-2.273063418089900551e+03
-2.664018263931996344e+01
2.594349861967627476e+03
1.557137908772374431e+03
3.710056106456917746e+02
-4.237295835931052352e+03
-6.665086513541605200e+03
-7.662366942088823635e+03
-6.420385750314680990e+03
-1.617901742322437030e+03
-1.263991595740867751e+03
-1.482446508780726901e+02
1.035293305261636306e+03
-6.698340825491069381e+02
-5.057470632128529360e+02
-2.252590733655890176e+01
2.064492991118635018e+03
1.129438191599376751e+03
9.937326646061565043e+02
2.315681224082213248e+03
4.610660464511154714e+03
4.730046877473011591e+03
3.645997430927296591e+03
3.837990709924258681e+03
3.144579761326207063e+03
1.684008851749075802e+03
8.186932810048605234e+02
1.232230006506083981e+02
-1.780958545212318427e+02
-5.427618896431332587e+02
-3.962043864065245202e+02
1.258081518676896167e+02
8.651914168925883359e+02
1.551383972698331718e+03
1.743706390337038556e+03
1.883325030414377125e+03
2.623378942904633732e+03
3.214038221028754833e+03
3.654728765663287504e+03
3.948591442631375230e+03
4.209904411870862532e+03
4.361653580886018062e+03
4.266423692889820813e+03
3.693708427173465225e+03
3.297408027072433924e+03
2.805467736124592193e+03
2.552698366535390505e+03
2.159634453166832373e+03
1.916605673597983923e+03
1.920853688515042677e+03
2.273385170717239362e+03
2.890040874802515191e+03
2.612849298038259803e+03
3.713097591993428523e+03
3.926556761980259125e+03
3.879096107063832278e+03
5.158587079612968409e+03
6.580321941618987694e+03
6.805410182528501537e+03
7.297698397813493102e+03
7.329567612460768032e+03
7.048041176719907526e+03
6.552949645928759310e+03
6.260514292229196144e+03
6.090723013867062946e+03
5.714493744412066917e+03
5.144280100347742518e+03
4.843679096144855066e+03
4.405961701410828027e+03
4.291708600599489728e+03
4.646356960389693086e+03
5.747015935598018586e+03
7.131951480091200210e+03
8.227090783350929996e+03
9.411816882076172988e+03
1.056549212371611065e+04
1.143738469020022058e+04
1.299469995931334961e+04
1.355971961520992227e+04
1.359357875553685881e+04
1.343959972827593083e+04
1.268119656321477669e+04
1.188970834786903470e+04
1.170245026853322452e+04
1.088872480468818685e+04
9.756795930699525343e+03
9.034068943040574595e+03
8.828808891642976960e+03
8.218422498423029538e+03
7.824346892968250359e+03
7.732008447206122582e+03
7.318076185474113117e+03
7.299170582128591377e+03
7.807757521190339503e+03
8.065429532456285415e+03
8.117912998581391548e+03
8.097982990461788177e+03
8.599432355385337360e+03
8.753096442262720302e+03
8.628998315071699835e+03
8.526017028962878612e+03
8.109920318947054511e+03
7.754682245676230195e+03
6.920442835119856682e+03
5.675318286531646663e+03
3.958171143938517616e+03
1.868156983340994884e+03
-8.965826150791000373e+02
-4.078904970326393595e+03
-8.877659577307733343e+03
-9.231634638486988479e+03
-7.662768617080480908e+03
-6.893724208950765387e+03
-7.043188601327126889e+03
-7.336998748081527992e+03
-7.355864012051537429e+03
-6.207195596182861664e+03
-5.508476786667302804e+03
-5.251423133559544112e+03
-1.293301726850246723e+03
5.454769942821723134e+02
3.326515460567085029e+03
4.764119013371987421e+03
4.991815837331796502e+03
6.092027210574469791e+03
6.583473816249641459e+03
7.118060957933035752e+03
7.934640438257171809e+03
8.656070684345933842e+03
9.724987297581828898e+03
1.124818300218910190e+04
1.298562478030938837e+04
1.430227952495881618e+04
1.514313345317686435e+04
1.529723667293606013e+04
1.618261219491237534e+04
1.759641016000679883e+04
1.843681010853514090e+04
1.867490872716036392e+04
1.882290216441497978e+04
1.860509246071546295e+04
1.852081436924745867e+04
1.857029478685132563e+04
1.871272280850998141e+04
1.850932789582871555e+04
1.820533433416199841e+04
1.715503694418738087e+04
1.564684132123566633e+04
1.420512110779847899e+04
1.345218001212319905e+04
1.380340600848720533e+04
1.411517250374019750e+04
1.435495332666767717e+04
1.333724296191192116e+04
1.178355156248230378e+04
8.597372354443052245e+03
5.629206516288986677e+03
3.673579727168538284e+03
2.605992543178556389e+03
6.889523948115805752e+02
-3.120922710985574668e+03
-6.624092240622094323e+03
-9.840029171254234825e+03
-1.379716476979107210e+04
-1.522796380479922482e+04
-1.742398023476529124e+04
-2.158472376355630695e+04
-2.351773303238133303e+04
-2.413855727623206985e+04
-2.405069870684188936e+04
-2.315080214978705044e+04
-2.030640369603314321e+04
-1.794990544274989225e+04
-1.705473008037963154e+04
-1.777622706375522830e+04
-1.753831580731600843e+04
-1.749471628322046308e+04
-2.207010172688022794e+04
-2.826610732536704381e+04
-3.345125719973122614e+04
-3.518733604050119175e+04
-3.671505861043840559e+04
-3.464510740947536397e+04
-3.062735728222681428e+04
-3.000873846219533516e+04
-3.265298009142059527e+04
-3.360799264850746113e+04
-3.219172588334302418e+04
-2.977110848576823264e+04
-2.835714351000354873e+04
-2.941487810444036950e+04
-3.436545572939784324e+04
-4.279301401370342501e+04
-4.926466060212733282e+04
-5.002660379692478455e+04
-4.770709903819050669e+04
-4.679941840706706716e+04
-4.511885253833900788e+04
-3.804169809659833118e+04
-2.994040020361696224e+04
-2.348231392322336251e+04
-2.235590106009519877e+04
-2.532575652279701899e+04
-2.365644760318191038e+04
-1.737456248219660847e+04
-1.144580561106844652e+04
-9.720971724171691676e+03
-9.124906209058946843e+03
-1.116153227765829251e+04
-1.441576110442411482e+04
-1.894847078618872183e+04
-2.363363731162200929e+04
-1.863547515206422395e+04
-7.011992411473672291e+03
4.196725923462167316e+02
5.495245133701067061e+03
7.933453809701902173e+03
8.658012286295630474e+03
1.265069294053491831e+04
1.940916177933022118e+04
2.367097164127568249e+04
2.412151127248923513e+04
2.625116429328492086e+04
2.810538833919345780e+04
2.928155230551062050e+04
3.160494418089793180e+04
3.352680103845279518e+04
3.459234866559570946e+04
3.371570857130707736e+04
3.288095001880108612e+04
3.202514883698182894e+04
3.151934777244438374e+04
3.112850532983342782e+04
3.280160118623562448e+04
3.271058533136248661e+04
3.096330397623959652e+04
2.776759921170919915e+04
2.839229905751074330e+04
3.239124825908496132e+04
3.371225784248006676e+04
3.574100696517572214e+04
3.925720767666346364e+04
4.179164198371711245e+04
4.115983771724872349e+04
3.381424729310310067e+04
3.159850862575836436e+04
3.606646664536305616e+04
4.318992338895572902e+04
5.182542573159771564e+04
5.973865304159861262e+04
6.786155458039579389e+04
7.493932869215545361e+04
8.126723499351691862e+04
8.816103413312595512e+04
9.681499959278867755e+04
1.092188561874479346e+05
1.215881853185429354e+05
1.361671730884103454e+05
1.581009661590306205e+05
1.783148173058611574e+05
1.976552021516913082e+05
2.211751120129344345e+05
2.348878727368528489e+05
2.411958255919190997e+05
2.481402749752070813e+05
2.498675757167486299e+05
2.389843714274420345e+05
2.035559224538556300e+05
1.594334077536013501e+05
1.269020673746859393e+05
9.999599259664234705e+04
7.926547153201988840e+04
6.206562818619267637e+04
4.175689138757956971e+04
2.207703563985374058e+04
3.506501348823971966e+03
-1.435141047361960591e+04
-3.329605985905586567e+04
-5.463638956355115806e+04
-7.388472526355441369e+04
-9.161867282150383107e+04
-1.106875331593111914e+05
-1.293395004556058411e+05
-1.455008354455025110e+05
-1.619417094851952570e+05
-1.757823786177022266e+05
-1.850981511198233638e+05
-1.937182301052055846e+05
-2.061016929646353237e+05
-2.153386480151405849e+05
-2.224731439814878104e+05
-2.289811718963343883e+05
-2.348366655873094860e+05
-2.399426329137262073e+05
-2.405619202878164942e+05
-2.385053619264439330e+05
-2.305137222345037153e+05
-2.190587767258381355e+05
-2.086351861590614717e+05
-2.015377830078348925e+05
-1.936833261906838452e+05
-1.853653892817198357e+05
-1.735616531604994379e+05
-1.588087435294952884e+05
-1.457231833990967134e+05
-1.361974980385016243e+05
-1.307401926441324613e+05
-1.302917776758640830e+05
-1.310206544122055348e+05
-1.307711598596142576e+05
-1.271618110887166549e+05
-1.165917178309793235e+05
-1.115400183943739103e+05
-1.111082705143599160e+05
-1.026054157096420677e+05
-8.686061510919260036e+04
-7.132778667820492410e+04
-5.449595731702847843e+04
-3.806939360522743664e+04
-2.714904658172592826e+04
-1.036094861685738942e+04
4.023882376618157650e+03
1.070443704988668105e+04
2.249282117214852042e+04
3.516012373212198145e+04
3.924745493554290442e+04
5.117492746456727764e+04
6.088965894020882843e+04
6.685869293043015932e+04
7.257823873884664499e+04
7.991252086628430698e+04
8.731976399186467461e+04
9.452529445755625784e+04
1.009924243508417858e+05
1.069074524378555507e+05
1.112118718827993434e+05
1.151170667195108545e+05
1.200312991305345204e+05
1.249728933523264423e+05
1.290833207219141623e+05
1.325319335058237193e+05
1.348182647822701256e+05
1.369337685834771546e+05
1.374597591472002678e+05
1.369196498359750549e+05
1.355119087636126205e+05
1.327428660508545581e+05
1.307208848593188886e+05
1.291164292133485433e+05
1.253999414437482628e+05
1.199737394934626063e+05
1.142692584439407947e+05
1.083410102962026140e+05
1.023684216681797116e+05
9.620692326726978354e+04
9.116102278075275535e+04
8.645318337069974223e+04
7.951185338149886229e+04
7.231249888725086930e+04
6.698160152026596188e+04
6.311350468526238546e+04
5.727856154730084381e+04
5.236730027145969507e+04
4.814914325536265096e+04
4.396245996199038200e+04
3.977579395148920594e+04
3.688169115548919217e+04
3.349300485564810515e+04
3.085081453840683389e+04
2.853245496491652011e+04
2.546136484374458814e+04
2.197601262410005438e+04
1.845160780817803607e+04
1.332926794983863692e+04
9.413221279729361413e+03
1.005977746295512225e+04
1.121783010484963779e+04
1.305241033437702936e+04
1.329854406453627053e+04
1.183118230111829871e+04
7.213067659243430171e+03
2.406186967088684014e+03
-4.578784770622872884e+02
-1.758326558039090060e+03
-2.093198679269681634e+03
-5.026531803954134375e+03
-8.467343160291482491e+03
-1.140764628871316017e+04
-1.437541168392284999e+04
-1.757959849539558491e+04
-2.082806534186277349e+04
-2.383580373396495634e+04
-2.624193535728599818e+04
-2.723448810249058079e+04
-2.861042136585312619e+04
-3.058075833305631022e+04
-3.183352202518370177e+04
-3.164568683399635847e+04
-3.143346301551648139e+04
-3.175192575223530366e+04
-3.126714279668670133e+04
-3.208415381900539069e+04
-3.313308211300464609e+04
-3.360802103537972289e+04
-3.382492964142579149e+04
-3.481189105409319745e+04
-3.570223117232120421e+04
-3.692414840542665479e+04
-3.809883098284668813e+04
-3.908045561586037365e+04
-3.977494613824305998e+04
-4.016040658062810689e+04
-4.029782907722031814e+04
-4.014024160614277935e+04
-4.022381593710025481e+04
-4.069862700118033536e+04
-4.015377010648371652e+04
-3.981320770139341766e+04
-3.984001997940127330e+04
-3.940435915163598111e+04
-3.854417613066591002e+04
-3.727370643969973753e+04
-3.611702268537751661e+04
-3.559311497505782609e+04
-3.516722358711926790e+04
-3.464247680549015058e+04
-3.625312255307354644e+04
-3.892538947995458147e+04
-3.997950534188719757e+04
-3.802153641104557028e+04
-3.310749078916265717e+04
-3.162335069563943034e+04
-3.087302080022142400e+04
-3.039257284960955076e+04
-2.988958265790366204e+04
-2.737177640284765585e+04
-2.617614540327263603e+04
-2.525983434774202760e+04
-2.396346812650026914e+04
-2.344940791372223248e+04
-2.273579439732599712e+04
-2.157933614341855355e+04
-2.055281006692883238e+04
-1.943114887429237206e+04
-1.795606545200120308e+04
-1.680645694613223168e+04
-1.621253013230150100e+04
-1.567449550451337200e+04
-1.481075345313859543e+04
-1.377548261716902198e+04
-1.315858890200772657e+04
-1.293643487813733191e+04
-1.247679774699472728e+04
-1.181924992979129638e+04
-1.067627292560602109e+04
-1.033522469671398903e+04
-9.352174673302339215e+03
-7.977478552371690057e+03
-7.690067713807262407e+03
-7.595269028975413676e+03
-6.037567400743109829e+03
-4.248403669197468844e+03
-3.098987143484846911e+03
-1.457693319109659342e+03
-5.179967361894917985e+02
-4.322631253723800455e+02
6.216538355494446932e+02
2.549389318466220629e+03
2.928365196176102017e+03
4.484125176659727913e+03
6.164478518641718438e+03
6.783230432576281601e+03
6.835105383934189376e+03
6.966097274916909555e+03
8.215701019228341465e+03
1.056787486315393289e+04
1.337812034874320125e+04
1.452812091865323055e+04
1.471493168412888917e+04
1.511934613726019234e+04
1.607560681061119431e+04
1.681701256018627100e+04
1.764045780524125075e+04
1.857750839606716545e+04
1.929786888855402503e+04
1.983855429996191378e+04
2.009639919258041118e+04
1.976724195095721007e+04
1.979289065261158248e+04
2.015619926709718857e+04
2.097884746822661327e+04
2.075579214440720534e+04
2.097005880268168403e+04
2.089774009649516665e+04
2.061342531404504189e+04
2.101856251486936162e+04
2.121817346450731566e+04
2.139098154050701851e+04
2.250563445650354697e+04
2.256295160620420211e+04
2.150185237742321624e+04
1.904490926781258895e+04
1.594045517016530175e+04
1.778560952403007832e+04
2.259788694279829360e+04
1.928060204162485752e+04
2.059436017452304077e+04
1.778570736576343188e+04
1.694918094233057855e+04
1.491646189558285187e+04
1.252008776381002644e+04
1.383624494405930454e+04
1.613113003208480222e+04
1.634721555075599645e+04
1.637575048041598166e+04
1.556043745136130929e+04
1.181352728069215300e+04
1.535416802853694571e+04
1.424713000364104118e+04
1.357732894793546075e+04
1.258781369523849389e+04
1.335399732918823247e+04
8.169640617497605490e+03
9.654236309813219123e+03
9.114538785440525317e+03
5.997472111195837897e+03
8.097275995317578236e+03
1.024633095583220347e+04
8.367930374924133503e+03
7.271413445834111371e+03
6.492591320307378737e+03
4.958026329661589443e+03
1.163219311665122859e+03
-1.095436362237418507e+03
6.625280621210110894e+02
2.250708627026026079e+03
1.985301422339325654e+03
1.010492505653436524e+03
1.805974869159603600e+02
-3.082511267980432308e+02
1.808269817939116422e+02
6.079893983974607181e+02
-7.409807220115742439e+02
-2.586580675825995058e+03
-3.724105173401945649e+03
-4.983465488191536679e+03
-6.313172138015745077e+03
-7.987708538100810074e+03
-9.362464375614979872e+03
-1.113695208280619772e+04
-1.237573243684956105e+04
-1.332472200952576713e+04
-1.344571409355772630e+04
-1.308781271661434403e+04
-1.105222415781785276e+04
-1.011583942612239844e+04
-1.043524732205882901e+04
-9.479966110551740712e+03
-9.291865685738584943e+03
-9.421267253632864595e+03
-9.409396892902179388e+03
-9.452176299693532201e+03
-9.636354575604866113e+03
-1.041641150070043477e+04
-1.090175382221227119e+04
-1.202074475947143401e+04
-1.448373261426163117e+04
-1.574230089145378406e+04
-1.583458869025364038e+04
-1.914386301270058175e+04
-1.918453302204998181e+04
-2.042789369880610320e+04
-1.858263269968596796e+04
-1.565314066994034692e+04
-1.525296962555859864e+04
-1.388356092133656966e+04
-1.240448695335854973e+04
-1.102790022060960109e+04
-1.045666783259227668e+04
-9.673018665678595426e+03
-8.700184694737814425e+03
-7.986119649004821440e+03
-7.371926439129651953e+03
-6.876850130760093634e+03
-7.472438564991986823e+03
-7.749410956224470283e+03
-8.375522221147683013e+03
-9.362663519059355167e+03
-9.745451138254993566e+03
-1.017048726491558773e+04
-9.937327217210433446e+03
-8.190457352043930769e+03
-6.002234318915420772e+03
-4.951088509959256953e+03
-5.247528187362922836e+03
-4.732020176898339741e+03
-4.252892194523467879e+03
-2.699372701575769042e+03
-8.156701410839062873e+02
1.869028317383392732e+02
1.692218622071004575e+03
3.550202191940085413e+03
4.458674761065361963e+03
4.751532481461952557e+03
4.978563127013883786e+03
5.613658412578412936e+03
5.221885177070244026e+03
4.367287565207655462e+03
4.038850454649072617e+03
3.265635409091210477e+03
2.760730515735748213e+03
2.819193746050234950e+03
3.002989145244276642e+03
3.517203529177267228e+03
4.392178373060869490e+03
6.474064997647750715e+03
7.525841696373144259e+03
7.458549888594643562e+03
8.465496309066164031e+03
9.454727225077693220e+03
9.304324432083405554e+03
1.056241849616481159e+04
1.220811927482934334e+04
1.172747210509955403e+04
1.007666031904060947e+04
7.882739259635071903e+03
6.293849992865358217e+03
6.855238433401410475e+03
7.096025981315703575e+03
7.014424181891648914e+03
6.603094992523492692e+03
7.050050986246850698e+03
7.933024419491027402e+03
5.152233268237718221e+03
1.041725912570348328e+03
6.394772763022277104e+03
6.182735686085320594e+03
4.898118404426580128e+03
9.570211521417428230e+03
1.137011860082468775e+04
1.229494619090782180e+04
1.195086101836567104e+04
1.099326344513250842e+04
9.724425023211619191e+03
8.692568553555307517e+03
7.549884925787153406e+03
7.727700754531620987e+03
7.419283544814506058e+03
6.364807737702226405e+03
5.848502388387251813e+03
5.929502095591064972e+03
5.789103856659095072e+03
6.001529262376177030e+03
7.159932561765281207e+03
6.746469834357159925e+03
6.459324875907069327e+03
6.558705164244688604e+03
7.152751704581422928e+03
7.481767550299931827e+03
7.141040341352970245e+03
8.164665592195538920e+03
9.774735217130026285e+03
9.476500994337604425e+03
9.397091412706413394e+03
8.645671709439386177e+03
7.164362626036741858e+03
6.929300654957522966e+03
6.229612458706254074e+03
5.005386449051396994e+03
4.496757231108404994e+03
3.900833177611003975e+03
4.764768603595322020e+03
5.218704085145764111e+03
5.464625464534823550e+03
5.964644280150954728e+03
5.764913221087113016e+03
6.335508455142726234e+03
7.678451252751820903e+03
8.849741266631675899e+03
9.143421253026332124e+03
9.370566792888250347e+03
1.054821813525585821e+04
1.067936219936532689e+04
9.932077745558774041e+03
9.602405658745346955e+03
9.434421888622002371e+03
8.717549971477401414e+03
6.812093983243816183e+03
7.164018473270609320e+03
6.560336791965153679e+03
6.012004867588264460e+03
5.615934652199742231e+03
4.239907103062197166e+03
2.593931479664502149e+03
4.890940492670542881e+03
5.675136539285681465e+03
6.433402077060523879e+03
6.894587694323258802e+03
4.820521629228789607e+03
2.321130659140289026e+03
3.642320695231969694e+03
5.869883742486740630e+03
2.075764267415478571e+03
2.653864925650949317e+03
3.230032337822006411e+03
6.201023256640205545e+03
7.333675730424261019e+03
4.553898226931009049e+03
3.355578074721891880e+03
2.010537084911278271e+03
3.928563706352539157e+03
3.072484492864083677e+03
-1.545788110120615556e+03
-4.054442814412791449e+03
-3.198652051936594034e+03
-4.131556753073882646e+03
1.357504826878392805e+02
-1.880009396448208690e+03
7.579816113320396198e+02
1.563533208901180387e+03
9.564147050141160662e+02
-2.464520353085422357e+03
-1.185391084330646208e+03
-2.022499701099394770e+03
-7.919165176531659199e+03
-6.061497230577116170e+03
-6.269802235417426346e+03
-6.805270063108320755e+03
-8.127015857692885220e+03
-7.817221638925376283e+03
-1.259302194249426793e+04
-1.137669355685945266e+04
-8.968534061481846948e+03
-8.524788406809022490e+03
-7.786434431521121041e+03
-4.677589498419263691e+03
-8.807464414081685391e+03
-7.478246666703060328e+03
-2.948040275894445131e+03
-8.550474372123094327e+02
-6.724557715804205600e+02
-1.214418264427655316e+02
1.948390352685702851e+02
1.702150356964560558e+02
-2.814553976615436568e+02
-8.114859668835001685e+02
-1.440888433091439538e+03
-2.444938662688210115e+03
-3.283715260476975800e+03
-3.080351836230468052e+03
-2.452948241346737632e+03
-2.698638314687269940e+03
-2.374531683306777268e+03
-2.029651722062208819e+03
-1.435053112433397246e+03
-6.209076959883947211e+02
-1.049203123984995500e+03
1.166110914493445534e+03
2.102970458879976832e+03
2.017284173929137751e+03
3.411908456810914231e+03
3.255508768462492299e+03
3.088588852475082604e+03
3.189886620347142525e+03
2.116546302008990097e+03
1.895262470720409283e+03
2.355393890205439675e+03
4.449286706354437229e+02
-1.080756331130397029e+03
-1.629657806440259264e+03
-1.112480267118689426e+03
2.636812540602596187e+02
1.434629762043382016e+03
1.545975576181598854e+03
1.150050671946290095e+03
2.345856763599701651e+02
9.622635648948804601e+02
2.922069674217123065e+03
4.506328808072592437e+03
5.574157948104955722e+03
5.730454947043051106e+03
6.250103077300481345e+03
6.842966635531603060e+03
6.065472666045375263e+03
5.288172047131864019e+03
4.229690734379492824e+03
2.800958983989293756e+03
1.735158616741963669e+03
1.663483805620684734e+03
1.733108486981627038e+03
1.591361481320348275e+03
1.647886074424191520e+03
1.802569828953486194e+03
2.455718967873986912e+03
3.050617180324136825e+03
3.364397692268822993e+03
3.027179884372804281e+03
3.695012301410827149e+03
4.391009565621118782e+03
4.839476028843730091e+03
4.878646812219570165e+03
4.971676640157769725e+03
4.637633859854784532e+03
4.232574749357136170e+03
4.297669145664027383e+03
3.822080660510998769e+03
2.667969473334011127e+03
8.464289404103293464e+02
-6.764020341467016806e+02
-1.053452852718749455e+03
-2.628623292190348366e+03
-5.717952658571580287e+03
-9.451176331022568775e+03
-8.502018311093856028e+03
-6.636388089769677208e+03
-6.026099076469522515e+03
-5.177955933057672155e+03
-4.569793426087268926e+03
-4.643414339077065051e+03
-3.305645972622896807e+03
-1.428285762965637332e+03
5.384813040020844710e+03
6.620779256955858727e+03
5.687474838626271776e+02
-2.705103384365299462e+03
-3.654532118081777298e+03
-4.224192781236499286e+03
-2.298335233634752512e+03
-1.631743733046687566e+03
-5.879497714555752282e+03
-2.404605715614186920e+03
-4.059775223980816918e+03
-6.533971068878384358e+03
-5.738097062544664368e+03
-5.694967398698844590e+03
-5.067403508627809060e+03
-4.392319266258439711e+03
-3.738563222315131497e+03
-2.835017855974017948e+03
4.445388847451265946e+01
4.852927288730432338e+03
6.711564767757900881e+03
7.358411363032659210e+03
6.489560122897765723e+03
5.899097219698997833e+03
5.235024825090451486e+03
4.092400263473713494e+03
3.046261754566834043e+03
2.180550802020533411e+03
1.235268468091046543e+03
4.355161824219304663e+02
-8.545655845914589008e+02
-2.161910735650467359e+03
-2.376432897956401121e+03
-2.035159338050507586e+03
-1.875074158994772915e+03
-1.408076872319904851e+03
1.538365756387542262e+02
1.273701128517166808e+03
1.759552608321786010e+03
1.893453070493158066e+03
2.649439136747350403e+03
3.387515578348132749e+03
3.411712941759873956e+03
2.749064670430649130e+03
