-1.157481118678203757e+03
-1.314789099143572003e+03
-5.207155264928082943e+02
-9.245939647584269778e+02
-3.025410947424326423e+03
-3.030179981266955451e+02
1.541376329511194854e+03
2.132568179432453690e+03
3.110083107590125564e+03
4.763842735778021961e+03
6.258799017739129340e+03
7.401217191661236939e+03
8.504777066969172665e+03
1.056161419268496502e+04
1.230176387441755833e+04
1.336149410995305880e+04
1.388802089611579140e+04
1.418639439377447525e+04
1.437959055972444912e+04
1.402393332829340397e+04
1.364762187783796071e+04
1.311661224294810563e+04
1.291546190245667640e+04
1.313082424501989408e+04
1.299264324030972966e+04
1.240612987288748627e+04
1.251954932141473182e+04
1.254031429969167039e+04
1.307658437813261480e+04
1.394743981933318901e+04
1.431911492091205400e+04
1.449106338025902369e+04
1.456419547349178538e+04
1.383217340593608606e+04
1.276187773392371491e+04
1.284180629716499425e+04
1.389862219344257937e+04
1.425619429025055069e+04
1.500755931303667603e+04
1.645582308569812449e+04
1.739286674961146127e+04
1.733960210771146012e+04
1.691016995270438201e+04
1.619147901710977021e+04
1.560367099612419406e+04
1.503001957005558688e+04
1.411377096041543700e+04
1.288317495050515208e+04
1.191162737151109104e+04
1.169255945813618200e+04
1.245927795860655169e+04
1.326109041021608027e+04
1.284450724768165492e+04
1.220773531725703288e+04
1.252193415578380700e+04
1.221035219151875390e+04
1.109626048993316363e+04
1.019400979088522399e+04
1.002191413601555905e+04
9.467279651274342541e+03
8.814352639688006093e+03
8.247522518478761413e+03
7.118206660907072546e+03
5.659587504116028867e+03
3.907872877789241102e+03
2.321436226513783367e+03
1.897668206375580667e+03
2.597985372446410111e+02
-4.303768896862917245e+03
-5.169738007361831478e+03
-4.457761445206319877e+03
-2.734285424320615220e+03
-5.508827680614780547e+03
-4.045003780611774800e+03
-5.649484429980308960e+03
-9.597860147248231442e+03
-8.046735745827758365e+03
-7.090632081444538017e+03
-5.996049241504716520e+03
-5.514442899669421422e+03
-4.453297021498614413e+03
-4.436208873684104219e+03
-3.676899714959792618e+03
-2.873048306159528238e+03
-3.725308841290787768e+03
-5.240139428403284910e+03
-9.015073442070761303e+03
-8.765661199201298587e+03
-1.244925847533685919e+04
-1.169323381760845587e+04
-9.561943493141890940e+03
-1.177681337942659593e+04
-9.606395832798985793e+03
-9.947220027704559470e+03
-1.164587997527658626e+04
-1.362094685891749941e+04
-1.591304733558367298e+04
-1.824971355762249732e+04
-1.969641593792301865e+04
-2.023745764111912649e+04
-2.028220225106729413e+04
-2.103808296965227782e+04
-2.197469756638221952e+04
-2.241665518942013296e+04
-2.280658801906588633e+04
-2.300509671798487398e+04
-2.240577577596201809e+04
-2.178707565649858589e+04
-2.031528672751268459e+04
-1.814290018635637171e+04
-1.527641745191406699e+04
-1.154235388426948884e+04
-7.087239371106512408e+03
-2.959569463669199195e+03
9.470745121985011110e+02
5.658104344305107588e+03
9.576010476129968083e+03
1.382523861728074371e+04
1.973129965642867683e+04
2.547371324127953631e+04
2.956704580045774128e+04
3.256180912364399774e+04
3.681045872328785481e+04
4.066744066795717663e+04
4.347537844053228764e+04
4.427173313476161275e+04
4.476085201467426668e+04
4.422921180328569608e+04
4.264416657761594251e+04
3.972109186614141072e+04
3.637352758621349494e+04
3.304776710433128028e+04
2.984402484607428778e+04
2.656583557573236976e+04
2.356831866007775534e+04
2.064931773257369059e+04
1.755152188953201767e+04
1.380964791397064255e+04
1.044631149531283518e+04
8.696353865617720658e+03
6.932379094050838830e+03
5.216545035883292257e+03
3.630718743443955645e+03
2.947225576282026850e+03
2.749321253436449751e+03
2.137947630373351785e+03
8.290663600144386010e+02
-5.633562168695513037e+02
-1.447260508645294522e+03
-1.869464158969398113e+03
-1.957923223918759732e+03
-2.289696998475878445e+03
-2.865697388656464227e+03
-3.610996881319304975e+03
-3.709801404129620551e+03
-4.497205651448593926e+03
-5.203237950685705073e+03
-5.214987417844105948e+03
-4.695644195982665224e+03
-3.132469819800858204e+03
-1.085594669558607393e+03
-2.122652206883180170e+01
-8.137290263281767011e+02
-1.639306792835955321e+03
-1.973057422806337854e+03
-1.760342538552901033e+03
-2.275449184384079217e+03
-2.762735443494116680e+03
-2.484556530351147103e+03
-1.888345577597504644e+03
-1.986520533467769837e+03
-2.530407251584990263e+03
-2.699415006545030792e+03
-2.318076330120773036e+03
-1.649679960710220257e+03
-1.186690016599736509e+03
-1.071853032205587397e+03
-6.018220619404239642e+02
-6.820145157549010264e+02
-1.176115741041745423e+03
-1.543783819764890950e+03
-2.081762009172073704e+03
-2.064866943829798856e+03
-1.022838335403345354e+03
-7.535127161991854905e+01
-1.303978918758822829e+03
-5.171341648305357921e+03
-7.542265700385538366e+03
-7.401455563511667606e+03
-6.801592016323575990e+03
-7.196587653365053484e+03
-7.542148407384682287e+03
-4.468872956753934886e+03
3.679388914024078076e+03
7.905607352089463348e+03
7.578814198436960396e+03
6.986264501640319395e+03
6.456211672538444873e+03
8.596661440156976823e+03
1.298048854712954744e+04
1.846469248211436570e+04
2.238362770436275241e+04
2.113747308287423948e+04
1.839280341207542733e+04
1.567466384729257152e+04
1.413855930318442915e+04
1.343394987677141216e+04
1.399674549713588385e+04
1.460086145959444184e+04
1.461145701464036210e+04
1.422589816472036364e+04
1.214533151467838979e+04
8.267692493139606086e+03
5.339173751739985164e+03
5.739839628944120705e+03
9.223406144523572948e+03
1.346873397957555972e+04
1.568569101969246549e+04
1.786402828151785070e+04
2.109344935317519412e+04
2.418997362943780172e+04
2.449979723033641130e+04
2.410333822516385408e+04
2.346965621570058647e+04
2.226449750205863893e+04
2.064845270670771788e+04
2.133839958324009785e+04
2.344449017223537521e+04
2.143466604794710656e+04
1.935796528039248005e+04
2.001430504357841710e+04
2.021130645252589602e+04
2.003109524514236182e+04
1.827700566419011011e+04
1.544347308424906805e+04
1.358279133093439305e+04
1.347985661592198812e+04
1.222775900210187137e+04
8.480831412413117505e+03
5.424455040105135595e+03
2.719145650301434216e+03
3.707148494555385696e+02
-1.150803523237303125e+03
-2.068868103813654216e+03
-2.712238593515769935e+03
-2.178014963167190672e+03
-2.923451153784776579e+03
-4.799111686969647963e+03
-7.492289721599549011e+03
-1.033103342622773926e+04
-1.283912497573132714e+04
-1.465210721722762355e+04
-1.504440829086261147e+04
-1.330835822007654679e+04
-1.009812727389036627e+04
-7.934494980943844894e+03
-6.856302535782603627e+03
-4.902023727029607471e+03
-3.997047680448165920e+03
-4.171611128967384502e+03
-4.708827235961243787e+03
-5.996128652921662251e+03
-7.493892156102297122e+03
-1.024099226386852388e+04
-1.017415164948151141e+04
-1.072500268827808759e+04
-1.004505510019192661e+04
-9.222542264364201401e+03
-8.693068319106761919e+03
-7.980489818042214210e+03
-7.898450528346766987e+03
-7.107205132833470088e+03
-6.140394879580560882e+03
-5.301607709784709186e+03
-4.287996281362086847e+03
-2.735536910609104325e+03
1.587616533647777032e+03
3.168067558181643562e+03
5.285295762936397068e+02
-1.385823433030631577e+03
-2.449403288694774801e+03
-2.769635056365284981e+03
-3.177639607636877372e+03
-2.653529054235157673e+03
-2.784196417803888835e+03
-3.010374917836657005e+03
-2.500565257773955182e+03
-2.098415229287408238e+03
-8.182113081459431214e+02
4.848877204847082794e+03
5.877709808448992590e+03
1.256024664237725347e+03
-2.770004014107050352e+03
-1.123970182286399222e+03
-2.915340062784857764e+02
-8.481422186075442369e+02
4.661788491562856507e+03
7.835210822021026615e+03
1.031013174145895573e+04
1.230854354918202625e+04
1.296760829290214497e+04
1.268576251736457016e+04
1.041546132981901792e+04
6.972265374392755803e+03
4.272779130990345038e+03
3.419298727587191479e+03
3.967899985024225316e+03
4.697021613163434267e+03
6.746452476942001340e+03
8.666951857717527673e+03
9.538343274873208429e+03
9.705022614835012064e+03
9.088508652233440444e+03
8.833044597342317502e+03
8.971060083761905844e+03
8.060102232746713526e+03
6.424553726685920992e+03
5.388659562234942314e+03
4.987629969985398930e+03
4.112839959292089588e+03
2.859675236033472629e+03
1.799905962684120368e+03
8.023446336435695230e+02
-1.796671771390990671e+03
-3.433288354403096037e+03
-4.966745296455625066e+03
-6.171870307077478174e+03
-6.608566994617091041e+03
-6.424940841936504512e+03
-6.332285443037119876e+03
-7.439908622466136876e+03
-8.390054406480317994e+03
-8.810574052766472960e+03
-9.135422159114616079e+03
-9.949326902952010641e+03
-9.923804653048182445e+03
-9.501706803891431264e+03
-8.476826782547817857e+03
-8.295926786121908663e+03
-9.490651705592668804e+03
-1.151585879050910989e+04
-1.358809426283585890e+04
-1.575000575808941176e+04
-1.825020779195920113e+04
-2.057172263333452429e+04
-2.180026397516519137e+04
-2.151721047311842995e+04
-2.008398417001725466e+04
-1.832971639632846927e+04
-1.576254057739662312e+04
-1.414133395923792887e+04
-1.364936899664421253e+04
-1.350875740668132858e+04
-1.436648812078389346e+04
-1.648677049038179393e+04
-1.741166119820317181e+04
-1.642615194288185376e+04
-1.489582055125836632e+04
-1.405450934425021114e+04
-1.394208579620269302e+04
-1.453870347138896250e+04
-1.593166397566698834e+04
-1.814881437697217916e+04
-2.052699363147309487e+04
-2.149109439276357080e+04
-2.170013180450060463e+04
-2.227308938962639513e+04
-2.227306069657222906e+04
-2.162318907418641902e+04
-2.066439513494040511e+04
-1.999618809571041493e+04
-1.922198693092437315e+04
-1.851559673850006220e+04
-1.831077529708210932e+04
-1.879146628703017268e+04
-1.977156029885400858e+04
-2.108164233024656642e+04
-2.297871808186919952e+04
-2.710609341874773600e+04
-3.053767945751027219e+04
-3.196795405468254830e+04
-3.256774261420884432e+04
-3.358204978273496090e+04
-3.458086934464531078e+04
-3.510184717514192016e+04
-3.585186934053501318e+04
-3.572403582866212673e+04
-3.539449280764516880e+04
-3.381156516694145830e+04
-3.230745869843131732e+04
-3.123175663504660406e+04
-3.002393205909411336e+04
-2.451563585479305402e+04
-1.835175981860918182e+04
-1.746709998057405392e+04
-1.936459483831091347e+04
-2.142029113227254857e+04
-2.200016445661043326e+04
-2.241941582486828338e+04
-1.914233442708711664e+04
-1.558739997088635027e+04
-1.401696584743454150e+04
-1.373144456818756771e+04
-1.421836184070750642e+04
-1.374542414813772484e+04
-1.268335340731099859e+04
-1.147206895968435310e+04
-1.031550587700524738e+04
-8.324631463692128818e+03
-6.649611190544948840e+03
-5.175540502392410417e+03
-3.314736031257417380e+03
-1.453686191692559305e+03
2.551048982981711788e+02
1.411995545365880844e+03
2.026285783016774531e+03
3.324122847358621584e+03
4.117541458609347501e+03
3.321635401827200440e+03
3.155543271786088553e+03
4.526204346584064297e+03
4.938416515528672790e+03
5.557848072880799918e+03
5.935175348565436252e+03
6.489826617129589977e+03
6.361162360719605203e+03
6.655465006660425388e+03
7.774927875337855767e+03
1.001877511022778344e+04
1.107819561873914427e+04
1.441216433438610329e+04
1.993557915653786768e+04
2.418731488911208362e+04
2.645320010584056217e+04
3.063697841486792095e+04
3.433440290181937598e+04
3.829020264448875969e+04
4.120501171023760253e+04
4.199545040215846529e+04
4.136302720475132810e+04
4.066105761804783106e+04
4.073986861625759775e+04
4.188502868658752413e+04
4.190315089255970088e+04
4.231660284037348902e+04
4.353952560376012843e+04
4.284107614522198855e+04
4.289897133973448217e+04
4.662464759566239081e+04
5.022295580001068447e+04
5.154685128199981409e+04
5.149480350060853380e+04
5.182832736973202555e+04
5.410184598636550800e+04
5.553764491658576299e+04
5.361182648621998669e+04
4.973944881877014268e+04
4.829660177306382684e+04
4.743280326969812450e+04
3.926598121550716314e+04
2.885775901268569214e+04
2.267165239729338646e+04
2.203613493901173570e+04
2.021579558333676687e+04
1.603931816761321534e+04
1.215447930354927303e+04
1.174519749221137317e+04
1.442639632406898454e+04
1.795117284809428020e+04
2.378480008009442463e+04
3.088230192513966540e+04
3.611977888563647866e+04
3.996950048877490917e+04
4.356275704715986649e+04
4.592206813835629873e+04
4.427491825768314447e+04
4.082186307092135394e+04
3.859067004403754254e+04
4.210044108387308370e+04
4.777724864797050395e+04
5.142223511354462971e+04
5.072367883960869949e+04
4.812500003726165596e+04
4.742745480616857822e+04
4.675453358527322416e+04
4.690928654805661790e+04
4.483568170961758005e+04
3.629257359365140292e+04
2.744102773719279503e+04
2.049531665361624255e+04
1.712813867629755623e+04
1.610516912142981346e+04
1.147113388632733768e+04
5.310809203331589742e+03
-2.068422024992412673e+02
-2.912448539547101518e+03
-2.107756817046135609e+02
-3.485888946360768728e+02
-2.640419910174169672e+03
-1.474891932755212565e+03
1.148210150560845477e+03
3.314627507076902475e+02
-6.292291325041597702e+03
-1.189380639017982321e+04
-1.276951703397625533e+04
-1.782279475167669443e+04
-2.522893773940662868e+04
-3.277308619995722256e+04
-3.944527039985130978e+04
-4.376441661010277312e+04
-4.253333935972043400e+04
-4.299163704736583895e+04
-4.761365645692060207e+04
-5.288466065433634503e+04
-5.795687690441360610e+04
-5.942817751309443702e+04
-5.722823130379045324e+04
-5.630928474599665060e+04
-6.340165848051879584e+04
-7.989754040378560603e+04
-9.283721918623073725e+04
-9.850875271634686214e+04
-1.076354758755421499e+05
-1.185073118864675635e+05
-1.230879466770049912e+05
-1.233176132073339541e+05
-1.286517710911906761e+05
-1.366770964818731009e+05
-1.401411014696584025e+05
-1.372929826048093673e+05
-1.347150564860933810e+05
-1.301472744139988499e+05
-1.265819204944632947e+05
-1.277649846229574905e+05
-1.340991694174538425e+05
-1.401822292315266968e+05
-1.400246771038893203e+05
-1.331962565740752616e+05
-1.285640970314410806e+05
-1.256674579346726241e+05
-1.229898984416244202e+05
-1.178493625313734228e+05
-1.064950469557130564e+05
-9.052779338959256711e+04
-7.807111280834145145e+04
-6.870926636428554775e+04
-6.426644074235020526e+04
-6.807284022577870928e+04
-7.479357316484817420e+04
-8.224739645541291975e+04
-9.403898252473022148e+04
-1.076465921912196354e+05
-1.083701047308202542e+05
-8.860243711596730282e+04
-5.717293457296169072e+04
-2.524737679389768527e+04
-5.163483434721200865e+03
3.729025130475101378e+03
1.265021446491831193e+04
5.202929754349843279e+04
1.019443823467271577e+05
1.171213225128278427e+05
1.137528501184644847e+05
1.064316815185302257e+05
9.765743357158222352e+04
8.436058335845655529e+04
6.646068287525483174e+04
5.189525801897217752e+04
4.115167822694025381e+04
3.034327075322323799e+04
2.276915062445020158e+04
2.140831555438105715e+04
2.404769149823426778e+04
2.972313036091606409e+04
3.869223714017651946e+04
5.325436290083032509e+04
6.028989225733877538e+04
6.282305383031231031e+04
7.509889038319936662e+04
7.926823158075215179e+04
7.745104761455317202e+04
7.826891608182186610e+04
8.123616443867962516e+04
8.392000198651297251e+04
8.264844876629405189e+04
8.101935059581935639e+04
7.358241750448441599e+04
6.572334833249128133e+04
6.280050678547152347e+04
5.919110872572988592e+04
5.145817539933681110e+04
5.677948112027801108e+04
7.302658969982886629e+04
9.082998956282521249e+04
1.091139621680222044e+05
1.317307170173384366e+05
1.561583248791650112e+05
1.853756989776534610e+05
2.053655103511260822e+05
2.115292083452234510e+05
2.158780404163563217e+05
2.131731390992102970e+05
2.010013402331254329e+05
1.878112135417760001e+05
1.703432038818328583e+05
1.571385907927359804e+05
1.454694875707207248e+05
1.305669524363216333e+05
1.147259439890130016e+05
9.926519774860919279e+04
8.124137913020195265e+04
6.330510793476722029e+04
4.672260855547599203e+04
3.780881826333681238e+04
3.366068943623219820e+04
3.601606967591361172e+04
4.370466041508796479e+04
5.606111515348829562e+04
6.700495599461611710e+04
7.747761938247623038e+04
8.617943833161542716e+04
9.226646031430871517e+04
9.588559072716131050e+04
9.526674342357637943e+04
8.920869275639667467e+04
7.979609452757560939e+04
7.132053941321671300e+04
6.584251716104171646e+04
6.026736638251035038e+04
5.389840456596853619e+04
4.545700815089176467e+04
3.743446154804617254e+04
3.314607992482916598e+04
2.608003274489750402e+04
1.174738851201591024e+04
-2.899505008144144995e+03
-1.269866579346627623e+04
-2.164097213016306341e+04
-3.299143145700734021e+04
-4.497704022392687330e+04
-5.288982253031341679e+04
-5.857086960037968674e+04
-6.431626215792241419e+04
-6.911813237248369842e+04
-7.392056268666796677e+04
-7.582480219286571082e+04
-7.872585448973783059e+04
-7.979368089949575369e+04
-8.019132986864809936e+04
-8.248203005505750480e+04
-8.535755286165114376e+04
-8.882466209404227266e+04
-9.178412328333854384e+04
-9.348962490367995633e+04
-9.563293877497619542e+04
-9.832832809931844531e+04
-1.023103213509614579e+05
-1.051564011550106079e+05
-1.071961146284598362e+05
-1.091126903351543733e+05
-1.116992342662398150e+05
-1.133748832592334948e+05
-1.154206531218443415e+05
-1.169334442923280294e+05
-1.175990438324605202e+05
-1.188831520789867645e+05
-1.186213026578926801e+05
-1.173069019062473817e+05
-1.174082400925781112e+05
-1.175005230487331864e+05
-1.175087574049806281e+05
-1.169957772193381970e+05
-1.159702617535118334e+05
-1.151048765503298928e+05
-1.141020557709259447e+05
-1.124639551746505604e+05
-1.099037871059456520e+05
-1.063346534672081325e+05
-1.019353595345895737e+05
-9.663268307780018949e+04
-9.188015556983757415e+04
-8.672118460044577660e+04
-8.141000455765458173e+04
-7.734571580899035325e+04
-7.327139283511955000e+04
-6.773096937776722189e+04
-6.209111432134335337e+04
-5.666059720081196429e+04
-5.146102114778320538e+04
-4.659462189476015192e+04
-4.174728572434459784e+04
-3.703601362419476209e+04
-3.206456923035605359e+04
-2.683763428870232383e+04
-2.112558426130522639e+04
-1.488051543507962197e+04
-9.403409511682259108e+03
-5.353301365321773119e+03
-1.834102263101906601e+03
8.424054763088400932e+02
3.789636287508780697e+03
5.870097287737953593e+03
5.421402335737720932e+03
8.425518318694137633e+03
1.301624801478295194e+04
1.554022216518101595e+04
2.015951248562417823e+04
2.490455423503025668e+04
2.839568474357892410e+04
3.299050691403177188e+04
3.718139851751921378e+04
4.133502077124893549e+04
4.474523317612049141e+04
4.646612958297665318e+04
4.872356228499129793e+04
5.207854354738839902e+04
5.503786230700546730e+04
5.684709919456942589e+04
5.740631860738348769e+04
5.723039000689107343e+04
5.753572792814593413e+04
5.777702036285261420e+04
5.830878880584405852e+04
5.840421948389975296e+04
5.766350171337290521e+04
5.671908986059251765e+04
5.373128394857296371e+04
5.141448010223924211e+04
5.190632765562320856e+04
5.295642411305990390e+04
5.334535789708872471e+04
5.290385105210058828e+04
5.236281530501136876e+04
5.206816900101565261e+04
5.196554263425389945e+04
5.192905750119182630e+04
5.176310711834898393e+04
5.124541886624732433e+04
5.067687496721185016e+04
4.925619257579622354e+04
4.790676340261245787e+04
4.628403109793737531e+04
4.522436078023603477e+04
4.493228338598124537e+04
4.347671013107760518e+04
4.153909829386450292e+04
4.158364913366956898e+04
4.201022945060101483e+04
4.399574641191646515e+04
4.802854108072853705e+04
5.216875474113626115e+04
5.832930928884905006e+04
6.641579080374166369e+04
7.472342830619313463e+04
8.481797349911447964e+04
9.452615149021189427e+04
9.918509622125323222e+04
1.002099171630733181e+05
9.950905923417772283e+04
9.746315753534926625e+04
9.598624149896841845e+04
9.404382439571464784e+04
9.101302650801705022e+04
8.728882192571960331e+04
8.267593082834035158e+04
7.741484475455117354e+04
7.213181578339354019e+04
6.763260797282936983e+04
6.287642540994045703e+04
5.651363572839587869e+04
4.869216092478825158e+04
3.987770412406832475e+04
3.034882509707316422e+04
2.472297560803089800e+04
2.050937846101157265e+04
1.868095092844965257e+04
1.520981536469990533e+04
1.614101778762646063e+04
1.334406558598885385e+04
1.229614969176240265e+04
1.434322445005036388e+04
1.019450086890760576e+04
8.383138963111017802e+03
3.891912865687100748e+03
-1.575599366781427079e+03
-5.538528197912408359e+03
-1.101338685944109238e+04
-1.398033077611879344e+04
-1.929681328780319745e+04
-2.140326136923701415e+04
-2.250084236319864067e+04
-2.680750486843070030e+04
-2.746665528448257464e+04
-2.721540841775059016e+04
-3.212309600396771566e+04
-3.242146600980203220e+04
-3.044241709622280541e+04
-3.349597607438727573e+04
-3.196248443796150605e+04
-3.330574276105873287e+04
-3.466957139436461875e+04
-3.131327661984106089e+04
-3.078821084125106427e+04
-2.990042508881440517e+04
-2.981171236426280302e+04
-3.380123412874680071e+04
-3.484528493882433395e+04
-3.240191881844597810e+04
-3.520140700054553599e+04
-3.566528776888890570e+04
-3.323104220408255060e+04
-3.143281003243001760e+04
-2.880896853576672584e+04
-2.560883963811666035e+04
-2.384655143554697497e+04
-2.247904997841166914e+04
-2.169292522527485562e+04
-2.217564876965374060e+04
-2.326288201475877213e+04
-2.414601330185122060e+04
-2.610232144381555554e+04
-2.862620857206957589e+04
-3.084679434312126250e+04
-3.280511429001470970e+04
-3.504180140068518085e+04
-3.694256288409538683e+04
-3.858185501644988108e+04
-3.968737620483281353e+04
-4.108011696433593170e+04
-4.193303061506465019e+04
-4.225897588412365440e+04
-4.340188172316113196e+04
-4.428987211238150485e+04
-4.504399043757069012e+04
-4.556135451718211698e+04
-4.681027190947393683e+04
-4.680462297320046491e+04
-4.578902904089196090e+04
-4.561563484083492949e+04
-4.556060804314417328e+04
-4.535526357999674656e+04
-4.503250499933355604e+04
-4.482184778540400293e+04
-4.388402551603877509e+04
-4.301247495349864039e+04
-4.131845727131739841e+04
-3.925338166270239890e+04
-3.849682004878009320e+04
-3.838008538956332632e+04
-3.793574789782478183e+04
-3.713603698031652311e+04
-3.603434683411200240e+04
-3.493094855787030974e+04
-3.324455592500745115e+04
-3.098993074995081770e+04
-2.872301228251238354e+04
-2.716810711853398243e+04
-2.507588108411697249e+04
-2.285231001691663914e+04
-2.097037109079165748e+04
-1.888356571413960410e+04
-1.723538240787478207e+04
-1.544760752810832491e+04
-1.394229995883216179e+04
-1.244241493771857677e+04
-1.124996024741022848e+04
-1.015188522221562198e+04
-8.239861242837127065e+03
-6.076588560482899084e+03
-4.370921688719003214e+03
-2.132221695262857338e+03
-1.456320304000009003e+02
1.078503749595033696e+03
2.339809597595511605e+03
3.255984304076756871e+03
4.001318504208894865e+03
5.375060778730803577e+03
7.051629269407635547e+03
8.223494021348373280e+03
9.189354332742090264e+03
1.041520702411139246e+04
1.190813554541588564e+04
1.387029666047328283e+04
1.551655076149791603e+04
1.611560339880491483e+04
1.593144537618583490e+04
1.601926169365462920e+04
1.563543951992193433e+04
1.597909721039572469e+04
1.595891893806119151e+04
1.422819773224056189e+04
1.269380686898182648e+04
9.670177984172543802e+03
9.135301783106608127e+03
9.378565670814939949e+03
9.708552011831745403e+03
1.037470956667619612e+04
1.120717236082870295e+04
1.166417057902650413e+04
1.218500519411140704e+04
1.276400646469633284e+04
1.214555796657463543e+04
1.191269218049965639e+04
1.191287893344739859e+04
1.103029487212425556e+04
1.121717998083417115e+04
1.544993525115253578e+04
1.678496053736668182e+04
1.515572579840600520e+04
1.249449494438925649e+04
8.369474616915682418e+03
7.556015741402674394e+03
1.068551572494168613e+04
1.513351702820353239e+04
1.623928518672119935e+04
1.670004097460811681e+04
1.703607850369516018e+04
1.733977819919873218e+04
1.769933441211194440e+04
1.787802346513693192e+04
1.765002092295949114e+04
1.763045511550857191e+04
1.736051565970012598e+04
1.690523361821343133e+04
1.678660179424172384e+04
1.607780089452761786e+04
1.541089141990977623e+04
1.480691096300826757e+04
1.440783661908014437e+04
1.386655818451662526e+04
1.314406310578888952e+04
1.263132249718526327e+04
1.183514585107067796e+04
1.152334502828963014e+04
1.126665255992169477e+04
1.051579328518708462e+04
1.002643354118288880e+04
9.955313065358666790e+03
9.687074668872663096e+03
1.013731622252903981e+04
1.031180091892747987e+04
1.059311188501310244e+04
1.000064280234965372e+04
8.657888550926971220e+03
7.099360406458726175e+03
4.560533154248186293e+03
2.318849596870808000e+03
9.947769239646181632e+02
-4.102256318798160919e+02
-2.108841929870313379e+03
-3.471830602102852481e+03
-4.159033287481608568e+03
-4.119224966129730092e+03
-4.662097167483034355e+03
-5.088307307124477120e+03
-4.854502469527383255e+03
-5.360165280679403622e+03
-5.754172279657464969e+03
-5.659082167594054226e+03
-4.864476917216683432e+03
-4.479951749333005864e+03
-4.910786825792290074e+03
-5.439383081077457064e+03
-5.235779504220463423e+03
-6.668769010431913557e+03
-5.981456178337301026e+03
-5.215121149135214182e+03
-4.622875535723365829e+03
-6.250851659747074336e+03
-7.792102973941770870e+03
-8.921624226335561616e+03
-9.999508009241109903e+03
-1.071891702353080109e+04
-1.067801497917541019e+04
-1.045279511687235026e+04
-1.072027375091791873e+04
-1.148249543751752753e+04
-1.149261188566215242e+04
-1.092981415432967333e+04
-1.095232741426523899e+04
-1.170032214667493463e+04
-1.197888850159712092e+04
-1.222821198286146500e+04
-1.208438853787141852e+04
-1.171167593275708896e+04
-1.202548523726077292e+04
-1.250609674880582497e+04
-1.269381938795818860e+04
-1.371493159094814837e+04
-1.401468721553321666e+04
-1.409136489660838015e+04
-1.494924447976056945e+04
-1.547155646019184132e+04
-1.514151135504988088e+04
-1.467034885289668273e+04
-1.413036262729170085e+04
-1.339582377690105022e+04
-1.290200182431080611e+04
-1.216912921386561720e+04
-1.167954152873088969e+04
-1.128158248805057337e+04
-1.076238958965708116e+04
-1.011417608000226573e+04
-1.048045376007220148e+04
-1.105755586616175606e+04
-1.146289543817552112e+04
-1.184299438313434985e+04
-1.187020291875110888e+04
-1.213705338123858382e+04
-1.249410537041230964e+04
-1.305070275182331170e+04
-1.289848497658873384e+04
-1.252881611558316035e+04
-1.238260204137899200e+04
-1.206578206961977230e+04
-1.134942199635930774e+04
-1.038253217356970345e+04
-1.000320196767004563e+04
-9.976483794050382130e+03
-9.833409437050995621e+03
-9.450016739674631026e+03
-9.161363683936624511e+03
-8.631387048101096298e+03
-8.421091060863225721e+03
-8.171512798672251847e+03
-7.483619471267835252e+03
-7.769268693872090807e+03
-9.909393083415960064e+03
-1.035293006963890366e+04
-7.264433971253587515e+03
-6.581724229227566866e+03
-6.195251733000913191e+03
-5.641086257695221320e+03
-4.948982199829788442e+03
-4.327320864452468413e+03
-3.686800549650890389e+03
-3.597709211419628900e+03
-3.550959026089682084e+03
-3.244110157380073815e+03
-2.868400836178037025e+03
-2.071349115119431644e+03
-9.438105269146163891e+02
2.011570404089041801e+02
1.522855313401319791e+03
2.999327666892639627e+03
3.200775083972689117e+03
1.788155709136216956e+03
9.234891112506036279e+02
8.538486570990183964e+02
5.653737708487146847e+02
5.082631191919546723e+02
1.054774181903150065e+03
1.236034607186367339e+03
1.607649693069655768e+03
2.070444606461993317e+03
2.495866632811398631e+03
3.296292272406938082e+03
3.844121170147699559e+03
3.645935898114568317e+03
4.390273164400017777e+03
5.112991905788952863e+03
5.571059631368838382e+03
6.429349965986984898e+03
7.175844747957643449e+03
7.231417662816118536e+03
6.885533717920110576e+03
6.394023228686562106e+03
5.789165782588438560e+03
5.458808726818390824e+03
5.256925258927696632e+03
5.435850706597306271e+03
5.345745083253223129e+03
5.476691739695186698e+03
5.566870517848502459e+03
5.907602130014374779e+03
6.184147493171864880e+03
6.522624294082327651e+03
7.135331444950995319e+03
7.788568086170691458e+03
8.194496754750136461e+03
8.298292678265781433e+03
8.423238557316613878e+03
8.184439281760671292e+03
7.911024440241707453e+03
7.812079107470216513e+03
7.088750377059971470e+03
6.424217950411467427e+03
5.497503611734883634e+03
4.709691623822126530e+03
4.007924865271793806e+03
3.271323289651204050e+03
1.357894201578940056e+03
-2.049081248028992377e+03
-4.064518710656381245e+03
-3.370428355164661752e+03
-1.016622373288794421e+02
1.004880798697759360e+03
-3.457357384204623258e+02
3.470534753020181142e+03
2.718720467783451568e+03
4.803743716254643005e+03
4.364602693536248808e+03
6.507241708445322729e+03
3.980632347368967203e+03
4.573872778069179731e+03
5.578029724895624895e+03
2.125023885031372174e+03
3.095811124361481234e+03
7.893434415176224093e+02
-7.814549728764760630e+02
1.022357770969251533e+03
1.267729781229853870e+03
-1.233459069813994120e+03
-2.389193807204607765e+03
-1.075555850653806544e+02
2.603810534357400002e+02
-2.521430901212364006e+03
3.694996449820500573e+01
-7.825209444817309077e+02
1.547032518948014967e+03
2.812505778814442237e+03
2.990797035662698363e+03
3.137846797825409340e+03
2.740528021753415942e+03
3.010670818722415788e+03
2.693128887669032338e+03
1.897820421494189759e+03
1.360558007890289673e+03
9.901985384273290265e+02
-1.483074590147544427e+02
-1.418094415096690000e+03
-1.611253193567370317e+03
-1.214851381295364490e+03
-3.360890313574807919e+02
-6.261233359569077948e+02
-5.400474026001455741e+02
5.400426780143417318e+02
5.599956839949659297e+02
6.256972972765876193e+02
2.660201620393186772e+02
-6.191581119923104097e+02
-1.729879273183100395e+03
-1.814123918618427979e+03
-4.815921755133540216e+01
2.244798280856281963e+03
2.748497001658688987e+03
2.089362579851056125e+03
1.354965738443725741e+03
4.524640307452709749e+02
-9.101346297305366306e+02
-1.066057531812381967e+03
-1.071580285506862310e+03
-1.550868936452145817e+03
-1.603034635716785260e+03
-1.065209756953749547e+03
-1.242456579204233549e+03
-8.199408192640527204e+02
6.014039784943975775e+01
-3.117280283177346334e+01
7.550682293986290006e+02
1.619846166433062990e+03
2.474969031676659597e+03
2.492118578965954384e+03
2.487466676387739881e+03
3.298036538726777508e+03
3.396335005272095259e+03
2.885326483786613153e+03
1.945061325377675530e+03
9.242372170271315781e+02
9.244382382608555417e+02
1.059497748030132698e+03
7.805361839421602781e+02
5.722559815229312790e+02
9.284506927795760021e+02
1.338019600857533305e+03
1.871868016454025110e+03
2.392932873563384419e+03
3.037174856303590332e+03
3.376485787825136867e+03
3.898822736180833544e+03
4.222155284056662822e+03
4.480339536768707148e+03
4.628360396900183332e+03
4.737153532289858049e+03
4.848634071788609617e+03
4.178744292858460540e+03
3.580407073107980068e+03
3.548545086223942690e+03
2.938083613043566402e+03
2.564042757530614836e+03
2.106320138892721388e+03
1.887835990877489849e+03
1.851605070363890945e+03
1.909600605726601088e+03
2.130731374811499336e+03
2.090023772209612616e+03
2.781433324260613972e+03
3.434956236378477115e+03
3.551586372350222973e+03
3.538415735114913332e+03
