-7.534529186693236625e+03
-6.246233686801894692e+03
-5.784582537050306200e+03
-5.678339455245243698e+03
-6.556144992798237581e+03
-7.646584556044513192e+03
-8.415378695744289871e+03
-8.792096465573191381e+03
-9.049339512281565476e+03
-9.465820030721937655e+03
-9.731154473201233486e+03
-9.846996728169900962e+03
-1.059401059754007110e+04
-1.267380544406544141e+04
-1.476295984522194522e+04
-1.444309290328082352e+04
-1.407587240808007664e+04
-1.502795572668164277e+04
-1.633001368563043980e+04
-1.555068908796641335e+04
-1.370854695104700295e+04
-1.304221027719761696e+04
-1.254633142959595534e+04
-1.135055994859460225e+04
-1.124253025039588283e+04
-1.134982061397213874e+04
-8.460143706096792812e+03
-5.253164547235237478e+03
-3.879505507931266948e+03
-3.061822623764297532e+03
-3.141914508408774509e+03
-1.196465964902882888e+03
1.057037873984259022e+03
1.991935738239569218e+03
2.766493451683359581e+03
3.602967502081478415e+03
3.658667672712926105e+03
4.517937610894465251e+03
5.995061439999709364e+03
7.502287149531185605e+03
8.549845648976976008e+03
8.306079079681059739e+03
8.549259889102424495e+03
9.845636070378288423e+03
1.082446225451006467e+04
1.176001952252239789e+04
1.246758778103862824e+04
1.332843647310616325e+04
1.343178238683830386e+04
1.253176331478255815e+04
1.193460302281092663e+04
1.115257528058398202e+04
1.048384615417888199e+04
9.875576163744210135e+03
8.536925461276618080e+03
7.585046833502783556e+03
6.524980295097461749e+03
4.635926671845149940e+03
3.768052541094697972e+03
4.529440249392058831e+03
5.156093560655101101e+03
5.293099258217323950e+03
5.216763628162697387e+03
5.818236522531309674e+03
6.251575767134767375e+03
6.090815153484187249e+03
6.742965277575438449e+03
8.183087953630388256e+03
9.162205654491534006e+03
1.049733866932883393e+04
1.132348059222374468e+04
1.163062156729199705e+04
1.095581908345498960e+04
1.026904370884102536e+04
1.025025745616756831e+04
1.017131844304063816e+04
9.602235923047192045e+03
9.049168511778916582e+03
8.190938443957140407e+03
8.077384177876608192e+03
7.252331444017267131e+03
6.750494568478882684e+03
6.249720564441601709e+03
6.046904340032692744e+03
5.694897970213753979e+03
5.165485603350421115e+03
4.822427739895490959e+03
2.758598373747104233e+03
1.109889036611888059e+03
-9.520096271336802829e+02
-3.701421972667863884e+03
-3.892575180368910424e+03
-3.684564433006537911e+03
-3.648876165019486507e+03
-3.428734076352545344e+03
-3.367304542516405036e+03
-3.150871137921042191e+03
-2.397709340866706043e+03
-2.006048166353837587e+03
-2.129226004130111505e+03
-2.287656771939315149e+03
-3.018651129628675335e+03
-2.857538087198890935e+03
5.535039293283567474e+01
-4.783213433139715107e+02
-3.668828717750475789e+03
-4.777479459464607316e+03
-5.548587037730716474e+03
-5.774538225320683523e+03
-5.605689718662115411e+03
-5.807307777459524004e+03
-5.794745932726224964e+03
-5.486471105499973419e+03
-5.766862107298027695e+03
-6.185319936317406246e+03
-6.508175735780018840e+03
-7.101703444219300764e+03
-7.771354412450003110e+03
-6.178567889023955104e+03
-7.845838356011258838e+03
-1.053256582137981604e+04
-1.091014267827569165e+04
-1.077684804848577369e+04
-1.066702486773804230e+04
-9.732039643293644986e+03
-9.216296301347107146e+03
-9.001324123816630163e+03
-7.723501336505344625e+03
-4.064197838570279600e+03
-3.207922141299988652e+03
-3.236953704888591801e+03
-3.146589552542401179e+03
-2.446250486442405872e+03
-1.884417946182095875e+03
-1.075538461660334406e+03
-7.069727791766217706e+02
-1.032073937949196534e+03
-1.057206980846891383e+03
-1.592810618812495250e+03
-2.696164103452887502e+03
-3.385616739780861735e+03
-3.405590505725833737e+03
-2.591461216739211523e+03
-1.874594151658251349e+03
-1.660403113691233784e+03
-1.694283564749841617e+03
-1.997559038868971356e+03
-2.446572846768291583e+03
-2.090635132001979400e+03
-1.702039563493293372e+03
-1.232113712255405744e+03
-9.060837387587932881e+02
-2.363504951296584409e+02
4.121576057065541931e+02
1.640340824445295311e+03
2.454422510430168131e+03
3.311104622863106215e+03
4.385168507416338798e+03
4.514284748011814372e+03
4.276636069243905695e+03
3.667570123596885878e+03
2.877694393344952914e+03
2.190109990112141531e+03
1.435430633577434719e+03
1.062787317706794511e+03
1.280642551761813365e+03
1.691977337165081281e+03
1.825596032365469000e+03
2.096253087683349349e+03
1.908065564880690545e+03
1.552143248103077894e+03
1.421848837998969429e+03
2.042024953885336572e+03
2.564582880761247907e+03
2.917977438873096162e+03
3.657853431666349479e+03
3.331809996570430030e+03
2.584647199256834028e+03
1.291915986272690134e+03
8.688041771852047077e+02
2.432008464348903090e+02
2.035390738088249218e+00
-3.328896345467059064e+02
-2.403719273561239049e+02
-2.995446964386035802e+02
2.653755662299041163e+01
2.858364631184963969e+02
9.942729856535829640e+02
2.229834154632714217e+03
3.495519112064655019e+03
3.780387901576619242e+03
3.343548496469789370e+03
3.510834656891752275e+03
3.560142067611943276e+03
3.820678761895795105e+03
4.421596655457256929e+03
4.404692883666062698e+03
3.608998111238864567e+03
3.107566167247999601e+03
2.604516057313312103e+03
1.655951126923721404e+03
7.439760883771410818e+02
-1.132905312537505296e+02
-8.587940047666894827e+01
-4.268045486241036883e+02
-6.349082424971277305e+02
-1.477079426976535160e+03
-3.427241836995378435e+03
-5.811226551765809745e+03
-6.531884314697081209e+03
-6.343044974802013712e+03
-6.093626970856905245e+03
-6.516549629928549621e+03
-7.126643776301833896e+03
-8.137780717844506398e+03
-6.744880620837338029e+03
-4.822886295434083877e+03
-4.552484118218980257e+03
-4.039627489974461696e+03
-4.234150370018081048e+03
-5.411715099124319750e+03
-5.523341116855144719e+03
-3.412138651310006480e+03
-4.512963766682227288e+03
-6.501572047601389386e+03
-6.594749748883387838e+03
-5.720404813869416103e+03
-4.632385440847320751e+03
-3.300530849253752422e+03
-1.021595750496993332e+03
3.260641172880799786e+03
7.118351329234771583e+03
7.501734848482854431e+03
7.152960750704330167e+03
6.918164054051030689e+03
6.633525939440696675e+03
5.890252253182873574e+03
4.860527083108666375e+03
4.663436594075114954e+03
4.659209794356675957e+03
4.225046226269427279e+03
4.247126417209361534e+03
4.866694034972866575e+03
5.033826008970992007e+03
5.164508557584400478e+03
5.334873203335755534e+03
5.824230383362998509e+03
6.198993485596134633e+03
6.127321024479900188e+03
5.558306770696010062e+03
4.812053143888892009e+03
4.013630980328965052e+03
3.547271930536401669e+03
3.001270972285030439e+03
2.422867178903269632e+03
2.399154181996092575e+03
2.577279437819374380e+03
2.419331121398076448e+03
1.927407496856867283e+03
1.634629952442777721e+03
1.367190671189020804e+03
1.138294777110195582e+03
6.849818126098494986e+02
7.973945011780442655e+02
1.235668202058018551e+03
1.078884950276334848e+03
7.641508390085687097e+02
5.228157001173714207e+02
2.180408708712004398e+02
2.849420528052813211e+02
2.786353249946851065e+02
4.819462137088729037e+02
-2.920808240160475222e+01
-8.963934595317375624e+02
-1.576216517083801818e+03
-1.964496921564398235e+03
-2.134378979789164987e+03
-2.407814377097883153e+03
-2.516443774694430886e+03
-2.435244696055131499e+03
-2.823411982067847021e+03
-2.837626232120715940e+03
-2.637627470411376635e+03
-2.256416830795383703e+03
-2.033238946210125050e+03
-1.760875028874602549e+03
-1.871331801117397617e+03
-2.243510989967312980e+03
-2.152612414244563752e+03
-1.825561842870743476e+03
-1.692182989130717488e+03
-1.784547140064892346e+03
-1.483556186400626984e+03
-7.651517194013442804e+02
-5.032305389948068068e+02
-9.594959978168094494e+02
-1.729003831937288169e+03
-2.055866072369601625e+03
-2.084972450780468080e+03
-2.017218137242298553e+03
-2.200603138273599143e+03
-2.544032312207657014e+03
-2.707443248086250151e+03
-2.529797373737636917e+03
-2.052902879934733392e+03
-1.940582777248192542e+03
-1.682649786505293832e+03
-9.380092919494561556e+02
-4.148831497418434822e+01
2.690552219854677105e+02
3.557570332249924832e+02
1.008484812094535528e+03
3.069751966754381556e+02
-7.768557257986908553e+02
-1.598956977820988868e+03
-3.029326570997905037e+03
-4.673860496360236539e+03
-6.021599969830225746e+03
-6.188539173993113764e+03
-5.844673706298428442e+03
-5.488000596645027144e+03
-5.460400356881958032e+03
-5.961749992163446223e+03
-6.651012331640223238e+03
-7.407135780976749629e+03
-8.504095528523346729e+03
-9.473926262098470033e+03
-9.614571210727030120e+03
-9.134047761844341949e+03
-9.117260347187822845e+03
-8.915025686804192446e+03
-9.855455594995313731e+03
-1.047059628922555930e+04
-8.474375584201738093e+03
-6.407826308691825034e+03
-4.936823672764919138e+03
-2.942406351219356111e+03
-1.977605020208051428e+03
-1.522385839495754453e+03
-6.699313990565004815e+02
-9.542576745239620095e+01
5.993171439635838169e+02
7.223510579051401237e+02
1.214688751847916365e+03
2.780419281048224093e+03
4.082385240095858080e+03
4.240413034893625081e+03
4.231810345935456098e+03
3.980834951167235886e+03
3.165524572518287641e+03
2.679498175005675876e+03
2.636908751617015241e+03
2.432681760670245239e+03
2.172007185451477653e+03
3.070589689249599815e+03
4.151870808765470429e+03
3.956005623376491712e+03
3.502084147930632298e+03
2.759520110296960866e+03
1.514910306335808855e+03
2.202987032284661666e+02
-3.469540597406138431e+02
-6.566464439856515583e+02
-4.967477478755623679e+02
-1.027177279248874811e+03
-1.516041076174381715e+03
-1.006345067198744573e+03
-4.619381961862985690e+02
-6.019795521142370944e+02
-9.283347773688224152e+02
-1.681758740497481085e+03
-1.523430211984670677e+03
-3.015738983428900042e+02
1.003934006626554662e+02
2.232927956713439528e+02
-2.482243275715262882e+02
-8.806823212744155853e+02
-1.840899529326643915e+03
-2.284947151138100708e+03
-2.273680464268076776e+03
-2.294155985345259069e+03
-2.060348018314218734e+03
-2.161446400719803023e+03
-1.776244536994238388e+03
-1.290152266229662928e+03
-1.213175699946693157e+03
-3.371032105306325093e+02
4.789791277315282514e+02
1.291983432806014662e+03
1.396805242224290623e+03
1.443409085277549593e+03
1.554746895245205906e+03
1.726805313646752893e+03
2.467615735553399190e+03
2.607181982899383456e+03
3.048498470627626830e+03
3.584628607537989410e+03
3.773537171363715061e+03
4.233208664136823245e+03
4.512607993286071178e+03
4.976636952498822211e+03
4.753316111282452766e+03
3.818709170324116258e+03
3.126803048869912345e+03
2.423496233008526815e+03
2.141669655274601610e+03
1.787290419723532750e+03
1.291268245990848754e+03
-1.092462429358575264e+03
-1.467041971942298915e+03
8.555921735421736685e+02
5.403185103906769200e+02
1.500791333908861418e+02
-2.580160557036750561e+03
-2.638514961271588618e+03
-2.890432523731399783e+02
-7.027620419148421433e+02
-2.596605576982565253e+03
-1.387591375275042310e+03
-3.107663945616144701e+03
-1.853786562808645385e+03
-4.999007518763973167e+03
-3.981456659740453233e+03
-2.759154437451741160e+03
-2.010118716488084374e+03
-2.154185697551040164e+02
-4.803110471355465961e+03
-6.743189390581283078e+03
-4.889703689267435948e+03
-3.844793281562718221e+03
-6.940588258022054106e+03
-2.693048528812544191e+03
-1.899238483409011224e+03
-1.521101165946578703e+03
-2.614540192079407916e+03
-3.114500539362459222e+03
-2.427152422591297181e+03
-3.272542903509133794e+03
-4.891699934516892426e+03
-2.331602694632030762e+03
-1.863246964966154110e+03
-2.448646310483525667e+03
-2.605920636187456239e+03
-2.707084449837505872e+03
-3.041246365559236892e+03
-3.152630576455147548e+03
-2.832307844828980251e+03
-1.416263941396925247e+03
-1.416493751351897117e+03
-2.400099339633157342e+03
-1.622187859013445859e+03
2.381106206667492415e+02
-3.928786182918501169e+01
-6.984142787638429581e+02
-1.431220338812642240e+03
-1.504811499105099301e+03
-7.362849513977689639e+02
7.382731743770033290e+02
2.681838329395274741e+03
3.203350896089188154e+03
2.233579863197908253e+03
9.214323076400460195e+02
-9.167088368736523663e+00
-6.290542760166171092e+02
-1.891448952068463996e+02
-6.049972227638733102e+01
5.386065709390710481e+02
1.141941822857018224e+03
1.605406655070530860e+03
2.417989813456422326e+03
3.400701178729036201e+03
3.322470895591169210e+03
2.126772957530990880e+03
2.314391746743592648e+03
2.072176087753581214e+03
2.504068381948335627e+03
6.159153288573991631e+03
9.228050969963935131e+03
8.956657732307381593e+03
8.213824612268981582e+03
8.411715637895036707e+03
8.787274631584494273e+03
8.673218964672221773e+03
8.253259946912750820e+03
7.108217726365170165e+03
6.580017986286974519e+03
7.036506824084884101e+03
7.784329627965911641e+03
7.771502275589527017e+03
7.392931244628675813e+03
7.043384959155173419e+03
7.103746739905245704e+03
7.421895128246978857e+03
7.827719292585457879e+03
6.925062583577604528e+03
5.974762998691441680e+03
5.471834697844223228e+03
5.934203328452459573e+03
7.721654826474547008e+03
8.602116817896876455e+03
6.953483435467107483e+03
5.236798292702658728e+03
3.744009960390594188e+03
4.293946378206669579e+03
5.393553513595908953e+03
6.549882685506266171e+03
7.030023588528907567e+03
5.624926443369592562e+03
4.204522331783939990e+03
3.517825734608909443e+03
3.306815029296086323e+03
3.181459275984433134e+03
3.312688924435686658e+03
3.353521957626255244e+03
4.223003588186707020e+03
4.437184547736581408e+03
5.239087835094556795e+03
6.108754608329131770e+03
5.362253805512492363e+03
4.705588183688338177e+03
4.280761845433215967e+03
3.163799282877778296e+03
1.199850876044054303e+03
2.126020752855547471e+03
4.115424308410538288e+03
5.894178158610212449e+03
6.350336254030920827e+03
2.142979207099506311e+03
-3.620777885185683317e+03
-6.106778802522439037e+03
-6.675855711128213443e+03
-7.002919053604450710e+03
-8.720839338197691177e+03
-1.007342418930333770e+04
-8.920530237238748668e+03
-8.504015820287080714e+03
-1.115584470763900572e+04
-1.229663823004562983e+04
-1.151608949536455111e+04
-7.934108053497297988e+03
-6.853731125689472719e+03
-4.856744456301667014e+03
-3.867716730003571683e+03
-3.221443252999256401e+03
-3.871729386142572366e+03
-3.765431743078316686e+03
-3.178323350024837055e+03
-4.507232194840994453e+03
-5.574871691167245444e+03
-7.964118650283384341e+03
-9.580814188159463811e+03
-7.311726843338296021e+03
-5.749532582678143626e+03
-6.552943981162100499e+03
-8.364751447909542549e+03
-9.638698061991604845e+03
-1.087051137001988354e+04
-1.210281959407780050e+04
-1.355832230695952239e+04
-1.591276997148026203e+04
-1.674286399963885560e+04
-1.693834036190067127e+04
-1.668589200243468440e+04
-1.579431142355248448e+04
-1.341542347522041382e+04
-9.172964126958702764e+03
-2.564570151560001250e+03
2.219986031907285451e+03
3.982936757516338275e+03
3.976659614206283550e+03
2.713446019409143901e+03
1.264583796949359112e+03
2.203486673897602941e+03
2.314509698206459689e+03
1.547870254463890660e+03
-1.692602829320605338e+02
-2.051649361926606161e+03
-3.326061533253148809e+03
-4.364220477416539325e+03
-4.707811274477649931e+03
-3.711560974532850651e+03
-2.746211411691380363e+03
-1.768429325698565890e+03
-4.309799504618147239e+02
1.192494668624495660e+02
5.654337737478462032e+02
3.160794802647467350e+03
5.099486944301290350e+03
6.430789470816152971e+03
8.163792818220158551e+03
9.396552465778248006e+03
1.192021987496660404e+04
1.501091486455567974e+04
1.731565342388577847e+04
2.071269975722870004e+04
2.203324916644615951e+04
2.102229191673097739e+04
2.195998114550695391e+04
2.340145367169666133e+04
2.532586967818414632e+04
2.659438837797594169e+04
2.563303762507598003e+04
2.056589229526347117e+04
1.676811603091063080e+04
1.789978257585050596e+04
2.016896964836259576e+04
1.709583635566315570e+04
1.535747222565345328e+04
1.156983132115331318e+04
9.356964250719696793e+03
2.515920113671792478e+03
-5.053690104534999818e+02
-3.134955282498472570e+03
-5.772767608877793464e+03
-4.349790243998517326e+03
-7.996994489345735019e+03
-8.956287926077447992e+03
-8.988657744841875683e+03
-1.018815218231634572e+04
-1.005279996694271176e+04
-9.059723493186545966e+03
-9.324922672951912318e+03
-9.771427804275921517e+03
-9.002487225466122254e+03
-1.058617640255818878e+04
-1.071950944424978297e+04
-8.375504823398563531e+03
-8.651204448388742094e+03
-1.275585364619511165e+04
-1.033774118056130101e+04
-1.051006877767701189e+04
-1.353792463970023528e+04
-1.460236568203503703e+04
-1.551952429082923300e+04
-1.593351239876377440e+04
-1.411151924439743743e+04
-1.286782875495439112e+04
-1.003068835299350576e+04
-9.651305612948828639e+03
-6.551810493243639939e+03
-7.321447057314430822e+03
-5.102420588915393637e+03
-1.784958671951329052e+03
2.326039401351455638e+02
1.602020575139454650e+03
2.584036612914163925e+03
3.313478908315930767e+03
4.006080708972015600e+03
4.360574218022880814e+03
4.490615891394162645e+03
5.025914243678159437e+03
5.008312297014622345e+03
5.086416904598439942e+03
4.963958901752710517e+03
5.358635100017258083e+03
6.582198688864541509e+03
7.015335594144434253e+03
7.640702575501087267e+03
9.362092098387001897e+03
1.130825075654056855e+04
1.235592875785484466e+04
1.320183150200670752e+04
1.432762475168338642e+04
1.506897436184252365e+04
1.543052663690810004e+04
1.480136233983488819e+04
1.553009103064418923e+04
1.609920394167402083e+04
1.630039039606434017e+04
1.685364043308259716e+04
1.694156109438822023e+04
1.580381272162764071e+04
1.417372015350527727e+04
1.301634675250943656e+04
1.139366429945656455e+04
1.057689765161707328e+04
1.036714004776811453e+04
1.028185758378619539e+04
9.565141242199959379e+03
9.326638482960079273e+03
9.213781655187378419e+03
8.984543238556228971e+03
8.074324149337584458e+03
7.448652958456539636e+03
6.885796574061507272e+03
5.821218366095314195e+03
3.380849286594820569e+03
1.548825594410103349e+03
-3.607701109550548608e+02
-2.343885202325492173e+03
-3.308595827493470097e+03
-3.823258765426245191e+03
-5.378832703095782563e+03
-7.580811425786505424e+03
-9.623355687638273594e+03
-1.122660103172747586e+04
-1.183275219075817222e+04
-1.200295838880257725e+04
-1.249936691314860764e+04
-1.230718607054198947e+04
-1.193151958283389104e+04
-1.276743898143201477e+04
-1.338509543760145243e+04
-1.375570988963572927e+04
-1.387949221945542922e+04
-1.373243223458116154e+04
-1.403953728363427035e+04
-1.486406766128377785e+04
-1.543124531515718991e+04
-1.600799746242793844e+04
-1.580038549980378593e+04
-1.565642527838174465e+04
-1.574117517851943558e+04
-1.651475468745413309e+04
-1.675730153369645268e+04
-1.676599131066550399e+04
-1.788581467312011591e+04
-1.976160588956970969e+04
-2.181528917998690667e+04
-2.150587602022709325e+04
-2.007934302372680759e+04
-1.876177327838449128e+04
-1.810912541804551074e+04
-1.814339570872952027e+04
-1.792258057653268042e+04
-1.698763726933084035e+04
-1.435758975607266621e+04
-1.099941778941096163e+04
-9.880017470663811764e+03
-8.788155356565357579e+03
-9.467901390918366815e+03
-9.113178141320398936e+03
-6.467953973529066388e+03
-8.286415645025424965e+03
-9.471490297600188569e+03
-8.684823357783117899e+03
-7.117296515590693161e+03
-5.737905028752393264e+03
-4.591559501280554286e+03
-4.480068716101365681e+03
-4.820250615095673311e+03
-4.114889484673070911e+03
-2.265872828906603900e+03
-2.691394949191144406e+02
4.809377217980026217e+03
8.148880590031221800e+03
9.671553523831420534e+03
1.138051877028375384e+04
1.305186990805083224e+04
1.424969465125987153e+04
1.419812447317975057e+04
1.376340363227095440e+04
1.480368396155075425e+04
1.565108346963725126e+04
1.514766547028381683e+04
1.523948378932655760e+04
1.435275613989072917e+04
1.473585198586799015e+04
1.538599993160249323e+04
1.490231744313262425e+04
1.413874836092723126e+04
1.401945349666248512e+04
1.502953295404291930e+04
1.564316010574404754e+04
1.549468129480817879e+04
1.599722957310094171e+04
1.630094984669187579e+04
1.616490819377422849e+04
1.555418922145151919e+04
1.523790952941977048e+04
1.497519965978573782e+04
1.467206424894828524e+04
1.440761085118087612e+04
1.420394039975544547e+04
1.442320088721141474e+04
1.378963212677286356e+04
1.292831788068957030e+04
1.182737578623357149e+04
1.107003863947809987e+04
1.036145503234651187e+04
1.003648728205287807e+04
9.976144895559989891e+03
9.784436986363836695e+03
9.250468347302788970e+03
9.027701325921454554e+03
8.579643878698650951e+03
8.163309443694734000e+03
7.134629741936144455e+03
5.994660974374844955e+03
5.536550959221229277e+03
4.792332297283885055e+03
3.871935860846306696e+03
1.142339102892822666e+03
2.197401128846624374e+02
1.456134201539714923e+03
2.128387241505587554e+03
1.114097703450861445e+02
-2.172465006813883519e+03
-1.462574053607117094e+03
-8.319723794421671528e+02
-4.826078273509279484e+02
-4.623662739267668371e+02
1.417602200580630267e+02
1.357104729317501892e+02
8.646335501607684364e+02
8.085146251984285755e+02
3.434438053442744945e+02
-6.615960882859005778e+02
-1.546957316220296207e+03
-2.567658324325987905e+03
-4.081487711821936045e+03
-5.647383382772997720e+03
-7.278381484816034572e+03
-7.998552882873470480e+03
-8.586925867192851001e+03
-9.397539288268979362e+03
-9.538258521150239176e+03
-9.295214472349840435e+03
-8.710466959209017659e+03
-8.616061555208852951e+03
-9.167068036865590329e+03
-9.550674805055856268e+03
-9.177167085249899174e+03
-9.536915161246868593e+03
-9.821890879745420534e+03
-1.018798583211221012e+04
-1.107018573079228918e+04
-1.193845816247801304e+04
-1.195578595728709115e+04
-1.136838047703728262e+04
-1.138521663549391815e+04
-1.158424963121717519e+04
-1.158939878252531889e+04
-1.175367664090970175e+04
-1.192013567475888522e+04
-1.182979242475952924e+04
-1.168468638496997664e+04
-1.152189098240523708e+04
-1.052938159459790404e+04
-9.325302877252122926e+03
-8.612770148970877926e+03
-7.557785838854450049e+03
-6.503365232605025994e+03
-5.656715048722078791e+03
-4.815793240267843430e+03
-5.116609337225549098e+03
-4.251193353599139300e+03
-2.875562356129543787e+03
-2.062913326349346789e+03
-2.156242294389237941e+03
-1.533549300840474416e+03
-5.359340831685344710e+02
-9.552838155685668653e+02
-1.470444862479487028e+03
-1.818611857291159595e+03
-2.365819617065733837e+03
-2.025126981212474448e+03
-1.328546961554395011e+03
-7.757415786186079458e+02
-2.082287579252073044e+02
9.481727162186290059e+01
8.731101228118849633e+01
5.154502069784729201e+02
1.611479812014215668e+03
1.959217899559821490e+03
2.242238992658303687e+03
2.640214125050821167e+03
3.158966258413382548e+03
3.276170844689465412e+03
2.972932909741733965e+03
2.371367004578281922e+03
1.585082141000859338e+03
1.271697587107008758e+03
9.732849205098523271e+02
9.306067463595903746e+02
1.259900390873217702e+03
1.179942264233670357e+03
1.145806612695738522e+03
1.603646292438595083e+03
8.707272459107224449e+02
3.177860849870775724e+02
1.053779891599163960e+02
8.432300494617904860e+02
2.240377798706590511e+03
3.241872827404045893e+03
3.692067792455341987e+03
2.696994133065843926e+03
2.065494818762691466e+03
1.990002611175413676e+03
2.024631696339309883e+03
2.360062839884980804e+03
3.066586789870632401e+03
3.049872814612305319e+03
2.242096587326069766e+03
1.455185269405943927e+03
1.250583822359788428e+03
1.179782098025691994e+03
1.598184558630587617e+03
1.781813128741036280e+03
1.610565060931626249e+03
1.483605542718851439e+03
1.427164415590355702e+03
1.822135135530164462e+03
2.126585679780848750e+03
2.513594132426520446e+03
1.968227495136653943e+03
1.717525204217498867e+03
2.545486884843937332e+03
2.332209412902420354e+03
2.467782838552684098e+03
2.049275502682952720e+03
2.482696234009181353e+03
2.562054501265154613e+03
2.200455442190630947e+03
2.218893891766932484e+03
1.839354873455227562e+03
2.048881894260694935e+03
2.130573393714811118e+03
2.039431754351168138e+03
1.219455485045856221e+03
-9.522057337294349963e+02
-7.734652380521037003e+02
9.839908925319768684e+00
1.341664049286567206e+03
1.710433574878615559e+02
2.716029255061150252e+03
1.452636217154225278e+03
1.826943219365497043e+03
-1.929395208684057934e+02
-4.579172678789464612e+02
1.006051211757509236e+03
-8.399895949107936985e+02
-1.111060820301085414e+03
-1.858208703837761277e+03
-2.733416240005467898e+03
-5.595237009333686728e+02
-1.540510016075387512e+03
4.765969258497715373e+02
-2.921941014761440556e+02
2.575191426716668957e+03
1.291736665213313699e+03
-2.576272566869883462e+02
-1.678435477140551768e+02
4.252462983373143288e+02
-2.902753495796213201e+02
-2.943653886857518387e+02
1.533962290662111855e+03
3.574233146962620289e+00
2.146422312201495515e+03
2.023602392116536748e+03
5.931818803995627150e+02
-1.752829920941166847e+03
-2.005428256809871925e+02
2.419533392281993542e+02
-1.254455623513775748e+02
-9.487126676028030943e+02
-1.283890402996966941e+03
-9.760278823917299178e+02
-5.921353134624501990e+02
-9.113217438040651359e+02
-1.103607544188867905e+03
-9.350816102632860520e+02
-5.358500022067585178e+02
-4.099043813288414526e+02
-5.402328249784688978e+02
-6.349154659742071090e+02
-1.149056637441880866e+03
-1.362801220774533249e+03
-9.912081613428193805e+02
-4.322022258116576836e+02
6.521563465694971740e+01
-2.950516675968835330e+02
-1.487110118847880813e+03
-2.093992403555710553e+03
-2.334719559295975159e+03
-2.651181122146627786e+03
-2.626470834317071876e+03
-2.763630682922224878e+03
-2.838713720633462799e+03
-2.569116297647569809e+03
-2.419147360921112522e+03
-2.131703294684670709e+03
-2.156650596134970783e+03
-2.161252578938798706e+03
-2.552735907883613436e+03
-2.015050026158311312e+03
-1.916252049099146006e+03
-2.231231639817602627e+03
-2.538100781330671907e+03
-2.628083752142096728e+03
-2.676883412000966928e+03
-2.364470432621987584e+03
-2.429443553318003524e+03
-3.035856661699596316e+03
-3.872646147812032723e+03
-4.386845413206082412e+03
-4.586422354680277749e+03
-4.568399563222237703e+03
-4.308837796081717897e+03
-3.867852851495961204e+03
-3.755554252116310636e+03
-3.375190198098227029e+03
-2.697612416377027785e+03
-2.146056287441619588e+03
-1.708683764906576243e+03
-1.604512875590058002e+03
-1.454600497268112349e+03
-1.388901347330457156e+03
-1.567419781344783814e+03
-1.942335758771578185e+03
-2.581670794282090810e+03
-2.958339794979105591e+03
-3.090452642964137340e+03
-3.053965338541988785e+03
-2.431003122365342733e+03
-2.305610349882549144e+03
-2.940728672629629273e+03
-2.670292589244421833e+03
-2.586315362673300115e+03
-2.588962009373481123e+03
-1.905205106940501992e+03
-1.584958588799061090e+03
-5.492382573177064842e+02
1.809529776704327730e+02
4.626124510893724278e+02
9.197465303395857745e+02
1.476345362015195633e+03
1.507409098301133326e+03
7.279317222544249262e+02
2.469658378291868530e+02
3.864805893450778740e+02
5.593604114637071234e+02
2.466196433225527755e+02
6.627647784463515279e+01
6.844189221217217209e+02
7.470219077397822502e+02
5.240335208634951414e+02
6.544207765986694767e+02
-5.980998652075730604e+01
-1.938738305630718514e+03
-4.759444714432747787e+03
-5.430992706387413818e+03
-4.699318168869929650e+03
-4.035405683152248002e+03
-3.140255498380106019e+03
-2.567839989110568240e+03
-2.177197021068663616e+03
-5.513919007134144294e+02
-2.247156653110364033e+01
-8.563328190087778466e+02
-1.362091322425126691e+03
-2.297946811528297076e+03
-1.350906209875091918e+03
2.298196946731988191e+03
3.303363569731321604e+03
2.856306472660531199e+03
2.705924331152370542e+03
2.558172698083129490e+03
3.177012031487919103e+03
3.695355368250720403e+03
4.269134205643495989e+03
4.802183734132291647e+03
4.912499278422303178e+03
5.274035636422636344e+03
5.348753397673788641e+03
5.217576433068847109e+03
5.872492016635106665e+03
6.435475452416982989e+03
7.185468005833091411e+03
7.231422758865796823e+03
6.989190590911586696e+03
5.960636962031003350e+03
5.561729771273938240e+03
4.974423077176981678e+03
4.526508897242922103e+03
4.441809096038599819e+03
4.875282268286590806e+03
5.539872480541447658e+03
6.013449523054154270e+03
6.177790858022262910e+03
7.057836774172747937e+03
7.912471626132379242e+03
8.040659192898066976e+03
7.616324849441532024e+03
7.261361239889367425e+03
6.909662661454338377e+03
6.583998362832689054e+03
6.253293600204468021e+03
6.077484505608116706e+03
5.454430836599050053e+03
4.610022160796397657e+03
3.698100916191913711e+03
3.011515064071927100e+03
3.148159352691593085e+03
4.406832140620888822e+03
4.644353932131220063e+03
4.410594777164465995e+03
3.810467866722920462e+03
3.154900578668712569e+03
2.455814258445930591e+03
2.326886972362855431e+03
1.989897375041532086e+03
2.160773313153452818e+03
2.083522909050157523e+03
1.149268606651946129e+03
1.461023607560788150e+03
1.683559846556190678e+03
2.462591706049990535e+03
3.256031784652928309e+03
3.659915572460375188e+03
3.229177838019656519e+03
2.734693432602982739e+03
1.866504977727574897e+03
-2.165245484495868027e+02
-1.002520717746356809e+03
-1.127503239616502015e+03
-4.368578525474356866e+03
-5.229838717314435598e+03
-2.280322102984349840e+03
-1.799096431436120838e+03
-3.799185465128219676e+03
-1.857608999955390118e+03
-4.063379565181598082e+03
-2.232541761036201478e+03
-2.509167428934955296e+03
-2.474204174657224030e+03
-2.298631738570116795e+03
-4.137451561150471207e+03
-4.341637191726618767e+03
-1.958184299763699073e+03
-2.256065452218330392e+03
-1.482219827812519497e+03
-3.246619703897559248e+03
-4.155184632934814545e+03
-5.315899665200017807e+03
-4.131762962181152034e+03
-5.979614443077913165e+03
-3.959384684631535947e+03
-4.921050658838760683e+03
-3.434627555177723480e+03
-4.432070226806958090e+03
-6.599263098973357955e+03
-2.712106980738774382e+03
-3.620371216287987863e+03
-3.184932564635200833e+03
-2.836942968358468988e+02
-2.340516101356326089e+03
-1.319325450482481301e+03
-3.081013943423515229e+03
-3.981317073088571760e+03
-4.806947609039327290e+03
-2.681814670946339902e+03
-4.858838335195689069e+03
-6.888832834713318334e+03
-6.642668326559508387e+03
-6.843138343253055609e+03
-6.469046919901662477e+03
-3.939227768876878599e+03
-3.429482828793131375e+03
-2.904683567141058120e+03
-1.998630549069787321e+03
-1.152032713846247134e+03
-7.315635970582836762e+02
-6.900459765439134117e+02
-8.174487490083208741e+02
-5.743919939661151375e+02
-5.095878957024881970e+02
-6.657569163713292255e+02
-5.217448559881559049e+02
-4.152491182368518139e+02
-9.349563420148746218e+02
-1.166614879617094175e+03
-9.498661158507785558e+02
-7.204817718810605811e+02
-1.247189733637866766e+03
-2.236621936392543375e+03
-2.358496870009000759e+03
-2.373515804958778517e+03
-2.004638179125429815e+03
-1.428397025713424455e+03
-9.024886870266901724e+02
-5.044163876563372355e+02
3.989875365810358687e+01
8.069998027216986429e+02
1.234027583025746708e+03
1.619402969588920541e+03
2.318326967034980953e+03
2.446997755595124545e+03
2.427979541500687901e+03
1.874480981178370939e+03
1.153873219169340018e+03
1.418580055846410914e+03
2.214774428875788089e+03
2.712635390444085260e+03
3.132192143803154522e+03
3.699081347134114822e+03
4.205305822624062785e+03
3.707432544258400867e+03
3.086775632349018906e+03
2.564490541032115289e+03
