1.950239569017463873e+04
1.628520746380728451e+04
1.295255231507851931e+04
1.038482141454313569e+04
7.777726808387080382e+03
5.143996455538304872e+03
3.520144305265919229e+03
2.484775685428369343e+03
2.216624462002288055e+03
1.827518071327271855e+03
1.272365570769155738e+03
1.530120553261735722e+03
1.405770037350735265e+03
-9.964419378119412158e+02
-3.931193867332894115e+03
-6.994548241856650748e+03
-9.389690422373760157e+03
-1.180137320693319816e+04
-1.385899014079984045e+04
-1.578806117357062612e+04
-1.781338509068486383e+04
-2.021653096647190978e+04
-2.335525267702701240e+04
-2.653402410145506292e+04
-2.930784341974220661e+04
-3.007236210350763940e+04
-3.094695650280403424e+04
-3.142989760975710669e+04
-3.188463499373279774e+04
-3.230364205418140409e+04
-3.304078566410411440e+04
-3.312295206196000800e+04
-3.289636237019087275e+04
-3.214402621538679523e+04
-3.153039723914261776e+04
-3.117650790477187911e+04
-3.109105302767881949e+04
-3.066592349442262275e+04
-2.979627045929454471e+04
-2.922635395471370430e+04
-2.948696355924072486e+04
-3.091090692903007584e+04
-3.244486162294324458e+04
-3.416792070487520687e+04
-3.524836163433959882e+04
-3.337515499284930411e+04
-3.120673080372397817e+04
-2.966753741469090892e+04
-2.945251381066114482e+04
-2.956768467616558337e+04
-2.826897090272493006e+04
-2.576422356899390797e+04
-2.416527420348702435e+04
-2.437381431598388008e+04
-2.290567373304867579e+04
-2.012569334172563686e+04
-2.046144936484098434e+04
-2.096456794401577645e+04
-1.863889501315561211e+04
-1.542839735681640377e+04
-1.450898230091685218e+04
-1.467663867126593505e+04
-1.150627048121863118e+04
-9.126851380292038812e+03
-6.485377910303270255e+03
-4.298600743980637162e+03
-3.384341456878962163e+03
-1.748504351196098696e+03
-1.700009850293274667e+03
-2.256831733474592511e+03
-4.909114286167376804e+02
-6.744017644081284288e+02
-9.535504499860176111e+02
-1.614842549091792762e+03
-8.135144060761404035e+02
2.670275593264438612e+03
6.033285414085214143e+03
6.018915959933315207e+03
3.933619229750022441e+03
6.295066042028689481e+03
1.109888169222922988e+04
1.330540564806313705e+04
1.036281025459621014e+04
1.038252675425632333e+04
1.231703096553499745e+04
1.450581421894563937e+04
1.786607985773324981e+04
2.311384649137391534e+04
2.463219469746528921e+04
2.743748245493416835e+04
2.995651216666848268e+04
3.297421951207156235e+04
3.571354710318420985e+04
3.802826824291445519e+04
3.969411846766538656e+04
4.099453818563237292e+04
4.299392668480593420e+04
4.557457684773806250e+04
4.761792363355340785e+04
4.977029080263346259e+04
5.192291874852645560e+04
5.450800159497707500e+04
5.629582340306780679e+04
5.734248491640371503e+04
5.825496112908735086e+04
5.926418318983131030e+04
6.116379105181346677e+04
6.323277903920311655e+04
6.470008324699931836e+04
6.498527515513214894e+04
6.341989483684123843e+04
6.158263345623674832e+04
6.031804334466202999e+04
5.827049426378644421e+04
5.576635769324917783e+04
5.314301943102673977e+04
5.039041687177984568e+04
4.680337187508329225e+04
4.312400051649417583e+04
3.945023077003069193e+04
3.502884736054336099e+04
3.197747319161911219e+04
2.994695154182003171e+04
2.703821918609099521e+04
2.417907091987658350e+04
2.260522931843214246e+04
2.122946764508050546e+04
1.934534666579883924e+04
1.703715461881590454e+04
1.364434738228302740e+04
1.048844314528302311e+04
9.169794555420776305e+03
1.045761720914761463e+04
1.085382763618645913e+04
1.008866369497801679e+04
8.390496360472152446e+03
6.035435927963550057e+03
3.269658207372986908e+03
4.282861797075532877e+02
-2.187740712826443541e+03
-4.835561787325246769e+03
-5.963659857543430007e+03
-7.916262505277882155e+03
-1.034524783397198371e+04
-1.215761642410131935e+04
-1.332540825051372667e+04
-1.488257623744887860e+04
-1.714311348617729891e+04
-1.864426037504345732e+04
-1.833220731387889100e+04
-1.776172096883985068e+04
-1.902484972261772054e+04
-2.482800336422920736e+04
-2.745787202563557730e+04
-2.834442921019299320e+04
-2.799074531322498660e+04
-2.291830367785116323e+04
-2.189149472084161607e+04
-2.542925811537306799e+04
-2.432668738552404102e+04
-2.444418790231038292e+04
-2.285189140133547698e+04
-2.165484109073618674e+04
-1.862535479612052950e+04
-2.060859762284805038e+04
-1.946342473739531852e+04
-2.253103537195286481e+04
-2.175341870393322824e+04
-2.268826894494708540e+04
-2.443051483450061278e+04
-2.177611751827725675e+04
-2.409804244772177844e+04
-2.350329412702359332e+04
-2.333466217034586589e+04
-1.836488666076018126e+04
-1.921476687750315978e+04
-1.883520766608176928e+04
-1.856917407937999087e+04
-2.171620541885702551e+04
-2.006481339064615531e+04
-2.342762488698899324e+04
-2.541026155941235993e+04
-2.675829984302959201e+04
-3.128505766861748998e+04
-3.104779159126196464e+04
-2.611481391547330713e+04
-2.576025790015811071e+04
-2.545418911691106405e+04
-2.770620838739579631e+04
-2.935877562748823038e+04
-2.894914004854530140e+04
-2.604223277313376093e+04
-2.399158917513542474e+04
-2.217301488034012800e+04
-2.034439703842445306e+04
-1.894140259960388357e+04
-1.927885572656980003e+04
-1.964468586381995556e+04
-1.966369392427064668e+04
-2.014651015119960721e+04
-2.016562896119381185e+04
-1.856960485853775390e+04
-1.737294103666041337e+04
-1.570386772920193107e+04
-1.299160456331335627e+04
-1.028663761327034081e+04
-7.403158162751838063e+03
-6.019997336706614988e+03
-5.772111891920709240e+03
-5.045111362880780689e+03
-2.582632030266541278e+03
2.342004976827199698e+03
9.687188868154064039e+03
1.339363911061593899e+04
1.269151099314081512e+04
1.158602903962901837e+04
1.226223648096391844e+04
1.547596412117194086e+04
1.755815157722930962e+04
1.856386886644145125e+04
1.804948762707435526e+04
1.492410160823861588e+04
1.459222692232148620e+04
1.498216762971238313e+04
1.286381510275218716e+04
1.041457892651119982e+04
8.720701157748588230e+03
6.826644578786558668e+03
6.491184945108099782e+03
6.236890036536849948e+03
5.872302593738746509e+03
8.378328356530821111e+03
1.305511004081729698e+04
1.649384136874087562e+04
1.984401913463701931e+04
2.359488298463624233e+04
2.540460643729308867e+04
2.732214681725301853e+04
2.658567814014685064e+04
2.619232328307844364e+04
2.533172367137468245e+04
2.389871739193714893e+04
2.341874045376621507e+04
2.295282673485796113e+04
2.323553322799901798e+04
2.547662792565611744e+04
2.702116472444204919e+04
2.800203069964638780e+04
2.963703150193627516e+04
3.218915477747625846e+04
3.469843866512794193e+04
3.642776550744229462e+04
3.761330596333458379e+04
3.872630689316985809e+04
3.961958234330009873e+04
3.944762943029697635e+04
3.798799206391465123e+04
3.593700209426102811e+04
3.290074999184379703e+04
2.923456385704651984e+04
2.733925655571527022e+04
2.692538827674543427e+04
2.630706808747993273e+04
2.571048690015835018e+04
2.449922430391161106e+04
2.393026240888165557e+04
2.325136151779065040e+04
2.107442646100488128e+04
1.823543904762893362e+04
1.540168041970814375e+04
1.479692845338138432e+04
1.430515370894606167e+04
1.422209391865599355e+04
1.345959885436040349e+04
1.207216665724507402e+04
1.229152147314653121e+04
1.338136391926444230e+04
1.383439175340969996e+04
1.216856521860220346e+04
9.211426708049479203e+03
5.670386405497846681e+03
1.203781105846147284e+03
-2.810266454244828310e+03
-3.426132060862124490e+03
-4.695031547423366646e+03
-3.462381171984753223e+02
4.221556876775614001e+03
1.146790600109268098e+03
-7.334003089041466410e+02
5.858331900138277888e+02
2.891383806882861791e+03
5.931834308216772115e+03
9.090255403334511357e+03
1.489805970890443496e+04
1.501646880946746205e+04
1.447209994654201546e+04
1.425733836055322172e+04
1.304034501100199486e+04
1.398844975344977138e+04
1.355549903796371473e+04
1.102551179659200534e+04
8.753622566563642977e+03
8.318295429801191858e+03
8.958494612536922432e+03
8.798831599024650131e+03
7.826086818428038896e+03
5.540071388759135516e+03
2.549406905956433093e+03
-5.865144422804102078e+02
-2.689805573236050350e+03
-3.561664507959730145e+03
-3.427948208276180139e+03
-2.565972512900906167e+03
-2.451034030831277960e+03
-2.853150715680354551e+03
-2.186476300009118859e+03
-2.010372913431298230e+03
-4.560379160905187746e+03
-7.513477893355187916e+03
-1.168643822882560198e+04
-1.738119730734485711e+04
-2.145370281489311674e+04
-2.496427919570579252e+04
-2.685369653074331654e+04
-2.750849647592970723e+04
-2.739831539523654646e+04
-2.543672912308262676e+04
-2.415578609301334291e+04
-2.294396947895528865e+04
-2.288668910199154561e+04
-2.177627857077843146e+04
-2.056614968701728503e+04
-1.973468176752228828e+04
-2.080700224807187988e+04
-2.219009424568418035e+04
-2.265842922211726182e+04
-2.366456720339733147e+04
-2.567828625166504935e+04
-2.966513608918961472e+04
-3.371867387204930856e+04
-3.633966277338633518e+04
-3.734363726158725331e+04
-3.828210604293918004e+04
-4.063841880131960352e+04
-4.360672080788489257e+04
-4.418165425633601990e+04
-4.431800005241722829e+04
-4.294749986903642275e+04
-4.048469847911209217e+04
-3.740589496301113104e+04
-3.398935267607366404e+04
-3.279364583415198285e+04
-3.203616204244277469e+04
-3.028504622735621524e+04
-2.922755949347330898e+04
-2.939885163678522440e+04
-3.062663200605822931e+04
-3.331664840401719266e+04
-3.581599190190162335e+04
-3.819184246209567937e+04
-4.098528976837657683e+04
-4.272130467308521474e+04
-4.496442522023189667e+04
-4.732191736780907377e+04
-4.718194333172620100e+04
-4.631728243836928596e+04
-4.619543255891305307e+04
-4.556595809924947389e+04
-4.504356998499422480e+04
-4.407402205039676483e+04
-4.180497662012551882e+04
-3.798611051315389341e+04
-3.603811581993651635e+04
-3.721450753644983342e+04
-3.864656463262093894e+04
-3.719537324832642480e+04
-3.729025808561098529e+04
-3.991207620414817939e+04
-4.141462621685015620e+04
-4.265142449810116523e+04
-4.464499215399070818e+04
-4.707415968560822512e+04
-4.934175377580038912e+04
-5.067628656510364090e+04
-5.094112547877599718e+04
-5.081580599881793751e+04
-4.959273970395535434e+04
-4.770370475356377574e+04
-4.565559791954453976e+04
-4.585929457659580657e+04
-4.558272169711833703e+04
-4.360587780930123699e+04
-4.154461675538723648e+04
-3.959979875731165521e+04
-3.680758695140438795e+04
-3.461606998217138607e+04
-3.223041208869987167e+04
-3.267589330008329125e+04
-3.568513200559465622e+04
-3.845658514196830220e+04
-4.166483602890878683e+04
-4.477353186079933948e+04
-4.680038502226620767e+04
-4.808533020363888500e+04
-4.979723509377474693e+04
-5.056830055825728778e+04
-4.555211011588579277e+04
-3.701782957900994370e+04
-3.157298740389362501e+04
-3.090662998803233859e+04
-2.747765382099931594e+04
-2.138919351433231350e+04
-1.747182882900121331e+04
-1.714316402513335925e+04
-1.629006054549822693e+04
-1.331456681664870666e+04
-1.108985068557655723e+04
-9.164720957290517617e+03
-7.435134579414241671e+03
-7.985124274109395628e+03
-9.198167588627042278e+03
-7.871277964370830887e+03
-7.407031809591489036e+03
-7.737470954432159488e+03
-4.923961630327003149e+03
-7.036689984868851298e+02
3.327645644833335609e+03
7.304597421703851978e+03
9.716206361425647628e+03
1.259344511123712800e+04
1.740158912483056338e+04
2.360058010704940170e+04
2.944891161886716873e+04
3.382230528915463219e+04
3.833062694442529028e+04
4.145583198822479608e+04
4.282110428271834098e+04
4.369938200396029424e+04
4.465002515437819966e+04
4.531865842552020331e+04
4.599537540347629692e+04
4.576411316284013446e+04
4.799501438070185395e+04
5.458705114567900455e+04
5.910364032281422260e+04
6.020058382949206134e+04
6.028256228224852384e+04
6.088341348375917732e+04
6.426794090268958098e+04
6.843309329790223273e+04
7.191770280527985597e+04
7.791248826839134563e+04
8.385827449819938920e+04
8.750401129196977126e+04
9.000843858907253889e+04
9.116504558894259389e+04
9.092538866655465972e+04
8.934891021444485523e+04
8.805993845255966880e+04
8.829185705513108405e+04
8.813989298024163872e+04
8.411421907589251350e+04
7.549018520434550010e+04
6.768714002170359890e+04
5.999654398894150654e+04
5.626678002289504366e+04
5.710507301973302674e+04
5.292261612316868559e+04
4.985959727524236223e+04
5.287722415651770280e+04
5.618625385313792503e+04
5.913539950518412661e+04
5.796800954304749030e+04
5.848400388365345862e+04
6.470985143692974088e+04
7.369567033483544947e+04
7.995432368666506954e+04
9.569927420009714842e+04
1.006754551006936381e+05
1.049459187896340591e+05
1.036652147632996930e+05
1.042167269930838374e+05
1.028508637773090013e+05
9.937321548575995257e+04
9.497750402070602286e+04
9.591455110333717312e+04
9.626138846318710421e+04
9.541911428303887078e+04
8.913778510474384530e+04
8.114357940079752007e+04
7.758925012855209934e+04
7.764964881457689626e+04
7.839571040978649398e+04
7.295585508524661418e+04
6.568460045226060902e+04
5.444483869009678892e+04
4.388234251611406216e+04
4.472125449509409373e+04
4.820004196523509017e+04
4.200918481535073079e+04
3.257435274181396744e+04
3.367129093591896526e+04
3.457598415224257769e+04
3.437797780714119290e+04
3.176711589625917986e+04
2.876135499587393861e+04
2.454854076485608675e+04
1.644505464792340354e+04
1.050653398737866337e+04
5.825802930741975615e+03
-2.682971000559279673e+03
-4.872222450835700329e+03
-3.611797975480748732e+02
-5.470874705791499764e+03
-1.108006076696135278e+04
-1.289525277169984656e+04
-1.596375552289720872e+04
-2.490878040449874243e+04
-3.308032180183533637e+04
-3.736802190995110141e+04
-4.554916252974385861e+04
-5.209681953942787368e+04
-6.038312221732527541e+04
-6.854483986300377001e+04
-7.381618148157763062e+04
-7.179816966141368903e+04
-6.986980059316589904e+04
-7.797800589244255389e+04
-8.702711757551621122e+04
-9.423342600617391872e+04
-1.045210733946918335e+05
-1.145959307881989225e+05
-1.245235758804777142e+05
-1.341463193913252326e+05
-1.394561889749887923e+05
-1.454640445517989283e+05
-1.532049100954908645e+05
-1.632863484860998869e+05
-1.769637027903858107e+05
-1.896742075305804901e+05
-1.977505250723767676e+05
-2.005740038392639835e+05
-2.022810630069253093e+05
-2.006231088016238355e+05
-1.973846113182607514e+05
-1.961307576581854955e+05
-1.959996556779388047e+05
-2.022265414852374233e+05
-2.242024746192066232e+05
-2.466961070316515979e+05
-2.569454434327494528e+05
-2.596487156328882265e+05
-2.564393583994120418e+05
-2.492457946034771740e+05
-2.346281176100578450e+05
-2.160176787357734574e+05
-2.041436140132317087e+05
-1.979240278438800015e+05
-1.906621408049828606e+05
-1.917482261738668021e+05
-1.950554801762117131e+05
-1.997031969105806784e+05
-2.046217098573854310e+05
-2.104200696320947609e+05
-2.205403502972139395e+05
-2.313398803238279361e+05
-2.309121916605139559e+05
-2.215365852775091189e+05
-2.219835551066753105e+05
-2.255026120314879518e+05
-2.111771920302763174e+05
-1.864519448337632348e+05
-1.676188058393871761e+05
-1.480707287854369206e+05
-1.481016157864410488e+05
-1.503585855440794548e+05
-1.328998066999360162e+05
-1.184696344507123868e+05
-1.145488425180246268e+05
-1.026992930044771201e+05
-7.506217520648361824e+04
-4.592689501522280625e+04
-1.320998500734266236e+04
2.073872163855850158e+04
5.971236080040979868e+04
9.323479070733793196e+04
1.350557115473184385e+05
1.738774090391286300e+05
2.111150243346751377e+05
2.617665688089707692e+05
3.127568489416737575e+05
3.425843039914686815e+05
3.509649307112143142e+05
3.559104382162383990e+05
3.680653535499884747e+05
3.847500839774534106e+05
3.978745355618256726e+05
4.086191202757601277e+05
4.143349899415373220e+05
4.163371777155739255e+05
4.169752565256100497e+05
4.156595248522941256e+05
4.142608647627013852e+05
4.107719639758113190e+05
4.074870157831293764e+05
4.063167778920531273e+05
4.072406288248130586e+05
4.049587077635056921e+05
4.005091747731826035e+05
3.971707834671176388e+05
3.926848042376841186e+05
3.861270715499252547e+05
3.831331445531634963e+05
3.832004398027872085e+05
3.818571162274869275e+05
3.749998641011262080e+05
3.612090412591110216e+05
3.397567454468387295e+05
3.140056184862799710e+05
2.867530895882226177e+05
2.574251319588694605e+05
2.291432288623714121e+05
2.045386722719514510e+05
1.816665596939199895e+05
1.595986912750882911e+05
1.382347543698022782e+05
1.168678496634295007e+05
9.483373418133174710e+04
7.141197519264221773e+04
4.820504646195568057e+04
2.732242678657325087e+04
1.262821952394307482e+04
2.253748395391653503e+03
-1.159250303887529299e+04
-2.676296198249538429e+04
-3.967469587996626797e+04
-5.197387198097080545e+04
-6.715182556874015427e+04
-8.439816635414116899e+04
-1.006666799387934152e+05
-1.142694126096486143e+05
-1.267406291339679883e+05
-1.366206643416916777e+05
-1.468060184970066475e+05
-1.565713364620881621e+05
-1.634374261122547032e+05
-1.705219777364228794e+05
-1.789779550301424169e+05
-1.864725636633387767e+05
-1.919919379303914320e+05
-1.984842323219496757e+05
-2.039468232397563115e+05
-2.078640804264158360e+05
-2.107232651373836270e+05
-2.141112256027359981e+05
-2.172503286131451023e+05
-2.205319270635731809e+05
-2.223993812995656044e+05
-2.218330262715541758e+05
-2.211412834001506271e+05
-2.183605847370857082e+05
-2.145681172349824628e+05
-2.119392549512668338e+05
-2.193377175067811913e+05
-2.165999108931546507e+05
-2.106898410730360192e+05
-2.027420093757279101e+05
-1.947024847855530097e+05
-1.913863919195773778e+05
-1.878041694383978320e+05
-1.809749243072762329e+05
-1.726289763777443732e+05
-1.662496597831325780e+05
-1.613199121328469482e+05
-1.549855059003522620e+05
-1.481040457375299302e+05
-1.422318212861551438e+05
-1.370780143367212149e+05
-1.299857974905800656e+05
-1.189159905183070077e+05
-1.108630862380821927e+05
-1.076787664407053962e+05
-1.020533699292481033e+05
-9.377987752762922901e+04
-8.477702783100154193e+04
-7.938815569579397561e+04
-7.556153138882892381e+04
-6.992316529291718325e+04
-6.405390551151061663e+04
-5.981129600997469970e+04
-5.486737538956051867e+04
-4.997493895849446562e+04
-4.487849855816934723e+04
-3.768316861518946826e+04
-2.750783267122709367e+04
-2.292528316532573444e+04
-2.157491689736086482e+04
-1.551978651318108314e+04
-1.194564845961716128e+04
-8.276233924755091721e+03
-6.527216897524332126e+03
-3.246579930844720820e+03
5.165318726188283108e+03
1.142730226915943967e+04
1.704127236327262290e+04
2.172725448594485715e+04
2.533065911916863843e+04
2.731222312484807480e+04
2.932374377002887559e+04
3.245150039761279186e+04
3.663925925536420982e+04
3.991310619576168392e+04
4.288838385662383371e+04
4.561675366916976054e+04
4.864506427457236714e+04
5.132339059597005689e+04
5.271499092225811182e+04
5.288543770862109523e+04
5.329578280588924827e+04
5.440649884978697082e+04
5.602499593849459779e+04
5.716302538291674136e+04
5.698311943816809071e+04
5.617587038149516593e+04
5.560888596485193557e+04
5.588056574833778723e+04
5.764797071962364862e+04
5.795570556328971725e+04
5.410363600267091533e+04
5.517641387095807295e+04
5.657757898954792472e+04
6.296874466672490962e+04
7.070137560973923246e+04
7.213534653972777596e+04
6.909759317575157911e+04
6.678793180241435766e+04
6.937342354314484692e+04
7.024767170840731706e+04
6.958104763846372953e+04
6.906893020786195120e+04
6.773743523534122505e+04
6.699237955844699172e+04
6.651120745705722948e+04
6.487776542768563377e+04
6.261931886197079439e+04
5.883723846822041378e+04
5.520366052216188109e+04
5.166944185933139670e+04
4.735127810473783029e+04
4.342244234055270499e+04
4.061670473510261945e+04
3.828120265177030524e+04
3.485743356823744398e+04
3.143713308544351457e+04
2.938212644787619865e+04
2.788535149450951940e+04
2.570958982594405097e+04
2.137599998169778337e+04
1.615163567131346099e+04
1.170732447965117353e+04
9.126814494170705075e+03
8.496838899721076814e+03
5.708032405025042863e+03
3.416050802835444301e+03
9.016598547323671937e+02
-2.779989240504321970e+03
-6.189845186500426280e+03
-7.321481155411353939e+03
-7.353391853357456966e+03
-7.405356253430424658e+03
-6.594994463212764458e+03
-5.557666138265235531e+03
-4.683231203506990823e+03
-3.423380904500263114e+03
-2.009511269408197450e+03
-6.486442359225441123e+02
2.508710694924709969e+03
6.563503736584681974e+03
8.806051769031255390e+03
9.604694886756393316e+03
1.137543341504414457e+04
1.425986334624016672e+04
1.615901939467827833e+04
1.717434075952033527e+04
2.041992481305007823e+04
2.425109738505124915e+04
2.644472389642741473e+04
2.713876877900332329e+04
2.975981413156742565e+04
3.526934805146916915e+04
4.402059964386060165e+04
5.444409658902668161e+04
6.224154018480279046e+04
7.125084474171188776e+04
8.184956530512371683e+04
9.513213818710405030e+04
1.071434724279668735e+05
1.155540832161682483e+05
1.239230775336599763e+05
1.248755892990621651e+05
1.176664798234953923e+05
1.111324373436092283e+05
1.076761062443437113e+05
1.025780811215634167e+05
9.618730373493955994e+04
9.194239837143315526e+04
8.710678938091648160e+04
8.149960746967811428e+04
7.547298573439684696e+04
6.908103807185866754e+04
6.450866587218834320e+04
6.151523992058183649e+04
5.915013012571356376e+04
5.621735415347688831e+04
5.290697462081967387e+04
5.025141713013105618e+04
4.908773290706924308e+04
4.637157741444640851e+04
4.099343230468086404e+04
3.577842755591568857e+04
3.132171915101858031e+04
2.525358510162619496e+04
1.634907675719591498e+04
8.652217741620564993e+03
8.028950549395392500e+02
-6.357682266080855698e+03
-1.187274067580024894e+04
-1.684143353846467289e+04
-2.177160075330613472e+04
-2.684291208959980577e+04
-3.246755621162399621e+04
-3.773500951099732629e+04
-4.222988978433177545e+04
-4.686574234415592218e+04
-5.172151570209969213e+04
-5.640948185599394492e+04
-6.140231521980950492e+04
-6.712949792115030868e+04
-7.293366334519356315e+04
-7.853669516245278646e+04
-8.385929489016473235e+04
-8.900745326941544772e+04
-9.425624225343736180e+04
-9.968884363193617901e+04
-1.047627938439784775e+05
-1.081174727929435467e+05
-1.104912480303404736e+05
-1.115325012506951898e+05
-1.117858592610068881e+05
-1.127003737915021920e+05
-1.136849834903786686e+05
-1.137530254115528223e+05
-1.137277641772910574e+05
-1.144561951674153970e+05
-1.147860776166289288e+05
-1.132760568352982955e+05
-1.134329177909135469e+05
-1.144963202114219312e+05
-1.144249046300579212e+05
-1.127884111095243716e+05
-1.100892099496297305e+05
-1.076978895191473857e+05
-1.067660540195588255e+05
-1.066111714837764448e+05
-1.055402798943582602e+05
-1.027702895634261222e+05
-9.831524813200364588e+04
-9.512588907021294290e+04
-9.369778176120982971e+04
-9.196987860197424015e+04
-8.967109735907142749e+04
-8.702489472622146423e+04
-8.407118538397317752e+04
-8.046248873694699432e+04
-7.621910459521123266e+04
-7.132549661162371922e+04
-6.734111459385752096e+04
-6.385427001901168114e+04
-6.091037289108805999e+04
-5.883898197506151337e+04
-5.657255340603846707e+04
-5.211140884772910795e+04
-4.860470491794742702e+04
-4.609756528598668228e+04
-4.300207534675463103e+04
-4.063707767656737997e+04
-3.756830462903836451e+04
-3.264573601577158115e+04
-2.923070895095241576e+04
-2.683533876304846126e+04
-2.283223389346113981e+04
-1.896384356411849149e+04
-1.437676713602371819e+04
-9.573539396646914611e+03
-5.468293800330123304e+03
-1.468140379398188088e+03
2.213623008707392728e+03
5.182405673121348627e+03
7.946933678543303358e+03
1.120992776667035832e+04
1.477640072415620671e+04
1.773719209242843135e+04
2.027392421786185878e+04
2.266159799655857933e+04
2.442836612781744770e+04
2.610625759822546752e+04
2.822724477339371879e+04
2.979944584194012714e+04
2.989805981757561312e+04
3.114825382403783078e+04
3.660426086275530542e+04
3.970141464200462360e+04
4.300796118834214576e+04
4.572023534830727294e+04
4.849358155011482449e+04
5.111215320188726764e+04
5.282823479942484119e+04
5.510705539683901588e+04
5.625489983261971065e+04
5.649723856462850381e+04
5.789748186106542562e+04
5.790030872334454762e+04
5.899194407735399727e+04
5.993772461175647186e+04
5.888195145424696238e+04
5.802731152606756950e+04
5.785123958259358187e+04
5.757914621253604855e+04
5.698234661172301276e+04
5.636230630963227304e+04
5.601860389520389435e+04
5.594777963024583005e+04
5.538926399830352602e+04
5.436861890228224365e+04
5.390752614007079683e+04
5.267049578938621562e+04
5.191557406070518482e+04
5.061122051422323420e+04
4.897221491420413804e+04
4.704590561840563896e+04
4.485748665317731502e+04
4.264318932284697075e+04
3.977365477720381750e+04
3.812248636566272762e+04
3.643887671161296021e+04
3.338299672671677399e+04
3.039721068886791181e+04
2.865564868459201170e+04
2.665344898174935952e+04
2.510772170140750677e+04
2.449757398007461234e+04
2.280696810466076204e+04
2.086334375675034244e+04
1.968902812101178279e+04
1.840577968517760019e+04
1.715277967819951664e+04
1.566100246272298864e+04
1.264760021574870007e+04
1.012540363522098778e+04
8.667785346602182472e+03
7.120670716728948719e+03
6.081975671240303200e+03
5.328438430351361603e+03
3.812619961137253540e+03
1.872258353071177908e+03
-3.169369403699841428e+02
-2.798444675274759902e+03
-4.289904378594294030e+03
-5.412759034613900440e+03
-5.848424135686177578e+03
-6.934454408149301344e+03
-7.709594122951736608e+03
-7.505426835068321452e+03
-7.163458041304496874e+03
-7.903243013986930237e+03
-9.542508062973123742e+03
-1.110609313223339450e+04
-1.159289321452484910e+04
-1.218377157222854657e+04
-1.327651141571679727e+04
-1.428100305930782270e+04
-1.484718285416920480e+04
-1.602414677190075599e+04
-1.855915160167367503e+04
-2.259410684421253245e+04
-2.467486985149130851e+04
-2.213697873218314635e+04
-2.399957467192047625e+04
-2.349634264393964258e+04
-2.244876945631203489e+04
-2.168573873967282270e+04
-1.905622534049716342e+04
-1.726157871631643866e+04
-1.683954364732287286e+04
-1.534138919295546657e+04
-1.817536636186030228e+04
-1.797284563578172310e+04
-1.856922152168013417e+04
-1.896912726771009329e+04
-2.027119226254416571e+04
-1.839588838425192080e+04
-1.745675030919814162e+04
-1.858620468044110748e+04
-1.950082607145905058e+04
-2.260311918534389042e+04
-2.298552390209879013e+04
-2.133367258570597915e+04
-2.256432285739500367e+04
-2.538513689993774824e+04
-2.157375689154973952e+04
-2.276376185191033073e+04
-2.144987597598753928e+04
-1.901673656918412235e+04
-1.814093867297928227e+04
-1.778291172316507800e+04
-1.645515610920522522e+04
-1.523032062596706783e+04
-1.523526974862511815e+04
-1.512292809404077707e+04
-1.433084179554568800e+04
-1.338065850631531976e+04
-1.298798622788302237e+04
-1.361536790274687337e+04
-1.446840786599772036e+04
-1.531285706053682043e+04
-1.600235545033828566e+04
-1.658344401966768783e+04
-1.690880208743762705e+04
-1.666912930236478860e+04
-1.636792855040644099e+04
-1.569179968762452154e+04
-1.448242267481662384e+04
-1.300922181326578539e+04
-1.079775505024099220e+04
-8.368574365226702866e+03
-6.545003115963410892e+03
-5.929391765584134191e+03
-6.488312793610916742e+03
-7.527258029190801608e+03
-7.866475782503020127e+03
-7.768062230796012045e+03
-6.861697985674663869e+03
-5.467667338526045569e+03
-4.902149382451693782e+03
-4.768287160560922530e+03
-3.640512979580666524e+03
-1.819254382104816614e+03
-1.181927230068173913e+03
-1.785222136084869589e+03
5.348125907011292384e+02
2.992854331686662590e+03
4.503501546680799038e+03
4.806403630332058128e+03
5.732505373053601943e+03
6.543583048572348162e+03
6.646649068631221780e+03
7.848182239304057475e+03
9.351942856697278330e+03
9.118236470495883623e+03
9.048073289047193612e+03
9.788836448142226800e+03
1.015792683156525345e+04
1.002771737469965774e+04
9.222697513491641075e+03
7.695862394800717993e+03
7.506435126001534627e+03
7.490652341690709363e+03
7.729537081735076754e+03
8.145396842914472472e+03
7.588723771959977967e+03
7.729912643934319931e+03
8.268237044918301763e+03
8.521837271396756478e+03
9.822791789352137130e+03
1.218262770851798814e+04
1.343800358051012518e+04
1.442321800089887438e+04
1.369746048757160315e+04
1.234719899601389261e+04
1.172206381731926558e+04
1.175929664393166058e+04
1.165422249319210096e+04
1.184905389542960438e+04
1.127977269783674456e+04
1.093556764679840489e+04
1.082773325875414594e+04
1.077849031951328107e+04
1.048516035199635917e+04
1.021801513698562121e+04
9.885323969886569103e+03
9.799363082061905516e+03
9.630246922401487609e+03
9.642072105152712538e+03
1.067897059684010492e+04
1.171009871656771247e+04
1.198657840554767608e+04
1.167745030674559348e+04
1.120777330520197393e+04
1.146952371496337037e+04
1.190969255416325359e+04
9.215324484573146037e+03
4.872445049607033070e+03
1.923028558143126247e+03
1.390949193619281004e+03
9.829172794617770705e+02
1.438828350186439820e+03
5.948729676135740192e+03
6.975539072767208381e+03
2.226981555976994514e+03
-1.543117095389201722e+03
-1.232821627935131573e+03
7.637334246568765366e+02
1.936125106813423372e+03
4.676238872700497268e+03
7.399759105146840739e+03
9.289345495842049786e+03
1.171367388803444919e+04
1.272736919671313080e+04
1.295114738449905599e+04
1.346267588416708895e+04
1.309355672865409178e+04
1.248229881144369392e+04
1.176726986990546720e+04
1.157688519324108347e+04
1.155588795746411051e+04
1.140618689450957027e+04
1.060357736921931610e+04
9.417744317888729711e+03
8.519114388355368646e+03
8.900212398467730964e+03
9.787588340594813417e+03
9.669784260947231814e+03
9.534399408751938608e+03
8.993095193367769753e+03
8.696554672308291629e+03
9.066393931263231934e+03
9.201321950365547309e+03
9.126917513354688708e+03
1.013241926321486790e+04
1.113638880025065009e+04
1.066254693034309093e+04
9.554466045883824336e+03
9.782817379487107246e+03
9.790982028796379382e+03
8.850626972438378289e+03
8.264590263136758949e+03
5.650592027073016652e+03
3.367227019363781892e+03
2.469171093651580122e+03
1.806167693581026015e+03
1.986993617008319006e+03
2.804520588377348304e+03
4.069676803878372084e+03
3.158309520264630464e+03
1.991287138138728096e+03
1.752248887612702902e+03
3.175892026427759447e+03
4.205044362371183524e+03
4.036672725206089126e+03
3.912790927950216428e+03
3.735374018785047156e+03
3.528526788879640662e+03
3.334244505564784049e+03
1.366509859275415238e+03
-8.159592962653502468e+01
-9.897345732972011092e+02
-1.006743230332497546e+03
-7.098172423466003238e+02
-1.004706616979836895e+03
-1.715237492680420701e+03
-1.332092051996262626e+03
-1.056957244474434219e+03
-1.697334886255283436e+03
-2.179628875065679949e+03
-2.804485355451062333e+03
-3.775453485909878054e+03
-3.516006717722987560e+03
-4.303932202646261430e+03
-4.624693470646131573e+03
-3.453852264869446572e+03
-3.018879671476325257e+03
-4.286982669534281740e+03
-6.605507300729814233e+03
-6.816177352607404828e+03
-7.070611616007274279e+03
-9.328063195382104823e+03
-1.251074648880750647e+04
-1.421497896806150675e+04
-1.630608739385699300e+04
-1.879036892701489705e+04
-1.987599126722846268e+04
-1.832811323855148657e+04
-1.683308464607373753e+04
-1.705323892266862458e+04
-1.792559764114892823e+04
-1.776422055064852248e+04
-1.728126336063687995e+04
-1.726910124609112245e+04
-1.696917679566412698e+04
-1.495761361643356577e+04
