3.249220668928901432e+03
3.104864731571199172e+03
2.906207292813016466e+03
2.827251846637155268e+03
2.235955559316224026e+03
1.573284230252931820e+03
1.307188936670647763e+03
3.786468194016564439e+02
-1.243408796901082525e+02
1.941602369514668851e+02
-1.808049955076861863e+02
-1.733218743689880057e+03
-4.617064745888472316e+03
-6.007356374428909476e+03
-5.423101226086389033e+03
-5.251254783462703926e+03
-4.331786140372863883e+03
-3.276841035221164020e+02
2.451992649278691715e+03
-5.081102174869401011e+01
-4.062001742774042214e+03
-4.009527871365546616e+03
-4.078414975139190119e+03
-4.218679970527269688e+03
-4.570253494454014799e+03
-5.143077460427431106e+03
-5.265301497567998922e+03
-6.175011660354688502e+03
-5.214183716341877698e+03
-3.912834016038405480e+03
-6.418963720178943731e+03
-6.466553115811809221e+03
-5.181568487378201098e+03
-4.719019997040141789e+03
-4.672941894927537760e+03
-4.335348002115456438e+03
-4.601207462147611295e+03
-4.179472897528726207e+03
-2.367146162715717310e+03
2.377776793098463713e+03
3.962316937513410721e+03
3.856530392721057524e+03
3.872399927671468959e+03
4.243966570320180836e+03
3.956192291880812263e+03
2.854059152176793305e+03
2.254549290847927296e+03
1.661680362141505839e+03
8.644573061758557060e+02
6.928102352791786416e+02
7.077511056711348374e+02
1.068397155684800737e+03
1.239781721171488698e+03
1.378903702320306365e+03
1.626827748650448711e+03
1.866591339887919503e+03
2.204259186561720526e+03
2.711886577015550301e+03
3.008408990367670867e+03
3.262729866779972326e+03
3.448935299766952994e+03
2.986118106324248856e+03
2.346285019871913391e+03
1.974375939863297390e+03
2.106384928865405072e+03
1.485339350667205053e+03
9.022949897254269445e+02
3.971908276480060067e+02
5.610276380278068018e+02
4.478060252478200027e+02
2.674950910964722652e+02
-2.578306770250754880e+02
-1.741278725502323539e+02
6.176771780497549571e+02
1.289635497434178887e+03
1.678675665016617359e+03
1.964772763194043137e+03
1.641948011496980143e+03
1.052369838096756894e+03
7.351947754239507731e+02
3.416143004643612926e+02
-3.206456082510636740e+00
-1.533192200792231574e+01
1.617983917857760900e+01
3.653509535782004605e+02
-1.518817700904495496e+02
-1.024529762133463919e+03
-1.652789313893797271e+03
-6.067608906245916387e+02
-3.462024325429067630e+02
-4.963922600534871208e+02
-5.882778035801248961e+02
-6.916527200998882563e+02
-8.165816874726903052e+02
-6.722705560523569375e+02
-9.145541432081286075e+02
-6.504131840143531917e+02
2.031379546472658149e+02
2.270804036838005118e+02
1.284149243888321905e+02
1.108167306542780807e+03
2.022346439405434921e+03
2.286033739135223641e+03
2.562293114921209508e+03
1.997071561856321750e+03
1.297388704933359350e+03
4.022268841199301050e+02
-5.804560021663074849e+02
-1.037670693061547354e+03
-1.325478516718032552e+03
-1.690854819753164975e+03
-1.493792044100109024e+03
-7.572415031211887708e+02
-3.413153347015230565e+01
7.095766215684799363e+02
7.789186553251325904e+02
5.269176965176550311e+02
4.854791765705824673e+02
4.025083170490740372e+02
5.480151278684907084e+02
7.420986998766195484e+02
3.877532049314998517e+02
2.230224750791014117e+02
-3.940776564647471787e+02
-1.296547242767168655e+03
-2.246418829599078435e+03
-2.917849574048917475e+03
-3.527869689684511741e+03
-3.508464842677245542e+03
-3.259680264424318011e+03
-2.455601960453197080e+03
-2.051178428735528996e+03
-1.097417230087389726e+03
5.475554066144002974e+01
3.074007562558652467e+02
2.245309843581690927e+02
4.661535190757946339e+02
6.221736385287177882e+02
1.245579103033883939e+03
1.442349339243943177e+03
1.700506651019057472e+03
1.559083143797086905e+03
5.440802219178733594e+02
-5.435504538750624306e+02
-7.498593984581921177e+02
-1.136912387775594198e+03
-1.756714042086880227e+03
-2.379315759232738401e+03
-3.160699669267751233e+03
-3.733947857817724980e+03
-3.482082884833068874e+03
-2.062996506185199905e+03
-4.925055602804415003e+02
3.552082645236395706e+02
1.263976435686071909e+03
1.480987212861644366e+03
1.060285550997106157e+03
9.535877731822611167e+02
9.962320826307378638e+02
1.060004022223552965e+03
1.293781762556545345e+03
1.180649332891541462e+03
1.522615275375234432e+03
1.987426240577785165e+03
1.699295021561526255e+03
2.018215970258298967e+03
1.969129427674457474e+03
1.371865612681827088e+03
1.038570177161078846e+03
7.420407547745603551e+02
3.291842088054206670e+02
2.889618291775146872e+02
6.815067999208681613e+02
7.578972938298701365e+02
6.022500313871369144e+02
1.212583347337976249e+02
2.580633297257139702e+02
5.478521093694632782e+02
1.343384518228136812e+03
1.985722583417974420e+03
2.116590828321959179e+03
1.999381720264046635e+03
2.000028176069926758e+03
2.081250932759649459e+03
1.982272726322557673e+03
9.828506659057118213e+02
-1.869879459115667828e+02
-1.342019393570010607e+03
-2.241496664791851799e+03
-2.543465208226838058e+03
-2.468045512207477714e+03
-2.298041971672280397e+03
-1.397689969873738391e+03
-2.088162279121735025e+02
1.049590407138508681e+03
2.187676922089025538e+03
2.906444868781957666e+03
3.265621881705636497e+03
2.616305281851401560e+03
2.330402653066895709e+03
2.233929324201483269e+03
1.967018904230365706e+03
1.540700096712183495e+03
8.578622143324242870e+02
3.855513480140254501e+02
-6.782379404894221580e+02
-1.758517898878517144e+03
-2.053311036512971441e+03
-2.439611578671407187e+03
-3.130428700584951912e+03
-3.643843300598077349e+03
-3.143888804992597670e+03
-2.527598984323208697e+03
-1.293875896621510265e+03
-1.053699446563786069e+03
-3.994940835588696245e+03
-3.006569458197992844e+03
7.583900171209787686e+02
4.268755986692344777e+02
2.920867389587993785e+03
1.020375940955235365e+03
2.105461516367352942e+03
1.366143639014901964e+03
-1.381611995676690185e+03
1.016199809371679294e+03
1.239587312701948804e+03
3.615740189584553832e+02
-1.207771615890985913e+03
-3.836513342516158446e+03
-1.902694524186202671e+03
-4.367305409486163626e+03
-3.884298620275616486e+03
-2.261649938683485288e+03
-1.489400030768336592e+03
-2.144364685434357511e+02
-2.692713724332704260e+03
-1.001256135384453273e+03
9.449266294254560989e+02
-9.120915933061772876e+02
-1.448374871533130772e+03
-8.918254292990334307e+02
-8.203306136302746836e+02
1.227092843463507961e+03
1.410451738132130458e+03
8.087922959574364086e+02
-1.149669458528462513e+02
-2.913963726378933643e+03
-3.912284942448668517e+03
-2.605854738700396410e+03
-2.553670820480538623e+03
-2.341744325756451872e+03
-1.878983462468637754e+03
-5.983260573928754411e+02
4.123252170459539911e+02
1.212995409488150017e+03
1.546681726851315489e+03
1.621398519982512425e+03
1.715150207293472704e+03
1.738997968177162420e+03
2.125947604786943884e+03
2.279985957094427704e+03
2.254185465466650385e+03
1.713538091616944030e+03
1.271031625663506020e+03
1.084707867217466855e+03
2.305749590670271516e+02
-3.963756075367876406e+02
-7.530588243070568524e+02
-9.555040308391380677e+02
-1.181705192113619887e+03
-1.465735190854380107e+03
-1.314268432545326277e+03
-9.600542326325451086e+02
-2.102710246874017344e+02
2.839590652810067013e+02
-1.613339041312589188e+02
-2.758875979117758561e+02
-9.353446926895230273e-01
2.623439427562772721e+02
4.610044631488903377e+01
7.773910306743049432e+02
1.841283206812592880e+03
1.787789124137686940e+03
1.650821679490496081e+03
1.798512226025552536e+03
1.647618742136475021e+03
1.470988064987789357e+03
1.256117498556813871e+03
1.090706923817743927e+03
9.704839742993945038e+02
7.956501085028633042e+02
8.853546512005299292e+02
1.508559650503464127e+03
1.762394906884279180e+03
2.219056315943092613e+03
2.215172920922474077e+03
2.540296059232668085e+03
2.872633687087033650e+03
2.734384536884723275e+03
2.916421751046611462e+03
2.716495490373402390e+03
2.650581871247619347e+03
2.599822582653328936e+03
2.893259393254369570e+03
2.349933277017181808e+03
1.297836068423909410e+03
3.238977455014350539e+02
-3.070163045949861953e+02
-7.220306726714163688e+02
-1.258985408082607819e+03
-1.630857252412421076e+03
-1.104706647617189219e+03
-2.595462304553507806e+02
1.098623434838671301e+03
1.923822507372872224e+03
1.787130428857720290e+03
1.828525837552418352e+03
2.064984920263667391e+03
2.274605300862901004e+03
2.250472004249294059e+03
2.095549407215030897e+03
1.789700789291607180e+03
1.979949320142536180e+03
1.563242811117305791e+03
1.011590393056723997e+03
4.229155374942083085e+02
-4.428420210771597567e+02
-1.180730108667624336e+03
-1.455705443592399661e+03
-1.402880614284145167e+03
-1.371347716247895050e+03
-2.336167803097756405e+03
-4.096358567904851952e+03
-5.900904524344889069e+03
-6.107748206847630172e+03
-6.059847331442500945e+03
-5.325214781290106657e+03
-4.993859150338425934e+03
-4.460774524360836949e+03
-4.381019264499250312e+03
-3.869578948178099381e+03
-3.553434933114253454e+03
-2.759454394536402560e+03
-3.471558449393534829e+03
-3.699647976073279551e+03
-1.054816654901391985e+03
2.639526659554962293e+02
4.337312984912341562e+02
7.464416141523485315e+00
-2.548936070392293232e+02
-2.513513216084257067e+02
2.002572591960409909e+01
1.752190621742890357e+02
7.072591500973979919e+02
1.132098323297669822e+03
1.240745448665241156e+03
1.378160349496176195e+03
1.130272035739361399e+03
1.371056958313974064e+03
1.780521241080951086e+03
1.733622174359965811e+03
1.773387571252696489e+03
2.041816653375864462e+03
1.853018344726065834e+03
1.764205781763573896e+03
1.149401607400725879e+03
5.383663076291462630e+02
-4.131093308735119649e+02
-1.148051927065931523e+03
-1.608484940431737414e+03
-1.446445621195388185e+03
-8.819050398538562376e+02
-2.818029562776745252e+02
3.248669250056286728e+02
4.921265351062529589e+02
2.990365804893472728e+02
1.010592675729440089e+03
1.380734473188645325e+03
1.372516652295905942e+03
1.472864040277288268e+03
1.514738086367262667e+03
1.556172206434987174e+03
1.590191150670513935e+03
1.448707240880907420e+03
9.496627577344246447e+02
7.520167858163410983e+02
-1.532789413805695347e+02
-6.612348104805336106e+02
-1.256878016244006403e+03
-1.413291329857948085e+03
-1.398558806305667986e+03
-1.058645290374319984e+03
-3.154612536196244150e+02
-8.895455718269880663e+01
1.928846019211026999e+02
5.620046961091418325e+02
8.624577584595364215e+02
1.078401837923494895e+03
1.651920781691721459e+03
1.877066822253412965e+03
1.957846533399307418e+03
1.887231124199000760e+03
1.395292507450385301e+03
8.830526666944357430e+02
1.036545501821943617e+03
2.438208336074885096e+02
-5.011319471685180247e+02
-1.190309031355875277e+03
-2.038833861967523035e+03
-2.210756426514723898e+03
-1.707016864477373474e+03
-1.614638490759590468e+03
-1.055521936885635114e+03
-5.385329537699085449e+02
3.404123857680893934e+02
1.021328525558153615e+03
1.326230199582496198e+03
1.165109089646970460e+03
1.089048298128197757e+03
1.344018867644990678e+03
1.362973669777193209e+03
1.127026246262640598e+03
1.248183460075597850e+03
1.208466226802416031e+03
7.729305902990970480e+02
3.325969724649297632e+02
-6.295125443025661980e+02
-1.341334876589934083e+03
-1.928877947323786202e+03
-2.008174201252018747e+03
-2.060182952631498210e+03
-2.050890165652672295e+03
-1.412220002885180747e+03
-7.011589115889369168e+02
-1.896399143694739280e+02
-8.967044371820435344e+01
-2.351656298375374661e+02
-1.460398336866449824e+02
1.227618051584700538e+02
4.992447069833096975e+02
6.493915138045591675e+02
6.022079054284695303e+02
6.188224402925743561e+02
5.672682069094342978e+02
1.636003459100432451e+02
-5.631084806399634317e+02
-1.474883314216935787e+03
-2.202761264634507825e+03
-2.678719545971722255e+03
-2.460823828856377986e+03
-2.496087805646533980e+03
-2.098521444244376198e+03
-1.665081435711967742e+03
-1.226774695724336880e+03
-6.624967553226497330e+02
-8.451284618723207132e+02
-1.014612426507888131e+03
-2.779298703420398056e+02
3.109091561087236073e+02
3.228980269696248797e+02
6.910884587267593133e+02
9.555213343744920849e+02
1.084267909796931917e+03
1.130364526819728781e+03
1.024754722084114519e+03
6.443937005072124293e+02
-2.596573011132244346e+02
-1.102364890347095297e+03
-1.849834475378973593e+03
-2.027121389685971508e+03
-2.456299840220179249e+03
-2.199460489629501808e+03
-1.236128428260642750e+03
9.362008719953006164e+01
8.544399308894733167e+02
5.216099343585194674e+02
2.669460277165283060e+02
5.796526941683200675e+02
9.077166646076821053e+02
1.143084122195681630e+03
1.537835399744523784e+03
1.463859001756936550e+03
1.151097243048434166e+03
1.404483497115703358e+03
1.116157710493893546e+03
4.543485076867166867e+02
-2.925358190102905382e+02
-6.749705681439841101e+02
-5.231662465342825499e+02
-8.923060897990790181e+02
-9.143869109198806200e+02
-1.224625251072616976e+02
2.197972001648421099e+02
2.740022393681995254e+02
6.649501509989428314e+02
5.492320164554869280e+02
7.754732487469591433e+02
1.560860992306478238e+03
1.816204063235591320e+03
1.981080286905316598e+03
2.511021003646825193e+03
2.712935524445801548e+03
2.879672828394832777e+03
2.555310612496967678e+03
2.394700939045390896e+03
1.919629457455847842e+03
8.371198922353883063e+02
-9.488152352448038584e+01
-4.134355506471343915e+02
-1.936768101732427567e+02
6.335663887477859646e+01
5.565712743044740591e+02
7.009499737282017122e+02
7.074858414292698399e+02
1.324184937520390122e+03
1.844973952816105339e+03
2.178814181973155428e+03
2.757662687171364723e+03
2.894446344619648244e+03
2.992220731590105515e+03
2.586901758588087432e+03
2.252409851847282425e+03
2.416743359775907720e+03
2.897835039777546172e+03
1.264612582086473367e+03
-3.157961989059795087e+03
-9.116923031280823125e+03
-1.011129857984542286e+04
-8.252179314107042956e+03
-7.623694983601833883e+03
-4.477931545204778558e+03
-4.669513635542943462e+02
2.470274070718474377e+03
1.665699633481195008e+01
-1.830871317933743512e+03
-2.230310425457474139e+03
-2.088632265345955602e+03
-1.273984162750735095e+03
-4.594241381202426737e+02
-2.859255769051974312e+02
8.284301953174153823e+02
8.855711436396873069e+02
-5.415519065698365466e+02
4.260277739099059318e+02
-2.607172995203183063e+02
-3.408824817429415361e+03
-5.169349602439056980e+03
-5.621249259679962961e+03
-6.340564748574824080e+03
-5.995456318637673576e+03
-1.762026912904922483e+03
3.036204510591538792e+02
8.355272722558605665e+02
2.026728133010469492e+03
4.899165525836056986e+03
7.013845431160830231e+03
6.679755204607994528e+03
5.285985977952788744e+03
4.558499339858270105e+03
4.696214744935964518e+03
5.468988239168204018e+03
6.084913956753649472e+03
6.616054156734593562e+03
5.706386970177013609e+03
3.325896964153346289e+03
2.637545490560502003e+03
2.273306518628054164e+03
1.264214461980461692e+03
-2.821241941112992979e+00
-1.299839224974691433e+03
-2.213916550680243745e+03
-2.201008912923377920e+03
-2.316011105803909231e+03
-2.679909514057344495e+03
-2.345697907156027213e+03
-8.584252529020359361e+02
8.919122179535140731e+02
1.896337482188869217e+03
2.823884824650041537e+03
3.350511033887741632e+03
4.339263633491083056e+03
5.469170708414979345e+03
6.003281173463919913e+03
6.139637792156196156e+03
6.728236945811132500e+03
6.742059861196611564e+03
6.623104915498177434e+03
5.917403446009131585e+03
4.826030282879569313e+03
3.857147845707304441e+03
2.965810579619219425e+03
2.202950908038747912e+03
1.406497546429143767e+03
2.503718020964039965e+02
-1.029399575519653808e+03
-3.049540725921377998e+03
-5.250873931067474587e+03
-7.276419613794788347e+03
-8.848063670791771074e+03
-1.023584807843330054e+04
-1.041364634519877291e+04
-9.929438918772018951e+03
-9.641430273817135458e+03
-8.556273488792165153e+03
-7.807000326564625539e+03
-7.427708726076637504e+03
-6.995430418079740775e+03
-6.964146594171542347e+03
-7.534832187663884724e+03
-7.122449249041291296e+03
-6.325005239227431957e+03
-5.861445428038909085e+03
-5.891712186663260582e+03
-5.496746780291486175e+03
-5.015426803410870889e+03
-4.772700032452297819e+03
-4.904499614843318341e+03
-5.597732976361729925e+03
-6.788353145998976288e+03
-7.129309072051075418e+03
-4.732560252388454501e+03
-7.920553152562688410e+02
1.000317863724475615e+03
1.796274915395127323e+02
-5.401052765109370739e+02
-9.538006001447155313e+02
-1.746387715897561975e+03
-2.030826640944002975e+03
-2.104098176074133789e+03
-2.456217289189719395e+03
-2.352134705482723348e+03
-1.347791520333779999e+03
2.068931069561455445e+02
1.487976336757919853e+03
3.355554735525652177e+03
4.866745856804656796e+03
5.680587314651480483e+03
6.734120689972485707e+03
8.201444206319716614e+03
8.960586524961381656e+03
9.042591596937671056e+03
9.244496894067227913e+03
9.153293582785947365e+03
9.722125305800569549e+03
9.811043906794451686e+03
9.549098956641566474e+03
8.495296276686567580e+03
6.771680796095257392e+03
5.411268604914478601e+03
4.704007678446765567e+03
3.762942425414404624e+03
2.279164478276403770e+03
5.687281526094880064e+02
6.137128003046058211e+02
1.251125995535165657e+03
1.445923696588387884e+03
1.162180811095402532e+03
9.469592216358641963e+02
1.187285752968136421e+03
1.152252813216334289e+03
1.157854981025680900e+03
1.243018979218480354e+03
9.629042832928273583e+02
1.281489512392285178e+03
1.181748478773011811e+03
6.338478638937727965e+02
8.697448432828387865e+00
-1.171988003554810575e+03
-2.247766269099950932e+03
-2.829605828759235465e+03
-2.475831823061058003e+03
-2.055330887346256532e+03
-1.669165558759214036e+03
-1.473193804303937441e+03
-7.982458343344535479e+02
-2.203657784527416652e+02
-3.377457320344672667e+02
-9.416999702020881102e+01
5.810785913911970511e+02
9.391944818276182332e+02
1.056076045414293503e+03
1.223617488727218870e+03
1.266944098531327882e+03
1.568178024130327685e+03
1.758231892147290864e+03
1.630810841044922654e+03
1.323287406888503256e+03
3.936596148161128212e+02
-6.303468472235631452e+02
-1.574784265073657707e+03
-2.048790298507306488e+03
-2.510549056206025853e+03
-2.299705939433015828e+03
-1.714158944187392535e+03
-9.022005476083360236e+02
-1.148028862845740576e+02
3.011265741126154012e+02
2.656708655165347750e+02
4.758644622838381792e+02
2.832668436865255330e+02
9.677656569474257253e+01
5.137234106951226522e+02
8.122840382495294307e+02
6.860493606983446853e+02
6.480905387076072657e+02
2.794013960129282168e+02
-1.043535590728555462e+02
-6.529497245401955752e+02
-8.576134141926572738e+02
-1.786532873826608920e+03
-2.059668912776445268e+03
-2.208918113399688536e+03
-1.613406518680482350e+03
-7.142107454325660001e+02
-2.364147166415302763e+02
-2.750709719383166885e+02
-2.791633627620009293e+02
1.532314431170689488e+02
6.470767700727074043e+02
1.302349793005806987e+03
1.863997057898402318e+03
1.595912035747674963e+03
1.531066497378910299e+03
1.877508093234309399e+03
1.871208629084786708e+03
1.300110773902766141e+03
4.091396669627831670e+02
-3.057714738581963502e+03
-4.663604690477896838e+03
-3.679658316051831207e+03
-3.590973756298111766e+03
-3.543578208181502760e+03
-2.613414859669132056e+03
-3.318494550262705616e+03
-1.068864234800750864e+03
-9.015403912183093098e+02
-2.230556678384399220e+03
3.970934891119565577e+02
1.026393004316679708e+03
-3.256813649488094029e+02
-9.832627470513363050e+02
-8.135963712752719346e+01
-2.255037547498927324e+03
-2.189265511309331487e+03
-1.825052195886813479e+03
-2.106489114779943520e+03
-2.708557013703638859e+03
-3.060305411786172499e+03
-2.781826574565121518e+03
-3.131110643206736768e+03
-5.350183984574186979e+03
-3.466172464229222896e+03
-4.982067776347752442e+03
-2.480886715308193743e+03
-2.042681045938996704e+03
-4.640501127828551034e+03
-1.478363146204660097e+03
8.507691396160746535e+02
1.602903102631786851e+03
1.595975094322472160e+03
1.513924226236834329e+03
1.578772829269001022e+03
1.431616343382819423e+03
1.332606718805371202e+03
1.370753808485522768e+03
1.316960197887207642e+03
1.406170348025783369e+03
8.573377822352751991e+02
2.084114335294489706e+02
-2.895838678600171647e+02
-1.106421886977804405e+02
-3.278658980123097990e+02
7.198697701329195286e-01
3.181519367175565094e+02
1.784208521828783489e+02
8.645454228583215581e+02
1.213551800772328761e+03
1.436550142490173357e+03
1.530511886255978652e+03
1.457362054295245571e+03
1.223018716663955502e+03
1.221651380605457462e+03
1.395634822223948731e+03
1.844346551202175760e+03
2.352544695589808271e+03
2.188005722703557694e+03
2.101785098008155273e+03
1.727708772233193258e+03
1.343584944270349297e+03
5.864576857608701630e+02
-2.082871115484993254e+02
-4.456652018526748407e+02
-1.716983096529037311e+02
-1.213125543036666443e+02
4.345303247042364205e+02
1.100774558206809161e+03
1.312184861729875593e+03
1.514108531163888756e+03
1.356334757750606286e+03
1.217020327619478167e+03
1.149142824727683319e+03
1.112817108454763911e+03
8.593197566185710912e+02
1.631601777938586110e+03
2.896649011991506541e+03
3.458502855515289866e+03
2.918078411244527615e+03
1.545150531362081665e+03
3.919854973556393247e+02
2.834111107606336759e+02
-1.726927016493951328e+02
-7.895426037758929851e+02
-1.029104937137148681e+03
-7.916309931766949148e+01
1.045426534462163318e+03
1.645683220892109603e+03
1.036585626857331135e+03
9.151186605279115156e+02
1.109296235703574894e+03
1.064198239823632321e+03
1.155937382098795297e+03
1.002640630018251386e+03
3.192014494732554226e+02
1.525995685701276159e+02
-2.100352041795106857e+02
-5.716331914194976207e+02
-1.187118320906784220e+03
-1.583464148104457990e+03
-1.548702308361560199e+03
-1.140835083931053987e+03
-3.018324331160262659e+02
2.929222873011462980e+01
1.764305771331173105e+02
4.064929328622105800e+02
8.235213331417982090e+02
1.112588641086546204e+03
1.267703904004550623e+03
1.368781236059020330e+03
1.774820704818510194e+03
2.145866336971855617e+03
2.211982141878487710e+03
2.113123043082620370e+03
1.995354812837753570e+03
1.960712012629101309e+03
1.376234428179179531e+03
1.311935201964492535e+03
1.052872229449966881e+03
8.490403601425942952e+02
-6.246109777449047442e+02
-3.258041969355992478e+03
-7.102180224378849744e+03
-8.217026933504017506e+03
-8.051487008456879266e+03
-8.155483553352559284e+03
-7.322932267522889560e+03
-6.777749233211325190e+03
-6.568910358645228371e+03
-6.256493921416144076e+03
-5.878449840542780294e+03
-1.867837588568347428e+03
1.097219081202033749e+03
2.094701246724054272e+03
2.313581406140652689e+03
2.438867161166804635e+03
2.605570490252267973e+03
2.583690834642435220e+03
2.235127590669022084e+03
1.846858726737797952e+03
1.125835960471565841e+03
3.230527486913509279e+02
-1.904743558604568818e+02
-3.557863693622842334e+02
-1.288528790260468213e+02
2.193819519031517586e+02
6.159006443871681995e+02
1.345758266034379858e+03
1.527945447416742354e+03
1.743270377537354534e+03
2.116550689185267402e+03
2.581840050817505926e+03
2.029299265197155364e+03
1.645884975291338833e+03
1.494555237156193016e+03
1.732354071527828864e+03
2.076279968484701840e+03
1.697420571312346055e+03
1.297786419664412506e+03
4.303166001205982525e+02
-7.561005668918304536e+02
-1.170529976822009075e+03
-1.344066751047016623e+03
-1.039893726777678239e+03
-7.660218734262732596e+02
-6.453585028816075919e+02
1.860349891130578612e+02
9.221601476032864184e+02
1.558081686160888694e+03
1.695884384011446400e+03
1.266564143584284466e+03
1.148127552985499960e+03
1.321479065434959011e+03
1.352603035829471764e+03
1.232559996239861221e+03
1.298396852977050457e+03
1.451203432571221811e+03
9.249904267981597741e+02
-1.252574004131095791e+02
-5.604674926257055176e+02
-6.735893919129530332e+02
-1.546129232148378208e+02
1.053306157130630680e+02
-1.657401505028607573e+02
-1.618084210874891653e+02
1.881406410856682783e+02
4.411165561642180251e+02
1.168061995301578008e+03
1.490025643228309036e+03
1.196036870258310955e+03
1.672116113651153682e+03
1.512365818841291230e+03
5.056900341653422970e+02
1.015145792188859900e+03
7.697875073212583175e+02
-3.125416364377816535e+03
-2.210413080465291387e+03
-5.920932631134477475e+01
-2.070835188253397064e+03
-2.488399268487586141e+03
-4.041927950812067138e+03
-4.327424656252107525e+03
-2.756914203481359436e+03
-1.321485390333545411e+03
-1.873101602192510427e+03
4.143100598858887338e+02
-1.045225194321171330e+03
4.243246914900657316e+02
7.909708567096703291e+02
-6.723125409848411209e+02
-6.895224819111606394e+02
4.853614657944769419e+02
9.963057950020300950e+02
-2.493706489131326180e+03
-7.616445852358984894e+02
1.793505988461710785e+03
1.477828117727975496e+03
1.489358318233135833e+03
1.411224370337053244e+02
-4.001874402851600735e+03
-4.153641992039458273e+03
-2.736250339326757967e+03
-4.541762346824961242e+03
-5.796248150696072116e+03
-5.404701716564252820e+03
-3.390064190682872322e+03
2.471960738371343425e+01
-1.457375693916470937e+03
-4.448301255231155665e+03
-3.409062186909705360e+03
5.753135278814170306e+02
-1.551698003590640553e+02
5.285311012503956363e+02
2.079412468658114449e+03
5.564768002978161121e+02
2.306749844881951958e+03
2.479197822086370252e+03
7.778084204386717602e+02
-3.329911143871359513e+01
1.426760310598912611e+03
1.357931708454878390e+03
7.971576380305604062e+02
6.564053477936688523e+02
4.266680324119009242e+02
4.909625018501808995e+02
6.053501810429908119e+02
8.858222648480733596e+02
1.515381318843574491e+03
2.177024409161816948e+03
1.980766872689114280e+03
1.616636729110333135e+03
1.747593622324326589e+03
2.007621813834285376e+03
2.071713134340589477e+03
2.270873528614388761e+03
2.706968894480935887e+03
2.490443479057397326e+03
2.004340099197988593e+03
1.362431094304159615e+03
4.356857282943299765e+02
-4.988154101850091138e+02
-1.267499698176221045e+03
-1.708038495730063687e+03
-1.832672399826528363e+03
-1.951292395424811502e+03
-1.178702080103710159e+03
-3.751375676664530943e+02
5.293653442338946888e+02
9.088911778410659963e+02
1.166372034690092050e+03
4.619913618391140631e+02
1.818954706233630247e+02
4.159089841433343508e+02
4.140701719614624494e+02
5.172882681456791261e+02
6.987175337073515493e+02
1.048078497327476498e+03
1.710492432622738761e+03
2.303020615963529963e+03
2.041696160383735332e+03
1.634176443786570189e+03
1.595744765114856136e+03
1.885884894477628222e+03
1.352085651148794568e+03
6.363296371673230851e+02
1.000161169730197003e+03
1.530739248491287071e+03
1.490008720479709382e+03
1.170398523968614626e+02
-1.083243428989379936e+03
-1.574776105427305083e+03
-7.993591935530995443e+02
3.218541708572431048e+02
9.517525371377140573e+02
1.641361542599142240e+03
2.039688343370261919e+03
2.243801226724257504e+03
2.608670207324961666e+03
3.055221896912115426e+03
2.920392593642703105e+03
2.413224473449291054e+03
2.164657874493923373e+03
2.050646702937076498e+03
1.686197258492114088e+03
1.473266633613283830e+03
2.067853392513996823e+03
2.244944535343563075e+03
1.756599343605955937e+03
1.898204922330601221e+02
-2.161373829339966051e+03
-4.035951567378627260e+03
-4.453930081219139538e+03
-4.110334690157620571e+03
-3.737250579834282235e+03
-3.664644092231107606e+03
-2.887517784720289455e+03
-2.870849528775152976e+03
-2.655628277343837908e+03
-3.102847741635152033e+03
-4.186430613222874854e+03
-4.906446461440068560e+03
-4.483956141111681973e+03
-2.764932517307392118e+03
-1.420486020106177193e+03
-4.067644187814917586e+03
-1.437340528601430606e+03
-2.515549231547751333e+03
-3.872229489475453192e+03
-3.645373084567459500e+03
-3.876943447710495548e+03
-3.862911070728711366e+03
-4.062284937253014505e+03
-3.689109650380658422e+03
-3.393465395552669634e+03
-3.406370189674419635e+03
-1.893723312737868355e+03
2.165592135509279160e+03
3.223564694577521095e+03
3.536139507686783418e+03
2.969340208527123650e+03
2.270190433474910606e+03
1.650635694826572944e+03
1.114587221994956963e+03
7.790435144905020479e+02
5.710550428273959369e+02
5.857380660732729893e+02
4.781316765630934924e+02
1.233228697599946827e+03
1.811090119583392152e+03
1.906749502228688698e+03
1.612267668689722314e+03
8.286720279115368157e+02
4.709058301380585476e+02
9.697906175111018001e+01
3.092136695837508142e+01
1.787731424389633332e+02
5.885530502804670050e+02
6.941851159902582822e+02
6.966141479327575325e+02
1.091820992914877024e+03
1.407848794654696576e+03
1.086757621988736901e+03
6.435056668413371881e+02
1.140094428017418295e+03
1.474533409747277574e+03
1.198855932520207944e+03
1.122090624342205274e+03
1.036233101044942032e+03
1.314340945931176293e+03
1.445451176936784577e+03
1.831627605108616535e+03
2.499935996884572887e+03
2.995365667187899362e+03
2.970950129037948500e+03
3.494618056230598995e+03
3.797395158526178875e+03
3.246210140891361334e+03
2.760429225232627232e+03
2.419308566580446040e+03
1.388970881770120513e+03
5.618198986043100973e+01
-1.422141230868023058e+03
-2.552951919825618461e+03
-2.800346353136921607e+03
-2.973316861686340872e+03
-3.150790394095581632e+03
-1.762714387794449749e+03
-8.560461893758223368e+02
-2.800013238340661701e+02
1.905754616250270033e+02
2.555900567200884268e+02
7.570139420053779986e+02
1.324846407005527453e+03
1.420060111802458778e+03
1.310632208262613403e+03
1.621590231750404428e+03
1.271921495380148826e+03
3.666684800048381021e+02
1.248721308908179850e+02
-4.194727595631870827e+02
-7.014078940638618178e+02
-5.149514259240746696e+02
-1.158085085220233623e+03
-1.891832259407443644e+03
-2.087212261176340235e+03
-1.560173052477587589e+03
-6.866407395692781392e+02
-2.305959946120485995e+02
-4.093970823948839488e+00
-3.549754022553023560e+02
-1.138185356841318253e+03
-2.014823442620346214e+03
-2.648946435190105603e+03
-1.879567204025753199e+03
-9.916170216721362749e+02
-1.260793934685208058e+02
6.801124671783232998e+02
1.916947917206128523e+03
2.353373502075968190e+03
1.470385389162621323e+03
3.359349873223493432e+02
-1.699911768745477332e+02
-1.149395134114942721e+03
-1.535297239046439472e+03
-1.568731184247402553e+03
-1.032737255656815705e+03
-2.412456958960066800e+02
5.388354228282614713e+02
9.435661216100137381e+02
7.498801497631056918e+02
9.188335194132806691e+02
6.735234528297422685e+02
4.428817815831248481e+02
2.077912682341335540e+02
7.631513310005374251e+01
4.255047907309691482e+02
6.062912573334227773e+02
2.266787829315474312e+02
-4.583857429961578873e+02
-3.079188524383783943e+02
-2.709459163720995321e+02
-5.973436047725953131e+02
-9.122159421194081688e+02
-1.681642769424693142e+03
-2.296694202582851631e+03
-2.675328004032794070e+03
-2.819494669181765403e+03
-2.000247908122117451e+03
-1.713513617482690961e+03
-9.971228258495330010e+02
7.975912799346572513e+01
7.110041150499966989e+02
1.374181401213907520e+03
1.902987811161998934e+03
2.461156595289237430e+03
2.629100200671560742e+03
2.656585910597677412e+03
2.725565789427625987e+03
2.313207221816626770e+03
1.131192946890128951e+03
1.833632253542443777e+02
-7.440304946795139358e+02
-1.194197259860170334e+03
-7.228790182198155208e+02
-2.076056384206498535e+02
-1.798991159905922359e+02
-5.368344064365130208e+01
2.460566710116390539e+02
4.342757588120252308e+02
3.175993132092393125e+02
2.076124066126745618e+02
-5.404297356795018459e+01
