-7.103036682667582681e+03
1.089668525753816539e+03
5.435209424538234998e+03
4.328819407191940627e+03
4.784700187307395936e+03
1.301300291339894648e+04
1.950879285008059742e+04
2.608688761335347954e+04
2.975589170339466364e+04
3.163656893097715874e+04
3.283679402861740527e+04
3.359058307056988269e+04
3.423304896873064718e+04
3.463621474080588814e+04
3.452008370851744257e+04
3.412066952321529971e+04
3.379784051859200554e+04
3.510059803773060412e+04
3.698200474668253446e+04
3.794000698199911858e+04
3.849634656556963455e+04
3.881977520844426908e+04
3.971268989285513817e+04
4.034154669267662393e+04
4.058893836432836542e+04
4.067505941914689902e+04
3.563386327558415360e+04
2.857006032950543522e+04
2.809915520025995647e+04
2.928748901690180719e+04
3.059613877509240046e+04
3.184782356356436503e+04
3.256531267543080685e+04
3.201533051530445664e+04
3.135734865795310543e+04
2.982404047676035043e+04
2.776572398317495390e+04
2.587248590575102207e+04
2.507284133298575034e+04
2.505623927543555692e+04
2.610038340020645046e+04
2.466073957502767371e+04
2.216941397592972862e+04
2.192859230519196353e+04
2.051657580533482906e+04
1.894078219263315987e+04
1.543554402197363379e+04
1.132131317973523983e+04
7.040700057955690681e+03
5.007118474438703743e+03
5.619932118366484247e+03
4.266671678999039614e+03
3.017672571355744822e+03
4.040585019239094891e+03
7.533472495610071746e+03
9.018387597812819877e+03
5.501529058809024718e+03
1.628873197246476821e+03
5.479732954410928869e+01
-1.620393487556077162e+03
2.025706597558306612e+03
5.111222240241486361e+03
7.631185429886018028e+03
1.142212246617418532e+04
1.415749642163706449e+04
1.306849892646017724e+04
1.089625310520188577e+04
9.144991336616367334e+03
8.469969043891125693e+03
7.252300757948800310e+03
5.605105371024722444e+03
3.296752471727407283e+03
-5.213090176341545430e+02
-5.686767598138608264e+03
-8.325449344681834191e+03
-8.174224969530364433e+03
-8.161708654866658435e+03
-9.688535486980887072e+03
-1.189561153859132537e+04
-9.753635944505180305e+03
-7.673263189188510296e+03
-7.855362985473252593e+03
-8.245739039115558626e+03
-9.222873416672484382e+03
-1.110045865124107331e+04
-1.229833609048151629e+04
-1.340323212871532451e+04
-1.496660911475326247e+04
-1.697230688420842853e+04
-1.804945394958987163e+04
-1.793570546529708008e+04
-1.577064588913916123e+04
-1.182284633640164066e+04
-1.045502364435574054e+04
-9.861008019269364013e+03
-9.285461339168641643e+03
-1.100908481074636620e+04
-1.257958275335331928e+04
-1.649570191008205074e+04
-2.142328898292389931e+04
-2.617518455092567820e+04
-2.828611825977268018e+04
-2.809695737360987550e+04
-3.028855024565956046e+04
-3.130868309656248312e+04
-2.938201809473191679e+04
-2.850439590778288766e+04
-2.592772791370927007e+04
-2.492985655666117964e+04
-2.635157441668392858e+04
-2.798176894476974485e+04
-2.808238573195047502e+04
-2.456435752757207956e+04
-2.040659996201953982e+04
-1.830698859836855991e+04
-1.778230505060601354e+04
-1.742650404018775225e+04
-1.630457257321727229e+04
-1.556754809136606309e+04
-1.399348349246278303e+04
-1.289332689566633599e+04
-1.647206262855611931e+04
-1.737875941430879902e+04
-1.519151974904835697e+04
-1.505142789177433951e+04
-1.462137334523355094e+04
-1.315949396832986713e+04
-1.234112233818471395e+04
-1.098001548356694184e+04
-8.309979816368680986e+03
-3.507235250747038208e+03
-1.189867692686033109e+02
1.455769885551773996e+03
3.345857325417027823e+03
3.846204724080759661e+03
1.181085003816766175e+03
-4.329022428223330280e+03
-9.007271298228024534e+03
-1.088355488432815582e+04
-1.152525635160732418e+04
-1.260965173616742686e+04
-1.101738739498028553e+04
-6.188922654475806667e+03
-4.132896545872538809e+03
-2.346606676088005770e+03
1.593383746596902483e+03
5.481590157073997943e+03
8.014095197880516935e+03
1.034199229800890680e+04
1.295922544108065267e+04
1.592491769554664279e+04
1.937915211136698053e+04
2.038849149991848753e+04
1.941236672378243748e+04
1.990057301863679822e+04
2.254479156678199070e+04
2.681552914758515544e+04
3.020235089686150968e+04
3.334153297421448951e+04
3.393719238372931432e+04
3.393313337028784736e+04
3.774289406014044653e+04
4.505764259625947307e+04
4.954647663327150076e+04
5.503908451444911043e+04
5.865992276065673650e+04
6.085050544231358799e+04
6.052287850739295391e+04
5.979720344594155176e+04
6.096189562682260294e+04
6.142338493075608130e+04
6.001681791668137157e+04
5.613942397381493356e+04
5.183351567285435885e+04
4.740035628668234858e+04
4.172706726336734573e+04
3.673591328184617305e+04
3.193212842278078824e+04
2.736291055654610682e+04
2.477063582639898596e+04
2.243162278886851345e+04
1.854582417823648575e+04
1.518212448935431348e+04
1.290854231149030966e+04
1.116088989850867256e+04
9.322235851064991948e+03
7.118829064459860092e+03
8.767700021066262707e+03
1.016600347326031442e+04
1.053282766126091883e+04
9.194124245600254653e+03
9.321948476704110362e+03
9.332396823283310368e+03
1.157034941846393485e+04
1.052470809477165858e+04
9.246534187469176686e+03
7.994822382324212413e+03
5.579648275002082300e+03
7.308045763713059387e+03
7.960836325724063499e+03
2.695826151600621415e+03
9.040572699013764577e+02
3.885369714628242491e+03
1.340560282030533244e+03
-3.292521505992306629e+03
-7.092818427109104050e+03
-1.181032265804328199e+04
-1.667023873054616342e+04
-1.437461056104281306e+04
-1.687947594640147872e+04
-1.712193705192208654e+04
-1.670996319954024875e+04
-1.785155687615119314e+04
-1.890581458559102612e+04
-1.912586141927912468e+04
-1.940558439055772033e+04
-2.040002321395714534e+04
-2.122623850445185599e+04
-2.106324110192499211e+04
-2.131410534784304764e+04
-2.380904561999642465e+04
-2.796418582780842553e+04
-3.053450131174710259e+04
-3.164090345376400364e+04
-3.094251662776253943e+04
-2.884446974043213049e+04
-2.720194465488221977e+04
-2.596313922342554724e+04
-2.558232799248376250e+04
-2.775668881397050427e+04
-2.957692078496427712e+04
-2.968757220473663983e+04
-2.977779352592759096e+04
-2.883981155192945153e+04
-2.696706982995989529e+04
-2.523232300302668955e+04
-2.378259923475389223e+04
-2.149980985616815451e+04
-1.853165382212269833e+04
-1.656757286057207602e+04
-1.571486711209806344e+04
-1.433224028451572303e+04
-1.338670513067947104e+04
-1.336294933419022345e+04
-1.405281237544413489e+04
-1.397130352037012381e+04
-1.349268797611207083e+04
-1.251129527058917847e+04
-1.096496074314511134e+04
-9.484699883745412080e+03
-9.305555817734983066e+03
-7.821569324483973105e+03
-6.655106989483212601e+03
-5.678049625853962425e+03
-5.402729531059620058e+03
-5.385548353492715250e+03
-4.742616528784882576e+03
-4.771606658603831420e+03
-7.160904588916161629e+03
-8.991740952038413525e+03
-7.713988266997823303e+03
-5.101460112635475525e+03
-2.387640685031306930e+03
1.455391954990067688e+03
4.676603748635034208e+03
5.861966508974295721e+03
5.668394008161767488e+03
4.764860024761999739e+03
4.179919839509858321e+03
4.403511049670947614e+03
5.044354204601179845e+03
5.915989296493065922e+03
6.574385522058715651e+03
6.742480365866996181e+03
7.960153067684213056e+03
9.101981700314188856e+03
9.635264786077341341e+03
1.084866162081714538e+04
1.229361007494240403e+04
1.302337610441271863e+04
1.368231211325507138e+04
1.337394653634659153e+04
1.219297045588911351e+04
1.168717510694412340e+04
1.171141324477325179e+04
1.132195680977981829e+04
1.107799685306273750e+04
1.145882436644759036e+04
1.177576749151201329e+04
1.222067153149603655e+04
1.262573331340469304e+04
1.288443203795297086e+04
1.307340557253560473e+04
1.234323687105856879e+04
1.181926837109396729e+04
1.078815223756938394e+04
1.046070726836170252e+04
1.065363891989157128e+04
1.120906327293696631e+04
1.179276331001840481e+04
1.167628625797731002e+04
1.159295253126023636e+04
1.024485974729914597e+04
7.476047322909308605e+03
5.225725530459925722e+03
4.273388549220822824e+03
3.366651578691765735e+03
2.583352665399334910e+03
1.617343951218984557e+03
1.457579372446498155e+03
2.098747418121965893e+03
5.785325102431866071e+03
1.065405337971395056e+04
1.083269067236133014e+04
1.066624347113481781e+04
9.910047180520128677e+03
9.303850677769276444e+03
9.700491931100928923e+03
9.525749212188211459e+03
9.621304388117430790e+03
9.816973209391760975e+03
9.548570350311341826e+03
9.191545091917207174e+03
9.395101590591182685e+03
8.808600082784400001e+03
8.482092761007850640e+03
8.623923430339074912e+03
9.135763202141954025e+03
9.229031446814178707e+03
9.171305267134857786e+03
8.793380079484257294e+03
8.058967229227378084e+03
7.450551004800912779e+03
6.658544873932882183e+03
5.411528180907844217e+03
4.498031745084030263e+03
4.107380799871384625e+03
4.177570111232120325e+03
3.575282387756507433e+03
4.148212785036338573e+03
4.747410364999212106e+03
5.265185471901904748e+03
6.243335372111442666e+03
8.846943172168328601e+03
1.096581361443198512e+04
9.277262127177575167e+03
7.947860397393282256e+03
7.097888965385612210e+03
6.564080865627039202e+03
6.523909824478975679e+03
6.440797923258078299e+03
6.875398680703321588e+03
7.301938184889369040e+03
7.989115971700649425e+03
9.373415166158547436e+03
9.860229706556126985e+03
9.120222103824769874e+03
7.583215801553553320e+03
6.864046082590394690e+03
7.909355997308379301e+03
8.749139772302130950e+03
9.901896236865686660e+03
1.029382909136231501e+04
9.579655482261867292e+03
8.337911270975531806e+03
7.392232111240137783e+03
6.639923855430140975e+03
5.959492938165470150e+03
5.612128297795076833e+03
5.785544957204488128e+03
5.307147773898970627e+03
4.643055576749855391e+03
4.593514440810004089e+03
4.243266144428647749e+03
3.032522455545404227e+03
2.167138230316148110e+03
1.944896997616350745e+03
1.473468956223207442e+03
1.144570810474068821e+03
9.794800574056101539e+01
-3.696800332098147010e+03
-6.854497101176647448e+03
-7.212355327389779632e+03
-8.130024353653611797e+03
-8.289064007355556896e+03
-6.296211089250907207e+03
-5.490514994356829447e+03
-5.149526332748877394e+03
-6.688347470470780536e+03
-9.356458076014845574e+03
-7.781449555653728567e+03
-1.021247606626561355e+04
-1.493962470246427984e+04
-1.699600400194829854e+04
-1.437696728672877543e+04
-1.534209455854844055e+04
-1.955007674125799167e+04
-1.896170766760552215e+04
-1.763863040937429469e+04
-2.096852897717779342e+04
-2.051563280990904968e+04
-2.215131516656442182e+04
-2.663162150454012226e+04
-2.509521377652696538e+04
-3.044646992281072016e+04
-3.370185161411957233e+04
-3.191485762969729694e+04
-3.496805784206856333e+04
-3.548287147089189239e+04
-3.840885111773226527e+04
-3.951444362907431787e+04
-3.899044645787525224e+04
-3.946996413547277916e+04
-4.283535937669595296e+04
-4.215660887737664598e+04
-4.590504079889468994e+04
-4.704410040516153822e+04
-4.615228461914212676e+04
-4.730588976745328546e+04
-5.085197538259697467e+04
-5.165703318996396411e+04
-5.230976571931898798e+04
-5.304951807394705247e+04
-5.549882573519233847e+04
-5.745084946435135498e+04
-5.876962511345002713e+04
-5.972948939840884123e+04
-6.059880179425072129e+04
-6.123794101783828228e+04
-6.201605841136290110e+04
-6.319462377715924958e+04
-6.561581963161610474e+04
-6.760555108217243105e+04
-6.983194331660574244e+04
-7.206266664091625717e+04
-7.052496494668359810e+04
-6.629586437254963676e+04
-6.349884276963189041e+04
-6.297487688013428851e+04
-6.353290797194094921e+04
-6.619936284609005088e+04
-6.860463084907959274e+04
-6.837472909114341019e+04
-6.759633346592551970e+04
-6.756780488689860795e+04
-6.704848960521661502e+04
-6.705903812004890642e+04
-6.700816806117883243e+04
-6.521066958067257656e+04
-6.432474471736227861e+04
-6.445444455191237648e+04
-6.469561743604417279e+04
-6.505951292537243717e+04
-6.355278577935128851e+04
-6.192600782892572897e+04
-6.102681462361596641e+04
-5.736596881136407319e+04
-5.219882125813979656e+04
-4.868866616126431472e+04
-4.683783497523372353e+04
-4.586914385453571595e+04
-4.338191532080429897e+04
-3.995895434648180526e+04
-3.794730543319311982e+04
-3.473291222975208802e+04
-3.117189778241267049e+04
-2.853126468557961562e+04
-2.538718309533601860e+04
-2.042776441978094954e+04
-1.569938415996323602e+04
-1.235500469754198275e+04
-6.184787887378751293e+03
6.343129739029159282e+02
7.109011219379019167e+03
1.470569597523182711e+04
2.257356546325151430e+04
2.897817914182197273e+04
3.390910578265385266e+04
3.854150878459285741e+04
4.449222091892297613e+04
5.146272191583893436e+04
6.005818932225274330e+04
6.689410058809738257e+04
7.091094797928001208e+04
6.830475124933948973e+04
5.973270117590455629e+04
4.900797097781152843e+04
4.002895303048529604e+04
3.584209387650060671e+04
3.726694335545443755e+04
4.485399635188183311e+04
5.147960910028214857e+04
5.512906457738624886e+04
5.644644522142331698e+04
5.641153148858738859e+04
5.683482514090690529e+04
6.000381672567996429e+04
6.137943752759315976e+04
5.689607844661881973e+04
5.016185579445763869e+04
4.934396619053249742e+04
5.340451691973980633e+04
6.223827951017376472e+04
6.559623990500833315e+04
6.586615938529152481e+04
6.824360794495363371e+04
7.315723243809179985e+04
8.152270267269542092e+04
8.952514934231671214e+04
9.212406447309938085e+04
9.651264499898283975e+04
1.062481726532615285e+05
1.096359388329087669e+05
1.107841566306899185e+05
1.134979460657067539e+05
1.119096783000927389e+05
1.063117164334957488e+05
1.034241801338868827e+05
1.022989822414968075e+05
9.902100835145761084e+04
9.498235836631103302e+04
8.571632425359400804e+04
8.373217781561252195e+04
9.268035826176886621e+04
9.468527955979308172e+04
9.330217359444771137e+04
9.859907524072899832e+04
1.092480106230932433e+05
1.183713297867066140e+05
1.252265163862466434e+05
1.301019862167199026e+05
1.268319882909180014e+05
1.215570991207179322e+05
1.191409999601172603e+05
1.170304262136282196e+05
1.135252907860679843e+05
1.083487308850463742e+05
1.031519204373439716e+05
1.003151502074114396e+05
9.535284185116327717e+04
9.089741481328768714e+04
8.903028887821672834e+04
8.481523790718079545e+04
7.739818782629758061e+04
6.602716337032750016e+04
5.638344352389326377e+04
5.297991137765585154e+04
4.816479969709555007e+04
4.280205707560936571e+04
3.609263420024288644e+04
2.479844044640985157e+04
1.335875912321131909e+04
4.117024492105914760e+03
-3.322345397761465392e+03
-6.579593788155269067e+03
-8.101513967766160022e+03
-6.720852053877308208e+03
-8.531038243598903136e+03
-1.669457792546332712e+04
-2.140361059593020036e+04
-1.775086258627537245e+04
-1.315092023421370322e+04
-1.697196693335292002e+04
-2.706008362364486311e+04
-3.534408378780249768e+04
-3.747276057032479730e+04
-3.239801710282434942e+04
-3.465300458670941589e+04
-4.742765987551942089e+04
-6.319575883311666985e+04
-7.446836299419619900e+04
-8.624496815479421639e+04
-9.475370739476161543e+04
-1.052165492901267280e+05
-1.101260776183714624e+05
-1.091398262762726081e+05
-1.107770640666695108e+05
-1.182224122302353790e+05
-1.275233097589981771e+05
-1.402131041792837204e+05
-1.531321588407146628e+05
-1.696965629589503806e+05
-1.882692435973657412e+05
-2.044258260264527344e+05
-2.213747185435346619e+05
-2.381000369920013472e+05
-2.512985264784261817e+05
-2.710528821192399482e+05
-2.865656260815046844e+05
-3.003409485822683782e+05
-3.110190726812055800e+05
-3.174482596964527038e+05
-3.295565220025542076e+05
-3.433455269578589941e+05
-3.518038453921299079e+05
-3.657087463600466144e+05
-3.818146357883098535e+05
-3.973096676530570257e+05
-4.176337400229048799e+05
-4.404267419206473860e+05
-4.414554604427979211e+05
-4.211522391735274578e+05
-3.967562825521419290e+05
-3.702291089664730243e+05
-3.322460837471789564e+05
-2.823584855450008763e+05
-2.222684221761666413e+05
-1.432017692730347917e+05
-8.871047697575255006e+04
-6.172255215521764330e+04
-1.169602886314776515e+04
6.429806345923562185e+04
1.501440030586271023e+05
2.086221633234135516e+05
2.055258033341526170e+05
1.638959758798929979e+05
1.157288293862168503e+05
8.464063768359604001e+04
4.393662344162933005e+04
-6.654972198655924331e+03
-5.546696741033970466e+04
-7.529526768172347511e+04
-6.427179502486351703e+04
-3.778654010546206700e+04
6.229354218379588929e+03
5.439874828549373342e+04
1.005203022449200362e+05
1.362487778793549223e+05
1.600408132160308887e+05
1.765758370371957426e+05
1.912984201173426409e+05
2.113908864171441819e+05
2.383842376167473849e+05
2.707360799761473900e+05
3.046415419164986233e+05
3.338423637125709793e+05
3.555149334000411327e+05
3.694667482123197988e+05
3.840301779606811469e+05
3.931549999983402085e+05
3.937369239148256020e+05
3.957416507381601841e+05
3.951175776646513841e+05
3.840298681061597308e+05
3.607642776339966804e+05
3.285925949162628385e+05
2.988354529910280253e+05
2.752320392910752562e+05
2.566167932071838295e+05
2.424147218073106778e+05
2.330984153524264402e+05
2.284808550419527164e+05
2.260359955507826526e+05
2.219711558837817283e+05
2.208386964542450150e+05
2.233509219171048899e+05
2.293963819125843002e+05
2.392777299199541449e+05
2.462468581948100764e+05
2.518255665534333966e+05
2.570209520572990295e+05
2.605143206197311811e+05
2.607670156846201862e+05
2.548331621225363342e+05
2.422462190708522976e+05
2.290150889287576720e+05
2.152627173578997608e+05
1.984579251802595099e+05
1.733887688681889849e+05
1.473842882459230605e+05
1.219974257578783436e+05
9.170142376196321857e+04
6.397594468816832523e+04
3.963261889371749567e+04
1.253080715317399881e+04
-1.478605640619868427e+04
-4.201934179724527348e+04
-6.893003384614609240e+04
-9.430443206224734604e+04
-1.211509716371166141e+05
-1.468090795022152306e+05
-1.675643872542287572e+05
-1.839128495419986139e+05
-1.979619081385049212e+05
-2.112462653938536823e+05
-2.216414772834556934e+05
-2.310952518477378762e+05
-2.347275480718116160e+05
-2.427933901901179051e+05
-2.427121179854530492e+05
-2.401660955720857601e+05
-2.423506455197881733e+05
-2.446586979075083800e+05
-2.401115236401509319e+05
-2.356440298582399846e+05
-2.277950930833353195e+05
-2.210169356006767775e+05
-2.146136170911864319e+05
-2.028904091497877671e+05
-1.933480261374276306e+05
-1.903391832009784994e+05
-1.839126050907149620e+05
-1.774779916573567316e+05
-1.719931645183140645e+05
-1.639049720290563127e+05
-1.587814717369872378e+05
-1.508546322661653976e+05
-1.413013438027666998e+05
-1.310294443106002145e+05
-1.239319100866534136e+05
-1.196290545348272863e+05
-1.116441387771076988e+05
-1.045342984278764779e+05
-9.729782706124550896e+04
-9.154091197684581857e+04
-8.359868986557998869e+04
-7.520516989307623589e+04
-6.890822501330522937e+04
-6.726172169574884174e+04
-6.036043105741070030e+04
-5.705730677540937904e+04
-4.946659036826492229e+04
-4.573900143600442971e+04
-3.957494086016645451e+04
-2.852511606525596289e+04
-1.539818030061607715e+04
-4.249507415612096338e+03
4.712532080456474432e+03
1.534843042010389763e+04
2.471997382029057553e+04
3.094122613530594026e+04
3.369728217742035486e+04
3.808842958120132243e+04
4.458309522631420987e+04
5.026683270309827640e+04
5.610133418429346784e+04
5.958827253182554705e+04
5.874656233604092267e+04
5.899413866718943609e+04
6.113828290877224208e+04
6.092463993942739762e+04
6.167143380049213010e+04
6.314223872737867350e+04
5.919447310915670096e+04
5.298732667232114909e+04
4.574885024091279047e+04
3.969605753503312735e+04
3.531690221555869357e+04
3.288146287585175014e+04
3.171009401098736635e+04
3.098408104097334945e+04
2.861772895241054721e+04
2.373051304766389148e+04
2.336501385736985321e+04
2.439353826402804407e+04
2.372477060655417517e+04
2.285321012119280203e+04
2.190878942445946450e+04
1.907389527308312245e+04
1.807900003336980808e+04
1.773262060673023370e+04
1.687841920148451391e+04
1.701541699430879817e+04
1.825068377517330373e+04
1.695853007281484679e+04
1.693571117085036167e+04
1.511567936541000381e+04
1.223853909097643009e+04
9.156275925562398697e+03
6.301829332730479109e+03
1.350761821223484276e+03
-4.629000318065134707e+03
-8.670946332604748022e+03
-1.006638405030009199e+04
-1.230984708771750229e+04
-1.724626727173029576e+04
-2.124199764370563571e+04
-2.329519913579979038e+04
-2.541752359492827236e+04
-2.526140288266027710e+04
-2.247268708951938243e+04
-1.830965287514944430e+04
-1.511568377903282999e+04
-1.427190313956739192e+04
-1.261730855853572575e+04
-9.336164830426112530e+03
-6.354603532953687136e+03
-5.464655145485948196e+03
-4.800660605893598586e+03
-4.903299408211672016e+03
-5.112544306857456831e+03
-4.711162710390771281e+03
-2.945848396060296636e+03
9.510093922329481586e+01
3.590528064016436929e+03
7.617925183304759230e+03
1.215095133280976552e+04
1.536612908941276146e+04
1.894611449338797320e+04
2.368478053308872768e+04
2.982028536439380332e+04
3.851818160545321007e+04
4.252923726406590868e+04
4.292762606131943903e+04
4.647632926867409697e+04
5.157138944683952286e+04
5.423407062015956762e+04
5.767387683331385779e+04
6.065396333542123466e+04
6.131123328215381480e+04
6.094840575112798251e+04
6.282597799975555245e+04
6.490763751139542728e+04
6.786097664531916962e+04
6.840615016209719761e+04
6.631943713124643546e+04
6.305329375602964865e+04
5.910380211830188637e+04
5.806135064328146836e+04
5.772716940723056905e+04
5.901650914822151390e+04
5.896883847647122457e+04
5.335517047895126598e+04
4.838716714542303816e+04
4.712165889367964701e+04
4.808092974380843225e+04
5.175270289199316903e+04
5.333131022200504231e+04
5.370094666625127138e+04
5.228778866138531157e+04
5.198488480439598789e+04
4.870669671217985888e+04
4.298951633734532516e+04
4.015220016599012888e+04
3.971884691601645318e+04
4.083228545352938090e+04
4.130447839751987340e+04
4.020110509035214636e+04
3.740014833379731863e+04
3.406840693956041650e+04
3.017610129819412032e+04
2.592246451957416139e+04
2.392783044776968745e+04
2.244607080154615687e+04
2.122071528304013191e+04
2.301633167457734089e+04
2.523758340541777943e+04
2.445187315562389267e+04
2.179940027004862714e+04
1.971919138035838114e+04
1.752084772979536865e+04
1.601405485862269961e+04
1.339432893031967251e+04
9.804115370708243063e+03
6.583271349507394007e+03
2.735063096099407176e+03
-5.920402084780913583e+02
-6.588408896089281370e+02
-4.977772867338432548e+02
-1.886373114946396527e+03
-4.127961482884611542e+03
-7.532688146103588224e+03
-1.076017362448107087e+04
-1.191523279459527839e+04
-1.167462564435050808e+04
-1.177154639359002977e+04
-1.303772149205333335e+04
-1.568790557519701724e+04
-1.791938769930610215e+04
-1.923358189000791390e+04
-2.105070526526195317e+04
-2.478048614484650170e+04
-2.806576529053671038e+04
-3.080128709427182912e+04
-3.269976578784341109e+04
-3.414201560511151183e+04
-3.602573712634399999e+04
-3.871358428019475105e+04
-4.101869636980691575e+04
-4.300290730473404983e+04
-4.591938903725004639e+04
-4.852479635766011052e+04
-5.211100701276483596e+04
-5.549752846885639883e+04
-5.858412586848669162e+04
-6.181236364484043588e+04
-6.243475729350048641e+04
-6.231810103832899040e+04
-6.276583669990177441e+04
-6.728486749219402554e+04
-6.823101382418225694e+04
-6.760086667163284437e+04
-6.886903280120805721e+04
-7.142498560196402832e+04
-7.142937954948280822e+04
-7.122940471170700039e+04
-7.258193219938714174e+04
-7.174445823829606525e+04
-6.762279312463010137e+04
-6.341286267061938997e+04
-6.150366727473850187e+04
-6.098412759516711230e+04
-6.100093439075068454e+04
-5.841547468843594106e+04
-5.487162309785376419e+04
-5.209382686791397282e+04
-4.726305123484845535e+04
-4.186044033165350993e+04
-4.194942242677964532e+04
-4.091316981877233047e+04
-3.952455146291934216e+04
-3.873682002080938400e+04
-3.828352951180338277e+04
-3.829542423167508969e+04
-3.821024726131022908e+04
-3.728812788928255031e+04
-3.125504458170576618e+04
-2.670521145793077812e+04
-2.495194539858431745e+04
-2.184532968441905177e+04
-1.964303294119025668e+04
-1.497846419045090988e+04
-8.404614928872577366e+03
-7.489653234145521310e+03
-6.481375775924529080e+03
-4.899163226178393415e+03
-3.153962736902778943e+03
1.935431100604118910e+02
5.606309087953832204e+03
9.802537340628125094e+03
1.194807754212079453e+04
1.122125520911825515e+04
1.193308413939490310e+04
1.470336155185419011e+04
1.622094043986178622e+04
1.702358646380438222e+04
1.800207935906595230e+04
2.161028656013237560e+04
2.721195806580697899e+04
3.098453107009238374e+04
3.112932916834476782e+04
3.167873132431270642e+04
3.276408627665490349e+04
3.303907037765150744e+04
3.257359969432603975e+04
3.068829763249090684e+04
2.816505744675561800e+04
2.787910436663974178e+04
2.856727378328310442e+04
2.723898596536243349e+04
2.600289445515071566e+04
2.560515900478178082e+04
2.375263649366465324e+04
2.236258766993728568e+04
2.241623759496194543e+04
2.240163793102511409e+04
2.168051524645105746e+04
1.956327410906426667e+04
1.846544475107504695e+04
1.668620027186290463e+04
1.509924400725151827e+04
1.363654439632277536e+04
1.135806787721277578e+04
9.293911132895505943e+03
9.585184364194410591e+03
1.119271457630614532e+04
1.232615064233905105e+04
1.202116196122415386e+04
1.062844358854206803e+04
9.689271958062210615e+03
9.883486372832116103e+03
8.289920478268817533e+03
5.291010334853066524e+03
2.429901882041268436e+03
2.060987017553677560e+03
5.323622813529688756e+03
7.020571261698432863e+03
4.465924681938899994e+03
2.299031476029589157e+03
2.669384075071655388e+03
2.163331499488261215e+03
1.866592193820685679e+03
2.455044593986234759e+03
1.178712214211456512e+03
-1.078184801532227311e+03
-3.925500272778974704e+03
-6.305194434959902537e+03
-7.659006664280787845e+03
-7.506480242882021230e+03
-7.490348224383636989e+03
-8.277527494466996359e+03
-9.076716371500207970e+03
-1.032262641306302248e+04
-1.078783593390544956e+04
-1.112352069639359070e+04
-1.243313180872087833e+04
-1.394417491984574372e+04
-1.537586846049482847e+04
-1.508362805029372794e+04
-1.408406828832996143e+04
-1.351729489039479995e+04
-1.351026030057802200e+04
-1.476891154546889993e+04
-1.874241663692688962e+04
-1.968193166745369308e+04
-1.818069433768326053e+04
-1.725092442721940824e+04
-1.887390723928933585e+04
-2.203556802101717403e+04
-2.522757703900339038e+04
-2.550323918194078215e+04
-2.492370401099233641e+04
-2.569485134738256238e+04
-2.929361859608265877e+04
-3.208372093584961112e+04
-3.391285355467698537e+04
-3.364214082314054394e+04
-2.968755388140213472e+04
-2.718407883982744170e+04
-2.724341378612598419e+04
-2.771938650069256983e+04
-2.868440378811970368e+04
-2.922737735516106841e+04
-2.915795497481701022e+04
-2.735471655717541944e+04
-2.524821136575440687e+04
-2.730911757540433609e+04
-2.749381435165743460e+04
-2.605570591107476503e+04
-2.296234537084483236e+04
-1.563944769079017533e+04
-1.118034694767475776e+04
-8.492185055556308725e+03
-6.100444491268771344e+03
-4.538577065859179129e+03
-2.748004444286402759e+03
-1.723365144135284709e+03
-2.242943025873786098e+02
1.064742878708509124e+03
1.530507822892809827e+03
1.416757643291074601e+03
2.414237318218987184e+03
3.822526511008928537e+03
5.456307217271766604e+03
7.556453159419665099e+03
9.497807636684294266e+03
1.142937622106050549e+04
1.279500617362384583e+04
1.130957644602502660e+04
1.017285280644512750e+04
1.228759686515882095e+04
1.570856510522620556e+04
1.740240703498755829e+04
1.690300342417776847e+04
1.774041409685628241e+04
1.729552631210147956e+04
1.706221350122271542e+04
2.058435438694968252e+04
2.328867928094303716e+04
2.228849614795794332e+04
2.010618151722102630e+04
1.780360715869216438e+04
1.730772299978002775e+04
1.807477600173625615e+04
1.980176660794470808e+04
2.222192610772351327e+04
2.318671274967103818e+04
2.286529443475669541e+04
2.203280123429293235e+04
2.147357677009431427e+04
2.288272333988666287e+04
2.403361313699159291e+04
2.402975607460242099e+04
2.497156082560686264e+04
2.510162432921096115e+04
2.528930250657472789e+04
2.678093391223635626e+04
2.777873858407979060e+04
2.841814211968426025e+04
2.742996115667125923e+04
2.565768499730394979e+04
2.405449255070914296e+04
2.195069275585270589e+04
2.329669794254656517e+04
2.303772493909502373e+04
2.628087101744296160e+04
2.751472246955253286e+04
2.777883640899324746e+04
2.753490345883943155e+04
2.678953732622220923e+04
2.516796156555969719e+04
2.298649120674524602e+04
2.072651440792085123e+04
1.853157749558147771e+04
1.770020073229412810e+04
1.830391754784419390e+04
1.876340911166923979e+04
1.717011846743820934e+04
1.687341746106010760e+04
1.720364454291479706e+04
1.743128184455403243e+04
1.679466685769485048e+04
1.589107059849618599e+04
1.447283898183659221e+04
1.318063700672728010e+04
1.399898586301011710e+04
1.613121906958176987e+04
1.643176334002702424e+04
1.556788509659197734e+04
1.607207304133503021e+04
1.401279882944421843e+04
9.111454916141165086e+03
6.471560025497210518e+03
5.323488756636223115e+03
3.951291382031788544e+03
8.551373307742012457e+02
-2.067630593281744495e+03
-3.145625343691418948e+03
-4.034343140026764559e+03
-5.538443764972655117e+03
-6.828825499441782995e+03
-5.687344430572783494e+03
-5.282850822688393237e+03
-7.393143847689417271e+03
-9.446881010050683471e+03
-1.138983154980008840e+04
-1.127594926351584400e+04
-9.446163522769154952e+03
-9.845137417706942870e+03
-1.034275407878449369e+04
-1.026093550336375120e+04
-9.878702212321499246e+03
-9.659061345953825366e+03
-1.046688868435411678e+04
-1.236111185710514292e+04
-1.387186455416495301e+04
-1.518129396649241244e+04
-1.558729475103606092e+04
-1.517600904561738571e+04
-1.487760466029606141e+04
-1.509201361197443293e+04
-1.799629712147749160e+04
-2.098062222617636871e+04
-2.303653693100162491e+04
-2.438941987684136984e+04
-2.781350348734929139e+04
-3.249369534909588765e+04
-3.869375561741105048e+04
-3.996515931031292712e+04
-3.788486343343005865e+04
-3.653310600459930720e+04
-3.538703163116538781e+04
-3.732873582436696597e+04
-4.328468614717546006e+04
-4.854955327915004455e+04
-4.445841241645043192e+04
-4.001724832813450485e+04
-3.900606599792217457e+04
-3.807441435399992770e+04
-3.501677722710524540e+04
-3.029962497061853355e+04
-3.109480804127124429e+04
-3.078606672893890573e+04
-2.938826226529678752e+04
-2.923767841604882415e+04
-2.853347284827389740e+04
-2.667001986549741923e+04
-2.330311012512606976e+04
-2.040440889077770771e+04
-1.980166373594503602e+04
-2.059113170069650005e+04
-2.166623967903049197e+04
-1.970634209989502415e+04
-1.629348584769513582e+04
-1.424089490684951852e+04
-1.292176822199609160e+04
-1.112226079507060967e+04
-7.171274036527438511e+03
-3.006594211162900592e+03
-9.764445727445980765e+02
5.461849637660131975e+02
9.361476081780473635e+01
-4.001546277044685212e+03
-6.903716071381881193e+03
-5.527101880552718285e+03
-1.108419501114019340e+03
4.263237843898418760e+03
1.130708036806145901e+04
1.876577276400951087e+04
2.425813701186538310e+04
2.871079555501864525e+04
3.253829630333634850e+04
3.262302606141892102e+04
3.244543774655254310e+04
3.567391237856523367e+04
3.981565010689631163e+04
4.228102978763182909e+04
4.225859377785670222e+04
4.168757086076463020e+04
4.370420778621234786e+04
