4.483298000605431639e+02
1.583015659242380195e+02
3.268236207202626815e+02
6.848312467791300833e+02
1.026346717089668573e+03
1.007338978217982344e+03
1.350915193469473707e+03
1.618207508781709521e+03
1.755384053021288537e+03
2.181594312424039344e+03
1.649888733168383396e+03
5.721980980427280201e+02
-4.583764281395703506e+02
-6.657526914721820503e+02
-6.829394455207526562e+02
-3.669257175253877108e+02
-1.156537239372193504e+01
1.592054811632101234e+02
-1.445727166773089039e+02
1.192006514941879800e+02
1.745753370235719046e+02
9.464128636129382244e+01
1.715430372161256685e+02
-2.215776398049251270e+02
-4.015735306216652134e+02
-5.953511358242161577e+02
-6.298049873705705295e+02
-6.537882945718589554e+02
-2.322348873519075880e+02
2.150114055969912101e+02
5.419738244514750249e+02
-1.512525243083659063e+02
-1.036616300540056272e+03
-3.596131177085866966e+03
-4.147676565945162110e+03
-3.567127831092780070e+03
-2.824474795795614682e+03
-2.632698388139091094e+03
-4.267966962961556419e+03
-2.300949583282244475e+03
-7.576623403395821015e+02
-1.751289043986409979e+02
1.268673172211466138e+01
3.078331320802741971e+02
8.535227066290414655e+01
-5.172750796068843471e+01
-1.823178457166353041e+02
-6.182850516070858475e+02
-9.786314461019377404e+02
-6.312787044075103040e+02
-2.302045755016300745e+02
-1.563872277635400394e+02
-1.567386898574544318e+02
3.947437696074492806e+02
8.130215688189385901e+02
9.561487092354929018e+02
1.389211044861532173e+03
1.696236334805749948e+03
1.803260596610709399e+03
2.369270417452804850e+03
2.805285475177674925e+03
3.352278137934174993e+03
3.345299118259788884e+03
3.549435357175103491e+03
3.946683738798753893e+03
4.116026331801673223e+03
3.653488336477448229e+03
2.912084113429081299e+03
2.345762096723991363e+03
1.818555204839723501e+03
1.568496704197118561e+03
1.115580096243087610e+03
-1.511634081426534806e+02
4.002286043154089157e+02
1.831702846018320770e+03
2.107204465390995665e+03
2.081774549009724524e+03
2.061383456614758870e+03
2.176986196642338200e+03
2.594606629157253792e+03
3.212232345725857613e+03
3.124825510083436711e+03
2.452351304740954674e+03
1.558682092607494269e+03
1.044829520128762624e+03
4.598142472368214726e+02
-9.146659870213261456e+01
-2.730722355783353805e+02
-8.599974675936502990e+02
-7.282409013675502365e+02
-5.118656822215712054e+02
-7.940154472162098500e+02
-1.366527061914165984e+02
-2.678764757451933747e+02
-1.787810741713042262e+02
6.255858532019817630e+01
4.520597142604827923e+02
1.177698156761207201e+03
1.569460603470080514e+03
1.794363931277440770e+03
1.969213616506140397e+03
1.711907606461084470e+03
8.956336356942566681e+02
2.713121067223767113e+02
-9.126276843324494337e+01
-3.033362339803766758e+02
-4.940416321347458393e+02
-3.553281492474001197e+02
1.318630514447218616e+02
4.114358647252034302e+02
3.370844870856208786e+02
-3.319705469048842588e+02
-6.799888741051142915e+02
-5.771266091147317638e+02
-7.173665437499909103e+02
-7.039612553467981115e+02
2.058319460202187940e+02
6.591933386066996263e+02
1.049809302693791324e+03
1.405859999136788701e+03
1.435270364134083593e+03
1.680931536587569781e+03
1.595401186998904222e+03
1.137889341663917094e+03
5.831832776092419408e+02
2.260873669723496562e+02
1.263278474224408754e+01
-5.161255288634015415e+02
-5.384453799256424418e+02
-1.394570365262788130e+02
2.209827727504404393e+01
2.216837966059373457e+02
6.725256464713667981e+01
1.350897564416529235e+02
1.796867409190389964e+01
1.346037414593824906e+02
2.780731342916424182e+02
-4.878501434224286726e+01
7.168360396644616230e+02
1.945962617715456872e+03
2.413836079418377267e+03
2.248038740291083741e+03
2.312480263324587668e+03
2.185185832423135707e+03
2.442032610958277019e+03
2.655069815991065752e+03
2.758283458276523106e+03
2.082582310266122022e+03
1.479952782315230252e+03
1.405364276002773522e+03
1.268765191363569784e+03
5.110585078517745501e+02
-3.228165886048295192e+02
-9.578283189034916631e+02
-9.450704794038858836e+02
-6.597143434111336546e+02
-1.036841064346630219e+03
-1.502432297805847156e+03
-1.507387399517646145e+03
-1.297790365789386442e+03
-9.177151414845186537e+02
-7.070669060577527034e+02
-1.533956095300538209e+03
-3.360412909984666840e+03
-4.778489300285764330e+03
-4.516251984126201933e+03
-4.421766509317942109e+03
-4.657072356323352324e+03
-5.570098313660273561e+03
-5.302892261069090637e+03
-4.536477908398015643e+03
-4.348802167580184687e+03
-4.601767777094740268e+03
-1.352459564361625326e+03
2.049054870539013336e+03
1.808768827040377801e+03
-1.994340330452125500e+03
-3.452235399626717481e+03
-4.169842253765564237e+03
-4.018124456912978076e+03
-1.764033036064090766e+03
-2.327545426542931182e+03
-4.739671993908320474e+03
-4.948375632432749626e+03
-5.022670863495371123e+03
-4.912467175166450033e+03
-4.516738887685309237e+03
-2.953464783281766813e+03
-1.368555909430180691e+03
-7.969628218980546990e+02
-1.152710682378786942e+03
-1.920744272524133521e+03
2.980035802303720516e+02
1.890548041363037783e+03
2.157978171727197150e+03
1.851305957240258749e+03
2.021593363131567912e+03
2.554939555161609860e+03
2.955406664491585161e+03
3.148096182059611237e+03
3.738053872699711064e+03
4.064343069979448956e+03
3.825000406357456086e+03
3.411100963775294986e+03
3.566740687172622074e+03
3.519916297649737771e+03
3.338615023870774166e+03
3.711109182662540661e+03
3.531705932096870129e+03
3.276234729019872248e+03
3.253667335833928519e+03
2.401114694003742898e+03
1.489895757903341519e+03
6.259058721272464254e+02
1.472644697765616968e+02
7.816776597811895044e+01
4.454788068666310323e+02
4.633809619387937460e+02
4.410541528505704605e+02
8.766357259103472188e+02
1.432032155418289676e+03
1.615485468756802447e+03
2.162852672620681915e+03
3.461273560164127503e+03
3.350764955346789520e+03
2.636574030654111539e+03
2.297743558472973291e+03
1.923223063403822152e+03
1.941897144193495478e+03
2.173071189989506365e+03
2.213703887730411680e+03
1.767536551562791374e+03
1.249063701629207799e+03
9.045275411483996777e+02
4.098684875702189174e+02
2.687132941149617693e+01
1.087782630108107469e+02
1.136693914929175691e+02
3.857393502229497244e+02
7.897987247481721624e+02
9.699867842833688201e+02
1.513399995629044497e+03
1.578825007558384868e+03
1.059720696062636762e+03
1.230769377605622367e+03
1.199884447427363966e+03
1.007396489708680406e+03
1.041281455849892609e+03
1.215510193323541898e+03
1.281249458757148204e+03
8.555366184518139789e+02
2.754757182982794461e+02
-1.849062212627978852e+02
-2.906200665098702416e+02
-5.697474623573347117e+02
-2.032920104178694487e+02
4.197868056768083989e+02
1.151480169254298062e+03
2.237849292318979224e+03
2.481958186895715698e+03
2.604798926961192137e+03
1.581374605376159934e+03
5.757379575226773341e+02
1.290680476908966412e+01
-9.712216339556357525e+01
-1.453227846865713957e+02
-1.907061804424115508e+02
-7.821532939355299163e+01
7.531862021082171168e+02
1.177565325753790376e+03
1.442899745163566649e+03
1.357113744163590354e+03
1.230225232555472758e+03
1.130229220580332139e+03
8.181418300165838673e+02
1.741104522376482464e+02
-4.039487824482314409e+02
-8.272113076638082703e+02
-9.146967522336198044e+02
-1.230422055676330274e+03
-2.259390537637532361e+03
-3.986606277928534837e+03
-5.939980229728061204e+03
-6.191499427688756441e+03
-6.365244681911346561e+03
-6.210296845412181938e+03
-6.041726342777942591e+03
-5.811605421431231662e+03
-5.960865009076817842e+03
-6.606474290936691432e+03
-6.619285774594976829e+03
-5.916493122517795200e+03
-5.446154558131403064e+03
-5.733402761672015004e+03
-5.504149134965661688e+03
-2.654291990493111825e+03
-8.461488041045677164e+02
5.628274745948989022e+01
3.559512425959993607e+02
6.538005342252864693e+02
1.002801554363025502e+03
1.197992496974788764e+03
9.273123645957228973e+02
5.758366448009520582e+02
-1.034408139397600479e+02
-3.436567523301833944e+02
-3.009422159636667402e+02
-1.353642071582954145e+02
8.404673171538934184e+01
1.492385461263407080e+02
-2.486749197355254282e+01
1.997210405213662625e+02
6.219304405600784094e+02
7.546539991999926542e+02
1.194875702484172052e+03
9.435137034608935664e+02
8.874648764949201905e+02
5.256587449036198905e+02
4.840725820131946193e+02
1.215781709069892031e+03
1.794834055763023571e+03
2.336119924676403571e+03
2.520608202568371325e+03
2.520321739293715837e+03
1.883236004623176768e+03
1.167253052785246837e+03
1.055357220480789920e+03
7.725806994718479928e+02
9.079008139841536149e+02
1.037253023448268323e+03
1.165345148901981247e+03
1.258982369801840150e+03
1.373247377730825065e+03
9.921387257367325674e+02
6.445268009906806128e+02
1.010351185862391617e+03
1.201629620961626415e+03
1.303329651283333533e+03
1.654496016677108855e+03
1.262193114144986112e+03
1.184427484375387621e+03
1.351113882774059675e+03
1.134166748112254481e+03
6.475116978444380038e+02
3.370479957734347067e+02
4.199735878661812762e+02
7.207553196729082856e+01
-7.566979386670805070e+02
-5.812850864933074035e+02
-5.020036078642889947e+02
-8.598848228595699084e+02
-1.258144596561846129e+03
-2.277869306060050803e+03
-3.142072321202320836e+03
-3.055968134562220257e+03
-2.708222692610106606e+03
-2.444043577631511653e+03
-2.104767929587716026e+03
-1.802391322180176985e+03
-1.110963005196392714e+03
-4.664954014851502393e+02
-1.959629561603397576e+02
3.259515909471963369e+01
4.121188060474690928e+01
-1.359803474205060070e+02
-1.460389044885669705e+02
2.949074301344978721e+02
4.965757952721064044e+02
4.708586947685572568e+02
7.986205904623670904e+02
1.292751558186044122e+03
1.232281731405344090e+03
1.191111464748644039e+03
8.121027327999513545e+02
7.662311626647707499e+02
9.154022971349318141e+02
1.256629392388214683e+03
1.357942488913817215e+03
1.485299050840166046e+03
1.830618579105336948e+03
2.242877005572483540e+03
2.469085016135528804e+03
2.579228888270912194e+03
2.393287157019663937e+03
2.364267504708583601e+03
2.351041383641597804e+03
2.051557704230205673e+03
1.428805951005994302e+03
6.347734384285478200e+02
2.647623007682757290e+01
-6.819910248149632537e+01
-2.173205294518456583e+02
-4.309303009245754765e+02
-5.129963669814546847e+02
-8.574667724349077389e+02
-7.984173825990613977e+02
-1.073930352636349198e+03
-1.653934657119811845e+03
-1.920396285744802526e+03
-1.785284793764129063e+03
-2.380557415183601734e+03
-2.475194831884820815e+03
-2.451181406732196592e+03
-2.798479939630415629e+03
-3.071986064515266662e+03
-3.159637979825154616e+03
-3.131448409707787050e+03
-3.444381677279571250e+03
-3.466300153715988472e+03
-2.564143744475323274e+03
-1.750888568505540206e+03
-1.585556980260880437e+03
-1.838133764418921601e+03
-2.039458804165449237e+03
-1.023491229255280132e+03
-5.772202155105468364e+02
-9.026198241587861730e+02
-6.337657563171436550e+02
-8.934747605663429795e+02
-8.794388666115162323e+02
-4.664496922790557392e+02
-1.066250695292741284e+02
-2.218225202805402034e+02
-2.099745929134366307e+01
1.521378534893054564e+02
-4.503631865834666996e+02
-1.081548150119222555e+03
-1.005532562080561888e+03
1.100364465402654019e+02
9.239392618263489112e+02
1.215081431608829234e+03
8.958038823039482850e+02
3.962335750478251271e+02
-7.331162526743575825e+01
-1.489856234562719521e+02
1.752719980680624090e+01
6.660704136422697275e+02
9.765649851052246504e+02
1.019614106631747859e+03
1.058096970172777446e+03
8.970384879137134249e+02
1.099902271688555629e+03
1.122344665659271868e+03
6.396567040166662537e+02
5.459942611065907840e+02
1.153133832390788939e+03
9.764708913262311398e+02
6.219228396346255749e+02
9.372291744850387829e+01
6.271243278973905433e+01
1.131261928769515492e+02
2.079888965200310338e+02
6.146640107130244246e+01
-4.193730442092447674e+02
-8.055143311963679480e+02
-8.128463461825239165e+02
-6.122688393817304586e+02
-7.008313808431514644e+02
-7.924271667810322697e+02
-6.939291394893331244e+02
-3.902407930544980559e+02
-7.803217113128199571e+02
-2.876055503987711290e+03
-3.046410648094977660e+03
-3.023141110552685973e+02
-3.126413770837437482e+02
-2.350401233365465487e+03
-3.981576932186038903e+03
-2.295091335918703408e+03
-2.424896131560262802e+03
-1.207954327324384622e+03
3.797479578782873091e+02
-1.628737510023325285e+03
-3.177397679245799736e+03
-2.476219839727049930e+03
-1.309141314066228688e+03
-2.277217485667576511e+03
-4.704518028840442412e+02
-1.305827326215247012e+03
-1.450370782391036073e+03
-2.793049834679768082e+03
-4.647556004744139955e+02
1.044501498192089684e+03
1.259699966802000517e+03
-3.791291834795228510e+02
-8.492074972411664646e+01
-1.012806717131328128e+03
-2.886840544750944446e+03
-3.276024817294602599e+03
-2.291319114022487611e+03
-3.287742101071689831e+02
-1.697366477833132649e+03
-1.564118437970320429e+03
-1.030152370698952382e+03
1.040562032184279133e+03
-2.690655126028378277e+02
-3.711729359477819656e+01
4.454039526691048536e+02
-2.685528732642126670e+03
-6.479794049604211068e+02
2.839991274363476919e+02
-7.926659194224876046e+02
7.710239584467562963e+02
1.460030937132001327e+03
1.194323817718492592e+03
1.424821009383986166e+03
1.289470456916275452e+03
2.119194099094034300e+03
3.529907984671312079e+03
4.658530074453567977e+03
4.834979684495897345e+03
5.099221177252378766e+03
5.133131201160954333e+03
4.202598236853992603e+03
3.424554319374842635e+03
3.508862533244954193e+03
3.466483409415553524e+03
3.235315506766220551e+03
3.063363515520596593e+03
3.310568746145930163e+03
3.355885723101606345e+03
3.507229519704953418e+03
3.778470851326168940e+03
3.704514618914195125e+03
3.151279456170203957e+03
3.064588422250837084e+03
3.326366322003613277e+03
2.707570810294799685e+03
2.597154148610896755e+03
2.553082052192030005e+03
2.653256274129736539e+03
4.482538938895077081e+03
6.396891817194025862e+03
6.264304432083179563e+03
5.828716572941749291e+03
5.399973971060197073e+03
4.432974988577044314e+03
3.520669986086899826e+03
3.850054649459499160e+03
4.922069277214804970e+03
5.459537175501033744e+03
5.898449558342698765e+03
5.974913132726516778e+03
5.387901935983380099e+03
4.835385381493408204e+03
4.552203985424685015e+03
4.386434098843727043e+03
3.646986779134492735e+03
3.658722019708693551e+03
2.641556950441130084e+03
2.690481574273464048e+03
2.510427709892343955e+03
2.370248274933160701e+03
2.874905160109943154e+03
2.602189796592981565e+03
1.700138926313005413e+03
9.207144739678159340e+02
5.238566041440695926e+02
-2.024928506482517889e+02
6.007344902061331595e+02
1.806574891388817150e+03
2.032097609214308022e+03
1.929268249857416777e+03
1.720055784064605405e+03
1.439443691942306714e+03
9.854469111648222679e+02
7.110825943807244585e+02
1.005357598531334247e+03
8.433030815143260952e+02
2.558897273970956689e+02
5.131763286680139480e+00
-9.149812388200945179e+02
-2.226350031958701948e+03
-4.200887572338804603e+03
-6.070538310603545142e+03
-7.195289133831348408e+03
-6.927139797085144892e+03
-7.132017702560975522e+03
-7.276864430897348939e+03
-7.135607103380193621e+03
-7.045177947475442124e+03
-7.590433211269811181e+03
-7.862228343955530363e+03
-6.736453581083368590e+03
-5.126005698002150893e+03
-4.341888580879246547e+03
-4.806975444322461044e+03
-6.132208670610880290e+03
-6.870502083996781039e+03
-7.334795158846831328e+03
-9.037952278296872464e+03
-1.117085761170176920e+04
-1.246342826864814560e+04
-1.345749226341506437e+04
-1.404794061991340459e+04
-1.388071466623160086e+04
-1.327760101662384659e+04
-1.273647066572132098e+04
-1.274319985213061227e+04
-1.317764197832910759e+04
-1.411061172228376381e+04
-1.216495187584954147e+04
-1.119557462566991671e+04
-9.709287010147279943e+03
-6.588884447389782508e+03
-5.216273893737294202e+03
-3.840264031725640507e+03
-4.114781851515833296e+03
-4.651733766371968159e+03
-4.418892328486133920e+03
-5.884031404770528752e+03
-2.221111144301409240e+03
2.309382251840356730e+02
-7.096672337968252577e+02
-1.542820186022967164e+03
-3.346381645330549873e+03
-5.080239030571637159e+03
-6.030270731319121296e+03
-6.999379492563220083e+03
-7.063408911801770955e+03
-4.071128554085927590e+03
2.296369294512706745e+02
4.576999404439086902e+03
6.462006151107580081e+03
7.311837220727522435e+03
7.401679567137845879e+03
7.130670339912171585e+03
7.674908229702451536e+03
7.784477245574222252e+03
7.751409041849879031e+03
7.694838244652069989e+03
6.912869651094049914e+03
6.764615868015604065e+03
7.270194997059694288e+03
8.137758445081986793e+03
8.243374745723935121e+03
8.010106837207556964e+03
8.068065296345493152e+03
8.474363624577012160e+03
9.186062543500083848e+03
1.015026992637369221e+04
1.037910707894077495e+04
1.081068555879781889e+04
1.134408172285929140e+04
1.223436974158588419e+04
1.348768975314347335e+04
1.391211282688796200e+04
1.343158658617343644e+04
1.260114013150945902e+04
1.217180701045284695e+04
1.187763201339098123e+04
1.172063421939781620e+04
1.111484934396995050e+04
1.068433185482722911e+04
9.820130281336179905e+03
9.225270191642652208e+03
8.638681276823457665e+03
8.364460598442783521e+03
7.957600133995791111e+03
7.553025665379633210e+03
7.197696024159146873e+03
7.112613749562750854e+03
6.855791477182891867e+03
6.444231198250590751e+03
6.554919470969804934e+03
6.687791919140831851e+03
6.618677637493768088e+03
6.214523169351159595e+03
5.599274733285235016e+03
5.678910439593441879e+03
5.411328336815658076e+03
4.901337327942397678e+03
4.080896803482160976e+03
1.313076388232692352e+03
-6.032802271154224627e+02
-7.902248365380472706e+02
-4.888509640302622188e+02
-2.869334408071215876e+03
-3.135783071497899527e+03
-4.024273616366222996e+03
-2.409926361631431064e+03
-1.568823448250525871e+03
-1.024039376110064268e+03
-2.421698986584918202e+03
-6.949123642574425048e+02
-3.389908325369417980e+03
-5.024799215545988773e+03
-2.174731377085891836e+03
-1.572868415488440405e+03
-2.088321338100878620e+03
-4.426197666935388952e+03
-3.570634707307687677e+03
-5.154784540898011983e+03
-6.921872527360221284e+03
-4.621023595262067829e+03
-7.332393459935462488e+03
-9.703131163938292957e+03
-7.163405964898744969e+03
-1.006643495506862200e+04
-1.048636664669547099e+04
-8.434298255227822665e+03
-9.915375473034540846e+03
-8.182823324532756487e+03
-9.529723980849266809e+03
-9.816228117204405862e+03
-1.020844356169183993e+04
-8.709579748596415811e+03
-8.949846967061053874e+03
-8.776458538878921900e+03
-8.292564257337731760e+03
-8.172265800352861334e+03
-7.619756678878306047e+03
-6.778206976853681226e+03
-7.026796557781862248e+03
-7.099672350900383208e+03
-7.092974296220644646e+03
-7.066899676203261151e+03
-6.895626055470604115e+03
-6.208288160913677530e+03
-6.040024174758066692e+03
-5.038009186507876620e+03
-3.416293563018436089e+03
-2.458836209540292202e+03
-1.560804641350438033e+03
-1.113436687064337320e+03
-8.781789879588408212e+02
-9.158091176583152446e+02
-1.147456477783470064e+03
-8.756327318631597336e+02
-3.129067588617375009e+02
-2.215920997745977843e+02
3.391181466892703043e+02
4.489926425220518809e+02
4.839398635033825826e+02
1.607868228006673803e+02
-3.872992773161508921e+02
3.023405539938392508e+02
1.196675299183177913e+03
1.264296594620022233e+03
1.237286483266771711e+03
1.495658142885261213e+03
3.237271362770731230e+03
3.934883825483460896e+03
4.026869805107337015e+03
3.687202723622643134e+03
3.862475328914059446e+03
3.708820794836793993e+03
3.908867164091227551e+03
4.234656583276772835e+03
3.791367814192744390e+03
4.084557884012062459e+03
4.022194267790492177e+03
3.561564108877468243e+03
3.373518751315204554e+03
3.918815777966582573e+03
3.925964915207839567e+03
3.151361753572631187e+03
2.583168568826818046e+03
2.421433865119457096e+03
2.277972211579555278e+03
2.751001939407573900e+03
3.276491830747912445e+03
4.063422403732429757e+03
4.310818955178830038e+03
4.092573639764819745e+03
3.637589471889486504e+03
3.264832056902485419e+03
3.111365151379010513e+03
2.984179746566992890e+03
2.775305647779385708e+03
3.005898753551357458e+03
3.155998781710715321e+03
3.202552297133191587e+03
2.891629126856600578e+03
2.324330017146712635e+03
1.666678748792177430e+03
1.660688475770171181e+03
2.081424406686921429e+03
2.039887856595590392e+03
1.849144482635343820e+03
1.872318973786263768e+03
1.536577415170097083e+03
9.809546717565148128e+02
8.134909655923299852e+02
7.643328417706183018e+02
1.359558062612988579e+03
1.919263232287557912e+03
1.534503286553740963e+03
1.160197883848119318e+03
1.616364104315492568e+03
2.546168863565507309e+03
2.973709848353742927e+03
2.876100524747028430e+03
2.140493037051298415e+03
1.023950776079606726e+03
-1.030472463869535886e+03
-3.626648991038682198e+03
-6.086503717816482094e+03
-6.351953718865733208e+03
-6.067846491451872680e+03
-5.099980578094154225e+03
-5.738212847686063469e+03
-5.281588673507689236e+03
-4.555996906938181382e+03
-3.969117977527201674e+03
-3.776956573122529335e+03
-3.820299332963597408e+03
-3.646154475301415005e+03
-1.502457290762498815e+03
7.948841957191021947e+02
5.749412118050431673e+02
7.668372645684249846e+02
9.307239402238450339e+02
7.467094959587738003e+02
-1.800872029915023518e+02
-7.194876150923669229e+02
-9.305042662131643283e+02
-6.281103908142711134e+02
-3.441412654765667298e+02
-1.594956854639859785e+02
-7.107237192252895852e+01
2.442281280852450891e+02
5.725211518640974191e+02
5.468579551830192713e+02
1.118273902832590011e+03
1.370889578618281348e+03
1.213847185084816147e+03
7.812211386343018376e+02
3.361860144222301301e+02
5.758072803317537591e+02
5.871552989053373039e+02
3.352932409642986613e+02
1.742694724800545885e+02
1.640899568578329308e+02
1.778516169161139260e+02
-5.543612891129084375e+01
-6.347208243236925682e+02
-1.247940946430004715e+03
-1.416964484399818957e+03
-7.068222934572951317e+02
1.784175849834075223e+02
3.747464975575940116e+02
1.133231480122267612e+03
1.557049167100438126e+03
1.876325813318173459e+03
1.692075672655018934e+03
1.247315997766675764e+03
6.612460901929506463e+02
2.529482110648724813e+02
4.083461642175250859e+02
3.804935811767476821e+02
-2.586413267185873224e+02
-6.651194099955115462e+02
-9.019718070401621617e+02
-1.025252512464388246e+03
-1.439917805326683037e+03
-1.658960900886291256e+03
-1.564371057575081295e+03
-1.774404895700344241e+03
-1.801024607703838001e+03
-1.629303986407753200e+03
-1.071328614516465450e+03
3.089173851595915608e+02
5.304169285586722253e+02
-7.572026636421396972e+01
-5.554422812841734185e+02
-6.588269666070591768e+01
1.806635294770853406e+01
-5.929636441104745472e+02
-3.159916738123316122e+02
-3.068012695528381641e+02
-2.964073093751343890e+02
-1.247450554427481819e+02
-5.180085186305962708e+01
-9.016124263494186835e+02
-1.752164738280969686e+03
-1.740546210696569005e+03
-1.423115377347470712e+03
-1.217161976893149813e+03
-1.665806270803315556e+03
-1.739933924411485123e+03
-1.251535681664316144e+03
-4.153891344639154681e+01
1.446059005478155086e+03
2.233193014382730780e+03
1.954875154546980411e+03
1.393088996384242819e+03
8.327729452736230087e+02
3.529779430148105348e+02
1.576456471248734204e+02
3.676162687582253170e+02
2.028208629398311018e+02
-2.247841010148766543e+02
-3.702785807908932725e+02
-3.616978121355125495e+02
-8.440596653529217974e+02
-1.482407953367597656e+03
-1.565781319387533131e+03
-1.142243894267125597e+03
-8.998743433385112667e+02
-9.906632272598501459e+02
-3.646542849568363636e+02
6.669890053433383628e+02
9.652897417195343905e+02
1.006347161397694208e+03
8.220930883603593884e+02
8.204822592225897324e+02
2.764839149654906123e+02
1.340388287454018439e+02
2.820204210199655392e+01
-1.030646567514514089e+02
1.862820083219937146e+02
-1.058425725810405140e+02
4.647187951442408149e+01
6.871839425947298423e+02
7.212902964700789425e+02
-7.126652997703584447e+01
-7.524944036780234455e+02
-8.954478890691489141e+02
-4.511774990484776708e+02
5.027362124937995702e+01
6.749250614493740841e+02
8.757391262382886907e+02
1.295728358768927137e+03
1.310907819229171992e+03
1.445315758384078663e+03
1.106882456893122935e+03
4.356448842474183039e+02
-3.413573488925944730e+02
8.872357276701314799e-01
7.145530282341785266e+01
1.191941527937704279e+02
4.708852357862912186e+02
3.115610571732757990e+02
8.250138033371302981e+01
-2.854286382624649150e+02
-5.381726787016624485e+02
-3.728911187196340506e+02
-4.775820176816216076e+02
-8.853139488629667539e+02
-4.629181630381050354e+02
-1.662516758268396799e+01
7.998605599605218686e+02
1.260511440206525776e+03
7.709810323781922534e+02
2.376384384606680840e+02
-4.257913825787482409e+01
8.923932219953984202e+01
4.987500977354051770e+02
6.061116745937158612e+02
9.135271068414170941e+02
1.041759293121097244e+03
1.324153763068261924e+03
1.277720625466440879e+03
7.880664714685726722e+02
1.526283097895217225e+02
-3.796881534191109608e+02
-4.701294378574088455e+02
-6.225168297571559606e+02
-4.561085493478528292e+02
-3.276799321895824733e+02
3.477703048565859376e+02
1.065427990587193108e+03
1.441117937372430106e+03
1.302791199188542578e+03
1.070384224265027569e+03
1.226862855094506585e+03
9.822786685338545567e+02
9.515887514607290996e+02
9.337132652759995608e+02
8.187642014870426692e+02
9.477183241585080395e+02
7.765671501804238233e+02
5.593656019774959987e+02
-2.219037712609191999e+02
-3.353323925416345446e+03
-5.917842285223323415e+03
-4.061548329147758977e+03
-1.625499830907414889e+03
-1.433600967024976399e+03
-2.672778688581408460e+03
-4.988940411544604103e+03
-4.540028951064163266e+03
-2.164921890791998521e+03
-3.844525322769452487e+03
-1.958847960954585005e+03
-2.288915507424604584e+03
-1.282751434029440134e+03
-7.874162954273656396e+02
-2.191851858229565551e+03
-1.583018829638824627e+03
4.171714260283741282e+02
2.037962757670659357e+02
-6.081909266832121830e+02
-1.864787727308045987e+03
-1.249881529072539252e+03
-1.503704182599041701e+02
-1.873208768846026487e+03
-4.479432099376802398e+03
-2.698961417729718505e+03
-1.192746279670456261e+03
-2.842671565409527375e+03
-3.536673985339795649e+02
-1.066851019453835363e+02
-2.042743858885795362e+03
4.231952392982718152e+02
-1.615726038071606354e+03
-1.922505887729132382e+03
-1.256054142779312087e+03
-4.422281380615629018e+02
-2.101051637145608311e+03
-8.715567945310103823e+02
-2.075646345589427710e+03
-1.777139414394277310e+03
-2.789955475814866986e+03
-3.593075278134323526e+03
-1.992405686133773315e+03
-1.382902295327983438e+03
-3.435665548056125544e+02
8.946509983052558255e+02
1.993827217479686169e+03
2.809021635150070324e+03
3.169362733511160968e+03
3.366916776611913974e+03
3.280708568619977541e+03
2.951759367058780299e+03
3.090148348610268386e+03
3.231925652326858199e+03
2.923143299460524759e+03
2.772867214299123134e+03
3.117172498220487796e+03
3.186157276022044243e+03
3.179915609145132294e+03
3.116461428235369112e+03
2.323783567279368526e+03
1.532915074746792925e+03
9.989175123504791145e+02
1.089726591562207204e+03
1.103429013492381500e+03
1.048123314270456603e+03
9.448358855982855857e+02
1.272621348920444461e+03
1.992491034035495659e+03
2.703483961991647448e+03
3.483705498269119744e+03
4.145174695386060193e+03
4.080820023777497227e+03
3.667586106642328104e+03
3.321621386564397653e+03
2.907199039098006324e+03
1.680050325703942917e+03
7.950591675532224372e+02
1.155662098123435499e+03
9.010154194805393217e+02
3.462191700369375553e+02
3.810796995893193895e+01
2.626726304830077652e+02
1.024854528665215867e+03
1.373610631165391993e+01
-1.114817449166392180e+03
-1.788088380807689646e+02
2.077268997762479898e+02
1.024870693712781303e+03
1.554669816649226050e+03
1.436095293276123130e+03
1.163882523769847012e+03
1.192030774212182223e+03
7.347408742748255008e+02
2.579147745274973147e+01
-8.509158151077502907e+02
-1.398446851210537261e+03
-1.427786032080384757e+03
-1.266996504226791558e+03
-1.265128373265966502e+03
-1.095240369822389084e+03
-1.076373326728912161e+03
-1.040588167087508509e+03
-9.709067863599656221e+02
-7.483724001995715298e+02
-8.380633228643137045e+02
-9.799786918042174193e+02
-1.065258970389934802e+03
-8.249069318660309591e+02
-2.639483839211529812e+02
1.029576153210274924e+03
1.868641781252233386e+03
1.763190921221926146e+03
1.167151021741482509e+03
6.234991964531077429e+02
6.321632064043866421e+02
7.350346197223000217e+02
2.520238734476817797e+02
-9.886351022222452656e+00
-1.677330243546671795e+02
1.124092520226777765e+02
-4.165174942448728643e+02
-9.676386042420201647e+02
-1.408064647956293584e+03
-2.123858577580358997e+03
-2.352186443382237485e+03
-2.526078116024382325e+03
-2.617586808267737979e+03
-2.742717948835756943e+03
-2.059507786778898208e+03
-1.322040485514808324e+03
-1.276393934765785843e+03
-6.076268022022228479e+02
-1.128237623440335824e+02
3.559944764235105481e+02
1.082733539394189393e+03
1.327331790336346103e+03
1.772747888322946665e+03
1.959919375143226716e+03
1.684764978924257093e+03
1.132176979809405111e+03
4.461106818858769998e+02
-4.024957505856713169e+02
-1.173372136388766407e+01
-4.067159085232623852e+02
-5.516355483489011249e+02
-6.315488704528953576e+02
-1.484389894889129096e+02
-3.824471846676497080e+02
-9.333762551752065519e+02
-5.454133006333388494e+02
-4.565832351263937312e+02
-4.790100732974987068e+02
-5.187551881721034306e+02
-7.458446454905694054e+02
-8.803753926871848989e+02
-6.694435566165909677e+02
-3.006814172778817351e+00
9.559153539079869688e+02
1.398257254068362272e+03
8.339219576812573678e+02
1.968584888212198507e+02
-3.429089518612496477e+02
-1.213412226398166467e+03
-1.535709148545531889e+03
-1.885949082912225094e+03
-1.843186534143871995e+03
-1.520470411622775373e+03
-9.957620899458108852e+02
-7.530219458384159452e+02
-1.212626852803796140e+02
9.674946788433027223e+02
1.383173793257895113e+03
2.091711723271464052e+03
2.206101167158881708e+03
1.327379612831339728e+03
5.324904254959168384e+02
2.634302802411065727e+02
3.422094600512633065e+02
9.718294882793090892e+02
7.272867430209369104e+02
1.215139351982116267e+02
2.725107258749540620e+02
9.813473400856752278e+02
7.539524219238261367e+02
6.132398705590227337e+02
1.355296358133412014e+03
1.219166157835039940e+03
1.151862857993151465e+03
1.163390336565968710e+03
8.968090947267085085e+02
1.234112593725398028e+03
1.655340611639014469e+03
2.655503704732122515e+03
3.307572184534248663e+03
3.174608003823545914e+03
3.129591465067971512e+03
3.273442070385754505e+03
2.992237318684774436e+03
2.947077776986308891e+03
2.814035965324546396e+03
2.122148190044239072e+03
7.663835322886070571e+02
2.938291530305834840e+02
-3.845360558004257996e+02
-8.886338047509279932e+02
-1.377466818869722147e+03
-1.453960244257555587e+03
-1.483081549980264981e+03
-1.026723347821399784e+03
1.281704713173522237e+02
1.616704847945578649e+03
2.283812249707073988e+03
1.549570306259064637e+03
-5.879779902199890103e+02
-1.951821065483807843e+03
-2.650832963929123707e+03
-3.192966331982988322e+03
-3.633184767613210170e+03
-3.276470386066124320e+03
-3.005867778191058733e+03
-3.526285882248748294e+03
-3.818601822740195985e+03
-3.723808256564787371e+03
-4.239857103894712964e+03
-4.539765027891320642e+03
