-3.216920972080108186e+03
-3.683351045878902823e+03
-4.131976946330755709e+03
-4.333822458560858649e+03
-4.249946245887689656e+03
-3.916393759782140023e+03
-3.579117885399116858e+03
-3.025161241630925815e+03
-2.756535166429371202e+03
-2.394272160815632560e+03
-2.325387838589387229e+03
-2.413903523250574835e+03
-2.816847561668828803e+03
-3.163274815697527174e+03
-3.659316928397190622e+03
-4.830039554639961352e+03
-5.640537978551520609e+03
-6.690454262676237704e+03
-8.215703981854050653e+03
-9.445315849984262968e+03
-1.025063500974267845e+04
-1.055873884358898795e+04
-1.058771613376842652e+04
-1.070276573545186875e+04
-1.128198641868531013e+04
-1.232152867505377435e+04
-1.014938152214584261e+04
-8.651376299153715081e+03
-7.825601698235202093e+03
-6.984107901315552226e+03
-6.739908010581310009e+03
-6.047015640259037355e+03
-5.689403348411880870e+03
-5.499545868934414102e+03
-5.296551163759040719e+03
-5.639645704635677248e+03
-5.987640704855440163e+03
-6.274213041616007104e+03
-6.502778165593818812e+03
-6.573957876637358822e+03
-6.816554520987806427e+03
-7.310709749784713495e+03
-6.773656013074227303e+03
-5.791481033166079214e+03
-4.771213074085246262e+03
-3.664893468998432581e+03
-2.388609473841222552e+03
-1.094420032342759669e+03
6.066210868240922593e+01
1.195587770860506453e+03
2.652341528164877673e+03
3.370874838681524579e+03
4.043096501983012331e+03
4.818976593506395147e+03
4.937502261104402351e+03
4.958593688290340651e+03
4.722141549480079448e+03
4.359100623897374135e+03
3.816244953312560938e+03
3.114396368276217345e+03
2.985571633322066191e+03
2.744737172122807806e+03
2.864807463755706067e+03
2.961668417449495337e+03
3.143261451795096491e+03
3.849598352063624588e+03
4.642695002955470045e+03
5.736538035212727664e+03
6.053150089134156588e+03
7.010439787852597874e+03
7.703406835533750382e+03
7.758115255234697543e+03
8.499600609964918476e+03
8.417768395490100374e+03
8.185627693403432204e+03
7.597190265100976831e+03
6.927381828604653492e+03
5.868153372496852171e+03
4.529466650430857953e+03
1.325263071123880081e+03
-2.677494288712816797e+03
-6.797891144953108778e+03
-6.766970256959666585e+03
-4.913741803910634189e+03
-5.778195852734270375e+03
-5.483375353669201104e+03
-3.606214232551516488e+03
2.571284857279074913e+03
4.640142247095053790e+03
4.481417795203852620e+03
4.087300404441984938e+03
5.019872455653936413e+03
6.238195102581713400e+03
5.760944390182063216e+03
4.994171201204563658e+03
4.683807014336243810e+03
3.776044848081292457e+03
2.680824658819557953e+03
1.597104962540123779e+03
6.258567286152463112e+02
-4.919688421455496723e+02
-1.075325323502276206e+03
-1.468154009012638653e+03
-1.720496164075827210e+03
-1.807351454711445513e+03
-1.456658132055569695e+03
-8.133625543456380456e+02
-6.739419907063667381e+01
3.683081210126561018e+02
7.637745885645327917e+02
1.131078562468150039e+03
1.325279280392184774e+03
1.461441429819979021e+03
1.454637786431602080e+03
7.819339615223593682e+02
1.853423796722642294e+02
-2.910972503013850883e+02
-1.314356043057349325e+03
-2.461455942169245191e+03
-3.820336442219131641e+03
-4.330039329589540102e+03
-4.731571814979713963e+03
-4.666871451799472197e+03
-4.195993018442724861e+03
-3.870866598123099720e+03
-3.424467969793359316e+03
-2.561715252402888382e+03
-1.662546628564067078e+03
-8.299440372092365124e+02
1.171810281159243345e+02
6.119032046249971017e+02
1.014334554099877664e+03
1.724496597104913235e+03
1.861471826157767737e+03
1.859370533247912817e+03
1.578206730528159142e+03
1.120926311493455842e+03
7.335903716006907871e+02
-6.797607334832939330e+00
-5.722505678961945250e+02
-1.203854391484950156e+03
-1.570510104530780836e+03
-1.607190640920877058e+03
-5.518986039251942657e+02
-2.576583676376282028e+02
2.235476205099692777e+02
8.988158163791980542e+02
1.853214692830521471e+03
2.819831456024677664e+03
3.610759128490439252e+03
4.396029346136441745e+03
5.287705031475954456e+03
5.361793460769276862e+03
4.830536663626851805e+03
3.409778984438298266e+03
1.214657958888534495e+03
-3.366724465261934711e+03
-4.383529021660952822e+03
-5.405708436561334565e+03
-5.991341220970353788e+03
-5.865418163889318748e+03
-6.074938518425398797e+03
-5.679981987424804174e+03
-5.699470310031166264e+03
-5.488382300158615180e+03
-4.962678438126997207e+03
-4.250297366769197652e+03
-3.228250186293252682e+03
-2.629439949434807659e+03
-8.584689135989442832e+01
3.159551348503258396e+03
4.483527193976578928e+01
-1.785985715013538083e+03
-9.258674739917454417e+02
-1.434789195444665438e+03
-1.650724453291240025e+03
-1.880656428860673714e+03
6.415162066768560933e+00
4.244460025082873472e+03
1.024470663158559091e+03
-5.204579050313929656e+03
-5.827737029610359059e+03
-6.004029172771643061e+03
-6.183411217963206582e+03
-6.121864830757822347e+03
-5.882390325586242398e+03
-2.271982133930049258e+03
1.986426476307985467e+03
-5.481443329296980664e+02
-1.869659220281122771e+03
2.225864118594697629e+03
3.959419456783760779e+03
5.674008427924868556e+03
5.268648029693154967e+03
5.104388869416992748e+03
4.935194523803562333e+03
3.986099457911071568e+03
2.863099900102477932e+03
1.768163412134318378e+03
7.942250176023057975e+02
-1.508049429049650314e+02
-1.090963453584696026e+03
-1.434251928676333591e+03
-1.174723377585688468e+03
-7.014351740128175834e+02
-6.764548504808319649e+02
-1.488266222750128520e+02
4.506863084123939984e+02
1.064238256194302721e+03
1.964963327316774212e+03
2.564607816728571379e+03
2.554190558070515181e+03
2.472753007698096553e+03
2.516287805967765962e+03
2.360806829282893432e+03
2.117329465881725810e+03
8.707302245984001274e+02
5.687922543917372877e+02
2.816181997148415235e+02
-1.110330445613021766e+03
-1.075075245783640867e+03
-1.049202170047878326e+03
-1.108664198608740890e+03
-1.195558713934359730e+03
-1.061550518102700380e+03
-4.706247971374538679e+02
3.322002028262666613e+02
9.428810847933571040e+02
1.600170317984553776e+03
2.333729609990394692e+03
3.029146881055159611e+03
3.357998385709924150e+03
3.458782425330372917e+03
3.835244849475436240e+03
3.946755062117229045e+03
3.720380167613452613e+03
3.172934431017768020e+03
2.054407124857488270e+03
1.218148448576456303e+03
1.458958527983626539e+02
-7.972491827128044406e+02
-1.166786755974600965e+03
-1.309762701627694696e+03
-1.258975823155352828e+03
-1.116778986726166977e+03
-4.258098243119829363e+02
2.550625259348919371e+02
6.217994864810722220e+02
1.315313547039978630e+03
2.131622811586874832e+03
3.267773563376460515e+03
4.070786387694626683e+03
4.577672976854037188e+03
5.019446107395914623e+03
5.062104665355150246e+03
4.518648070477036526e+03
3.912121281867196103e+03
3.365436247693797213e+03
2.739539250048399026e+03
1.725390339108178296e+03
7.209391750507237475e+02
-1.118539569058265499e+02
-2.260139757862964132e+02
-3.025748716396502687e+02
-2.055861215940790885e+02
1.479660650434892659e+02
8.030686465231673310e+02
1.360779633848302637e+03
1.945130640179282182e+03
2.586157977839503474e+03
1.569838833779371271e+03
-2.928039569973432776e+02
-3.993694227308843892e+03
-4.588861155945624887e+03
-4.701305827632549153e+03
-5.002953822544536706e+03
-5.298875914433036996e+03
-5.990139124386884760e+03
-6.613785303491512423e+03
-6.970865055200571078e+03
-2.749407501997216968e+03
-1.486521080405305611e+03
-6.435941689976223643e+03
-9.016881788306258386e+03
-9.413243858822233960e+03
-9.239151267162906151e+03
-8.327635327065381716e+03
-6.295651376407491625e+03
-2.545226054602346267e+03
-4.607287367594059106e+03
-5.556814217853021546e+03
-4.912810501385912175e+03
-4.367241084914498060e+03
3.289522141472360772e+01
2.363628136539380193e+03
7.349830910117844951e+02
2.222938772656402762e+03
2.902486317296215930e+03
2.122665641310100000e+03
1.032349388097757583e+03
2.844887113713693338e+02
-2.239169363101691204e+02
-6.868382316360593904e+02
-1.029281047598302621e+03
-1.262274158417531680e+03
-9.257532658161676409e+02
-1.636715979913194303e+02
4.210182503030520138e+02
9.044006397682536544e+02
1.701511571102065318e+03
2.479363817533931524e+03
3.059074661628245394e+03
2.817697767302990087e+03
3.583284827424968626e+03
4.261885529025737014e+03
4.176529685167283787e+03
3.852270111461052693e+03
3.122086185874060902e+03
1.995022360750801909e+03
4.250772619574642022e+02
-5.057001309517602294e+02
-1.000273744837294657e+03
-1.391672974185435351e+03
-1.562852423925648282e+03
-1.296787441422655775e+03
-1.205348823984674482e+03
-1.121490714312795262e+03
-5.611601511010921968e+02
6.076481480583588990e+01
7.433373483089117144e+02
1.408710034126699156e+03
2.068924615989353242e+03
2.200071264187602992e+03
2.450183258564600237e+03
2.550357688779572527e+03
2.313677582216346309e+03
2.083356716783810953e+03
1.494431071212321967e+03
5.139809068806506502e+02
-1.942256080413823440e+02
-9.589691672782880687e+02
-1.565002937338554602e+03
-1.641125072708301332e+03
-1.777810863742009587e+03
-2.367470670787735799e+03
-2.814613066948131745e+03
-9.819669951720918561e+02
9.645605215022763446e+01
9.234983705469925326e+02
1.181089106626282501e+03
1.943419049075041585e+03
2.465522775649259984e+03
2.984367028546553684e+03
3.156003094356804013e+03
3.057509149941437954e+03
2.740913879023661593e+03
1.980174697460898642e+03
1.330302149509654100e+03
9.372614883144514124e+02
-1.100252471355543094e+02
-1.320567207499774213e+03
-1.767393423650237764e+03
-1.835577744359376766e+03
-1.878230341047560842e+03
-1.433424556821562419e+03
-1.112147295435296428e+03
-6.824257244382426961e+02
-1.492793591743059380e+02
2.262705195137221494e+02
8.042271362987630710e+02
1.373601909438221583e+03
1.862410995326511738e+03
1.967623607096464866e+03
2.152161930623454282e+03
2.070050179470842977e+03
2.190266385930220622e+03
2.078771238053058369e+03
1.510436506242409450e+03
1.281186272751784145e+03
4.289128480573513116e+02
-1.264892051848118939e+02
-6.480515455712551329e+02
-9.938114578533633221e+02
-1.035851218150613022e+03
-1.200258212079002078e+03
-1.084124755084127401e+03
-8.754959193872532524e+02
-9.035747900234737529e+01
4.012474544313049591e+02
7.721902157352499216e+02
2.023475075385409582e+03
2.899064567588071895e+03
3.097895087872516342e+03
3.334921619276180536e+03
3.624043246815728708e+03
3.660216556079827569e+03
2.588354135730315193e+03
2.271306319041557799e+03
2.253987399038513558e+03
1.332346363232332806e+03
2.731440499055086661e+02
-3.956419023751140571e+02
-9.481066871118413246e+02
-1.353371848211244014e+03
-1.391557897974823163e+03
-6.157235525110183971e+02
1.030624148285419750e+02
3.977718374058068775e+02
-8.661973347555889546e+00
1.061763084025202261e+03
1.593956210597953714e+03
2.163933077249678718e+03
3.414686838914037708e+03
3.676376660994199938e+03
3.832987534893451539e+03
3.475476958267353893e+03
3.011762934120853515e+03
2.708707428710845761e+03
1.571241315230079408e+03
6.671894984505008779e+02
1.175088769841206897e+02
-3.199088985979621498e+02
-5.420700234353189444e+02
-1.027064665451783412e+03
-8.069724037376671504e+02
-3.038227226462383896e+02
-7.166823574168758171e+01
1.501121288048576616e+02
8.176970322502700128e+02
1.461295024440821635e+03
2.010768344241867226e+03
2.454159940321476370e+03
2.755452213225911692e+03
2.963534339259735589e+03
2.847184489311877314e+03
2.489208549566363672e+03
2.081427934165750230e+03
1.519619587866391612e+03
7.959405294040752779e+02
-2.722940001132342331e+02
-1.215928786945721640e+03
-2.166006360868206229e+03
-2.821511115969283765e+03
-2.796561312386303598e+03
-2.708512901326845167e+03
-1.852216683592669142e+03
-8.815535463918688492e+02
1.644174749504049515e+01
6.479726160536457655e+02
1.225815462952790995e+03
1.822002148310406710e+03
2.012385856223881774e+03
2.266270793806483198e+03
2.284764157899378006e+03
2.411736636081720462e+03
1.826239558974366673e+03
1.250310329213712293e+03
5.589960955732580032e+02
1.231531461016666285e+01
-7.747630380020657412e+02
-1.613261870438786445e+03
-2.379201995324604468e+03
-3.079487001724015954e+03
-3.263093185995848671e+03
-3.232990994209908877e+03
-3.033081447376217966e+03
-2.806292071846544786e+03
-2.548497702585173556e+03
-1.844557533489420166e+03
-1.424392720728232462e+03
-8.609478147156094110e+02
-1.921153933689076041e+02
-6.898172943589299848e+02
-4.489790642377638505e+03
-7.708180082829776438e+03
-5.171943436386076428e+03
-1.679791592605875849e+03
-4.969848401371174987e+03
-6.169041315223638776e+03
-6.226324321882690128e+03
-7.733628935795481084e+03
-7.892877519922451938e+03
-7.249062504883934707e+03
-6.482141547015658944e+03
-7.291013387038529800e+03
-7.996579524838010002e+03
-6.025697932359473270e+03
-3.033240800238640986e+03
-3.305079372812198017e+03
-6.338089635630413795e+03
-4.641173411215334454e+03
-2.824230404965836442e+03
-2.555130109189726227e+03
-2.172422046448868826e+01
-2.566895321435176356e+03
8.842813222512400273e+01
-2.384660425722844138e+03
-2.460072075563541148e+03
-2.151767083320357870e+03
-7.076654235558607979e+02
-4.126740034960380399e+03
-4.203902267654861134e+03
-2.302097601917314933e+03
-9.912719714780191680e+02
-8.523294664344907687e+02
-4.342025959087065985e+02
5.251767299973470244e+02
1.183889369338001870e+03
1.528060887046140806e+03
2.192804599950527518e+03
2.913239695790226051e+03
3.246461005001946887e+03
4.100553189971472420e+03
4.746554768001548837e+03
5.170526814241899956e+03
5.252539767235167346e+03
5.039658592642892472e+03
4.721935245144007240e+03
4.519395731468606755e+03
4.078007865938200212e+03
3.361808245238889867e+03
2.619784144118911172e+03
1.837877445359220928e+03
1.565144571579754711e+03
1.642557197147103125e+03
1.987113111795880513e+03
2.188789150301551672e+03
2.625713469738764616e+03
3.429173689535636186e+03
4.299701442493909781e+03
5.005129044332984449e+03
6.238428259927168256e+03
6.878623707158714751e+03
7.062745649800609499e+03
7.245807373600606297e+03
7.155812998307317685e+03
6.622825969466523020e+03
3.796210525936548038e+03
3.336103795423654901e+03
3.535333699266317581e+03
5.072378775239186325e+03
4.857512828165450628e+03
4.389958564327367640e+03
3.896890541604313057e+03
3.471309500530243895e+03
3.683521864482225283e+03
4.071131733057486599e+03
4.485174417305409406e+03
4.770495711464043779e+03
4.910121676362182370e+03
5.352932736412841223e+03
6.129624857608215279e+03
6.786288178378741577e+03
7.076525166336696202e+03
7.441276629407712790e+03
7.006620817041371993e+03
6.216471335458351859e+03
5.249687662556139003e+03
4.534183939458674104e+03
3.725867922159338377e+03
2.273627963462435218e+03
1.121360527703017624e+03
1.758893580909706884e+02
-8.489379044774345573e+01
-2.200822548107814782e+02
-2.547639933509230730e+02
-3.430623770498145291e+02
6.596985392336297593e+01
6.982706752973875837e+02
1.345804726945842503e+03
2.070406364535546345e+03
2.489957620360756664e+03
2.822371698967355314e+03
2.856602604318006797e+03
2.740551387900755344e+03
2.324161821319619321e+03
1.860382920604586843e+03
1.266010336723624050e+03
1.179160914478083697e+02
-1.073998047557649670e+03
-2.344914564186301050e+03
-3.504000152164089741e+03
-4.153346401396769579e+03
-5.030012872268527644e+03
-5.759182592606391154e+03
-5.784890721292436865e+03
-5.179213652560898481e+03
-4.755304139459103681e+03
-4.151320224611282356e+03
-3.887313330759032397e+03
-3.528393136976701953e+03
-3.205610723492183297e+03
-3.117082913687340806e+03
-5.106908469534182586e+03
-8.472086596155348161e+03
-1.270168601209690860e+04
-1.314883493475228170e+04
-1.361468802610635066e+04
-1.051231250590377203e+04
-1.184682458780892739e+04
-1.397833866591255537e+04
-1.347092436806035948e+04
-1.157467639476882687e+04
-1.009366393361758855e+04
-9.312831709499499993e+03
-9.082352607435041136e+03
-8.163287000314142460e+03
-7.303674180993714799e+03
-6.597536829235064033e+03
-6.031896637129980263e+03
-4.851736064520884611e+03
-3.348043472447603563e+03
-2.287843284906418830e+03
-1.269094077092979660e+03
-7.882290787465282733e+01
4.589177044896882194e+02
1.203155491332729298e+03
2.041912550805757292e+03
2.788113815664538834e+03
2.857751342152778761e+03
2.462745870115575144e+03
2.262060113470351553e+03
2.004787224772219588e+03
1.819908831383709639e+03
1.535306304034789946e+03
1.612011991946464832e+03
2.187099057304530106e+03
2.795658155577379603e+03
3.560673794997248478e+03
3.957299090920839262e+03
4.593564057324761052e+03
5.288568484905711557e+03
5.697367871001590174e+03
5.779022929365108212e+03
5.537690742527993280e+03
4.934357215591289787e+03
3.979102837870970689e+03
3.078954614405693064e+03
2.487987441246782510e+03
2.072280294628685624e+03
1.454909817290178125e+03
3.889797308757126757e+02
-3.384222991836116421e+02
-4.412365026726924953e+02
-2.323783947929743761e+02
-3.746915654260531028e+02
-4.703840432657017345e+01
6.846704106283449391e+02
1.352625445618781214e+03
2.284989048440070292e+03
3.024892324145024304e+03
3.857499208300949249e+03
4.762960598975992980e+03
4.599483786791030070e+03
4.413158592181037420e+03
4.885088028808260788e+03
4.527493409831501594e+03
4.210508795108358754e+03
3.866219005152031059e+03
3.153757173418988714e+03
2.132263151367117644e+03
1.340825283686087687e+03
4.385380633932746832e+02
1.415403032931614860e+02
1.899335632606916420e+02
5.200906893653241241e+02
-1.430139897795205854e+02
-1.091227208009455126e+03
-2.876314749501921142e+03
-5.640170177905441960e+03
-5.225610921414438963e+03
-4.643480422226942210e+03
-3.854562421084201105e+03
-3.139723509364132042e+03
-2.660842695002871096e+03
-2.951705854668430220e+03
-3.460212747346423384e+03
-4.532287610150694491e+03
-4.677841595169341417e+03
-4.961767388171215316e+03
-5.085919164468219606e+03
-5.157237236660579583e+03
-2.575686503053779688e+03
-2.434102175271173110e+03
-6.263394024838466976e+03
-6.835490859587136583e+03
-6.090265730945333416e+03
-5.455556213985665636e+03
-4.137234009210287695e+03
-3.644183634234805140e+03
-3.129256778484423194e+03
-1.272374892964546007e+03
5.264538927117172534e+03
5.978550034313248034e+03
2.337292070315022272e+02
-1.856824174634030214e+03
-2.061042957192991253e+03
-2.461820258777444451e+03
-2.310057861029105879e+03
7.550611171061010509e+02
1.521468230257699133e+03
-2.803726879920565352e+03
-5.905653924576938152e+03
-3.896283881248417401e+03
-2.416065974762962014e+02
1.530385005601377316e+03
1.842748202725922965e+03
-8.533651700094617709e+00
1.702615788365754725e+03
4.096200263877228281e+03
4.405232861517684796e+03
4.851681441734414875e+03
5.368577371343931190e+03
6.006847589026187961e+03
6.324453030524612586e+03
6.230362039071838808e+03
5.868545164426930569e+03
4.816905450120341811e+03
3.751291443263055044e+03
2.642589329067429844e+03
1.101664834789674615e+03
-8.362773605072884209e+01
-8.899842146324765508e+02
-1.150627317898396313e+03
-1.004708586198179319e+03
-7.633233826793708658e+02
-5.405390301266537563e+02
1.455473438344229287e+01
6.288546026453935838e+02
2.819309612013629703e+03
3.256132685066028444e+03
3.231208605850334152e+03
4.787929902385950300e+03
5.248003217440761546e+03
5.734919016556405950e+03
5.743391282377833704e+03
5.490744040242372648e+03
5.329204354496698215e+03
4.602540559628329902e+03
3.447420886106857779e+03
2.114673537440210112e+03
7.342704022053728750e+02
-3.598872504628852909e+01
-3.684671009460529376e+02
-5.712392067417169983e+02
-6.143215555459723873e+02
-2.482656376607050674e+02
6.037577407396865681e+01
5.698170040154413982e+02
1.534067439053349744e+03
2.226727566528000807e+03
2.847197166724505223e+03
3.127626947278707576e+03
3.323926260187250136e+03
3.323029548727977726e+03
3.402750321090034049e+03
2.845960293261141487e+03
2.311808565120123603e+03
1.938561472306373844e+03
1.218770045169551622e+03
2.791778833033885121e+02
-6.143517338885590107e+02
-1.592024512988459492e+03
-2.182113486717680189e+03
-2.341816465857232743e+03
-2.151241005135813793e+03
-1.174551255878148368e+03
5.003087046218912803e+01
1.127346759977414195e+03
1.882296242635429508e+03
2.742707441627322169e+03
3.768393917516467809e+03
4.556209968170863249e+03
5.299037764296570458e+03
5.870731110163760604e+03
6.178132880305121944e+03
6.541126361091675790e+03
6.483587690407711307e+03
5.410363593788980324e+03
4.884327568501791575e+03
3.424300021885412662e+03
1.297160385313565712e+03
-1.937233028709553992e+03
-6.572041415603004680e+03
-1.009240820013130906e+04
-1.004746874983562702e+04
-9.747272291381266768e+03
-9.452859027833637811e+03
-9.048329247110772485e+03
-8.153701261267331574e+03
-7.323008227695748246e+03
-6.155312092243011648e+03
-3.311577390676963205e+03
-2.862934614310441248e+03
-2.481933109308148232e+03
2.963261318278709041e+03
4.437657032361805250e+03
-1.737078940107202243e+03
-5.244037390225731542e+03
-5.566031221764318616e+03
-3.539969110325655038e+03
-7.577704285675709798e+03
-9.586357551959123157e+03
-1.007112100897965865e+04
-1.035492994594192351e+04
-9.377669777269402402e+03
-3.731252191907050019e+03
-1.224558943510496420e+03
-1.651478343201937093e+01
3.530286812096644553e+02
5.111872563287276421e+02
1.373098957286426412e+03
1.816953386145024979e+03
1.719868212675115046e+03
1.740006875337033534e+03
1.677503152565281653e+03
1.367511583919829036e+03
9.092143031363227692e+02
-1.602726867003209179e+02
-1.015835314928538992e+03
-2.015349943700617359e+03
-3.066708935725620449e+03
-4.190745401180814042e+03
-4.695275071403782022e+03
-4.760158634695599176e+03
-4.717202910801449434e+03
-4.314214846491839126e+03
-3.843988069617927522e+03
-3.724185884969941981e+03
-2.993586651400897154e+03
-2.526952371544301513e+03
-1.868026035696213512e+03
-1.043550062943327475e+03
-9.812167288410761330e+02
-8.427934234639152464e+02
-4.629799213330999237e+02
-8.334713246333271854e+02
-1.608019178781155688e+03
-2.479360323908626015e+03
-2.857263980488731249e+03
-3.812454252425452069e+03
-3.751698309304544182e+03
-2.982781878513181709e+03
-2.526506667214977824e+03
-2.571572081900961166e+03
-2.405686760909385157e+03
-2.172596686390936611e+03
-1.327028693776700038e+03
-9.736944753363552536e+02
-6.792937138438082911e+02
5.096926047151585522e+02
1.658675986191644824e+03
2.596959871964592821e+03
2.492524298739993810e+03
2.549745785227297347e+03
2.582833194264026588e+03
1.956416448487724438e+03
5.496280012355094868e+02
-1.667260982911227757e+03
-1.796886628367634785e+03
-6.895473260829717219e+02
-9.832635432515289722e+02
-1.993413344065024830e+03
-2.467036544297748151e+03
-2.881647344537852860e+03
-3.037030312357145704e+03
-2.789180799334646963e+03
-2.169961051019823572e+03
-1.673189625861796912e+03
-7.776365433918807639e+02
1.598441184310407834e+02
9.464161224925531997e+02
1.560319741056353223e+03
2.253705965885851128e+03
2.717678015474696167e+03
3.549354465916879235e+03
3.396903605191734187e+03
3.124450118891218153e+03
3.908163700098760273e+03
4.615171254912011136e+03
3.693544570468322490e+03
2.496365991724994728e+03
1.884715775933638952e+03
2.004615152901218835e+03
1.335141630705478519e+03
1.640355912676479193e+03
1.812326324165016786e+03
2.352091052057393426e+03
3.184739600569691447e+03
3.913373804879606723e+03
5.515050316004755587e+03
6.569846942199456862e+03
7.110827386524744725e+03
7.147999568872469354e+03
6.930383643019114061e+03
6.579954819312630207e+03
6.184683394610284267e+03
5.610495294405115601e+03
4.995400699086056193e+03
3.694310381653365312e+03
2.461048230998919735e+03
1.358523857715851364e+03
2.236681324590229849e+02
-4.576830476216567831e+02
-4.736201265482508234e+02
-5.952931591506599034e+02
-6.328692217062709915e+02
-8.140895823764550698e+01
6.319602288670087091e+02
1.175108136395417660e+03
1.830961764141346976e+03
2.448405993477054380e+03
3.273264733010643795e+03
3.792414835328760546e+03
3.823628553600314262e+03
3.686679548373131638e+03
3.496525088378133205e+03
2.795942412873089779e+03
2.202730668997967314e+03
1.502747292980564453e+03
-4.003922628440386688e+02
-3.558922420690636272e+02
-1.047997520942878964e+03
-2.232925628984383366e+03
-2.276834973792976143e+03
-1.869873706858212245e+03
-1.708164002087820791e+03
-1.384137548429981280e+03
-5.060321215969941022e+02
2.748604966370243119e+02
1.097318510749852521e+03
2.145121899613720416e+03
2.986048993558103120e+03
3.471819639941024434e+03
3.526247970509189145e+03
3.503986938341838595e+03
3.438766005639154628e+03
3.270291307108507681e+03
2.310265627965340627e+03
1.642142224265860023e+03
5.507915359842179441e+02
-7.397154264826289136e+02
-1.899870191822629522e+03
-2.418066770224103948e+03
-2.596591452764831502e+03
-2.542812087856822018e+03
-1.613920427644182837e+03
-8.341528616010741644e+02
-1.868832926496637299e+02
3.712155295467914584e+02
8.242728639156614463e+02
1.592585919734512117e+03
2.094706544438284254e+03
3.437264519582922276e+03
5.714051789740838103e+03
5.532730022475163423e+03
4.523778946376247404e+03
4.554075747515554212e+03
3.410782994047591728e+03
2.539662534578416398e+03
1.603074644066304472e+03
3.295519183612170195e+02
-3.720301914418795377e+02
-1.270816590562895726e+03
-1.519785563626272051e+03
-1.426439737196435544e+03
-1.032103367920046594e+03
-4.477929235647676478e+02
3.803411793130633782e+02
8.011270908539230504e+02
1.130399672865106595e+03
1.850073520165322407e+03
2.750997166700939033e+03
3.160035850473283517e+03
2.360085105828189171e+03
6.380175416933772112e+02
-1.907271940823803789e+03
-5.870876808313369111e+03
-4.950941676706965154e+03
-5.523588899098866932e+03
-6.899941671405179477e+03
-7.874153053232610546e+03
-8.659348297545851892e+03
-8.992650016823659826e+03
-8.875156699548002507e+03
-8.950816265219133129e+03
-8.429881827388508100e+03
-7.831308200073674016e+03
-7.405997113300843012e+03
-7.002098634066936029e+03
-4.761531923537535476e+03
-2.029329476697838572e+03
-4.951417020148957818e+03
-4.851727495127292968e+03
-4.339235845146999054e+03
-5.015872112461561301e+03
-5.474556983370896887e+03
-5.660190232545865911e+03
-6.284689576298660540e+03
-6.471038001602776603e+03
-3.123198781294471246e+03
4.519104912740339159e+02
-3.895638730511349422e+03
-9.653769407770105317e+03
-1.047936966315829704e+04
-1.005035048238381205e+04
-9.530596131163742029e+03
-5.923941440703812987e+03
-4.899195822236394633e+03
-7.885177997197899458e+03
-7.476665582496061688e+03
-6.324430202075239322e+03
-2.234288271931509826e+03
2.340004908656577754e+03
3.724658214183559721e+03
4.409845250571213910e+03
4.259784883344536865e+03
3.820727536752838205e+03
3.483923973186733747e+03
2.670596647609845149e+03
1.367946955035999508e+03
6.011991326989801792e+02
3.755323919671146768e+02
-3.019037960825192499e+02
-1.250842704041841216e+03
-6.820795274034754812e+02
-4.631888966720313050e+01
3.207263156369275521e+02
6.552999301940628811e+02
1.255716167181647279e+03
1.879249427225151749e+03
2.563221017821591431e+03
3.432908984183884513e+03
4.253609271356992394e+03
4.748612940796971088e+03
5.118262902602806207e+03
5.165825052691506244e+03
5.532658747151423086e+03
5.913995275931370088e+03
5.479251816129223698e+03
4.592849350705118013e+03
3.371327594506249625e+03
2.594810262480655183e+03
2.135513788228273825e+03
1.939689051039288188e+03
1.885596851588482195e+03
1.681458528884199495e+03
1.197539741839183534e+03
1.324105238418236240e+03
-6.297853172789851897e+02
6.542625036010098256e+02
2.320668996708299801e+03
5.470515210818137348e+03
6.488699715018660754e+03
4.576745407107725441e+03
4.257329083920293670e+03
4.699792226106043017e+03
6.964703067390077194e+03
8.309382132593907954e+03
6.878098393527110602e+03
5.362186782633967596e+03
4.148778326919496067e+03
2.749973936372075059e+03
1.966529580802175587e+03
1.357017442385590130e+03
1.444514760409257633e+03
1.482985879720198454e+03
2.137552601801728997e+03
3.136315817451055409e+03
3.755452438554309538e+03
4.588165373453179200e+03
5.673571902549051629e+03
6.935781362391488983e+03
8.005942168546619541e+03
8.800174356210691258e+03
9.093623840376838416e+03
9.476368987150799512e+03
9.128488600482942275e+03
8.618046828678736347e+03
7.889107103978303712e+03
6.817668705187812520e+03
5.795720332814235917e+03
4.537281807668296096e+03
3.158347258656321628e+03
2.987913235250182879e+03
2.800976929216113604e+03
2.459486966520003079e+03
2.231507479376778065e+03
1.855020823616217967e+03
2.209009414266032309e+03
2.230552419765023842e+03
2.183625942214199767e+03
2.575161112175833296e+03
2.612189163195060701e+03
2.601666322475724428e+03
2.576591001475133908e+03
2.369874267237000367e+03
1.685432019296367571e+03
8.501019578815013347e+02
-3.242511569270985774e+02
-1.320721526236308591e+03
-1.827443093218911145e+03
-2.888544069449590097e+03
-3.938129438333527560e+03
-4.899372630182710964e+03
-5.840311565829627398e+03
-5.984108072684748549e+03
-6.367947988023081052e+03
-8.374960645864524849e+03
-1.145324363308459579e+04
-1.384083189185834453e+04
-1.311787597891171936e+04
-1.142247471302497979e+04
-1.237375457895921681e+04
-1.041871508151317539e+04
-4.053466485713567636e+03
-3.598533845558194116e+03
-7.180880133552675034e+03
-6.489650010640219989e+03
-8.522838642457907554e+03
-7.030816397612315996e+03
-5.011806805254210303e+03
-5.374978589193012340e+03
-5.856577925903799041e+03
-5.966816401800595486e+03
-5.700888875002546229e+03
-5.719020052345584190e+03
-5.493398507547731242e+03
-4.749202146839583293e+03
-3.630580629120369849e+03
-2.710725215250488418e+03
-1.932800433554780739e+03
-1.286009964865976599e+03
-1.273467105070632670e+03
-5.873015220398762040e+02
1.962011977797204736e+02
5.648272257352557517e+02
4.695364002759656614e+02
4.311772621132954555e+02
1.482776908399862092e+00
-4.427610108541348950e+02
-8.677033065079649532e+02
-1.674613946288156740e+03
-2.627718968394641706e+03
-3.056228030434910124e+03
-2.927349762387287228e+03
-2.752266803386648462e+03
-2.163233204258028763e+03
-1.251354702762810348e+03
-6.957463552910987801e+02
1.485207040283660547e+02
1.201353800853318489e+03
2.522610037716256102e+03
3.247180418699129859e+03
4.205923078324719427e+03
5.036687346289139896e+03
5.034404392994348200e+03
5.132950295292747796e+03
5.039215776058775191e+03
4.380023023023339192e+03
4.254218507502711873e+03
3.572589763168474292e+03
2.435981556384562737e+03
1.876253730341884420e+03
1.503238523037691493e+03
1.444848513600466958e+03
1.287939333670848782e+03
1.532400891811998463e+03
2.395148938788780015e+03
3.224057242299476002e+03
3.457080385786698571e+03
2.967250474203083741e+03
3.907511246061594193e+03
4.120818881887053067e+03
4.427055231819396795e+03
5.448161293956550253e+03
4.817986604093245660e+03
4.638672742323697094e+03
4.547985140708636209e+03
3.476668450883520109e+03
2.697129037950908696e+03
1.717113036294338826e+03
4.962445448760679483e+02
-4.261130859650904767e+02
-9.891293141563135123e+02
-1.734038046667491471e+03
-1.939894930155993507e+03
-1.607703533652573242e+03
-1.322532159748526283e+03
-1.435329461408709221e+03
-1.146077704634957172e+03
-9.077513842816409806e+02
-6.763243975865276525e+02
-4.258201247618652587e+02
-2.692605030207915888e+02
-5.135758320109216584e+02
-9.417378495546419117e+02
-1.376708423163766383e+03
-1.919490363284496198e+03
-2.697110291120010061e+03
