-4.343112212317229023e+03
-4.009967353369241664e+03
-3.338143433803575135e+03
-3.034565297992297928e+03
-3.509074359469528645e+03
-4.418446709772999384e+03
-5.039641638204744595e+03
-4.755792921436569486e+03
-3.360995843055987734e+03
-3.017154057835797630e+03
-3.225227876863473739e+03
-3.300270314083073117e+03
-3.737274838985780661e+03
-3.633315814320481877e+03
-3.098521268403372233e+03
-2.590942396396928871e+03
-1.805681178134022048e+03
-1.111935436168085062e+03
-1.898860921032330396e+02
1.451801857877776172e+02
1.830815550820304054e+02
2.085828298920912971e+02
3.875026491055261886e+02
1.055505932050335559e+03
1.805204872304708260e+03
1.745145518848432857e+03
3.153960713363996092e+03
3.602455070676183368e+03
3.539137419470563145e+03
3.707488110375772521e+03
4.212979235732485904e+03
4.596187897091222112e+03
5.039714217688700046e+03
5.831981915334536097e+03
6.738361982883261589e+03
7.884318616010954429e+03
9.092386103582624855e+03
9.653915921380814325e+03
9.684055563220999829e+03
9.831097235572964564e+03
1.078944470870514124e+04
1.077753615863229788e+04
1.119977891765407730e+04
1.206254965171946969e+04
1.255627482305790545e+04
1.323319622811673798e+04
1.367163914793487857e+04
1.379386907175924171e+04
1.382099049794291204e+04
1.360310503504014196e+04
1.353840787383892894e+04
1.395017836861260366e+04
1.439961652737855184e+04
1.524501681910692605e+04
1.556043213961553010e+04
1.588099125953658950e+04
1.636899724516163587e+04
1.724572865497235398e+04
1.808438001467350477e+04
1.884325507770585682e+04
1.916165989629120668e+04
1.954090359941321731e+04
2.019213998310454917e+04
2.067957705064484981e+04
2.122544062950400257e+04
2.153469505020635188e+04
2.168114483934940290e+04
2.133252164852609712e+04
2.040631004116732220e+04
2.020677305274192986e+04
2.110621333526788294e+04
2.185887539031102642e+04
2.223913225399720613e+04
2.182435948151369666e+04
2.219696257743997921e+04
2.346648904527265404e+04
2.403235193884477485e+04
2.382700699502895441e+04
2.407399865682094605e+04
2.476774813935434577e+04
2.553774177187301393e+04
2.570549808781854881e+04
2.546052415549337093e+04
2.450225420063397905e+04
2.313225010876042143e+04
2.211128107451879259e+04
2.103687761114492241e+04
1.970574916226710775e+04
1.861660539008489650e+04
1.705126431716302250e+04
1.479246590104195820e+04
1.189397137785886116e+04
7.312464313489818778e+03
5.240541753743125810e+03
5.019033501024360703e+03
4.800936872352590399e+03
4.651346411369120688e+03
4.299372174780329260e+03
3.762016917728134104e+03
2.268252776589729820e+03
9.792402288249528510e+02
-2.279033525368767528e+02
-2.666162144942956729e+03
-4.923347720915982791e+03
-6.503321543454590937e+03
-8.013701230991802731e+03
-6.707407546384724810e+03
-8.850161170138453599e+03
-1.295258002638021935e+04
-1.384614326459667609e+04
-1.492755893071969513e+04
-1.677425880043576399e+04
-1.801767980637162691e+04
-1.883439706644823673e+04
-1.824185291927753860e+04
-1.300940355230220302e+04
-1.276433711950803990e+04
-1.748401545039891789e+04
-2.146069905455860135e+04
-2.291854834179801401e+04
-2.492080843621733948e+04
-2.551478007533195341e+04
-2.479770085403411576e+04
-2.129070706367315506e+04
-2.020786361127542841e+04
-2.254323056244623513e+04
-2.620884659267040479e+04
-2.727663142013918696e+04
-2.871448840589270912e+04
-3.050543711945689211e+04
-3.218738489770339220e+04
-3.393624750173294888e+04
-3.601086166719756147e+04
-3.747506752664312808e+04
-3.851167223106036545e+04
-3.865063876601025549e+04
-3.802483158485058084e+04
-3.737502791055673879e+04
-3.735108761654104455e+04
-3.735471609020284814e+04
-3.637370747167660011e+04
-3.626682947382408747e+04
-3.701891530573904311e+04
-3.784076960085143946e+04
-3.752288507846833818e+04
-3.564484124616241752e+04
-3.343037740783711342e+04
-3.230941192834175672e+04
-3.196167096583640159e+04
-3.147786901794614460e+04
-3.053680214522490496e+04
-2.856219230870445972e+04
-2.568867434708058863e+04
-2.295600355303471588e+04
-2.088904904464316132e+04
-1.873341882308674394e+04
-1.674569330680117127e+04
-1.353174418069084641e+04
-9.973358417587229269e+03
-6.982596766751174982e+03
-3.664127861612470042e+03
-1.034618504487644259e+03
4.911508716252717477e+02
2.130496946656098771e+03
3.350339950224626136e+03
3.669662168344682868e+03
4.388647600015658099e+03
4.372018796557526002e+03
3.640235957751733622e+03
3.857469602771513109e+03
5.753985818188661142e+03
7.724559169758002099e+03
1.044241840135286111e+04
1.635555058556882250e+04
2.071390975558349601e+04
2.220298315833966990e+04
2.338539037201646352e+04
2.545522505552301664e+04
2.763497185137692213e+04
2.930938794999045058e+04
3.124892681500796607e+04
3.391717345747466607e+04
3.633372103134112695e+04
3.951511187623472506e+04
4.251976041470569908e+04
4.332602927238563279e+04
4.244026044435845688e+04
4.193082810383018659e+04
4.178619531181235652e+04
4.296074889361578971e+04
4.479480720070003008e+04
4.633641794379680505e+04
4.758571728110875119e+04
4.920061548935905012e+04
5.110918038395483018e+04
5.303277134517848754e+04
5.451446806380774797e+04
5.621138140309031587e+04
5.865051338140168809e+04
6.170864879300475150e+04
6.440670379516435787e+04
6.629141836801907630e+04
6.625432092943598400e+04
6.432913953952797601e+04
6.215950063224611222e+04
5.880785245950220997e+04
5.482765015079041041e+04
4.995615522092114406e+04
4.484700180183471093e+04
4.161351793237583479e+04
3.842899924852679396e+04
3.565662302045107936e+04
3.341970100382469536e+04
3.117756895552368223e+04
2.865056566207011565e+04
2.569069424604806045e+04
2.281957344522054336e+04
2.099539287300508295e+04
1.883432851800468052e+04
1.443409380119181878e+04
8.090818350277844729e+03
2.582433269350382943e+03
-3.048806017500396592e+03
-7.790896742547151007e+03
-9.431344338664208408e+03
-1.125463099094589597e+04
-1.172991259486294257e+04
-9.589148240647258717e+03
-8.691495287285350059e+03
-9.953855941894271382e+03
-1.105152336476007622e+04
-1.209850404558648734e+04
-1.255980391815620897e+04
-1.237379422894373783e+04
-1.215839505928513063e+04
-1.166308007432405066e+04
-1.188228917397137593e+04
-1.217651473732291015e+04
-1.225884517909136775e+04
-1.252589343320662920e+04
-1.220811888972545785e+04
-1.197275700016730843e+04
-1.243635871704531928e+04
-1.353338515517032829e+04
-1.469013725800864086e+04
-1.646435763174689782e+04
-1.804485330685443478e+04
-1.944659367210580967e+04
-2.054982202614743801e+04
-2.060527908015688445e+04
-2.011587579491799625e+04
-2.020204766205843043e+04
-2.095091217845416395e+04
-2.180449790494664194e+04
-2.270793411395775547e+04
-2.351793396105500506e+04
-2.365613611800481885e+04
-2.307071499140595552e+04
-2.239702112611130724e+04
-2.285448265192990948e+04
-2.322970798823938821e+04
-2.329930716397532524e+04
-2.347544377323834487e+04
-2.411356054631577717e+04
-2.485045227515529768e+04
-2.530056893304481491e+04
-2.575832914253366835e+04
-2.639986168568375797e+04
-2.671796643608227168e+04
-2.642334491437476390e+04
-2.606308335423927565e+04
-2.524561714502992618e+04
-2.416801779300924318e+04
-2.301120031506594387e+04
-2.168222579960286384e+04
-2.095719171375618316e+04
-1.984939488837898898e+04
-1.941524551245113980e+04
-1.885667322392707501e+04
-1.852213538763531687e+04
-1.832583424467287841e+04
-1.827561903662590339e+04
-1.893396596202231740e+04
-1.907368276760531808e+04
-1.838198984772347831e+04
-1.826271013174117616e+04
-1.787698584464507803e+04
-1.681301069277599163e+04
-1.597744986384017284e+04
-1.428916126602373333e+04
-1.206414532679494368e+04
-9.610865334149939372e+03
-6.612829664547811262e+03
-2.957090347118887166e+03
-7.538221890677415331e+02
-4.932572693412739682e+02
-5.220757203731700429e+02
-1.301058971424027959e+03
-4.187585039066238096e+03
-6.162465140006993352e+03
-4.614334722575735213e+03
-3.507227592428605931e+03
-2.262151432987598582e+03
7.505710298272571208e+02
3.473535492438141318e+03
5.495543330543168850e+03
6.102336349890807469e+03
7.754435755077171962e+03
9.475709269647946712e+03
1.128004200001696699e+04
1.111672574886854454e+04
1.061406527680919498e+04
1.369775999908215636e+04
1.617821364973734853e+04
1.347032316544735477e+04
1.277274802155136240e+04
1.272964007034504357e+04
1.265757466617396676e+04
1.267667591493568398e+04
1.273919900865811360e+04
1.356249624460872474e+04
1.459997993785726976e+04
1.815878737170892055e+04
2.235907795063625963e+04
1.872114346027746797e+04
1.654855396089045098e+04
1.526977893293634042e+04
1.222231346660858253e+04
9.069781599832502252e+03
9.671047390712667038e+03
9.998284307006058953e+03
9.686972910068305282e+03
9.212391179549238586e+03
9.571643620744052896e+03
1.081921303723051824e+04
1.209320718881021094e+04
1.318697369634712413e+04
1.400143709202805076e+04
1.422823982325751058e+04
1.259501264772406648e+04
1.087753975620303208e+04
1.045153140396361960e+04
9.147526662510561437e+03
8.636500801542453701e+03
8.357727102261018445e+03
8.843144373502185772e+03
9.191730689868014451e+03
9.407204832953410005e+03
1.010974712117211675e+04
9.036831292865592332e+03
6.968360663792484047e+03
5.461280988945525678e+03
4.530467274968560560e+03
5.094159515604396802e+03
5.439179445991297143e+03
5.204590850006594337e+03
6.027276431461217726e+03
6.809802411221789953e+03
6.714274756916264778e+03
6.914393430681200698e+03
5.712437077010267785e+03
4.181413558848086723e+03
2.905008305248836677e+03
1.015924228549987447e+03
-1.069653812133073643e+03
-2.371519924407250983e+03
-4.750277415967766501e+03
-6.068022166796563397e+03
-6.906534444229227120e+03
-8.654191541619342388e+03
-1.036100167348693867e+04
-1.201250482918444868e+04
-1.342134139901284470e+04
-1.462421641789843670e+04
-1.543636388837953382e+04
-1.504473533571513690e+04
-1.438486071953694227e+04
-1.485491724162283026e+04
-1.687936506216934504e+04
-1.964512113857458826e+04
-2.220028029418219376e+04
-2.522326660351593819e+04
-2.856970263776541833e+04
-3.063767435146523349e+04
-3.197940880913168075e+04
-3.360556826939494204e+04
-3.426382874124296359e+04
-3.517406107141669781e+04
-3.585923509729717625e+04
-3.602742587535962957e+04
-3.536970981062343344e+04
-3.568526132081680407e+04
-3.573742211052105267e+04
-3.538946589965103340e+04
-3.532563822062392865e+04
-3.467047293763568450e+04
-3.450064542699656886e+04
-3.472994825117533765e+04
-3.622578751584423298e+04
-3.888393466878938489e+04
-3.985810457541736832e+04
-3.851898846123401017e+04
-3.657362493467472086e+04
-3.635003086366646312e+04
-3.556824845872565493e+04
-3.455051260653292411e+04
-3.501497826639773848e+04
-3.526684671952491044e+04
-3.422258138955815230e+04
-3.325266731956473814e+04
-3.382449307025726011e+04
-3.273445963666918760e+04
-2.946298597332364807e+04
-2.672069061965727815e+04
-2.340136755250801434e+04
-2.325398876289460168e+04
-2.381033669937383092e+04
-2.428219440390230739e+04
-2.532737362005807881e+04
-2.234366497492621056e+04
-2.107517666352206652e+04
-2.186897555155641021e+04
-1.905992203361438078e+04
-1.555835840372635175e+04
-9.386631278060491240e+03
-5.364657300677467902e+03
-8.449936364010494799e+03
-1.313022814222418492e+04
-1.348319602480020512e+04
-1.157449563663034860e+04
-8.225087248031715717e+03
-6.298257247849994201e+03
-3.213407595144544757e+03
2.487688184700523379e+03
5.785299101309162324e+03
9.850695095092234624e+03
1.155298226345857802e+04
1.273988759772914818e+04
1.440906237172166584e+04
1.585532507965257355e+04
1.606144620941946596e+04
1.560546622021367511e+04
1.511256694386769232e+04
1.359877951917299106e+04
1.323576761819663625e+04
1.418209959903185882e+04
1.592229967866086008e+04
1.561879374703620670e+04
1.541099839974264796e+04
1.231838497079985973e+04
7.260454421864378673e+03
5.439609612485732214e+03
4.452182641570366286e+03
5.187520156967148978e+03
7.559963961166365152e+03
9.946717314360646924e+03
1.375894539422991875e+04
1.706399095452326583e+04
1.810925644128798376e+04
2.075220393944220996e+04
2.476728814415440866e+04
2.745984242434867701e+04
2.887634093685081825e+04
2.869818043614793714e+04
3.136861320128851003e+04
3.315107323314342648e+04
3.399797261785541195e+04
3.432671391689249140e+04
3.526249250814461993e+04
3.809847259193714854e+04
4.386500003763502173e+04
4.863048778080546617e+04
4.743847510725970642e+04
4.739038808168455580e+04
4.873761815552023472e+04
4.640973550339596841e+04
4.554145751355311222e+04
4.390053102667680650e+04
4.664052080187326646e+04
5.208806118049785437e+04
5.417778843107232387e+04
5.179139326171126595e+04
5.020373288267690805e+04
5.173119817696150130e+04
5.541159682298212283e+04
5.247651328353660938e+04
4.802771819598392904e+04
4.694417366055853199e+04
5.076801437524061475e+04
5.487418459096727020e+04
5.464973272465902119e+04
5.385087240961391944e+04
5.123494633612198959e+04
4.627444262076290761e+04
4.562697093119483907e+04
4.304823185987400939e+04
4.057497802677292930e+04
4.074093560741553665e+04
4.006103030250941083e+04
3.935426600687700557e+04
4.048276737616218452e+04
3.795581293385994650e+04
3.033684545841559157e+04
2.901628890723876611e+04
3.146971418906041072e+04
3.048079229379860772e+04
2.304320354041361134e+04
1.427370792254062144e+04
8.719224641496128243e+03
8.072902241793264693e+03
1.115802769759303737e+04
1.139888850916957017e+04
8.126778996357334108e+03
6.855155950075941291e+03
6.502557722653744349e+03
5.758738801354745192e+03
7.347162415446093746e+02
-1.087356350452350307e+04
-2.463109019112447277e+04
-3.010369410522895123e+04
-2.946196622117191146e+04
-3.035849517452503278e+04
-3.565881518495461933e+04
-4.249730091478788381e+04
-4.618120040132389840e+04
-4.532664717450310127e+04
-4.359664264087362972e+04
-4.630317256224037556e+04
-5.033922114531498664e+04
-5.389568268640850874e+04
-5.989922387530600827e+04
-6.978620268828865665e+04
-7.443610047485555697e+04
-7.427752757465215109e+04
-7.578173392077311291e+04
-7.276693442887821584e+04
-7.493126574653906573e+04
-7.956178367541322950e+04
-8.360542680574298720e+04
-8.966488174063892802e+04
-9.298297325917734997e+04
-1.019714893025737547e+05
-1.080879304760188097e+05
-1.116367784400212113e+05
-1.050954682859363384e+05
-8.857035379050616757e+04
-7.602683986743485730e+04
-6.140034350687646656e+04
-5.985326239202351280e+04
-6.936570887256252172e+04
-8.189777750496956287e+04
-8.514245103905680298e+04
-8.286377411808939360e+04
-8.936677113055517839e+04
-1.040881208410622785e+05
-1.203103086022118950e+05
-1.364760848311478039e+05
-1.452905306847052707e+05
-1.441703874347996025e+05
-1.506655631547880475e+05
-1.691109795114515873e+05
-2.006242952039866359e+05
-2.214282647373239743e+05
-2.317865015583402419e+05
-2.383438314066310122e+05
-2.406710739649151219e+05
-2.314759714979798009e+05
-2.085469976502830687e+05
-1.764236824793297565e+05
-1.366783931188105198e+05
-9.430724320228758734e+04
-5.259441872038275324e+04
-4.630824604644095416e+03
4.235562095506829064e+04
8.179403911663303734e+04
1.134555062624194252e+05
1.356840526821529493e+05
1.464126139617473236e+05
1.521090345897268562e+05
1.511361496665979212e+05
1.424366188227933599e+05
1.269693705394215067e+05
1.021049169323865644e+05
8.023812166816572426e+04
6.227168185835995973e+04
5.203429220318666194e+04
5.531106445863522822e+04
6.739813524844065250e+04
8.807264038455062837e+04
1.153496018562376121e+05
1.415639116543048585e+05
1.620373545969408297e+05
1.785116327483302739e+05
1.977525076854165527e+05
2.153537220169981010e+05
2.304997712897747697e+05
2.439842725921654201e+05
2.541606203530512576e+05
2.581099628532769857e+05
2.597053887754605676e+05
2.620787740929987631e+05
2.608040267302881402e+05
2.541938536846057686e+05
2.360209346615281247e+05
2.090677395438712556e+05
1.878495475556254096e+05
1.702477786726822087e+05
1.575717097295412095e+05
1.481442171698092716e+05
1.333791222123592161e+05
1.196851211893742584e+05
1.107098508440183796e+05
1.039729285887266160e+05
9.656066220506507671e+04
8.122712295619984798e+04
6.252648066047111934e+04
4.933788328121316590e+04
3.994731769920190709e+04
3.011156643028409235e+04
2.355041200060717165e+04
2.111452358968581757e+04
1.052540218784298304e+04
-1.652722390861739541e+03
-1.176961057988418543e+04
-1.522132287705908675e+04
-1.709398877743855337e+04
-2.609667451202892698e+04
-3.586370301775853295e+04
-4.328640712046872795e+04
-4.472518095293252554e+04
-4.739167069086842093e+04
-5.601467874949474208e+04
-6.328017236208583199e+04
-6.642110412365882075e+04
-6.558537493129656650e+04
-6.558111771888706426e+04
-6.651244612673021038e+04
-6.421367525562246010e+04
-6.216404133134414587e+04
-6.506884782182850904e+04
-7.125576321865791397e+04
-7.589259235579543747e+04
-7.822993056603865989e+04
-7.934668547259017942e+04
-7.988874904714318109e+04
-8.092715553699800512e+04
-8.081801570811071724e+04
-8.000043032173956453e+04
-7.925746427095968102e+04
-7.675241566527228861e+04
-7.148658058013745176e+04
-6.692224494675250025e+04
-6.395383045786029834e+04
-6.266277630082738324e+04
-5.912532689585577464e+04
-5.745967206891877140e+04
-5.575837568704868318e+04
-5.121713194169705821e+04
-4.631672579994741682e+04
-4.083284256453577837e+04
-3.580186009471232683e+04
-3.319832090129792778e+04
-3.069187637201969119e+04
-2.759798423718658887e+04
-2.578728454632400098e+04
-2.489651487961148814e+04
-2.393022710747544261e+04
-2.284395900879774490e+04
-2.014140892385568441e+04
-1.763841662651277875e+04
-1.526760981415904644e+04
-1.553466382486378643e+04
-1.658660996194055770e+04
-1.674885685411519080e+04
-1.647077545036535957e+04
-1.511566557277548600e+04
-1.486023872199941434e+04
-1.514366133166449072e+04
-1.288197817820943419e+04
-1.206581351134723991e+04
-1.361742934193234760e+04
-1.115321115895981347e+04
-9.195179720886786527e+03
-9.574752990855100506e+03
-1.226738621885218527e+04
-1.610329332724509550e+04
-2.169794988109621772e+04
-2.403130043184375972e+04
-2.520575395928254147e+04
-2.708619293701622155e+04
-2.698198144419266464e+04
-2.421363468870696306e+04
-2.036197228748353882e+04
-1.906918223775054503e+04
-2.079547725961707329e+04
-2.433107843798575414e+04
-2.901801112896068662e+04
-3.156013339023982189e+04
-3.126317756181467121e+04
-2.885390475474845880e+04
-2.629693111833283183e+04
-2.422785409199034984e+04
-2.149334457412314077e+04
-1.924092759590138303e+04
-1.826787544554820488e+04
-1.775047476464495412e+04
-1.615870154124823966e+04
-1.416838135253401379e+04
-1.257976625772648185e+04
-1.152489559289930548e+04
-1.018367887966756825e+04
-9.472999574902514723e+03
-9.832604378276048010e+03
-9.840212732074322048e+03
-9.031322176707129984e+03
-7.816239047209134696e+03
-6.590437620293474538e+03
-5.470280502342982800e+03
-3.619889721096565609e+03
-1.548297753371936778e+03
-1.842321584040819516e+03
-1.972039437436712888e+03
4.127469641253105124e+02
4.032355889319063863e+03
6.553113262064272021e+03
7.285309313241745258e+03
7.598378716676303156e+03
7.709492242304743741e+03
8.829133552311981475e+03
9.782425971096692592e+03
1.088707827104099306e+04
1.291086237897469982e+04
1.525894001075975393e+04
1.767503490060813419e+04
1.999119169443368810e+04
2.164619029165062602e+04
2.313682459733708674e+04
2.771844684222526121e+04
3.476269242698184098e+04
3.931780686965426139e+04
4.807782541327307263e+04
5.394587102767301258e+04
5.634289776729754522e+04
5.848955110530161619e+04
6.179204089471857878e+04
6.347944523008861870e+04
6.379718898452804569e+04
6.305002886965031939e+04
6.199755986479610146e+04
6.028547066769634694e+04
5.889258584742226958e+04
5.834624741180394631e+04
5.792727197705927392e+04
5.690432266606864869e+04
5.599590707642181951e+04
5.417474940076395433e+04
5.140453611710041150e+04
4.878378089169981104e+04
4.657745791009535606e+04
4.401677858984350314e+04
4.169996463640710863e+04
3.986431740902177262e+04
3.831484071499812126e+04
3.641176572363747255e+04
3.351584360271671903e+04
3.082151177289077168e+04
2.934805397350761268e+04
2.789268475767511336e+04
2.510307676983907731e+04
2.211601288248181663e+04
1.868882998718920135e+04
1.560692109823263308e+04
1.362774649493911966e+04
1.161600638970171894e+04
9.162737440982404223e+03
6.387672516263809484e+03
4.580670787486505105e+03
2.755592623152014767e+03
5.477919324509408625e+02
-1.724134168137879669e+03
-4.058823612206390408e+03
-5.783379739768460240e+03
-5.871146519244181036e+03
-5.689197675977385188e+03
-6.153156165807133220e+03
-7.786976759187523385e+03
-9.261774362802216274e+03
-7.313441331691199593e+03
-5.149808303007789618e+03
-4.947455379194451780e+03
-4.642012330938216110e+03
-4.234820527200900870e+03
-4.309750795860218204e+03
-5.098855831608793778e+03
-6.433336486024929400e+03
-6.787780299285182082e+03
-7.746502623779041642e+03
-9.571248777848331883e+03
-1.100423621272044147e+04
-1.184134760541860669e+04
-1.166256001805827509e+04
-1.095445051265387156e+04
-9.949946721789516232e+03
-9.823985140299131672e+03
-1.169804450268176333e+04
-1.233434632583722123e+04
-1.159305147692495120e+04
-1.070993271082409046e+04
-1.234457780941181045e+04
-1.605334176111606030e+04
-1.864201179761780077e+04
-1.944109074828589655e+04
-1.899643372401620218e+04
-1.854814412693489066e+04
-1.752194704408970574e+04
-1.790604377751014908e+04
-1.842728006338172781e+04
-1.759299219362459189e+04
-1.718929894098012664e+04
-1.649806400772497364e+04
-1.582945441352057787e+04
-1.603236056068571452e+04
-1.611174724279249313e+04
-1.456429485645957539e+04
-9.988196563074729056e+03
-8.558573218526973506e+03
-1.154159518652549923e+04
-1.235215382057763964e+04
-1.273284634455622108e+04
-1.340785786521427508e+04
-1.402681608424517253e+04
-1.448179806158687825e+04
-1.477673003320350836e+04
-1.459716030300203056e+04
-1.485732198941842216e+04
-1.193272906328673707e+04
-8.260675819179987229e+03
-9.564129736433627841e+03
-1.278607155820853768e+04
-1.256411546903480485e+04
-1.242373323103828443e+04
-9.633395801986136576e+03
-5.802055810193671277e+03
-3.103580483621165968e+03
-1.167774749404290333e+03
-1.623608017354627009e+02
3.148885281493829211e+02
2.317773912618969803e+02
-1.243564259484589229e+03
-2.467954929426299259e+03
-2.345499917887244919e+03
-3.086091166074462308e+03
-3.424542696564829839e+03
-3.177689184281649887e+03
-2.399107361928618957e+03
-2.574962482259900298e+03
-3.542624809696362718e+03
-3.850656760904349994e+03
-3.779290868582043458e+03
-2.807425861576169609e+03
-2.030375022838493351e+03
-1.772592274705428281e+03
-1.108621932098190427e+03
2.682658378040300136e+02
2.177087599816160264e+02
-4.755401215087749165e+02
-6.392853006709600550e+02
-9.326837903367498939e+02
-3.733434191468736003e+02
5.233329749005310987e+02
-9.057520133614493716e+02
-3.180099866804198882e+03
-3.789450345771770117e+03
-4.909435641137737548e+03
-6.923522683998202410e+03
-7.622711026646391474e+03
-7.524396273426725202e+03
-6.708890825397365916e+03
-5.951706232837813332e+03
-5.529064053813075589e+03
-5.761875450565092251e+03
-6.572638894164439989e+03
-7.157596700223204607e+03
-8.601241966926931127e+03
-9.620521061931267468e+03
-9.097577490545645560e+03
-8.658890924677087241e+03
-8.759455861723918133e+03
-9.282937001606474951e+03
-9.496168229534008788e+03
-8.817627935442575108e+03
-9.875019085717081907e+03
-1.091919485418962540e+04
-1.254578113440968082e+04
-1.325597751460143263e+04
-1.242377156266119709e+04
-1.173101131536811590e+04
-1.235634198527569242e+04
-1.153464162175658203e+04
-1.078780731872864271e+04
-1.013466260599502857e+04
-1.014806189209963668e+04
-1.075179483200802679e+04
-1.050985497348624267e+04
-9.871069409512683706e+03
-1.004114538985290528e+04
-1.022113775009601159e+04
-1.033313224232782522e+04
-1.066297970104872184e+04
-1.216834434427408269e+04
-1.181782543706209435e+04
-8.988275583090980945e+03
-8.246273958179359397e+03
-8.385555673157987258e+03
-9.345087268067707555e+03
-1.115569994126430174e+04
-1.217109084688491384e+04
-1.197787147084557182e+04
-1.195648173833466353e+04
-1.139548029300910275e+04
-1.105250329680293180e+04
-1.099396498711688037e+04
-1.004022493960276370e+04
-9.787664754277318934e+03
-9.307832234205528948e+03
-9.693437449183284116e+03
-1.125702654097894265e+04
-1.416205520665830591e+04
-1.441864211384096780e+04
-1.500708346720707050e+04
-1.513980676104066333e+04
-1.498129818569372219e+04
-1.528523939334235547e+04
-1.501497587464470053e+04
-1.383477007247160327e+04
-1.398920447799912290e+04
-1.397566682190705978e+04
-1.359526646040443484e+04
-1.367065216414461975e+04
-1.341514758170995265e+04
-9.121953398258332527e+03
-4.428278784412021196e+03
-5.389342105232515678e+03
-7.248250546538924027e+03
-6.696528916416938046e+03
-8.158596952098852853e+03
-3.417767128363230313e+03
3.054619337479677483e+02
4.556222268533910551e+02
2.720786417172004690e+02
-2.205190927206679135e+02
-1.310254294668103512e+03
-2.289371974383408542e+03
-3.292128359842133250e+03
-3.344016424914204435e+03
-3.227630394499075464e+03
-3.304561584383813170e+03
-2.104455955548129168e+03
-1.047841837931805003e+03
4.157482517610044397e+02
1.393784075665018008e+03
2.395840850090574804e+03
2.878419232807723802e+03
3.953931043558868168e+03
4.405743459855752008e+03
3.764232606618302270e+03
3.737792757950142459e+03
4.010766518249663932e+03
3.776566752173452642e+03
3.824656595868364093e+03
4.139437131800462339e+03
3.906187210112263074e+03
3.544136835829332540e+03
3.597522834697105736e+03
3.404601431397059514e+03
2.639568129076341393e+03
2.307667670239055496e+03
2.799391675739450875e+03
3.288012354220502402e+03
4.073477324556114127e+03
4.504826105474610813e+03
4.165369384278581492e+03
5.760475273829020807e+03
6.836419574257255590e+03
6.585413158226169799e+03
6.288398483480086725e+03
6.273440865726749507e+03
7.308530128418833556e+03
8.401558676349770394e+03
7.805688537834239469e+03
6.461784866581541792e+03
5.896595421657873885e+03
4.905114845742684338e+03
3.756749199931990006e+03
3.384175033822075420e+03
3.097087169144506788e+03
2.439603079238790087e+03
1.672185102771263473e+03
1.703038019279657647e+03
2.326958230876256494e+03
2.711670301231890335e+03
3.421015305932262891e+03
4.712009164389834041e+03
5.339639770278183278e+03
5.934800056978813700e+03
5.775352669728860747e+03
5.144206072105195744e+03
4.501233205172707130e+03
3.846215389068743661e+03
2.810955110897829854e+03
2.187185922381670935e+03
1.465628180065124297e+03
8.022243941289999611e+02
4.182695312232460338e+01
-6.288052053780718325e+02
-5.989609109782121550e+02
-8.958787049608746429e+02
-1.695737159205192938e+03
-8.836832492839276938e+02
6.150337831423410080e+02
8.701248887442562818e+02
6.802696052672133646e+02
1.126140315633184400e+03
1.635419268688210423e+03
1.876794571334223519e+03
2.005165151104532924e+03
1.886346456103663968e+03
1.878948238872268121e+03
2.004663185031955663e+03
1.116081277571704732e+03
8.080501463782135829e+01
-1.300453395583008387e+03
-2.523913698981844391e+03
-3.260953221164093065e+03
-3.621958572863156860e+03
-3.521143866363615416e+03
-3.281756025969819802e+03
-3.455194756365870944e+03
-4.326899905486133321e+03
-4.883197499632623476e+03
-4.385318804664121672e+03
-4.060562579298932633e+03
-3.688180364044157614e+03
-2.923502868746281820e+03
-2.620160775949105755e+03
-2.554527705984506156e+03
-1.766770358280385608e+03
-2.035246655928496921e+03
-3.273343457466658037e+03
-4.250337514110941811e+03
-4.416539684604014838e+03
-5.294198052743659900e+03
-5.551613406992258206e+03
-5.039001085903490093e+03
-5.098564044711178212e+03
-5.589607088839919925e+03
-6.826459965099627880e+03
-6.634499053506940072e+03
-6.216032323184625056e+03
-5.441332805446842940e+03
-4.996572559042488137e+03
-4.955780310464683680e+03
-5.282208956660871081e+03
-7.354191554925083437e+03
-7.959073567421874031e+03
-4.645469222604266179e+03
-4.176242813159603429e+03
-4.507690310237828271e+03
-4.166202213731186021e+03
-4.360807359052989341e+03
-4.264113539062747805e+03
-4.633037577104099000e+03
-4.860894830416876175e+03
-4.773439029414944343e+03
-5.511213918708748679e+03
-5.446029907150194958e+03
-5.272946240413689338e+03
-5.805262694500334874e+03
-6.166846326838702225e+03
-5.698757044144626889e+03
-5.051291672178005683e+03
-4.668772703791302774e+03
-4.561884351006046018e+03
-4.917442925824286249e+03
-5.106698577066087637e+03
-5.123631019010593263e+03
-4.388381630964508076e+03
-3.610780500222845149e+03
-3.346017559505399731e+03
-2.845170541562818471e+03
-3.045310278904024472e+03
-3.435312411108221113e+03
-4.499394919684593333e+03
-4.985841222261657094e+03
-5.941463378387586999e+03
-7.441698038275530962e+03
-8.881717991182225887e+03
-7.979755807141715195e+03
-4.846492954502276007e+03
-2.389285987481483971e+03
-1.963139928624750382e+03
-7.307384466748735576e+02
5.769000448577420457e+02
2.224822727341067548e+03
2.380092178097644137e+03
1.547931500735251120e+03
2.463466234253186485e+03
3.578629838749673127e+03
4.204577067963603440e+03
3.832381816726148372e+03
2.983099093820072085e+03
2.465784377512987248e+03
2.206580679139340646e+03
2.529588725354421513e+03
2.688937503654256034e+03
4.016831174030639886e+03
5.597379260112748852e+03
5.415636880475966791e+03
2.968743278133154490e+03
5.078924323261340419e+02
-6.678109697037132264e+02
6.868267434051501823e+02
1.514954218723827125e+03
3.016594908329195732e+03
3.646762217275278999e+03
4.188502135458069461e+03
5.809976985665049142e+03
7.816453113065801517e+03
1.017812538596323429e+04
1.021313600984968434e+04
8.937633803080403595e+03
8.293865736173696860e+03
7.106934577537103905e+03
8.313949080328804484e+03
9.506996561235229819e+03
6.031266975922736492e+03
5.131955400200028635e+03
5.305359034573053577e+03
5.817749302761745639e+03
6.736303426057714205e+03
7.381212051641588914e+03
8.363603945399885561e+03
1.004262141439167499e+04
1.198039398641079970e+04
1.235007834528289641e+04
1.567403292849513491e+04
1.711126975201095411e+04
1.356476114050219076e+04
1.073580191694584573e+04
1.151157430745283273e+04
1.335230082668857722e+04
1.588009100903305625e+04
1.487117387502027486e+04
1.265376780594932643e+04
1.045606191789169679e+04
9.191082304723842753e+03
9.259950942438292259e+03
9.875968530416063004e+03
1.068250189320718891e+04
1.045190368576853507e+04
1.084625609603399243e+04
1.276280857349676990e+04
1.363189641618866881e+04
1.424575854585125489e+04
1.404353640988974985e+04
1.387343186613729995e+04
1.384251758453165166e+04
1.458889902586917015e+04
1.545763076513900160e+04
1.585114948324440957e+04
1.562281729145640202e+04
1.395888875992569774e+04
1.254173430718429518e+04
1.127472742470899357e+04
9.777075286346469511e+03
8.285152491918350279e+03
6.290140048707362439e+03
4.445254762318179928e+03
3.485817353659573200e+03
4.193065319825075676e+03
4.531224350139511444e+03
3.814455914304392536e+03
2.109324078122392621e+03
3.172672203883816451e+02
-5.339439348035847388e+01
2.953340002421032295e+02
1.489652002712198282e+03
2.519818085292003161e+03
1.322101832221761015e+03
-4.021059922728081801e+02
-1.266524898993813849e+03
-1.959132098246598161e+03
-4.038595479379384869e+03
-5.501618684029243923e+03
-6.582009697652016257e+03
-7.059141285562589474e+03
-7.496927277674627476e+03
-8.689725612846168588e+03
-1.015754185242476888e+04
-1.144067993538184601e+04
