5.313471410499475496e+03
4.662909872527976404e+03
3.809647376622946467e+03
2.951551491490085027e+03
2.867474504980836173e+03
2.885319480497445966e+03
2.788937279819154810e+03
2.584264209840981039e+03
1.936067993942212297e+03
9.471835506265181266e+02
-1.044516510881531303e+03
-4.035201342714946350e+03
-8.365034077086449543e+03
-1.028412579730146717e+04
-9.552547313646911789e+03
-5.549325732622492978e+03
1.648421044665398995e+03
3.584701257461596924e+03
3.374408519495684232e+03
2.955464567723922301e+03
1.670736327223939497e+03
1.282212197082306602e+03
1.763954077403499468e+03
8.559071401599371711e+02
3.038376941338970596e+02
3.367645518050790656e+02
-1.633236166312649971e+02
-1.259464683689225467e+03
-2.083726832206680683e+03
-2.551133237572537382e+03
-2.509639449055145633e+03
-1.891264047770422849e+03
-9.979996068340731199e+02
-4.780408378191091145e+01
9.924371287305870055e+02
1.717772414236978875e+03
1.478205021552451626e+03
1.422851257994704156e+03
1.940788513430045214e+03
2.137075284567831204e+03
1.842774915715576526e+03
1.760052353968229909e+03
1.220013014314229622e+03
3.227463446327402607e+02
-7.906302034425209513e+02
-1.304978960620889893e+03
-1.473177100292545902e+03
-1.590178273991485412e+03
-1.767902667171898429e+03
-1.812204245627648106e+03
-1.807906310784564766e+03
-1.977866983164210978e+03
-2.420984415277967855e+03
-3.848027472587489683e+03
-5.030816623325105866e+03
-5.523212209743769563e+03
-4.627922508527111859e+03
-3.664764138282700515e+03
-1.920470116417930512e+03
2.651262682975258258e+02
1.401264293563444198e+03
2.003229511833357719e+03
1.395275702163828100e+03
-4.430978200846959680e+01
-8.383304012855153360e+02
-1.671546182552494429e+03
-1.919639483403271015e+03
-2.049317476765162155e+03
-2.123283798233660036e+03
-2.300285587396756910e+03
-1.700087811006667380e+03
-1.455370401051941599e+03
-2.490851667538837319e+03
-3.510149810665693622e+03
-3.196952382736167692e+03
-2.674916332249462812e+03
-2.812687595335857168e+03
-1.776009924633053970e+03
-4.714830947686203331e+02
8.128809449958977495e+01
9.466237895473263109e+01
1.980038940356715500e+02
6.064009764210138087e+01
-1.661133389194270364e+02
-1.896031875848691698e+03
-5.489711917977138910e+03
-5.052464784167037578e+03
-4.033260974787026498e+03
-3.373978589190175626e+03
-3.385254203462416172e+03
-3.400732878866541796e+03
-1.285098787437832243e+03
-4.597001627212631320e+03
-4.415142405401043106e+03
-5.002403750763147627e+02
-1.625930053838650565e+03
1.190111162333247421e+03
2.109177968085431985e+03
1.054591082015675283e+03
2.745424631360906460e+02
-1.333787159341308097e+03
6.408066830718029223e+02
8.256269258830931221e+02
2.258886793835556091e+03
-1.882089445119416382e+02
2.549710270320574182e+03
1.897988390990093194e+03
2.891180778311940358e+01
2.637704267712640558e+03
-1.964499387992650270e+02
-3.423369951056828313e+02
2.700353661996624851e+03
3.506903334362380974e+03
7.174324677358749796e+02
4.551267634359685985e+02
1.908169535182520804e+03
1.133739455360674583e+03
2.098047288921077325e+03
4.115291594426161282e+03
2.392651089109299846e+03
5.193303494598371799e+03
5.694448032356528529e+03
5.666192050470817776e+03
5.581556956569544127e+03
5.215597773477466944e+03
4.473436356917524790e+03
4.117282114727687258e+03
3.894236858878453859e+03
3.803457865889487948e+03
3.167045115454576717e+03
2.885984815125481873e+03
2.807110474756264921e+03
3.064968594321184355e+03
3.128161563427110650e+03
3.845611214743694291e+03
4.377245074838330765e+03
4.668176264627651108e+03
5.496477998283401575e+03
5.599968289610263128e+03
5.259952673137800048e+03
5.340634638267906666e+03
5.209660110851667923e+03
4.880634757633503796e+03
4.064593526106071749e+03
2.741197800814410130e+03
1.779378085116466309e+03
8.205313148840466511e+02
3.421672064338262658e+02
-4.387246937479102940e+02
-2.725748845771411652e+03
5.577274128087136660e+02
2.417990688293991752e+03
2.314777792834698175e+03
1.755761726199534678e+03
1.973484626767258305e+03
2.118677476862492767e+03
2.490739887442255622e+03
2.304102843325014874e+03
2.477973728954531907e+03
3.011559841523344403e+03
3.225392647985398980e+03
3.088334029097622533e+03
2.744018512288761940e+03
1.705630730562305644e+03
4.732384192399293852e+02
-1.251296641844043734e+03
-2.567796100401947569e+03
-2.493300645041981170e+03
-2.399375358293655154e+03
-2.061982289224868964e+03
-1.440956434488793775e+03
-1.565590270362839419e+03
-1.853393231609044506e+03
-1.909702381079450333e+03
-1.446835428423129770e+03
-8.201150965448321131e+02
-4.296829557236648611e+01
3.692146118481893495e+02
1.921008497758092233e+02
1.427949209530014230e+01
-2.976847900504320705e+02
-7.881389106903695847e+02
-9.374947018420936047e+02
-9.510669418210845834e+02
-8.472514965165856893e+02
-7.765065051340220634e+02
-4.931904182751095504e+02
-4.906917923306423859e+02
-1.022369926040049450e+03
-1.345619347742985610e+03
-1.541821081484868273e+03
-1.343390945905763374e+03
-3.936637416110185654e+02
1.529776664049371675e+02
9.811430188801328995e+02
1.900452064043487098e+03
2.119592648988238125e+03
2.388199472695264831e+03
2.646933678363548552e+03
2.911441176392493162e+03
3.297395481476417444e+03
3.350511606372971983e+03
3.269510173442650739e+03
2.873016139387454587e+03
2.867647378964476957e+03
1.929129677381830334e+03
-7.277668688230165799e+02
-5.175329632332872279e+03
-6.486848206991616280e+03
-6.233653873798831228e+03
-6.023040687979330869e+03
-5.722281254055595127e+03
-5.311630111900072734e+03
-4.599372160501145117e+03
-5.274794838703265668e+03
-4.804257978114763318e+03
-3.591092877413167571e+03
-2.758025877118386234e+03
-2.430358241217038540e+03
-2.798387516314716777e+03
1.236144698107771234e+02
4.997480371076537267e+03
5.539059674621288650e+03
4.756149254570742414e+03
4.541580562417997498e+03
4.121171702776200618e+03
3.368825987486477061e+03
2.799425365289497677e+03
1.734874392990788692e+03
1.045030276328943501e+03
5.267497659848452258e+02
-1.020976887289814385e+02
-1.044680777405280878e+03
-1.990100265124435964e+03
-2.179521297035919360e+03
-2.497977151402898471e+03
-2.390441339028927814e+03
-1.971912630410415431e+03
-1.741482008832678730e+03
-1.911290889308922260e+03
-2.434336333946989726e+03
-2.897604693180957383e+03
-3.475158405473017410e+03
-4.174009634862864004e+03
-5.460084271437504867e+03
-6.936493898398451165e+03
-8.878301963680338304e+03
-1.050748280188308127e+04
-1.237893063223134959e+04
-1.479760841768168393e+04
-1.633750919959208113e+04
-1.768666580769286884e+04
-1.885309259413039399e+04
-1.974075080827614511e+04
-2.013070592470388146e+04
-1.952276733519696063e+04
-1.774575610194001274e+04
-1.663261873737214773e+04
-1.558628543328946762e+04
-1.411862809768210354e+04
-1.267552890570945601e+04
-1.109695873961719371e+04
-9.314859746011981770e+03
-7.552163744637159652e+03
-5.998728476589752063e+03
-3.974380664683510986e+03
-2.483042889179857411e+03
-1.776532849383224402e+03
-1.075586221570891894e+03
-4.909461125957477066e+02
-2.106780195820291794e+02
3.520099253672364625e+02
7.279052818223333361e+02
2.298226163146882755e+03
3.662435795479022545e+03
4.694456083015013064e+03
4.875422462165468460e+03
5.163594406212400827e+03
6.481973609022231358e+03
7.514746790475878697e+03
8.325055775655953767e+03
8.973970739144688196e+03
9.457625178604994289e+03
9.561095863086267855e+03
9.653510839994627531e+03
9.720982658674583945e+03
9.842608495818607480e+03
9.796471936458354321e+03
1.000761822920266786e+04
9.873131516159881357e+03
1.011005320424161073e+04
1.033752816136579713e+04
1.015559606921455816e+04
1.035140436960898296e+04
1.086013470929495270e+04
1.124186888370039924e+04
1.106969670588168810e+04
1.135468495491163412e+04
1.174386868027696619e+04
1.173844924106648432e+04
1.198763653946596060e+04
1.282344750092630966e+04
1.372082888870768511e+04
1.342775811404474916e+04
1.277931050583104297e+04
1.220161042820290277e+04
1.180168256752962043e+04
1.137852765705623824e+04
1.060927530778349137e+04
1.053991661542213296e+04
1.034153205958855142e+04
9.807235472329120967e+03
1.002709384414415217e+04
1.012510169005895659e+04
1.034530658285014761e+04
9.695727171437725701e+03
9.100401957625630530e+03
8.858395760466795764e+03
8.384761972516989772e+03
8.165565274592547212e+03
7.374960500840348686e+03
6.372979558632619955e+03
5.187898615351614353e+03
4.384911056957387700e+03
3.657939662940156722e+03
2.664751901012594772e+03
1.604166409547751073e+03
4.522136110169578274e+02
-7.480838216256579472e+02
-1.558724895562721713e+03
-2.226579919962053737e+03
-3.196690378456472445e+03
-4.536003623115077062e+03
-5.800365293459137320e+03
-6.435847182396676544e+03
-6.776502885893719395e+03
-7.137290201095192970e+03
-7.076076716625838344e+03
-7.012597655107299943e+03
-6.827733977191212944e+03
-8.229642849456004114e+03
-9.322348540790455445e+03
-6.032568170013893905e+03
-5.257440742177680477e+03
-5.479011173679908097e+03
-5.857982536696612442e+03
-6.264166213774455173e+03
-6.143676832115741490e+03
-5.486701491063234243e+03
-4.821680259276588004e+03
-4.487701686888575750e+03
-3.266264584902872684e+03
-1.774115599837531136e+03
-1.148349665286731458e+01
2.150822330962414071e+03
3.996925081279146525e+03
4.580905572963095437e+03
4.236973863076548696e+03
4.016690987315425446e+03
3.176968404606139757e+03
9.279102761149127900e+02
-7.720669828239236949e+02
-1.785358991752177872e+03
-2.506722337892504129e+03
-3.124969210353610833e+03
-3.658409417677155034e+03
-4.341517726757687342e+03
-4.976431309165707717e+03
-4.682461333610213842e+03
-4.684393827130960744e+03
-4.982723450566805695e+03
-5.574445588585331279e+03
-6.310424806400958914e+03
-6.486679323584517078e+03
-6.816267337215698717e+03
-7.167880160608255210e+03
-7.099212227920535952e+03
-6.571067664403934941e+03
-6.468462380902125005e+03
-7.557140394635666780e+03
-9.523982053091578564e+03
-1.156781857670310092e+04
-1.273040565437920304e+04
-1.409951258453795344e+04
-1.404493947799495618e+04
-1.294446510780493554e+04
-1.276697813178734214e+04
-1.521740804616907189e+04
-1.045653751005616868e+04
-9.669052233453179724e+03
-9.604679393400507251e+03
-1.065132054988152231e+04
-1.029879847678243095e+04
-8.635764122332020634e+03
-1.017000119332437498e+04
-8.919189765741537485e+03
-7.205095442577898211e+03
-6.220506408626833036e+03
-6.993082567507542990e+03
-6.653481380724209885e+03
-9.001391136888969413e+03
-1.221337361452677760e+04
-8.595194701548967714e+03
-7.939617121649658657e+03
-4.895385149269577596e+03
-4.643984880164836795e+03
-9.420127054448124909e+03
-7.789170754368888083e+03
-5.899449643866395490e+03
-5.073535412119098510e+03
-2.727271058972014544e+03
-4.534451293667421851e+03
-1.034713348391046111e+03
2.417288349142415882e+03
-6.581097384139825408e+02
1.961374281423961975e+03
2.487054107647197725e+03
5.493294077444561481e+03
7.790355825193437340e+03
3.896541414535898184e+03
4.707252874637710192e+03
7.865871075051596563e+03
5.313806286762452146e+03
6.196307075977490967e+03
6.489527307804298289e+03
3.318785095805670153e+03
4.587329837313868666e+03
5.347445923522191151e+03
5.096438279984080509e+03
4.919639108167251834e+03
5.083313554389133969e+03
6.283721435888438464e+03
6.835148052657172229e+03
7.346806802401624736e+03
7.960987792791870561e+03
8.307048725863778600e+03
8.097287546377006038e+03
7.841929591791586972e+03
7.748305491282771982e+03
8.091680761230467397e+03
8.292294208448585778e+03
7.680264117622646154e+03
7.134766896820686270e+03
6.385995571793543604e+03
6.042216720770183201e+03
5.460656731014029901e+03
5.402402809080614134e+03
4.854649451099013277e+03
4.780545669390337935e+03
4.958166138760682770e+03
4.664628147739234009e+03
3.892006964346059704e+03
3.652440917564572374e+03
3.654130878390100406e+03
3.391164658580062678e+03
2.832604076987096960e+03
2.432554287563606977e+03
2.448153559118889916e+03
2.623560451485345311e+03
2.528697768750326304e+03
1.688542080224942993e+03
1.003068328058213638e+03
3.937353170975455896e+02
7.477532087211874057e+01
-1.176544573305907875e+02
-7.087434379894738186e+02
-8.906266559654685580e+02
-1.038468202856797234e+03
-1.076198168439162146e+03
-1.374101960628288907e+03
-1.776368076288674729e+03
-2.781929906975700760e+03
-5.776957470475365881e+03
-3.344653303678973771e+03
-1.818115539627596718e+03
-1.526368344488435923e+03
-1.344934974114001079e+03
-1.080285820106037363e+03
-9.284024843434234526e+02
-8.822187863310709872e+02
-8.232492444185915019e+02
-1.220884183739268565e+03
-1.619423165499392326e+03
-1.923143766704000882e+03
-2.081331734891759424e+03
-2.522252906030375016e+03
-2.652263666602144895e+03
-2.881794704384822580e+03
-3.293457380760027263e+03
-2.601812952834335647e+03
-2.791314355683291978e+03
-2.888464121417013757e+03
-2.274686452038216430e+03
-1.335441623837973566e+03
-5.421853324721472518e+02
-5.953663170417523816e+02
-5.853936048625004105e+02
-8.426094363332307466e+02
-9.744530493219094751e+02
-1.120397479961841100e+03
-7.539161383614645047e+02
-1.534029101480548718e+02
-4.172915619629503112e+02
-1.068071951080561348e+03
-1.131241573253322485e+03
-1.318255492999578337e+03
-1.064588732410775492e+03
-7.817855257248647831e+02
-8.953750598428481453e+02
-5.749314511503001768e+02
-9.800192219503256865e+02
-8.602222550128575449e+02
1.638674063384064823e+02
1.895792421533870140e+02
2.223705009385678011e+02
4.905893971722705373e+02
1.057608145043689547e+03
1.666921891979041675e+03
2.067908501932504350e+03
2.050941875321187581e+03
2.513418061845911780e+03
3.552811622115259979e+03
3.894636829871980808e+03
3.888347163187781462e+03
4.327419210541244865e+03
4.488300843804919168e+03
3.999430267779039696e+03
1.585268804183307111e+03
-1.830667723533206072e+03
6.571064917272786943e+02
4.374022219596675313e+03
4.123638770603254670e+03
3.729439897177004241e+03
4.062047426773808183e+03
3.564149275997403493e+03
4.968175419569118276e+03
5.515703122968890966e+03
5.755388997424166519e+03
6.956897960305686865e+03
7.312925439743273273e+03
7.103139025239758666e+03
6.900146702375570385e+03
6.696620075917278882e+03
6.622214313739612408e+03
6.414623896354864883e+03
6.411629720375834950e+03
5.860973292712646980e+03
6.208311226773333146e+03
5.690392023653616889e+03
4.720067950129698147e+03
4.900162650248840691e+03
5.701407934950088020e+03
6.478628367225890543e+03
6.606746070366884851e+03
6.225616391669675068e+03
6.877104120302846241e+03
9.045199724982270709e+03
1.047084814206767078e+04
1.094694576269610479e+04
1.054145125820298563e+04
1.019940785925412092e+04
1.057784431285954997e+04
1.069880465021879536e+04
1.010131237247713943e+04
1.023939898305220595e+04
9.143164456590882764e+03
6.786616336903964111e+03
4.615829719716720319e+03
2.681978672329809342e+03
1.131147166081497289e+03
-4.115236749160998784e+02
-1.402854304278194377e+03
-1.569590163675301937e+03
-2.063484160158568102e+03
-2.780323691812225661e+03
-4.642843678927365545e+03
-6.515812801254474834e+03
-8.523881684657451842e+03
-7.757691542481997203e+03
-3.751867903827786449e+03
9.991073708382559460e+01
1.458953468772965607e+03
1.686712811742710869e+02
-3.075437304286056701e+02
-1.068289630953742062e+03
-3.830169476706968908e+03
-5.992813973680084928e+03
-8.187816865859584141e+03
-1.009770165399408324e+04
-1.120698041403740899e+04
-1.243620175089481017e+04
-1.439094724111518553e+04
-1.714472110442150370e+04
-1.958200574101550956e+04
-1.900631490615571602e+04
-1.706414709510548346e+04
-1.730210754836702472e+04
-2.029341766994772479e+04
-2.326919897270824731e+04
-2.536843967616833470e+04
-2.823147313911365200e+04
-2.811558392928255489e+04
-2.625522930593719866e+04
-2.595687823910507359e+04
-2.600602993961703032e+04
-2.467818342362084877e+04
-2.117780606600422107e+04
-1.955328660710309850e+04
-1.957705649592697591e+04
-1.874965432427864653e+04
-1.705952413445495404e+04
-1.595810011800089524e+04
-1.394778985071772331e+04
-1.021092765697661343e+04
-8.352785706842398213e+03
-9.717781367460342153e+03
-9.078246712326174020e+03
-7.564446986580326666e+03
-6.340737420894565730e+03
-5.694589344801950574e+03
-4.880381093081479776e+03
-4.214520409905868291e+03
-3.014446860457614093e+03
-2.033557923975697122e+03
-2.510345030013462292e+03
-3.306339256558676880e+03
-2.740921767015067871e+03
-9.845584409158082053e+02
3.919276555584380731e+03
5.977073411405319348e+03
8.165277597888758464e+03
1.553140929205533394e+04
2.363395430385233703e+04
2.586333713319297749e+04
2.450401710088358232e+04
2.399446574028190298e+04
2.292723665679159967e+04
2.144682348492605888e+04
2.023366716101305428e+04
1.994815132079511022e+04
2.010969331734287698e+04
2.111955505211660784e+04
2.067599230728399925e+04
1.864633563356968079e+04
1.652713506061523003e+04
1.585703559844179472e+04
1.577456209075431252e+04
1.482901593156888157e+04
1.292772854192053637e+04
1.209377770164843059e+04
1.153024002734474925e+04
1.128043119350909728e+04
1.023225654921598289e+04
8.714883178280177162e+03
7.703797129103370025e+03
7.263276157016394791e+03
6.601383873457993104e+03
7.288375701745385413e+03
7.639486940050526755e+03
7.191264650168611297e+03
6.545894677258438605e+03
8.545138385305268457e+03
8.973130724348504373e+03
6.481314098013011971e+03
7.878171395064689023e+03
9.634580070839059772e+03
9.181656848352722591e+03
7.999945754926143309e+03
7.293249327772581637e+03
7.288276579100959680e+03
7.085841282299272279e+03
6.831273870847471699e+03
7.074941546932649544e+03
7.935776001927432844e+03
7.943338386993802487e+03
7.522387143438973908e+03
7.336166746172979401e+03
7.603017984042406169e+03
8.480466318021326515e+03
8.826679141973796504e+03
8.524105473589077519e+03
8.478675553108610984e+03
8.085969982392226484e+03
7.923345836971919198e+03
7.151476425674896745e+03
6.570796371563311368e+03
5.766843229637795957e+03
5.097123894935500175e+03
4.736066551443158460e+03
3.810274008089804283e+03
2.725285551724796733e+03
2.104591147089731749e+03
1.878714687902219794e+03
1.012233148843591607e+03
8.706777530063934591e+02
1.442507192084884764e+03
2.503163118109599054e+03
2.556118866484946921e+03
2.116960617724791973e+03
1.714180845358376246e+03
1.996255477509266711e+03
2.296627590164998765e+03
1.507734471246727480e+03
9.869553190255885511e+02
6.747667250215597505e+02
2.655722605472861915e+02
-7.702453155977849519e+02
-2.330251210428048125e+03
-3.656961774217915263e+03
-4.606995848025393570e+03
-5.816933451654789678e+03
-7.651343310059067335e+03
-9.478761303402654448e+03
-1.048775842412474776e+04
-1.050889966674779680e+04
-1.239377178726008424e+04
-1.601392704543140098e+04
-2.092881439892910566e+04
-2.180297323243009305e+04
-2.187191311934852638e+04
-2.239518611014750422e+04
-2.253034853669768563e+04
-2.222389193897498262e+04
-2.317936443996221351e+04
-2.194433270111927413e+04
-2.284831656510228277e+04
-2.461768403835833305e+04
-2.564793362073422759e+04
-2.612856636589140908e+04
-2.634193118599624358e+04
-2.569188590823922641e+04
-2.288182018856540526e+04
-2.482709709875641784e+04
-2.700411342570091438e+04
-2.280131008485328857e+04
-1.696413072255617590e+04
-1.475788316780758578e+04
-1.315192470755006798e+04
-1.160257697078613091e+04
-9.813128109865840088e+03
-7.043945288725181854e+03
-3.309323122103246078e+03
1.554464502301233779e+03
6.869134389289888531e+03
1.000240711542539975e+04
1.093803827421534515e+04
1.110668210360248122e+04
1.070013980227634966e+04
9.937189424663023601e+03
9.007568887338655259e+03
8.047065994390628475e+03
6.723516273112622002e+03
5.304853243283876509e+03
4.812979162842510959e+03
4.647777110167872706e+03
4.320112165930288938e+03
3.845934313499501513e+03
3.824178011015370430e+03
4.250805396411932634e+03
4.122899303628415510e+03
4.133518734520195721e+03
4.419620806413846367e+03
4.388234957750351896e+03
4.695368849079886786e+03
5.112031427568354957e+03
5.118343391108136530e+03
4.965368386323165396e+03
4.729229144735998489e+03
5.096010271262847709e+03
5.628783494732788313e+03
6.237749947892163618e+03
5.900136405738860958e+03
5.279067423947797579e+03
5.623753734897488357e+03
5.653435038938719117e+03
5.294326973805222224e+03
4.464653642190033679e+03
3.856590708137752699e+03
4.870306061386459078e+03
5.852303294786886909e+03
6.560175931595339534e+03
7.172217760493390415e+03
7.270787684825740143e+03
6.651315458455802400e+03
6.455296890285292648e+03
5.712234665501311611e+03
5.044362129937737336e+03
4.761507125177137823e+03
3.473135096140471887e+03
1.970611756324518183e+03
1.986257793511576665e+03
1.223526356782728953e+03
3.671870293789244499e+01
-7.297591462220494805e+02
-1.012384831802505005e+03
-4.658165405321185517e+02
2.204911567030645472e+02
3.700140898642748652e+02
5.312215322000126889e+02
3.436399996774653118e+02
-2.132312061841981858e+02
3.030710119897295272e+02
6.978696311518921220e+02
2.725661233782229829e+02
-4.893093362321631048e+02
-9.281214607049078040e+02
-7.183752673497327805e+02
-1.246743903104845685e+03
-2.104855661292881450e+03
-2.810286053046946108e+03
-3.422532557936821831e+03
-4.365076661693078677e+03
-4.769552166514653436e+03
-4.691674718036628292e+03
-4.463957221759865206e+03
-3.897911210985545495e+03
-3.525005890813885344e+03
-3.159783055370758575e+03
-2.394827021888055697e+03
-1.513657774053164076e+03
-8.327945570510511288e+02
-8.992837438687800500e+01
3.615023416606273940e+02
2.990199518293989058e+02
4.550261326237303479e+02
6.148554985247609466e+02
4.459124657090267192e+02
4.305703127393616114e+02
2.051753733553013035e+02
2.770129620114601039e+02
3.783857758617293712e+02
3.886430504976257794e+02
9.424628268041765011e+01
-9.542444754157767761e+01
4.703200136948522925e+01
5.967159762155384897e+02
1.351587208786025258e+03
1.688846168838096446e+03
2.352923617560944876e+03
3.134250260751841779e+03
3.961981716555359526e+03
4.610382538603345893e+03
4.981821784164952987e+03
5.147401103739580321e+03
5.363314181546037616e+03
5.457782425978232823e+03
5.149885702411839702e+03
4.407743927326100675e+03
3.835531063116254700e+03
3.326468242811945402e+03
2.851676249535821626e+03
2.078949974493732498e+03
-6.557504788353928689e+02
-2.600282033032751315e+03
-1.654247351319858979e+02
4.488074354407941655e+02
6.146659786329061035e+02
2.030437639338730833e+03
3.228905240856258388e+03
4.022914543503021832e+03
4.491553414749208969e+03
4.649839459554317727e+03
4.284577072900699022e+03
3.905401359227744706e+03
4.318214584468877547e+03
3.602102833285499855e+03
2.856857850477787906e+03
2.435206046834248355e+03
1.991066283140849464e+03
1.257384185938535893e+03
1.119368112881689285e+03
7.169166371218602762e+02
3.334137378300230807e+02
-2.095931020581507767e+02
-1.063176583295527848e+02
-4.599436457886067160e+02
-2.606519924506600319e+02
1.522512560035910951e+02
4.755414451849092075e+02
1.128978547575354469e+03
1.147355037400089714e+03
1.031502692894178836e+03
1.768263918035518827e+03
2.404328758967082649e+03
2.844546419579955000e+03
2.757925757799411713e+03
2.353240347190359898e+03
2.041419370072915854e+03
1.632638174353098066e+03
9.325601581270938141e+02
7.265044956339955888e+02
5.151113340566994339e+02
5.789083826542433826e+02
3.696823412590443922e+02
2.419003397516723908e+01
1.081163335005901018e+02
3.351287818030277776e+02
7.479726363769299269e+02
1.490330083860997547e+03
1.756944295290692253e+03
2.396663525385841695e+03
2.403273889348839020e+03
2.455371555963132778e+03
2.526638495277258698e+03
2.598838242320613062e+03
2.114743896863056762e+03
1.455003347090916577e+03
-1.122688207912624875e+03
-5.201615424078876458e+03
-9.308046438840980045e+03
-9.905193307210054627e+03
-1.031335429962473063e+04
-1.016182946553578040e+04
-1.077283521515331449e+04
-1.082076452049443105e+04
-1.025886972129868082e+04
-9.857401143367105760e+03
-9.603497304348884427e+03
-9.771514386465221833e+03
-9.416648009272112176e+03
-8.903914678581097178e+03
-8.125821233967135413e+03
-4.826644341056805388e+03
-3.390479980506760057e+03
-7.223472831129056431e+03
-7.986870595311424950e+03
-8.323967578981582847e+03
-8.672935404961646782e+03
-9.087005147364057848e+03
-9.399420506898177337e+03
-9.497388398248556769e+03
-9.565993797099688891e+03
-9.524346604210208170e+03
-1.014267173440219267e+04
-1.029215837845236820e+04
-9.894937531742876672e+03
-8.997127635265393110e+03
-4.279847595779098810e+03
-3.441188501494804314e+03
-1.476199916555494156e+03
1.764008381994916135e+03
2.536380814179502522e+03
2.925822425743079748e+03
2.922349867545637608e+03
2.428875981967822554e+03
2.162295295772921691e+03
2.004605334377486088e+03
1.582819499590615351e+03
1.008837614221477907e+03
7.015614739478431829e+02
6.940255013336385446e+02
3.871703723358805860e+02
-3.703985094844291837e+01
-6.626256377299034739e+02
-6.974912677044140992e+02
-3.526422226289888613e+02
4.952039458734131649e+00
7.112512126223000450e+02
1.150311746575545385e+03
1.369285407074677551e+03
1.639193599703928385e+03
2.050081010565612360e+03
2.230052336792913138e+03
2.040236838016883439e+03
1.956727371791960422e+03
1.679602039555581996e+03
1.506946865274592938e+03
1.040859259269220274e+03
5.384418974941894476e+02
-5.626111281654481644e+01
-3.351657760161751298e+02
-7.780171050802595119e+02
-1.492433368300827397e+03
-1.796120877042353641e+03
-2.022740259447676408e+03
-1.835417679336681658e+03
-1.514112218699135838e+03
-1.294528934172181607e+03
-9.905107297661654684e+02
-5.853205775338036574e+02
-7.997811754702643157e+02
-1.144177460781325408e+03
1.189307764992921435e+01
1.187003541929232824e+03
1.532273169784773017e+03
9.167983572782885631e+02
4.266200543709241515e+02
2.478330837664675812e+02
-2.439148503260203427e+01
-1.307321583835022594e+01
-2.550797013062460508e+02
-1.295449553680422923e+03
-1.595056586423050021e+03
-1.744852887223982862e+03
-1.987880508457907354e+03
-1.611071732316818270e+03
-1.683347365945081947e+03
-1.388690198943429778e+03
-1.043097013334967414e+03
-3.026083207824905230e+02
3.438069393720783751e+02
1.021396455216734012e+03
1.628405450876585974e+03
1.829005882547775400e+03
1.916379540345822761e+03
1.850640065406165604e+03
1.784930564628070670e+03
1.652406583199749548e+03
1.668205882347983106e+03
2.089465200025992544e+03
2.092209921413065786e+03
1.459509299469545567e+03
8.544995567786132824e+02
4.793201323374248091e+02
3.470643976269251425e+02
7.008330158817225310e+02
1.446734746503233964e+03
2.105791520989898800e+03
2.731080554632880649e+03
3.445718805445414546e+03
3.649761306370135117e+03
4.053240376084357194e+03
4.594245261308082263e+03
4.571853874756672667e+03
4.424127473475257830e+03
4.340096860244111667e+03
3.811788728322903353e+03
3.859221948002978024e+03
3.217444971295790310e+03
2.882404040127165899e+03
2.911028911880813666e+03
2.527318472898000891e+03
1.181343464926148727e+03
-1.307782011094552217e+03
-5.351058067528366337e+03
-8.159561768075504006e+03
-7.987342899647269405e+03
-7.618441390146676895e+03
-7.004919173929883982e+03
-5.749736045081666816e+03
-4.681839676317557860e+03
-3.259306536431788118e+03
3.233866684370354960e+03
5.923490613063044293e+03
6.563594499513060327e+03
6.708081057171460088e+03
6.514014051502984330e+03
5.915140729636223114e+03
5.739468284924549152e+03
4.538940400819567003e+03
4.075380824541472521e+03
3.366624239165118979e+03
3.201522047886286146e+03
2.745914018249668061e+03
2.324720021304270176e+03
2.734797347382807402e+03
3.954064162157953433e+03
5.361380706723337426e+03
5.316515146236592955e+03
3.597323272072399504e+03
3.296700647751059023e+03
4.366469123471706553e+03
5.429408911386099135e+03
5.965298704803361943e+03
6.155997380428510041e+03
6.042384625649978261e+03
5.886281897893224595e+03
5.928492468625748188e+03
5.870851089919414335e+03
5.457189939462630718e+03
5.135263852869917173e+03
4.502882210105854938e+03
3.950886061321702073e+03
3.464144706832735210e+03
3.388408466398482233e+03
3.831410684229952949e+03
4.378868387578912007e+03
4.301652445218396679e+03
4.915581960716169306e+03
5.565505405188056102e+03
6.117280622843159108e+03
5.815706840004061632e+03
5.842678304949658923e+03
5.612076419472216003e+03
5.507735362461105069e+03
5.339620582539247152e+03
4.243568199031687982e+03
2.811416340094434872e+03
1.486115018812120297e+03
3.905108218795564312e+02
-8.561798706339358489e+01
-2.784302854397215015e+02
-5.690089409966160474e+02
-7.154405898162696076e+02
-2.117749358356740004e+02
3.459135402488653313e+02
7.995008590599438776e+02
1.739885132415832686e+03
2.739073399990575581e+03
2.848051255481286717e+03
2.727811859874913807e+03
3.332284817969873984e+03
3.754432131523121825e+03
3.781228680478741808e+03
3.470688259659340474e+03
3.309809244158279853e+03
3.282615232904096501e+03
2.423234976438706326e+03
1.881645289772091019e+03
4.297722585292808049e+02
-2.302003502708838823e+03
-7.211117260990872637e+03
-9.717552811005789408e+03
-1.025037528818341889e+04
-1.082424546595405809e+04
-1.103611564394798188e+04
-1.079601569211282185e+04
-9.716855335094616748e+03
-8.371524440400489766e+03
-7.554801658922892784e+03
-7.932536443527015763e+03
-7.263666450506517322e+03
-6.665921040685774642e+03
-6.695120103313433901e+03
-6.173144447976227639e+03
-2.609784006549722562e+03
-4.512822450302297511e+03
-7.388096393945436830e+03
-6.555341424724418175e+03
-7.304436389722741296e+03
-7.317164174791255391e+03
-7.060275209144642758e+03
-6.758485173947343355e+03
-7.342556901517631559e+03
-8.134252137215979928e+03
-8.482297863414938547e+03
-8.497454528681308147e+03
-9.086406872089226454e+03
-9.130833719422367722e+03
-8.532481756582263188e+03
-4.453005636043068080e+03
-5.286092736940967370e+03
-8.017374176987093051e+03
-7.872465895034531059e+03
-8.489063666131265563e+03
-7.082844396147833322e+03
-1.711389268052366333e+03
1.561892305443950946e+01
7.851718363790385524e+01
2.736247003419788939e+02
2.553527384098697723e+02
-3.108985727814047664e+02
-8.808204960131687358e+02
-6.330314416098477750e+02
4.178643764753075516e+02
6.832787184722956226e+02
8.736159571139985474e+02
1.528255643303586567e+03
1.967648825975848240e+03
2.715195682739133190e+03
3.352352600518157487e+03
3.595520495669038155e+03
3.808102655719795166e+03
3.948496564031122034e+03
4.405257360089762187e+03
4.132850189728439545e+03
3.891768426601680403e+03
3.506295778817680912e+03
3.100056714821892911e+03
2.995476680964362004e+03
2.592904873950061301e+03
2.030641345132966535e+03
5.099360296102001371e+02
-1.377941748821256454e+02
7.008051567363113463e+02
1.082087557580270186e+03
1.205366240997843306e+03
1.650052505279849584e+03
2.418400212445872512e+03
2.950664187984261389e+03
3.627049433080181188e+03
4.233456247103611531e+03
4.411747153849663846e+03
4.794956176374423194e+03
4.595726360040034706e+03
4.048396133747424756e+03
3.787197766853079429e+03
3.861322141674605064e+03
4.188011778093607973e+03
3.766676757529067345e+03
3.141631558402850715e+03
3.336592802195425520e+03
3.363105588930871818e+03
2.728405807195425950e+03
2.507320527810574731e+03
2.613314339961772930e+03
2.786515317287923153e+03
2.711270755510617619e+03
2.473598211720888685e+03
3.082457340742733322e+03
