4.803414451790562225e+02
1.238093871384494662e+02
2.205258241559297971e+02
8.555310967999120919e+01
2.530643239601590437e+02
4.471933492010526265e+02
7.250136897495211770e+02
1.103179994390557340e+03
1.750652910362835200e+03
2.262433214957658492e+03
1.629418668839292650e+03
-6.256879424016195799e+02
2.583105288783153810e+02
1.579898650986687699e+03
2.897758522580067620e+03
1.627166445944624456e+03
7.475543558598508298e+02
5.388281083666254290e+02
-2.069275812621471005e+02
-8.913758690025595115e+02
-1.221718949011489713e+03
-1.597333263314469377e+03
-1.704910063982840711e+03
-1.351130517331274405e+03
-9.205684193249876444e+02
-3.376487885520394912e+02
3.941154231935785788e+02
9.419149952555160326e+02
1.529224853047300030e+03
1.686890320312177664e+03
1.952223888189958416e+03
1.503712715794241376e+03
1.385653707955057826e+03
7.707171613143995046e+02
5.427617866663716768e+02
1.967294872100906957e+02
-5.069667806334699662e+02
-1.763694105318995753e+03
-2.529076045312969200e+03
-2.357382807742540990e+03
-2.564893216941195078e+03
-2.739639815512136465e+03
-2.634748155411637072e+03
-2.266347983972356815e+03
-1.306509901180542101e+03
-8.463176296078075893e+02
-6.119073953195368176e+02
1.086726499398207437e+02
5.883464931464166057e+02
7.440301001923718331e+02
9.136177190672158304e+02
1.160039584908474808e+03
9.691870516663557282e+02
6.180062557745110325e+02
3.793820348447621882e+02
-2.727415967598092834e+02
-1.197482981491443752e+03
-1.704949749268525011e+03
-2.536277505698487403e+03
-3.089539191338527871e+03
-3.380824223378388524e+03
-3.375208212195606393e+03
-3.226759911798270878e+03
-3.189505737862499245e+03
-2.756503655313398212e+03
-2.183791092114606727e+03
-3.237395656303646774e+03
-5.568307793193162979e+03
-9.178554809318970001e+03
-9.268167405372003486e+03
-8.463203908704637797e+03
-6.971653588414788828e+03
-6.559581862746746083e+03
-6.251030006116860022e+03
-6.146021260829991661e+03
-6.883579122803469545e+03
-4.282568020656691260e+03
-1.981656561970982580e+02
-2.306376369647847696e+03
-8.371302863290618916e+03
-9.503013846896414179e+03
-9.279534432274498613e+03
-8.387847714602656197e+03
-6.553920733731194559e+03
-7.347620363932168175e+02
1.318636844922165437e+03
3.303043152115923586e+00
-2.290697458795842067e+03
3.896418156407880247e+02
2.811326990221925826e+03
4.890387698586880106e+03
5.166871887251912085e+03
5.611784093574530743e+03
5.857134990100343202e+03
5.205908773419276258e+03
4.407118040761250995e+03
3.735753171543435656e+03
2.832778718405585096e+03
2.087179713891877327e+03
1.700936616325529940e+03
1.438053200001465257e+03
1.325561291348503573e+03
1.349445027800011530e+03
1.889742280703959977e+03
2.840526396232834031e+03
3.141837358223058345e+03
3.266708392866300528e+03
3.790145987002495986e+03
4.673219676460671508e+03
5.265958831052813366e+03
5.077358076475804410e+03
4.838466392626893139e+03
4.580341159447130849e+03
4.551986741994971453e+03
3.754422123317586738e+03
3.224609031430235973e+03
2.815552259664549183e+03
2.272267151548921902e+03
1.704719923773778191e+03
1.330862774473480385e+03
1.254722668541292933e+03
1.202265995600315136e+03
1.217501142190268865e+03
1.319461588007955243e+03
1.763180059860166466e+03
2.537649480464115641e+03
3.015895290243064665e+03
3.502963976750636448e+03
4.012872278181567253e+03
4.250671264121591776e+03
4.834356966099284364e+03
5.127969148576203224e+03
4.991679680958151039e+03
4.837702307005802140e+03
4.832681803555368788e+03
4.347679860570445271e+03
3.530488975918023243e+03
2.636993065378018400e+03
1.443443556519547428e+03
-2.356233223928180450e+03
-2.074988983849378201e+03
-1.264134383579461200e+03
1.262709908475159182e+03
1.205315266979322359e+03
1.672283139987101549e+03
2.172569871295513167e+03
2.619235085359085588e+03
2.972271148649934730e+03
3.331686222246766647e+03
3.508451821978193948e+03
3.753557051951986523e+03
3.829975990271219416e+03
3.871700443893630109e+03
3.217714637497815602e+03
2.604935384402902855e+03
1.659323334776602223e+03
8.237845837835326392e+02
8.830217060232037340e+01
-8.081738967119617882e+02
-1.397745227941679786e+03
-1.811467045331498412e+03
-2.099407611981495393e+03
-2.170635816251507549e+03
-2.240186854178510657e+03
-1.879051417910013242e+03
-1.467197131958537057e+03
-8.247252002244201776e+02
-9.206862073173480212e+02
-7.040751653328323982e+02
-2.279181014443550168e+02
2.787258655190777290e+02
-1.281370353064867231e+02
-3.945375000827130521e+02
-3.585510478582060614e+02
-6.611846325961296316e+02
-1.113495057714857239e+03
-1.930571746919459201e+03
-2.611469776498615829e+03
-3.054319402721285314e+03
-3.829206237546966349e+03
-3.901151809709703230e+03
-3.721180184008320794e+03
-3.395335157264836198e+03
-2.824597681627104521e+03
-2.194958206379453713e+03
-1.675481665462413048e+03
-1.416128815798249889e+03
-2.859416477335822719e+02
2.120962478869196843e+02
7.160715753973039455e+02
1.051880816471489652e+03
1.021470216086334631e+03
1.244880828530840063e+03
1.322094970574744139e+03
4.031212483188055558e+02
5.629242560855370812e+02
2.243914053689243104e+01
-7.834390068665459239e+02
-1.441676597652470036e+03
-1.751344927103298005e+03
-1.699416901695783963e+03
-1.654891378693059551e+03
-1.928834200894275227e+03
-2.358198619829968266e+03
-1.836843417245862611e+03
-4.437973885852946410e+02
1.839797533028696819e+02
9.926604927321034211e+02
1.994613289527167126e+03
2.634775029358143456e+03
3.073942978583191234e+03
3.261359851778121538e+03
3.466081585726507001e+03
3.159749996350085439e+03
2.981595060490002197e+03
2.274629006054920865e+03
1.856011528460522641e+03
7.760198110376887826e+02
-5.891959043527361217e+01
-4.234490840496020496e+02
-8.248230292407675961e+02
-1.164122952058704186e+03
-1.285137156344679397e+03
-5.684057776503191235e+02
7.809654316988861922e+01
3.449689445373282979e+02
6.594640534511746637e+02
1.113788329250608740e+03
1.729977558291369860e+03
2.314298115294445779e+03
2.202259079562312763e+03
1.797783784190930646e+03
1.977381882522766091e+03
2.056417409909828621e+03
1.796377407094813634e+03
1.011563335565302395e+03
3.184055955350873433e+02
-6.660447014939487644e+02
-1.494271362675726550e+03
-1.821680718291933772e+03
-1.730354235734984741e+03
-1.909697837818816652e+03
-1.839154667662009615e+03
-1.634975337612862859e+03
-8.958288723235042426e+02
-4.348663319841436419e+02
-2.664748244801185706e+02
-8.256736775440907650e+02
9.348899047836623311e+01
7.971108647136236414e+02
1.624304857382687487e+03
2.000151528474651059e+03
2.051777079919728749e+03
1.967302565999902527e+03
1.655812239414438181e+03
1.187409871398525638e+03
9.252378289799692084e+02
3.734174765227350576e+02
-7.399955219211421991e+02
-1.105926920264330192e+03
-1.154195695738732866e+03
-1.230745768263854416e+03
-1.048476302205290494e+03
-7.952471922461512577e+02
-3.479296197039901131e+02
-1.673788591004389446e+02
-5.774974347453518249e+02
-3.402991967314921112e+03
-5.580625739788070860e+03
-1.275516864292009132e+03
1.035440489024866565e+03
-4.513712230981758694e+03
-3.935655717314271442e+03
-3.277279427075605327e+03
4.014660304453242361e+02
-1.375222634884422860e+03
-2.780220659852784593e+03
-6.505214364978842241e+02
-4.514081300431258569e+03
-1.992811981565639826e+03
-2.042621337848996518e+03
-2.350436475724314278e+03
1.678180965262862969e+02
4.342276648280683844e+02
-1.710085466151225774e+03
-3.872892334939250304e+03
-9.319995952964865182e+02
-3.025448737573935887e+03
2.738482274283473998e+02
8.980229592333130313e+02
1.899192405705208330e+03
4.153424360846033778e+03
3.680812683193124030e+03
9.184958484590536045e+02
3.806605301904693533e+03
2.041156214941999224e+03
-1.382548377300758169e+01
9.958371593333297369e+02
1.182142284240197114e+03
5.610950504394929794e+02
1.298125235093540937e+02
2.442789948381244756e+02
2.115645081441187187e+02
3.388057061443492444e+02
4.360775510692958505e+02
9.224940027155410007e+02
1.259074492080344498e+03
1.599851344250397460e+03
1.757945705457009126e+03
1.944428169808651319e+03
2.085391498214606145e+03
2.643849409187788297e+03
2.744877255589862216e+03
2.381529527303950545e+03
1.763823776128797363e+03
1.338800721096611142e+03
7.524993371700243188e+02
-1.930745124319881825e+02
-1.245993461521292829e+03
-1.770420138186916802e+03
-2.210453084290418246e+03
-2.297081511581986888e+03
-2.435304230464844750e+03
-1.793764068019364458e+03
-1.228275922813205170e+03
-7.956357466655454118e+02
-3.789854970897998783e+02
3.526125694774806334e+02
8.450268620071555006e+02
1.134361623082970027e+03
1.274612534632582538e+03
4.857167217967997317e+02
-1.587351751602718878e+03
-1.535521140157188483e+03
-1.026222289538455243e+03
8.033100474731177201e+02
3.406103782270518536e+02
-3.762481959116074677e+02
-1.121316467187655235e+03
-1.680313781982519458e+03
-2.312365587969293301e+03
-2.519614331350077919e+03
-2.924896733976538599e+03
-2.831024784654079212e+03
-2.121938171428856094e+03
-1.545030343827860634e+03
-1.368345065541968552e+03
-9.077335178364965032e+02
-4.275171931954114939e+02
-1.387964160041466144e+01
-2.595080789871558835e+01
1.052144772768671430e+02
1.905289115876004757e+02
-1.651157575955623997e+02
-4.178564713663977841e+02
-8.438142339482719763e+02
-1.389113031605189462e+03
-1.867889419833048805e+03
-2.665332698581985369e+03
-3.152585183840439186e+03
-3.340824296308730027e+03
-3.419254690078424119e+03
-3.317955829907136376e+03
-3.015053123103780308e+03
-2.530723497773086365e+03
-1.784049378240963506e+03
-1.072159879359371871e+03
-3.961951045022847779e+02
1.536670956372714443e+02
6.123503972150541586e+02
1.151679032018196040e+03
1.389523018112926366e+03
1.408718184912940160e+03
1.800080871145785750e+03
1.756474607297320517e+03
1.300700217797912501e+03
1.070633654869091060e+03
2.630320124766164440e+02
-4.453376720448764559e+02
-8.346186827328978097e+02
-1.140992291792109654e+03
-1.277730569927846545e+03
-1.467058020881086804e+03
-1.317128174271628950e+03
-7.671015989981996199e+02
-2.301259505288435037e+02
3.556294715539293065e+02
1.247936920857652694e+03
1.713681840054308168e+03
2.631758419052891441e+03
2.665994514985481601e+03
1.697169783560209908e+03
-1.018825774252132192e+03
-5.208118964908963790e+03
-5.383902406413022618e+03
-5.286306392254469756e+03
-5.875272961247238527e+03
-4.963191727040161823e+03
-5.571213405557363103e+02
1.197496049034244379e+03
9.735466818710104917e+02
6.227569717222394274e+02
6.239365120384350121e+02
7.099446487308093765e+02
8.966466911431321023e+02
1.093897786032765680e+03
1.577573209059723922e+03
1.785530085561604210e+03
2.479636345684423304e+03
2.933789110918560709e+03
3.238884162092911083e+03
3.544788523682800133e+03
3.096424706373263234e+03
2.870655490415146687e+03
2.711342939261264291e+03
2.038428360648341823e+03
1.313781446224163574e+03
4.122482424705004291e+02
-5.823000998243691129e+02
-1.358986398910098615e+03
-1.660913347250266042e+03
-1.354222671923876760e+03
-1.438024732021880027e+03
-1.841443794827233887e+03
-1.302460440638733871e+03
-5.142328325697175160e+02
6.215362896488298361e+01
8.156502363088357015e+02
1.419261129866652027e+03
1.891881932927694834e+03
2.396427670725046028e+03
2.781875288243294108e+03
3.441129564871195726e+03
4.150137322980634963e+03
4.012885749471398412e+03
3.073293461119439598e+03
2.262293023223317050e+03
1.789817640148217833e+03
8.507532032482555451e+02
3.602340908628584515e+01
-3.994399211421526275e+02
-7.736733465924309030e+02
-8.136871313500959104e+02
-7.685310890917440929e+02
-7.003250631328463669e+02
5.920191121717640499e+02
1.500532743509555075e+03
1.770233065399064799e+03
2.283134544755999741e+03
2.874179145419909673e+03
3.230495794804286106e+03
3.669234666498345632e+03
3.573256174607243338e+03
3.139625953787264280e+03
3.199391318710803716e+03
2.712609804078084380e+03
1.937282217095528495e+03
1.130399873887091189e+03
-4.720360759084510391e+02
-6.588237690158750866e+02
-6.279403943714127081e+02
-9.214655702400111750e+02
-2.865329848975565710e+03
-5.497440349620530469e+03
-4.842736745665037233e+03
-3.414116849527788418e+03
-4.189499983051119671e+03
-2.215750553741465410e+03
3.642937707639704286e+02
-2.286283888219679739e+03
-2.675342565889570324e+03
-4.268796464634338918e+03
-3.866496553677115571e+03
4.846577121468946530e+02
-2.264181884611421538e+03
-1.332916168382975457e+03
-3.842436923425912937e+03
-4.664613902747594693e+03
-5.112346568430601110e+03
-5.326539707266621008e+03
-2.813144623663607035e+03
-5.657036930222716364e+03
-6.912037769447071696e+03
-6.017017510558011054e+03
-5.559847840925271157e+03
-2.132401728982227723e+03
-1.041526342802774479e+03
-7.419962567850228652e+02
-3.156595082712633939e+03
-3.452537592035348553e+02
1.555194932428240008e+03
3.859602685299565223e+02
-1.504764624269073920e+03
6.281655864554717255e+02
-4.233075439836880832e+03
-2.187338214077413795e+03
1.072501049958587146e+03
-2.344450018448186256e+03
-4.766043890620404454e+03
-5.679151896874149315e+03
-4.388635755501294625e+03
-6.003377142255083527e+03
-3.402219144249665533e+03
-1.434991322596983537e+03
-9.741833914080982026e+01
1.108577696296314798e+03
1.792142562184599228e+03
2.236462406322631978e+03
3.016717635552878619e+03
3.768069299783673614e+03
4.147721212779513735e+03
4.059825200421325462e+03
4.171558895624192701e+03
4.195071326798960399e+03
3.769427878244131534e+03
3.118951540070820556e+03
2.986523421165071341e+03
2.292221442972501336e+03
1.245564948865958058e+03
3.867214877267583688e+02
-3.621937990362619644e+02
-4.941037129758630613e+02
-9.778539843600455015e+02
-3.812546921429162694e+02
-1.769142193537350920e+02
-9.770543760259284838e+00
8.608924323421435929e+02
1.252274780658237205e+03
1.766177031922515880e+03
2.460318367744599072e+03
2.987863571995981602e+03
4.127698219648988015e+03
5.642833988524388587e+03
6.325605274860472491e+03
6.078942314963873287e+03
5.692364299833960104e+03
5.526487750065085493e+03
5.014601235965642445e+03
4.221828420712926345e+03
3.256263116931880631e+03
2.231062667769087057e+03
2.954952880166401883e+03
4.856885220259424386e+03
5.418998885442327264e+03
5.142938966009578508e+03
5.592626034259508742e+03
5.823574392404204445e+03
6.076926390713694673e+03
6.239021270359416121e+03
6.631302261921438003e+03
6.896558201090319017e+03
6.509404534022353801e+03
6.200795992482559086e+03
6.835541609681024966e+03
6.512302444265066697e+03
5.411120674242295536e+03
5.048106404243757424e+03
4.219259429275039111e+03
2.836612618314514293e+03
1.950238234484889290e+03
1.689107024421376536e+03
2.057269776205901053e+03
1.704727480077349583e+03
9.855312016779711257e+02
1.230706363448690354e+03
1.383346718641297684e+03
2.022534237474453448e+03
2.487326542815640096e+03
3.041744652927270181e+03
3.520833930098610836e+03
4.232671574254421103e+03
4.813330510187157415e+03
5.946881592602437195e+03
7.440357445437294700e+03
8.430803537007273917e+03
7.378252620132518132e+03
4.363694032519753819e+03
1.065138404157418336e+03
-2.938419594141601010e+03
-4.824931766322181829e+03
-6.494428459755114091e+03
-7.928908409226851290e+03
-8.240368885231957393e+03
-8.197760320131099434e+03
-8.667021516476313991e+03
-8.356110068196770953e+03
-7.634977003909181803e+03
-7.346536265957153773e+03
-7.909709253895933216e+03
-2.873311057639521096e+03
6.887326759239309695e+02
-4.277701825610385640e+03
-7.897708633345989256e+03
-6.134124494612611670e+03
-2.262899249887480437e+03
-5.957979842523389379e+03
-1.013335412751808508e+04
-1.092195336449919705e+04
-1.165181424496139698e+04
-1.253689134433691288e+04
-1.336917360382327934e+04
-1.332771243403341578e+04
-1.223347381507505997e+04
-7.051359050316588764e+03
-5.445325165377973462e+03
-4.374353154094728779e+03
-3.579395420554035809e+03
-2.946328294143172570e+03
-2.243134812519439038e+03
-1.384776644489555792e+03
-1.119159899851862065e+03
-8.972468881953942628e+02
-4.109825578159388897e+02
8.770361303623938909e+01
-5.716197489960452316e+01
-2.745347830858140128e+02
-5.303960106705039834e+02
-1.187750135955618589e+03
-1.743570561333260230e+03
-2.398878331262686970e+03
-3.221642960845958896e+03
-2.764871519907414950e+03
-2.038580735639707427e+03
-1.818766040737295498e+03
-2.069370361575026891e+03
-1.371376613963139334e+03
-5.547327694297479184e+02
-1.023755259848058756e+02
5.227236356255414194e+02
1.008588387955976600e+03
1.748253401085604764e+03
2.023785471469650929e+03
3.113166979407117651e+03
3.726398855280553107e+03
3.621532712171277581e+03
3.989532645111168677e+03
4.472391946095676758e+03
4.131118404017072862e+03
3.512703028815427388e+03
2.864107961268047802e+03
2.375310426274979363e+03
2.303252569236314685e+03
2.072891632821552321e+03
1.488180894676336038e+03
1.384975929662653016e+03
1.762253176025100856e+03
2.187988714833476024e+03
2.172518937495582577e+03
2.434968949971706479e+03
2.853476045158948182e+03
2.730245696972473979e+03
2.501920125449323223e+03
1.822413117256503256e+03
1.853782988357251497e+03
4.316872241952461081e+03
5.965476035897109796e+03
6.306587666604660626e+03
5.816011261357762123e+03
4.958588950008675056e+03
4.217274745250248088e+03
3.606968521786139263e+03
3.078563779090524804e+03
2.669968751243615316e+03
2.380060942900758164e+03
2.075805002703597893e+03
2.268118552134888432e+03
2.176945556122464041e+03
2.002238612147459435e+03
2.027949273440488014e+03
1.870048175472261619e+03
1.443435572894479947e+03
1.488984706282318029e+03
1.610660744384191275e+03
1.361382902708895017e+03
9.410593595026120965e+02
4.925970931763274621e+02
3.689336415355152354e+01
-5.031874482761101604e+02
-1.113815244778967099e+03
-1.836093036336214936e+03
-1.833108454947075870e+03
-2.429059481189650342e+03
-2.765080632243896616e+03
-2.502325700135608713e+03
-1.957937903349979706e+03
-1.612027076205062713e+03
-1.038678744236685816e+03
-5.098478881164575682e+01
4.979331248787823938e+02
7.169363074077203919e+02
1.591897433936467223e+03
2.428736783757046396e+03
2.697397304233708383e+03
3.426761635285665307e+03
3.621693651261358809e+03
3.552074412728617972e+03
3.360715921274977973e+03
3.237434858848599561e+03
3.316152490096441852e+03
2.769681977394611749e+03
1.688850235896197319e+03
1.214462091762358114e+03
1.250266628747863479e+03
1.445206990847761290e+03
1.427147432116463733e+03
6.839405437635260796e+02
1.248481895420592991e+03
2.617636899217179234e+03
3.092285782973630830e+03
3.388366550562146585e+03
3.473785778532823770e+03
3.835351222875698568e+03
3.965962857273315876e+03
3.716539022575435411e+03
2.678890277603023605e+03
3.111044868415003748e+03
2.862723499111347792e+03
1.541733683326978735e+03
1.143937446196435758e+03
3.533557323226864924e+02
-5.030709586520083576e+02
-8.258299008098368859e+02
-1.505168389180453914e+03
-1.801718724926477535e+03
-1.390628972863328727e+03
-1.009439019302464658e+03
-5.428160264528032712e+02
-1.498687945651762732e+02
2.220044491997427656e+02
7.127900671481472727e+02
9.283268172720137272e+02
9.516382432419164843e+02
1.190569513501488245e+03
1.482994279448537327e+03
1.488126016131747519e+03
1.225586796304110749e+03
7.592473192126176400e+02
1.750202364429228794e+02
-2.237455902556291392e+02
-7.085799348681659922e+02
-1.228898025906229122e+03
-1.780786253295344295e+03
-2.232248428561490982e+03
-2.386140457160336609e+03
-1.995745684241668414e+03
-2.042935713070467727e+03
-1.943429889307436497e+03
-1.387836384414311397e+03
-8.328519255676063722e+02
-3.483690772437556689e+02
-1.213473945515640828e+01
2.675881725330692120e+02
5.869602834218461567e+02
7.610253959852216212e+02
5.599711441494705468e+02
1.800198162964346693e+02
-3.743167523918074835e+02
-8.970786683098998537e+02
-1.715017153214505697e+03
-2.832508945693436544e+03
-3.449700909143190074e+03
-3.683659332676289068e+03
-4.173435297414115666e+03
-4.024024085807147458e+03
-3.835407995198604567e+03
-3.846643238019835280e+03
-3.326745858475322166e+03
-3.027702915298636071e+03
-2.592517236280940779e+03
-1.955174192055373851e+03
-2.855702925123040131e+03
-2.368089508254597604e+03
-5.057279822522214090e+03
-9.303341965791116309e+03
-9.396206812193255246e+03
-8.898782891054455831e+03
-8.546117342382251081e+03
-8.735209321098069267e+03
-9.007199422811509066e+03
-9.336953415977252007e+03
-9.279279694767956244e+03
-1.029125450264411847e+04
-9.977031003538802906e+03
-9.833614880773748155e+03
-9.249908623691637331e+03
-8.197914453576928281e+03
-5.902617673531496621e+03
-2.216955632770271677e+03
-4.950965351905339048e+03
-5.306648195504935757e+03
-4.269918340052425265e+03
-4.003707716158678977e+03
-3.742994874491054361e+03
-3.236725942936774118e+03
-2.581842259017952983e+03
1.815720232961603188e+03
6.327994481094246112e+03
3.760048843300959106e+03
-2.283254383339632568e+03
-3.394008179820869373e+03
-2.230098572808090466e+03
3.285538575199886964e+03
-3.800850007758309062e+02
-3.542908069221973619e+03
-1.869898682031144290e+03
2.874978928618259488e+03
1.730793095253142383e+03
3.662687650153917929e+01
5.772616083269870614e+03
8.570809383976798927e+03
9.698198574984173320e+03
1.019188569340146023e+04
1.066597560707610319e+04
1.056746533011125393e+04
1.076340731761233656e+04
1.121589953250047074e+04
1.087996626634431959e+04
1.052257720421433078e+04
9.953713135317359047e+03
9.279443753641493458e+03
8.253822227796606967e+03
7.548819754100849423e+03
7.318461765309772090e+03
7.272752730336384957e+03
7.530724203378670609e+03
7.545422187026684696e+03
7.580924201334836653e+03
7.730214035399717432e+03
8.523344175198455559e+03
9.209324101814327150e+03
9.661164275518875002e+03
9.860928804140585271e+03
9.905781146332690696e+03
9.660865315082997768e+03
9.188169475244530986e+03
8.796822230780831887e+03
8.419905831982787277e+03
7.649611562064526879e+03
6.284081325915146408e+03
4.938191762527241735e+03
4.206891053825584095e+03
3.363271036198905676e+03
2.436352503956542478e+03
1.951980320760258110e+03
8.681991669752594589e+02
-1.668294905841613911e+02
1.289475878616926593e+03
1.544477741806086897e+03
1.938746744267617487e+03
2.009709926898267213e+03
1.945026002300415257e+03
1.970026826206595160e+03
1.784357036875022686e+03
1.885628091340176525e+03
1.430834208523092229e+03
7.841449944614981860e+02
2.246156105102980689e+02
-8.495632213327952513e+02
-2.129545075800526320e+03
-3.123786162810602946e+03
-3.810896756493644261e+03
-4.718249119862742191e+03
-5.604895395101539179e+03
-5.832900161284755995e+03
-6.171292589752348249e+03
-6.540052183545262778e+03
-6.653142705538759401e+03
-6.684487661452012617e+03
-6.673043479423422468e+03
-6.348784168247586422e+03
-6.050673057250914098e+03
-5.985649115165918374e+03
-5.867685332205277518e+03
-5.931770689951216809e+03
-5.916826068280309300e+03
-6.369811560138606183e+03
-6.578713491333975071e+03
-6.983492694755027514e+03
-7.621219770578205498e+03
-8.552922585725875251e+03
-9.100537522482933127e+03
-9.864024490967165548e+03
-1.037843685570026355e+04
-1.019475766121390552e+04
-1.007492464987295898e+04
-1.007590717985360607e+04
-9.346650799381015531e+03
-8.103134608890737582e+03
-7.511236105448979288e+03
-6.755983362364294408e+03
-5.982300102258442166e+03
-5.738068519640282830e+03
-5.400298342916092224e+03
-4.902962368947835785e+03
-4.272960713422403387e+03
-4.101211005862239290e+03
-3.775693382276418106e+03
-3.555379385035397263e+03
-3.637237126159428954e+03
-4.069196439083468704e+03
-6.033196766723642213e+03
-9.057226853913631203e+03
-1.244829469185449307e+04
-1.257638321739304229e+04
-1.197044858055513578e+04
-1.145043955036532316e+04
-1.013833626659193760e+04
-9.352168814894403113e+03
-8.826535167718719094e+03
-7.618310700597378855e+03
-6.017393341947741646e+03
-1.498118255909812206e+03
2.860562818965203860e+03
4.333770728890885948e+03
4.472636331694458022e+03
5.161226695904044391e+03
5.568595513891489645e+03
5.603773318812688558e+03
5.323829345971992552e+03
4.575827094447136915e+03
3.893786122108412201e+03
3.542767241281001134e+03
3.246773547194738057e+03
3.229852283173194337e+03
3.749091038368013869e+03
4.307547355012336993e+03
4.965316895830306748e+03
5.262475770876060778e+03
5.759113098755321516e+03
6.328296979202056718e+03
6.698131623128713727e+03
6.893687394365539149e+03
7.142049732622981537e+03
7.418289288156029215e+03
7.582470911461930882e+03
7.508643295512647455e+03
7.359858895427216339e+03
7.060050459703164961e+03
6.913323397121105700e+03
6.177730673495613701e+03
5.292229709039767840e+03
4.348819742363371915e+03
3.684536309226433787e+03
3.480391684164148501e+03
3.267390953988613546e+03
3.286611774140508714e+03
3.587115835168126523e+03
3.825929725317463635e+03
4.144147150388781483e+03
4.671844497077419874e+03
5.537999177669448727e+03
6.182730524169653108e+03
6.172118439954949281e+03
5.768181230161421809e+03
6.117930397343352524e+03
6.240384071253127331e+03
6.059625728798199816e+03
5.107713735901442305e+03
3.895603542143259347e+03
3.484273065760879035e+03
2.490710029160617978e+03
1.512838809871957665e+03
1.041945829572898901e+03
3.918924231748364377e+02
6.057019123452300846e+01
2.140788673853022885e+02
6.263879620066820735e+02
8.935812592447935003e+02
1.128671872686763436e+03
1.762682357401211448e+03
1.567589342229769045e+03
2.509707082689548770e+03
3.023846492106877122e+03
3.129003322915235003e+03
2.854411961098693610e+03
2.596985753157122417e+03
1.916769306498839796e+03
-6.882324765900357306e+02
-4.567031328537521404e+03
-4.695600325210952178e+03
-1.807987067878609423e+03
-2.772250718773932476e+03
-3.298387625161959932e+03
-1.633373762391124274e+03
-5.247187392482159339e+03
-6.277845190472647118e+03
-3.009295647123130948e+03
-4.641490467752852055e+03
-3.436374455391121046e+03
-6.305928574989956360e+03
-3.842163489926247621e+03
-4.399044673321103801e+03
-5.312500907521677618e+03
-2.782505610966984023e+03
9.609178503489793002e+02
6.957720585497994534e+02
-1.913911898765309161e+03
-5.493144284033392978e+03
-4.870925003927768557e+03
-2.653246884088595380e+03
-3.426147535978505402e+03
-4.793685438675959631e+03
-1.001879988949479412e+04
-1.031048712818008971e+04
-8.633793647792250340e+03
-5.184688694980129185e+03
-6.127166773691413255e+03
-3.996175296130619699e+03
-5.227682669980637002e+03
-3.131704788901896791e+03
-4.540223804867110630e+03
-2.059170096112314695e+03
-4.074498635696575093e+03
-3.992201199602005090e+03
-2.932300447927107143e+03
-1.492748535028280912e+03
-1.241498081967605003e+03
-1.591599876878036184e+03
-2.101117303357169476e+03
-2.598985690958896157e+03
-2.732236428728987448e+03
-2.856880396828267294e+03
-2.797890704729774825e+03
-2.573347403018733985e+03
-2.648203646932323409e+03
-2.167477256444608884e+03
-1.963191648425868834e+03
-2.016203468633707416e+03
-1.688587305636775909e+03
-1.806064820495280173e+03
-1.755439078327953212e+03
-1.081977537828096047e+03
-1.075727036015248359e+03
-1.298710683151347894e+03
-3.252996170970298863e+03
-4.510655259038278018e+03
-2.281484493336839932e+03
-1.084357871972667226e+03
-2.052439006236230398e+03
-2.738571584938402793e+03
-2.894040677045912616e+03
-3.228788698672630289e+03
-3.465121044218759380e+03
-3.290051948746120161e+03
-3.116519895464472938e+03
-2.567480195657926743e+03
-1.724924493740926891e+03
-1.161899826695137108e+03
-9.212561974071720670e+02
-2.043576169747454969e+02
5.240813138948583401e+02
1.322179098361578554e+03
1.803108017396898276e+03
2.489963372063930365e+03
2.733292932582199228e+03
2.835192436556321354e+03
2.871034576237885631e+03
2.312119374711556702e+03
1.973012257476611239e+03
1.630941704618535823e+03
1.087296180724653595e+03
1.822098902595833181e+02
-3.333575023924632319e+02
-5.282652815188343993e+02
-2.512509756538077283e+02
1.059692513275540193e+02
8.821990542893909151e+02
1.650772516520208455e+03
2.404841133390819778e+03
3.298311456565606477e+03
3.864032938423692940e+03
4.435917748840197419e+03
5.144858073564063488e+03
5.560838605587529855e+03
5.966801033451468356e+03
6.115690664631749314e+03
5.936408870912538987e+03
5.748913404139439081e+03
5.274081099206950057e+03
4.842748881774918118e+03
4.154839308015444658e+03
3.636234759691626095e+03
3.617822582137029713e+03
3.244503093740273471e+03
3.023165329842930987e+03
3.216696472151962553e+03
3.884007868663450154e+03
4.951014879356846905e+03
5.859687279620771733e+03
5.779907733085802647e+03
3.721597028327709722e+03
5.496955402964258610e+02
-1.276902580845486227e+03
-1.549342055911218495e+03
-4.106939498954205874e+02
-1.010298149069350870e+02
-4.534407522661184089e+02
-5.501187910954437257e+02
1.787090344754954572e+02
-8.550261417405414477e+02
-2.201240548937405038e+03
-2.903204905976831924e+03
-3.202059752255005151e+03
1.057904711581069705e+03
4.715566528255694720e+03
9.787741498046847255e+02
-3.283575690703594319e+03
-9.155750826559366260e+02
2.760639752690030036e+03
-1.830170089313786548e+02
-1.167645973446845801e+03
-2.963838113684142286e+02
1.057681913864667877e+03
5.303389753855112758e+03
9.348638448258618155e+03
9.177296841742705510e+03
5.488245619688328588e+03
6.752339809164475810e+03
7.262474620361407688e+03
6.770460437631013519e+03
5.545104000019701743e+03
4.332282102523132380e+03
3.479835939344489816e+03
2.745628750605921141e+03
2.197502486678141850e+03
2.006340236908419001e+03
2.178025150219136776e+03
2.321431234573785332e+03
2.465462439984354205e+03
2.388983976204317059e+03
2.541965227199087622e+03
2.943280622184317053e+03
3.045841938182340982e+03
3.013529021982563336e+03
3.009212618151898823e+03
2.732804657247936575e+03
2.508192865828073536e+03
1.878231719534338254e+03
1.024832827797185928e+03
1.038728742027496708e+02
-8.548027256660720923e+02
-1.767296804081006258e+03
-2.646689652335354822e+03
-3.535160658089199387e+03
-3.813843109152315265e+03
-4.022776002802758285e+03
-4.051038752666199798e+03
-3.706670389962121135e+03
-3.442654664327247247e+03
-3.072060627022009612e+03
-2.687902719414706098e+03
-2.090258786218727437e+03
-1.906114139273611954e+03
-1.900546171986376066e+03
-1.700594739555630440e+03
-1.311278794911637760e+03
-1.127611709363988211e+03
-9.656429655781854535e+02
-9.803229798966285671e+02
-1.284310683936440910e+03
-2.209621528132713138e+03
-3.050338402871267590e+03
-4.339442149555982724e+03
-7.841955940249369633e+03
-7.450718301903152678e+03
-6.579904922211702797e+03
-4.031611814698433136e+03
-3.304878012476250660e+03
-2.779786734059329774e+03
-2.348189160858921696e+03
-1.672984178168323979e+03
-1.269145134866450462e+03
-8.936178190724002661e+02
-8.383024799318505984e+02
-6.481261496369651240e+02
-2.889655816127793173e+02
-3.216905845956706571e+02
-3.902098041576122114e+02
-6.984263961818779762e+02
-1.535196179528221592e+03
-2.294420332401548421e+03
-3.057036187420775150e+03
-3.702929761023603078e+03
-4.654968124778564743e+03
-4.928966919294177387e+03
-5.000797036486180332e+03
-4.829281904682128697e+03
-4.685218773834703825e+03
-4.207407461286405123e+03
-3.479629460942497644e+03
-2.596668223190016306e+03
-1.738331704747953609e+03
-9.103893398584762053e+02
-8.186520334757852879e+02
-6.219118902658796060e+02
-1.119650246579902699e+02
-7.256012795827956552e+01
-2.494910073594726327e+02
-7.065123917482545721e+02
-1.375432807686300976e+03
