1.489674038074649616e+02
6.329644706193416681e+01
2.813383878827307853e+02
3.599854295235884365e+02
6.922126285546306690e+02
8.510288868767559052e+02
1.239468443475977892e+03
1.573585172458536363e+03
1.947427412474115954e+03
2.298011834400025691e+03
2.480340985226229805e+03
2.500403845224567249e+03
2.487215530002710693e+03
1.846755779874299378e+03
1.517051704678570786e+03
1.748147833238645944e+03
2.209057112731203233e+03
2.513773395966773933e+03
2.457334102477872875e+03
1.689748319296657883e+03
3.989944360497199227e+02
-4.089451258674797600e+02
-8.030481851880937256e+02
-1.083395957065371931e+03
-6.690236553914687647e+02
-4.898820702026831100e+02
1.391004948322600683e+02
4.518931835010593545e+02
1.090434710076722013e+03
1.129719276321173993e+03
6.848035475901340305e+02
-3.102638229600435125e+02
1.252316748833555238e+01
9.700877450828583051e+02
1.276509002006646597e+03
9.582423406153039025e+01
-8.489614745096569095e+02
-1.184864523290288389e+03
-9.318539313185326591e+02
-6.979624049941770636e+02
-1.637246165085912025e+03
-1.597681469968752026e+03
-6.802545488429321949e+02
1.690540541381001560e+02
3.912740506091676593e+02
3.295659066910848196e+02
4.619759489013229654e+02
6.584728607979116077e+02
1.153914547553058355e+03
1.383416227446514768e+03
6.548628467730743523e+02
3.311410937647039532e+02
4.973138416366460319e+02
8.573725739222013544e+02
4.162028623740728790e+02
8.888280360028518317e+02
1.379268439309846599e+03
4.704902269272171225e+02
-1.074705580024031519e+02
-5.336238888078958098e+02
-1.573971458887626568e+03
-2.171617550689119525e+03
-2.635545389897652512e+03
-1.853751713502472512e+03
-1.177267753752557383e+03
-6.510164358865299619e+02
4.330138224701560716e+02
9.227119628729120677e+02
1.299063510094252933e+03
1.712161480314615801e+03
1.636048019981409880e+03
1.925737710571782600e+03
1.832256304666531605e+03
1.007505927880594072e+03
5.365155369198118933e+02
-3.437184719531841210e+02
-3.382073938738263905e+02
-6.549792059423613182e+02
-1.155052763719669656e+03
-1.244520707924245698e+03
-1.279354806375709813e+03
-1.365554005084431992e+03
-1.659178075136784173e+03
-1.636209630502347636e+03
-1.295582808971956183e+03
-5.322868319529164864e+02
4.376498946499098111e+02
7.722693417032543266e+02
3.235332283904458563e+02
-2.806034893165667086e+02
-3.551126845761389177e+02
-1.829458642996654589e+02
-4.691265498656171644e+02
-6.967141081329477856e+02
1.182810154075675513e+02
1.191928660762348272e+03
1.674249216316320599e+03
1.576181488574122568e+03
9.147331482984850481e+02
4.928531612786744454e+00
-1.298317317126345415e+03
-1.940972072521541804e+03
-2.070065189843372536e+03
-1.932746829533611162e+03
-1.042029601248445260e+03
-1.584604835172914150e+01
1.283824530602376853e+03
2.524990370533279020e+03
2.850678923209559343e+03
2.831853180329536372e+03
2.651520803709945540e+03
2.224697622110449629e+03
2.158373120416946676e+03
2.020542668299509614e+03
1.829222916235601360e+03
7.724494688659233361e+02
3.942184558541727597e+02
1.662455755414115174e+03
1.187237668919071893e+03
7.117302760947796969e+02
2.068305713611460419e+02
-9.345859668516816328e+02
-1.551331558935582052e+03
-1.772579403186623040e+03
-1.400154577697722971e+03
-1.323185636739594429e+03
-7.934554735435283419e+02
4.068978419701563212e+02
1.006875518949076422e+03
1.243855221471477307e+03
1.857498170511506714e+03
1.674813385724854470e+03
1.339459672320430855e+03
9.576576961233827205e+02
1.018516584927797567e+03
1.293971978289219351e+03
1.428812476754118052e+03
1.158527013235049708e+03
2.317864547210578792e+02
-5.382893984959496265e+02
-1.303019248276218605e+03
-1.217030394972487102e+03
-9.421411084993626446e+02
-1.116809127749075060e+03
-6.419861923047782284e+02
-2.042513748448712079e+02
-2.348641065860280719e+02
6.163442719208343306e+02
3.924634390216176598e+02
1.282527510761358371e+02
-2.090398267352614710e+02
-7.542896995168986507e+01
5.472252224402457159e+02
1.407700673707576925e+03
2.035962456122101230e+03
1.887098507454870969e+03
1.594161314605463531e+03
1.488208506214827821e+03
1.033185265361797519e+03
2.139534583830178462e+02
5.862168154037073009e+01
-3.017036053457024423e+02
-4.240790183744406363e+02
-7.855739575458883337e+02
-1.490166861288716291e+03
-1.964705085324399533e+03
-1.759146126014854190e+03
-1.354578299006916950e+03
-1.057941615765646702e+03
-5.711191239627273717e+02
-1.450846077978839901e+02
9.011885501892612638e+01
6.053193405772833557e+01
1.000172874089626930e+03
1.029056232339674125e+03
9.483295464361539189e+02
8.779909357154101599e+02
1.047084582106768494e+03
7.436278731580464409e+02
-4.423837510582309278e+02
-2.395886820329807506e+03
-3.660693411088901030e+03
-3.019012571602972457e+03
-2.047858660881677679e+03
-2.867141000510384856e+03
-4.493777098632564048e+03
-2.442708811404271273e+03
-1.438873758182743586e+03
-1.965124223809531941e+03
-6.404928284722300305e+02
-1.444888326779645013e+03
-1.421325262432338150e+03
-1.865727795710152350e+03
5.878968462294319579e+02
-8.245386886416424943e+01
-3.197691524189876873e+03
-2.074817177732697473e+03
-2.560827326670039383e+03
-2.049687634003879793e+03
-9.073378992718019163e+02
-1.142689265671662497e+03
6.342560539325951368e+02
-6.294116092250874317e+02
7.228689600236933188e+01
1.048366610700858018e+03
1.405834984372293775e+03
1.340786623828159236e+03
1.533268596798149929e+03
2.184262229462297000e+03
2.914836128091294086e+03
3.383016103990266402e+03
3.142696012148327100e+03
2.507954558170292785e+03
1.800883742654067419e+03
1.126522308560090778e+03
9.269972383248765482e+02
6.734399582395582229e+02
7.878225945624772066e+02
3.481199284600303940e+02
5.735355841749407091e+01
5.850932349531640142e+01
1.615831737911013306e+02
2.314433158797683632e+02
3.021957194335335384e+00
2.936060014274194430e+01
5.654995927416406403e+02
1.520572657883109059e+03
2.442672415851081496e+03
2.851851485497723843e+03
2.841131133086841601e+03
2.351482822155707709e+03
1.748895824561107020e+03
1.664430253537500221e+03
1.506162013433107631e+03
8.521175253620607464e+02
8.713643242852971298e+02
5.317465171575753402e+02
1.710730730618603559e+02
-2.474753983589492350e+02
-7.697450312752005175e+02
-5.115886358829318965e+02
2.199824840164676232e+02
1.238916372499465979e+03
1.713102977243195028e+03
1.609551002072014171e+03
1.666326302072087856e+03
2.005445817866511561e+03
1.907922268478000888e+03
1.491731066922225409e+03
1.247756846048724810e+03
9.158743109966391103e+02
-1.923368376222291509e+00
-7.063359729633455117e+02
-1.188611718437545733e+03
-1.177995683164111369e+03
-1.030389824248409013e+03
-5.367015554974469751e+02
3.069771699138671011e+02
1.571498367245953432e+03
1.618850846732885429e+03
8.689632590502573066e+02
1.687702209427685034e+02
-1.617259112212800289e+02
-4.855989499332250148e+02
-5.159440767233417091e+02
-6.880877179076459527e+01
3.688411641159559622e+02
3.200054302147332237e+02
1.146482495840634357e+02
-2.952367773193807352e+02
-5.385740582986203435e+02
-4.764412813229967014e+02
-7.678718206922500258e+02
-1.223907695638567020e+03
-1.013666584877693253e+03
-9.081703030632645550e+02
-1.122340767610531657e+03
-2.910978800869378347e+02
2.915077132528537618e+02
4.424657422191413048e+02
3.847207688865249224e+02
1.851644036103473923e+02
6.047534488028768465e+02
9.443638337772785007e+02
7.300307387037855733e+02
3.416000473016385968e+02
4.750778146381665579e+02
1.106530547837803169e+03
1.568008943526553139e+03
7.393375250843616868e+02
3.013810393489767421e+02
3.031859365312925547e+02
3.877247803890668365e+02
5.249055779347011139e+02
7.396024763449444208e+02
8.437735705990985480e+02
4.604154906873333175e+02
-9.045666058821586830e+01
-1.588946571046982854e+03
-3.741156013830868687e+03
-6.544084878592132554e+03
-7.399746700471113400e+03
-7.253192418014925352e+03
-6.974481000480304829e+03
-5.119761050846749640e+03
-7.220716086234789373e+02
9.057014101747664654e+02
1.226503172765052113e+03
1.815215958539261692e+03
2.139795030546927137e+03
1.484153298798407832e+03
1.341313980554959699e+03
1.121123495590259154e+03
1.184519268105883157e+03
1.851550484922589703e+03
2.320152295300362312e+03
2.372280995768418052e+03
1.961994393747703043e+03
1.887193005517181064e+03
1.559830971675616865e+03
1.064743887824479316e+03
9.048190403271220248e+02
8.280115938656408616e+02
1.551903870976619544e+02
-4.556408545217035453e+02
-6.445271182352591950e+02
-3.345028849040704699e+02
1.553799739521078394e+01
7.435430661865452748e+02
6.145011693158071466e+02
8.944036118652126106e+02
1.119224263464089745e+03
9.059840834061111536e+02
5.785935563776059780e+02
4.860673768092597697e+02
-1.516452220914511315e+02
-2.076725218033178351e+02
1.199626720851467212e+02
-2.365348439208888820e+01
-3.205126087566590058e+02
-3.064181004946945208e+01
-3.995806543906797259e+01
-3.256322914669583213e+01
4.105016925971910382e+02
4.993228698726126140e+02
5.570065121080492645e+02
6.864819032217711765e+02
1.159864605177497424e+03
1.465218414284236360e+03
1.388463684638649283e+03
8.944464081620100160e+02
9.378885070933092720e+02
1.131670296863063413e+03
1.320845174032209343e+03
1.294485301179475300e+03
1.256596316248322637e+03
7.901828236381423949e+02
1.034202058839756774e+03
1.184295471619636828e+03
6.194288961601539540e+02
-3.024075518527083517e+01
2.321310499514609376e+02
7.944360521809279589e+02
8.536935549039006901e+02
9.307857848807136634e+02
1.108682565660711134e+03
8.284613880985128844e+02
1.207169781697554072e+03
1.660796989156191103e+03
1.490319512884383357e+03
1.333815059388076634e+03
1.043317196828829765e+03
6.179550308522403839e+02
-9.643479644551374577e+02
-3.530749039105678094e+03
-4.907114722052920115e+03
-4.864359727332122020e+03
-4.867463296697445912e+03
-4.488327846403747571e+03
-4.471861241759331278e+03
-4.609974189599229248e+03
-4.912827655304803557e+03
-4.642398510970323514e+03
-4.381615655963771133e+03
-4.581508822813611005e+03
-1.782019806559100289e+03
1.134962926751692294e+03
1.393463442150787614e+03
-6.074181913267311756e+02
1.234189119702471231e+02
1.475992191176198958e+03
1.361274994061762982e+03
-2.816603258174354210e+02
1.373174460185315866e+03
2.037798738160319544e+03
1.365316895074147396e+03
-2.196209862277494722e+03
-3.210741309186821582e+03
-9.703149902531753241e+02
-3.042902381213133140e+03
-4.499414775949280738e+03
-4.118843561727238921e+03
-4.739108542173970818e+03
-4.524110984986464246e+03
-4.219875132266570290e+03
-4.599242660266208986e+03
-4.544122846403775839e+03
-3.614430067443594453e+03
-2.507207487984658911e+01
1.241974550685187069e+03
1.105724775992722016e+03
1.027307593379857963e+03
8.828957843297474710e+02
1.187565028770518211e+03
1.364344386377361388e+03
1.004347546981505843e+03
1.158749671756155067e+03
1.534571161722688203e+03
1.529971499594578745e+03
1.263003690944100526e+03
9.187113619487810183e+02
5.741100543420735676e+02
2.095758118647823665e+02
-5.418902097721427253e+02
-9.924808991459460685e+02
-4.140184465302016861e+02
1.014550299224700439e+03
1.596493213199648380e+03
1.621975736144845087e+03
1.364030809205070454e+03
9.416444830942539284e+02
6.239727194969406128e+02
3.001001699008596120e+02
-4.077764360670742860e+01
-4.908367523696212515e+02
-1.375837076311762530e+03
-3.005648512030997608e+03
-1.431033336882547701e+03
-1.073107301308918068e+03
-1.046756354045573744e+03
-1.148109916259131069e+03
-1.277086666342731405e+03
-1.587229796840340896e+03
-2.028916992521914153e+03
-2.086252132521589374e+03
-2.101943959805204031e+03
-1.704081817796237146e+03
-1.440303671085033329e+03
-1.205619482152965475e+03
-1.214228178638070176e+03
-1.265984147075544342e+03
-1.054800619940995375e+03
-1.431463428605317858e+03
-1.658358221635480504e+03
-1.709333018593539919e+03
-1.608467011211948829e+03
-1.379906506394556345e+03
-1.622519428348786960e+03
-1.320606886258384520e+03
-1.289805952752486292e+03
-1.793373166678997677e+03
-2.082256413220778086e+03
-2.013535577647410264e+03
-1.991280584797887514e+03
-1.882588060551111994e+03
-1.519581259688018690e+03
-1.140324956048493732e+03
-9.359096499577747181e+02
-7.912806821993393669e+02
-6.084188032553754510e+02
-7.643892520904360026e+02
-8.322064495716729198e+02
-3.979978324054737300e+02
6.914539643265234758e+01
3.860683722269688474e+02
1.065649071991544588e+03
1.546806649581692682e+03
2.051443509185841776e+03
1.840410300860314919e+03
1.311613352984410312e+03
6.369289257022293214e+02
5.220139237620784201e+01
-4.347459079817595011e+02
-5.941127733718758464e+02
-2.000888114264649573e+02
8.192191027522120521e+02
1.726744968712883747e+03
2.447378098872430201e+03
2.939996275332130608e+03
3.025408905286058143e+03
1.989414782121877352e+03
9.269098083185675705e+02
1.893713837895882989e+03
2.212659294857553050e+03
5.916084972621493989e+02
-2.560708883984555086e+03
-2.110495283603191638e+03
-1.280006098017609702e+03
-1.423497595890797356e+03
-2.200180548851832555e+03
-2.112155219540192320e+03
-1.725574345201075630e+03
-2.016717670942807445e+03
-2.164823528756682208e+03
-2.402060095853578787e+03
-1.868576870983430126e+03
-1.292531118815033096e+03
-7.941070750476030753e+02
5.095554769403140654e+02
3.079282948454988400e+03
4.574848759906796658e+03
5.634034660293343222e+03
6.897718081440718379e+03
7.847591646882703571e+03
7.914439733150023130e+03
8.584016247329442194e+03
8.682165466074431606e+03
8.609776216607533570e+03
8.852688007153183207e+03
8.865724619640981473e+03
7.972709314700015057e+03
6.715488092386408425e+03
6.125818930057725083e+03
5.705530281641820693e+03
4.945533774787842049e+03
4.304673731898411461e+03
4.259831522394835702e+03
3.769836169888825225e+03
3.790596957401963209e+03
4.101016917218787967e+03
3.245055937199009804e+03
1.977546635599762567e+03
1.091384079540185439e+03
7.734806217946452307e+02
4.315859152279639943e+02
7.325976418644995647e+02
9.564601345597394584e+02
1.104128309628124271e+03
1.128553492950704367e+03
6.246004419483421088e+02
9.342315984423238433e+02
2.485042503609050755e+02
-4.676426568630937481e+02
-3.552673671871606302e+02
3.845222076437050873e+02
8.807191383554458071e+02
1.177454594663579883e+03
2.428711687180322315e+03
2.554463935326466526e+03
2.065754147673604621e+03
8.416068366936782468e+02
6.207380298450647160e+01
-1.817786186058573037e+02
-9.629043727328689783e+02
-1.751352008011917405e+03
-2.356033749190775325e+03
-2.183612972282429837e+03
-1.951844679136085915e+03
-1.938742608992949727e+03
-1.790284099363484074e+03
-2.904335207180906309e+03
-3.723945441526449486e+03
-2.543221294526026668e+03
-2.234815763301262905e+03
-2.503666217277675514e+03
-2.208685594069456783e+03
-2.043769647630729878e+03
-1.654664888468511435e+03
-1.599155115190827019e+03
-1.526042523040856850e+03
-1.623177724518848663e+03
-1.802451516107116277e+03
-1.909655426281736482e+03
-1.372530091103539007e+03
-1.129903325313842970e+03
-7.436173054274729566e+02
-4.374265676225288075e+02
-8.640405099159269184e+02
-1.349264157704239778e+03
-2.332817418377344893e+03
-3.326468280883436819e+03
-4.634004751089757519e+03
-6.060155844229494505e+03
-6.256619173844401303e+03
-6.249117100095962087e+03
-6.243460749241406120e+03
-6.787336449572454512e+03
-7.125481876502984051e+03
-7.396609013501661138e+03
-7.663312815841690281e+03
-7.700325176853383709e+03
-8.338388557815453169e+03
-1.020818033597650719e+04
-1.248943928410902299e+04
-1.384591590496884783e+04
-1.539427786491716870e+04
-1.712420700102645424e+04
-1.738745113052975648e+04
-1.826569982485389846e+04
-1.922466283261615172e+04
-1.946810422587251014e+04
-1.888667857316863228e+04
-1.928005760688160808e+04
-1.734692645352760883e+04
-1.335103340099772140e+04
-9.620103785142824563e+03
-6.786802849891313599e+03
-5.656772100817017417e+03
-5.120742131629557662e+03
-3.846363430496796809e+03
-1.510371986955746024e+03
1.067553590742423012e+03
4.189732777246537808e+03
7.064486104008346956e+03
6.195025733660351762e+03
5.235542805380149730e+03
6.796377475400116964e+03
7.712849721095689347e+03
7.885140662383369090e+03
9.165521245153615382e+03
9.478259823243304709e+03
8.653534980301561518e+03
8.367560636099591648e+03
8.440595884506383300e+03
7.927849867608050772e+03
7.146557937799932006e+03
7.025933609098368834e+03
7.083189130038171243e+03
7.685616969713586514e+03
7.681392899891404340e+03
7.129694434290347999e+03
6.210040146476244445e+03
5.802610408189349982e+03
5.037468617422934585e+03
4.111742437172856626e+03
4.188486781224089100e+03
5.499674675937003485e+03
5.070585197625250657e+03
4.087223965046512603e+03
3.940777636576519853e+03
3.778425544248673759e+03
3.406126649305233059e+03
3.640880014493367526e+03
4.196672526159653899e+03
4.855523472192489862e+03
6.238962251823269980e+03
7.408589181098714107e+03
8.255423340627567086e+03
9.968664583464549651e+03
1.115267126729049778e+04
1.170218391985243215e+04
1.221508016795182266e+04
1.288754594875802104e+04
1.329585974869067104e+04
1.329572326985261316e+04
1.311494023813517379e+04
1.279054780150571969e+04
1.236467243777529802e+04
1.214200009921437413e+04
1.186055648389200178e+04
1.127527030366140934e+04
1.068805280885186585e+04
1.009771915521867231e+04
9.354367872183514919e+03
9.179624324211496059e+03
8.877154020748244875e+03
8.084897693321236147e+03
7.780918068054404102e+03
7.965109568968460735e+03
7.929263584443304353e+03
7.298186462403961741e+03
6.494688893443250890e+03
6.246670614766832841e+03
5.660893684798067625e+03
5.764096144552864644e+03
5.708126689961593001e+03
4.759813592906891245e+03
2.021969364461460600e+03
2.933339232505138625e+03
3.722669324216044515e+03
1.068824918846099990e+03
-9.294306224531004545e+02
-3.570404281965322298e+03
-4.141443866508698193e+03
-3.707777560640804040e+03
-4.060619647593303853e+03
-4.585125337587296599e+03
-4.956549290788138933e+03
-5.395142360534018735e+03
-4.126118117194702791e+03
-5.798725341292851226e+03
-5.973209624859010546e+03
-6.467773363973958112e+03
-5.858590944832602872e+03
-7.328218008316142914e+03
-6.259926861367309357e+03
-6.921988241046119583e+03
-9.349663153320425408e+03
-7.738170676951480345e+03
-7.556851025433838913e+03
-1.018794130470515483e+04
-1.155365555324900379e+04
-1.292435357815001589e+04
-1.219839595142363214e+04
-1.097699368631764082e+04
-1.328341672986188678e+04
-1.078492388350423789e+04
-9.801777585283347435e+03
-8.896274038432282396e+03
-8.920628522668906953e+03
-8.461101031261016033e+03
-7.816938800828327658e+03
-8.033379463235656658e+03
-7.614733366302747527e+03
-8.719225114365684931e+03
-7.892135945692161840e+03
-8.045737854551510281e+03
-6.442204308109637168e+03
-5.510743960830414835e+03
-5.166593421827254133e+03
-5.153034678503173382e+03
-5.556263080150457426e+03
-5.928502827338211318e+03
-7.003038050179140555e+03
-7.444124931177290819e+03
-7.320939387996227197e+03
-7.337664620079826818e+03
-6.590419027154527612e+03
-5.853356204583826184e+03
-5.058720301088056658e+03
-4.520669516347164063e+03
-4.848307755966852710e+03
-4.876836871606431487e+03
-4.461375212532394471e+03
-4.323116061624663416e+03
-3.799185433980029302e+03
-3.505688213009591436e+03
-3.287706319915951099e+03
-3.006347815578433710e+03
-2.890722964564540689e+03
-3.250937781691474811e+03
-3.595151875408379510e+03
-3.298493016340619306e+03
-2.978082113774856225e+03
-2.408070681064833934e+03
-1.678568674856321877e+03
-1.458422921615219138e+03
-9.865115520551554482e+02
1.121202197628840338e+02
1.123337636931428051e+03
2.845248587762566331e+03
3.523876467253111969e+03
3.812374147221546991e+03
3.963539434829312540e+03
3.785335682227912457e+03
3.769815465072703319e+03
4.619992126370068945e+03
5.631783648736833129e+03
5.779180302533502072e+03
5.632392472011226346e+03
5.293286455564381868e+03
5.002744011290864364e+03
5.205915616794113703e+03
5.367879099584936739e+03
5.457623686060440377e+03
5.815134481708450039e+03
5.809362946309092877e+03
5.863496603409519594e+03
7.083709008036667910e+03
7.383880840226983310e+03
7.928045248676009578e+03
8.505365376770099829e+03
8.417884218089888236e+03
8.261748064131685169e+03
8.110063731381680554e+03
8.123852121981612072e+03
7.940259436629817174e+03
8.163488976878940775e+03
7.888677112608303105e+03
7.455850250119303382e+03
7.357099183169839307e+03
6.912597878092539759e+03
6.386443947368297813e+03
5.326738887402730143e+03
4.913662535277198913e+03
4.404314599003490002e+03
4.670847363478320403e+03
5.019512072975908268e+03
5.515516063789629698e+03
6.063022509549414281e+03
5.862136473889492663e+03
5.409002762758170320e+03
4.898713593995869815e+03
4.525385121719972631e+03
4.197062711330258026e+03
3.487856973627548996e+03
2.892944556634297442e+03
3.096412020452432444e+03
2.806449285348835474e+03
2.659285405530815751e+03
1.974007893672998762e+03
1.239650769275742505e+03
8.513595012027161602e+02
4.043657146962636943e+02
-1.962918456613591616e+02
-4.244062763868935804e+02
-5.738520113885555247e+02
-2.895424561782135129e+02
4.346504201559400826e+02
7.898360729637571467e+02
-5.878640724106581956e+02
-3.402280210521736535e+03
-4.436208937866739689e+03
-4.812565613441387541e+03
-5.077323235047632807e+03
-5.408462569179296224e+03
-5.125930534215097396e+03
-4.957512744119676427e+03
-4.172136184451973349e+03
-2.156868352146171674e+03
-1.807632600176824099e+03
-1.730242189362931185e+03
-2.485634627978520257e+03
-3.251685712627256635e+03
-3.049323486361228333e+03
-2.577520066205730473e+03
-2.128202151546727691e+03
-1.904261496918103603e+03
-1.472602499847368108e+03
-4.631523915472135400e+02
-2.738865060461660619e+02
-5.617312919208306994e+02
-9.347678545219553143e+02
-8.090041386766527012e+02
-9.313369619845428815e+02
-4.277172252606384859e+02
-7.610919791156121619e+02
-1.885400419304336992e+03
-2.759530674975828333e+03
-2.691481592968289533e+03
-2.280290545250360537e+03
-2.351916591331335894e+03
-2.768321436572563471e+03
-3.068418857070048034e+03
-3.377174628226370714e+03
-2.533668974252073895e+03
-1.968879070334985727e+03
-1.540808431972219296e+03
-1.307367235690172492e+03
-9.634068213374264360e+02
-7.588599073449662455e+02
-5.347637954077362110e+02
-2.451168831858412602e+02
5.510447039397622859e+01
2.408083867367100197e+02
2.889780132776120922e+02
-1.034197028494825759e+02
-3.534039478781269281e+02
-3.600714972736361688e+02
-1.174166001018193839e+02
-9.866104807342016159e+01
-5.841110918929915670e+02
-1.153871416874760371e+03
-1.623944753546313223e+03
-2.138278050017444457e+03
-1.833893234709238413e+03
-1.847906074757258011e+03
-1.662453791677841082e+03
-9.966340175706498030e+02
-1.795164716288208524e+02
6.478870851947514211e+02
4.078212881341573279e+02
2.062277744813395657e+02
4.288322496441334124e+02
4.976033171904197161e+02
1.251611312293249284e+03
1.984772804496006074e+03
1.972125989685798686e+03
1.708660661537252508e+03
1.174306886574151122e+03
9.530255907605330776e+02
1.058852891686916337e+03
4.737625835787576989e+02
-2.913373742563762789e+02
-1.894807534521940227e+02
-6.187122762622597065e+02
-2.978987620329403853e+03
-2.816278648265930315e+03
-1.701573727165893160e+03
-2.759204345773054001e+02
1.165744333817457346e+03
2.230437683053024102e+03
8.640873716201177785e+02
1.144551000422616653e+03
-4.110794633212493636e+02
-6.417611215171324375e+02
2.914338068329793145e+02
-9.784948970581666572e+02
-2.652911173067371919e+01
9.191722710163666079e+02
-1.130445409996881835e+03
3.085218738975009387e+02
-1.497986896038501300e+03
-3.127983838762408595e+03
-4.267448693633791663e+03
-2.810469265617023211e+03
-1.136017370953927866e+03
-1.593044785136750079e+03
-8.815332989641015047e+02
4.455325183173816299e+02
4.081897418025754405e+02
1.952454088358528907e+03
2.723142063321627688e+02
9.657940985839184123e+02
1.538235387409472992e+02
-5.996826734978513969e+02
-4.937105470004071321e+02
-1.131971137370684062e+02
-1.652056687553647407e+03
-1.212464018223211468e+02
-7.617653115114802631e+02
-9.336103479565357475e+02
-2.010741388557120217e+03
-1.870115057479172719e+03
-1.041782391555514096e+03
-8.687515512083811018e+02
-5.640527113015482428e+02
-5.316579308204539984e+02
-2.491435490825343990e+00
4.485066046002148710e+02
3.164119080202575560e+02
4.381739454577503921e+02
7.188160184817455729e+02
1.227419863613071584e+03
1.204102328398673535e+03
5.575080204809471525e+02
4.569618856169694823e+02
4.166595079398482540e+02
5.275275935295803720e+02
3.735469835369629550e+02
-2.562690594783717870e+02
-1.131809944923434614e+03
-1.217298237241175912e+03
-1.625737395766042255e+03
-2.050048992578133948e+03
-2.011104227922809514e+03
-1.863266085122304276e+03
-1.610278266352765968e+03
-9.990507392697334126e+02
-7.754416819338318945e-01
8.177192972008532479e+02
8.285129724063812091e+02
6.045129136325352874e+02
3.928222691614545283e+02
9.177582123340283715e+02
4.047501289101260795e+02
7.486988057433691779e+01
9.566817644938188323e+02
9.247180907049806819e+02
1.742801712577874298e+02
9.010064760818663387e+01
7.288784725400847719e+01
-5.896335836440325551e+00
-6.166510472994491465e+01
-2.343005267766327790e+02
-4.277234460696862470e+02
-5.661597809982627041e+02
-4.054396358763029298e+02
2.662715705831733999e+02
4.961438870848560896e+02
6.261656320890934921e+02
9.142120107415560142e+02
5.873963614219485407e+02
4.286185039967400598e+02
7.186944539574344617e+02
1.368844450852797081e+03
1.330985204073383329e+03
1.766079804641113697e+03
2.562131136568913007e+03
2.631122526669004856e+03
1.837128580905172839e+03
1.112054066617428134e+03
3.848850981945118974e+02
4.060115351653828952e+01
3.613763198968785417e+01
-3.925287898136869558e+02
-6.584178843502385234e+02
-2.354985273999677986e+02
1.612979798087017116e+02
1.041894960374213497e+03
1.575232435929693111e+03
1.596375764894688473e+03
1.464321371212206941e+03
1.502077828094091046e+03
1.540581879350307645e+03
1.487795459019533382e+03
1.609669913985439507e+03
1.458207171274668326e+03
1.577421338346262701e+03
1.269253435279034647e+03
-2.973744586175014319e+02
-3.123440460328060908e+03
-4.121976616124703469e+03
-4.366962211089462471e+03
-5.115367759869158363e+03
-5.271242943292380914e+03
-4.034619808525133976e+03
-4.208593779135393561e+03
-4.444048821280482116e+03
-3.865959008009940590e+03
-2.966322709735824446e+03
-2.065155283202125702e+03
-1.678539785474815744e+03
-1.696388529420670011e+03
-1.732781995012235939e+03
2.014909883833343542e+02
3.992542292444961731e+02
-1.779464502777957250e+03
-2.073567548869730672e+03
-1.787093819989579742e+03
-2.281122437414435353e+03
-2.809638522320874927e+03
-3.123614097257675894e+03
-2.416996360689947778e+03
-1.567996758998089604e+02
4.298683216352577574e+02
4.100455881127995212e+02
6.177185396225758041e+02
9.489363350124089038e+02
1.564774098338652266e+03
2.263263268432887344e+03
2.329458173871452800e+03
2.762440999925418964e+03
3.524165702421760216e+03
4.120603759292068389e+03
4.077856021135656192e+03
3.674903545999006838e+03
3.386727568440369396e+03
2.580376391105809489e+03
1.781876920285626511e+03
9.452659896298941931e+02
-4.647314353205277371e+01
-6.232493945649189300e+02
-1.028086061600430185e+03
-1.242988351296452947e+03
-9.599541200568767181e+02
-5.289934179630931794e+02
8.497670417760025430e+01
1.024050822708009946e+03
2.002333883794434087e+03
1.964861780917394299e+03
1.485575081271466843e+03
8.435552937170833729e+02
2.478162029019278805e+02
-8.647102230526708126e+02
-1.106983097078068795e+03
-1.183986014582368398e+03
-1.833673260687088941e+03
-2.515022679760482788e+03
-1.965026529495213254e+03
-1.200592490074973966e+03
-6.369027016863460489e+01
7.097041451038762716e+02
1.226301916264088163e+02
-2.749559568354191583e+02
-4.121397145988119632e+02
-1.234965499484588690e+03
-1.672179176795848889e+03
-8.206369062284054507e+02
8.305340652219695130e+02
2.021261244800220084e+03
2.198516802463287604e+03
1.992313365976894602e+03
1.934780139736205228e+03
1.671008591272888680e+03
1.416988005148935144e+03
2.077151866109551577e+02
-4.638508545789691766e+02
-9.227610665227123263e+02
-8.819720512048103274e+02
-4.964949468533928325e+02
-9.283057064303663992e+02
-1.353436559301357420e+03
-1.448008698755640125e+03
-1.188020285515140813e+03
-5.765004915760873700e+02
6.024037720846253023e+02
2.271776205662823031e+03
2.826688891948356286e+03
2.812103778780146968e+03
2.870026315404745674e+03
2.925531262098265415e+03
2.492563355078047607e+03
2.073232823492709940e+03
2.079577738635796777e+03
1.212511630457995807e+03
4.059058232231475927e+02
-8.430283875835939966e+01
-3.679692080443647342e+02
-3.460373948425292951e+02
1.674479500528487961e+02
-4.465330000766307421e+02
-1.027088307425773337e+03
-1.623207768845732744e+03
-1.834921744353022859e+03
-1.637253644793965123e+03
-1.364289852995819501e+03
-8.690148226967605751e+02
-6.304362305317818027e+02
-3.955632618987839919e+02
2.655637193940188467e+02
3.669548268194637330e+02
4.563594728457240990e+01
4.276190140994616513e+02
9.699110307911857944e+02
1.171464074580970419e+03
1.591237896964526954e+03
1.417170425771936607e+03
1.035267671603725375e+03
9.705451234207670268e+02
8.120086521999685374e+02
3.476592362062332313e+02
-3.485796333793041413e+02
-1.025696810478928228e+03
-1.853727573525826301e+03
-2.018699215863630343e+03
-1.348721808301318561e+03
-4.388314540756864517e+02
-6.989040680804480132e+01
-2.209515538303615756e+02
-8.220639720663721164e+02
-8.422360083944391818e+02
-2.004962621300978185e+02
7.301511818853010709e+02
8.027696600043304898e+02
7.113224452156670168e+02
7.887454106589020739e+02
1.071992277915299610e+03
9.330338971127878267e+02
3.938537155662589839e+02
-2.435890670988533486e+02
-6.531424198928497162e+02
-7.986948134911290254e+02
-9.592905050686983941e+02
-1.325255358083727060e+03
-1.807401976693594406e+03
-1.788936163614029510e+03
-1.655982703537325278e+03
-1.232491949162220862e+03
-8.702246691558410703e+02
-6.352126647331292588e+02
-2.842357520790449144e+02
1.543803835727416072e+02
9.105802776716233211e+02
2.090777205409688577e+03
2.198791448307018527e+03
2.251259887155583783e+03
1.413583392871924616e+03
7.471835950666340977e+02
-4.662677014790729046e+00
-6.255530437623822309e+02
-1.253654399171867226e+03
-1.762406876056867304e+03
-2.145756319973701920e+03
-2.246416984832558228e+03
-1.794748612813012414e+03
-8.216796088874627912e+02
2.368738921870190381e+02
1.172896040783671651e+03
2.462441366354978072e+03
2.825493748215071264e+03
2.117126051595300396e+03
1.185377645868001309e+03
3.332254110835557981e+02
2.097361480026939091e+02
3.928948472250585269e+02
1.533691405438104027e+02
2.843988948880664793e+02
7.077243616316078487e+02
1.047878051424605928e+03
1.006534449361367365e+03
1.247595822887265967e+03
7.492323022868114322e+02
-4.186661747713553723e+02
-1.390052564785521554e+03
-1.449959564837588232e+03
-1.082481198737130171e+03
-7.885635278003652502e+02
-3.921958705566089520e+02
1.642425886125463474e+00
-5.200959122890143362e+02
-2.675373492106474259e+03
-6.980941519536684154e+02
3.917988313427417211e+02
6.642621931991569681e+02
-7.997254289883006777e+02
-6.911773294827588643e+02
2.165885801121653458e+03
1.658545077840724161e+03
5.767847368539273702e+02
