-9.229251700590061773e+02
-6.254451285026691494e+02
-3.914877254942879858e+01
5.591655931372531541e+02
8.517089524445245843e+02
1.290668053803273324e+03
1.481992327431779131e+03
1.977765450093188747e+03
2.142998305077731857e+03
2.607511082096611972e+03
2.843141657510927416e+03
2.767320160348760510e+03
2.347397353525642757e+03
1.950190733552372421e+03
1.219787534269273920e+03
1.511323906085297267e+03
1.932747406146333788e+03
2.264078385050093402e+03
2.139301588469310900e+03
2.128499780148785703e+03
2.224741856992372959e+03
1.966025649364711853e+03
1.939446079064042351e+03
1.797238940847118101e+03
1.523140643965352638e+03
1.414213606156356718e+03
1.847541999520142554e+03
1.902174662884944155e+03
1.810114541474341877e+03
-4.615743220747002056e+02
-3.758689010741718448e+02
-1.318752904903968329e+03
-1.120918742469242879e+01
-1.700260002906090676e+03
-1.067830534195581777e+03
1.698062440144661878e+03
1.453396272724656455e+03
-6.057998384012141742e+02
1.504458489999310132e+03
1.705176384964441240e+03
1.562365180357257032e+03
1.766002421216509674e+03
1.732037667325406801e+03
-6.524934644676261541e+02
-3.286159686411072016e+02
1.099636033918591238e+03
1.096225335858671542e+03
1.123126326016972371e+03
8.882959270698664795e+02
7.496715344758625861e+02
7.832461999990375716e+02
7.649525289741617371e+02
3.227316805350226900e+02
-1.800445815971644151e+03
2.133823497942011045e+02
6.911382614833945581e+02
7.187255089202905083e+02
7.070517976974369958e+02
5.540900114458844428e+02
4.767911347032730305e+02
1.131059848685580818e+02
1.019954950705039920e+02
6.929384833082384887e+01
5.591773935468867762e+01
-1.112014032424999925e+02
-3.531596671452392684e+02
-2.496688817409505745e+01
-1.372813171487891459e+01
-1.225961977192043548e+02
-3.176450323818312427e+02
-4.829263039225089642e+02
-4.475863092068383935e+02
-3.065690915252666855e+02
-2.259934015976252510e+02
-1.920679204485054186e+02
-2.908427402411001026e+02
-2.132229426136032657e+02
1.845875332571483511e+02
1.273447095139592449e+02
6.288920834448667563e+01
-2.769229050231936640e+01
-1.155063558106566290e+02
-2.601767134184013685e+03
-1.495541397391569490e+03
-2.591117917830162014e+02
-1.262953452101229601e+01
-6.010500287565349709e+02
-7.404899407483754885e+02
-7.110580708564791621e+02
-1.694666173738400857e+03
-1.451764204730073516e+03
-5.623338869259465582e+02
-1.032484045091760663e+03
-3.274314304360838378e+03
-1.602920861214166734e+03
-6.132986601478718285e+02
-5.216544197412426911e+02
-6.200465383716303904e+02
-8.805745685321501242e+02
-1.010533610248213563e+03
-1.139706334679475503e+03
-1.174318557298896621e+03
-1.175514599835551962e+03
-1.035512447376798946e+03
-1.044284879939401208e+03
-7.308378694463978036e+02
-6.720722652351611259e+02
-8.243966865080502657e+02
-9.500089642039434921e+02
-1.145829416602092579e+03
-9.069573462979478791e+02
-9.502897227351513720e+02
-9.570966250518144989e+02
-8.584850364218749519e+02
-4.894934867717115594e+02
-2.841510572399394619e+02
-3.234861540150585597e+02
-2.314090274747408387e+02
-9.630221967459090138e+01
-3.708534478618203423e+01
2.582438008549207780e+02
4.276976732251803810e+02
4.151503839590374696e+02
4.394742351764195973e+02
4.936904875142692504e+02
3.058702739348005366e+02
3.539172865326463580e+02
3.007852805633581852e+02
3.444734085754060402e+02
1.359365825334926399e+02
1.521489398218661222e+02
1.250938273061776442e+02
2.088006275040482365e+02
2.792457775815205423e+02
-2.186005738645830832e+02
-2.791652160771058334e+03
-4.543939482517766919e+03
-3.745479784238806133e+03
-3.174236647797906244e+03
-2.401239358261105735e+03
-3.853478889370820525e+03
-1.082888760537208327e+03
4.305258822298806649e+02
-2.403238164342925302e+03
-2.770130366221169425e+03
-3.421121186460440526e+02
-1.845184876033175897e+03
-4.152936463149528663e+02
-1.982438203376902266e+03
-1.697559494679865793e+03
-2.516611680004555183e+03
-2.096612646651525665e+03
-1.926463083141913103e+03
-3.469129956251487329e+03
-4.755647398990859642e+02
-1.204720903184989083e+03
8.534378063081371693e+02
-1.092042747824535127e+03
1.389078727149630481e+02
-6.063717717637985771e+01
-4.376179573394382487e+02
-2.860042502508267717e+02
-4.907201789033165937e+02
-8.006864021274003562e+02
-7.018283501035064091e+02
-1.905086224989615175e+03
-1.326397733469456398e+03
-8.536737485297967396e+02
1.272123753958125008e+03
1.516150262548595038e+03
1.614471290980698313e+03
1.903099869711625161e+03
1.622126275248690945e+03
1.201661355363529765e+03
1.688788488401974746e+03
1.715589282861551510e+03
1.483101732415319020e+03
1.867438958568457792e+03
1.873690533045937173e+03
1.791926191866439694e+03
1.821206519838244503e+03
1.846676795930780600e+03
1.731405141942419505e+03
1.735452270883772371e+03
1.928906301441779306e+03
1.962825232245097141e+03
2.205271540546708820e+03
2.314331152912562175e+03
2.434042087592767984e+03
2.538422399107842921e+03
2.662497045447263190e+03
2.989675541727289328e+03
2.698972029879933416e+03
2.087463991332777823e+03
1.930236011877849933e+03
2.411351892407069045e+03
2.496999228016253255e+03
2.192356623201646016e+03
1.297657974109798033e+03
1.369748215375081600e+03
2.318427521129784054e+03
1.552601527623330412e+03
-6.394722632653329129e+02
1.102413289048154866e+03
2.276527394806820212e+03
2.391296873649836925e+03
2.336245461952777077e+03
2.466346353700908821e+03
2.481575096609343291e+03
2.221018320585520541e+03
1.962856264933507418e+03
2.178181000383433911e+03
2.263149164770471089e+03
2.316876854618811649e+03
2.140309044073605946e+03
2.132388009505678838e+03
1.978235544692956182e+03
1.804050838125103610e+03
1.574556603233859050e+03
1.598642892263324029e+03
1.407363131557973475e+03
1.401706696753114102e+03
1.536695766156031141e+03
1.332342206621074865e+03
1.211643947667045495e+03
9.576178793947813119e+02
7.463065662799706388e+02
7.207610131136432301e+02
8.199550255825846534e+02
6.468673093448995814e+02
7.895761308765910371e+02
1.029068627984895102e+03
1.024347449108345245e+03
1.197429575248100946e+03
1.148310577448638924e+03
8.560244187335151764e+02
9.375767403279422751e+02
1.070011533783759205e+03
1.181232239430770278e+03
1.112237986813716589e+03
1.031079594634685918e+03
6.247264172726952438e+02
4.641621002972948986e+02
3.643811209282908408e+02
4.463503334485462801e+02
4.781046310391751604e+02
4.736175146616815823e+02
5.788790819143415547e+02
4.468792061748854962e+02
8.436068330422167492e+02
8.370387159723484274e+02
9.081584873804462177e+02
8.698584164854978553e+02
4.661147634143753749e+02
-2.300645083004050093e+02
-1.350753143523382732e+03
-3.190014793743373502e+03
-6.225905864436450429e+03
-6.318474469302033867e+03
-6.377789429055540495e+03
-5.937902185801756787e+03
-5.869809132320137905e+03
-5.103567756339938569e+03
-1.995182521517428995e+03
8.803742368014676458e+02
-2.709126832293693496e+02
-4.980142990785224356e+03
-5.761445470513768669e+03
-5.450849087375752788e+03
-5.208343991050936893e+03
-4.168931866775445997e+03
-3.360830789980700928e+01
1.128488006396753008e+03
1.916322230765453696e+03
1.763828738018349441e+03
1.706025089713622265e+03
2.071878019111524281e+03
2.001328742693453933e+03
2.064363638780072961e+03
2.413945608829517369e+03
2.368108453674711654e+03
2.212769073208175996e+03
2.158858336862162560e+03
2.173275313399133665e+03
2.105032825776135269e+03
2.092103040918600072e+03
1.879696898894236710e+03
1.976651115806303096e+03
2.260026944659420678e+03
2.044580250286019464e+03
2.252469081423665557e+03
2.290520344171015495e+03
2.113518418389762246e+03
2.177638604103984562e+03
1.932018987554857631e+03
1.819366618832231325e+03
1.828801638964566791e+03
1.741320209599485679e+03
1.497864261844947578e+03
1.522453887378027730e+03
1.462263349973043660e+03
1.431121533713325562e+03
1.442873585806187748e+03
1.369615295802172341e+03
1.161368841558626627e+03
1.099163175285192210e+03
1.194024105301886948e+03
1.216965639131266698e+03
1.083995854423546234e+03
1.212129603913288975e+03
1.318514785564262411e+03
1.494863239923695573e+03
1.551246603552399620e+03
1.290763512191513655e+03
1.194410200574297050e+03
1.212084735903365527e+03
1.144729020574563265e+03
1.346502306792691797e+03
1.124541170356749035e+03
8.797235003913275477e+02
7.069685473222576775e+02
4.381917928273356324e+02
4.165200436571785758e+02
4.081523099782118607e+02
2.237965050852927789e+02
-2.648669763423798784e+01
-2.847471194654698934e+02
-1.194927213335847000e+03
-5.880817882876290241e+02
1.127351641923800685e+02
6.453876648425367080e+01
2.673646695771996065e+02
1.422919192598089069e+02
4.404063843245793919e+02
4.687397364015057519e+02
1.204540635561834705e+02
1.972343380164097582e+01
3.697340537736477017e+02
6.295951487460674798e+02
5.637042975596988299e+02
4.039876029108474995e+02
3.599885970885106978e+00
1.557391301601188331e+02
2.815970255531931343e+02
5.731494557784396449e+01
4.500865734362302817e+01
-6.613824728979979284e+01
2.248474544521153859e+02
1.429929396877809893e+02
1.754789831912885916e+02
3.155203987528071821e+02
8.485806085196124116e+01
-2.044324981833894128e+02
3.977719029062156864e+01
-6.744903919767892830e+01
-1.500720611135975275e+02
-3.680867804785683575e+02
-3.324734532055841782e+02
-1.472828946858573147e+02
4.945320387852421362e+01
-8.028102578813731327e+01
-9.645189641373137590e+01
4.359101052133188432e+02
1.197526471752477875e+02
1.095134348751839903e+00
1.879499959386375281e+02
1.953758812792694641e+02
-1.466250670433339565e+02
-8.899508627785728265e+01
1.522945948011615656e+02
-2.026999018400874206e+02
-1.180127000058198803e+02
-3.136312790669277888e+02
-4.495442322654891427e+02
-4.887011578874734710e+02
-4.560600702279963343e+02
-3.335285232266271009e+02
-1.420698332984930232e+02
-1.736489907239385673e+02
-1.931969428577483257e+02
-4.616805701578004459e+02
-1.090477103107931356e+02
-9.423405248149286706e+01
-3.662217515880778365e+02
-2.149522094183519698e+02
-2.884114029174596112e+02
-7.996101854928641615e+02
-9.996111735811975905e+02
-6.775039195855512162e+02
-9.791587790144054679e+02
-1.535237720253585849e+03
-1.493946394871440589e+03
-1.183160660456899450e+03
-1.462886604701338456e+03
-9.784292519763243945e+02
-4.079297706342110246e+02
-3.991303669290717266e+02
-2.286915515092378541e+02
-4.459579937650353259e+02
-2.950191714826399334e+02
-8.852255360863452438e+01
4.225313515578069712e+01
2.289984507356123800e+02
3.160782634617414715e+02
4.743465522436221136e+02
8.650168102922278877e+02
1.040897828009418163e+03
1.074062954856602119e+03
1.306486275369538134e+03
1.430913576681005679e+03
1.765672599229439129e+03
1.688250905682602934e+03
1.696631989470912231e+03
1.650781004244115820e+03
1.768004545351841216e+03
1.922015795328548165e+03
2.124899291044444908e+03
2.114707062336144190e+03
2.070286092771159474e+03
2.079527805179649476e+03
2.242440313301884089e+03
2.294835940681863576e+03
2.126699226806488696e+03
2.105971038776530804e+03
1.814680470990158028e+03
2.123827564668329160e+03
2.396299284710617485e+03
2.335834102012880976e+03
2.234355474674041943e+03
2.490833910530317553e+03
2.606230606899551276e+03
2.767404754246640096e+03
2.703350843354628978e+03
2.674029345560115416e+03
2.582345131462549944e+03
2.664253663244040581e+03
2.604706483223005307e+03
2.639647993117397164e+03
2.959981330327667820e+03
3.223682137411484291e+03
3.395675729114741443e+03
3.560901143010349642e+03
3.515319906426189846e+03
3.408814881159516972e+03
2.710354996550387568e+03
9.978653667303408383e+02
-2.562686208696721678e+03
-1.891348541149338416e+03
-1.721217602094636504e+03
-1.967306904110397909e+03
-2.253636947004274134e+03
-2.527327728156149533e+03
-2.077468243081007586e+03
-7.271066158655778509e+02
3.607150163551335140e+02
1.989730591367406589e+02
-2.563971324475703568e+02
-1.755557391781653678e+03
-3.166462522812873885e+03
-3.047029788018696308e+03
-1.774651005093753383e+03
4.366391270041499411e+02
-7.521209762568462338e+02
-1.854966046257416565e+03
-4.184033952760298234e+03
-4.818395479948557295e+03
-4.890068595678042584e+03
-4.862097239788124170e+03
-4.869592222990664595e+03
-5.010598555143337762e+03
-5.274179552683218390e+03
-5.403390436705540196e+03
-5.291328661646822184e+03
-3.128029017425722486e+03
-2.479527802438562958e+03
-5.590544915004267068e+01
9.587736766576808805e+02
1.447460105667086509e+03
1.542073501492486912e+03
1.502515710956024122e+03
1.251781286291620518e+03
8.528203519987232539e+02
4.685620629526292760e+02
2.319355125444390353e+02
-2.301275560038245374e+02
-5.166844117524152580e+02
-6.727864500168607265e+02
-1.047543649690402162e+03
-1.278004805189285662e+03
-1.369198891789863410e+03
-1.469231026888126507e+03
-1.732154365699444725e+03
-1.667980691666730991e+03
-1.505805775339513502e+03
-2.034677881639510360e+03
-2.533597967853549108e+03
-2.622644155909669735e+03
-2.781864664277091379e+03
-2.987292798768406101e+03
-3.243990557189606079e+03
-3.512977987732461315e+03
-3.730349208702845317e+03
-3.983127544442571434e+03
-4.084366380772717548e+03
-3.961149542905001454e+03
-3.528516561066363920e+03
-2.894571055894957681e+03
-2.020412278474608456e+03
-1.940103567338556331e+03
-1.914717613705571239e+03
-1.364989993188074322e+03
-1.066946509500690127e+03
-9.985916158176929684e+02
-1.113834123060403726e+03
-1.328652142376283791e+03
-1.654292737496576592e+03
-2.138785390379201999e+03
-2.426204935801014926e+03
-2.864578453862796778e+03
-3.184090423575550631e+03
-2.226092422399696261e+03
-9.646987189094248833e+02
1.721658745064070786e+02
1.249055660130261316e+02
-1.665312066311809929e+02
-3.414777918925937570e+02
-1.612304734001567681e+02
1.183875064860184239e+02
7.618804367883912221e+01
2.959508249058026195e+02
1.465625721611776555e+02
2.350088355110341070e+02
4.792200749538278046e+02
5.680934671690929463e+02
5.455783859978000692e+02
6.796132815288900701e+02
1.678082686429474961e+03
2.011949305919076096e+03
2.026178616793286665e+03
1.681704321483957074e+03
1.500418265323964533e+03
1.099254034097045178e+03
1.239149100223749429e+03
1.792041134901025089e+03
2.504836801407403073e+03
2.856444385334517847e+03
2.518825958415922742e+03
2.385880425904393633e+03
2.326530309442757243e+03
2.058747632520092793e+03
1.587441384842740490e+03
1.701586497489240628e+03
2.011135136712571693e+03
2.174970986338048078e+03
2.119060883595338055e+03
2.254342192202727347e+03
2.074727876866757470e+03
2.238187328846547643e+03
1.798627175838372978e+03
1.278986485311584829e+03
1.004228013621489026e+03
7.502884529237404649e+02
8.391410403192564900e+02
1.305681611012941858e+03
1.915851512603805759e+03
2.292590568020842966e+03
2.550853827361543608e+03
3.257592673301108789e+03
3.711766564168937748e+03
5.159324791172251935e+03
6.768236609728492112e+03
6.972475528558135011e+03
6.209974512626999967e+03
6.929706389324540396e+03
9.976648180337515441e+03
1.183979927967952244e+04
1.280710913389020789e+04
1.230956992645326318e+04
1.306218223354977818e+04
1.731788463618472451e+04
1.787767426548736694e+04
1.898554302837956493e+04
1.915747002219376736e+04
1.980050618469913752e+04
1.960055688947330782e+04
1.821866701051540804e+04
1.609392607090392448e+04
1.325733025338221341e+04
9.957767948130684090e+03
6.465293027886707932e+03
2.103873008501637287e+03
-2.432461689802571982e+03
-6.631658689102498101e+03
-1.029080521821759430e+04
-1.440389965411236881e+04
-1.800974731843814516e+04
-2.088402731417851464e+04
-2.287311060473584075e+04
-2.452151131927614188e+04
-2.593935071187043286e+04
-2.639186179665384770e+04
-2.619562360498438647e+04
-2.563474752500892646e+04
-2.509034498130308566e+04
-2.414204093520221068e+04
-2.280204691894280040e+04
-2.137622898588620592e+04
-1.995423747819120035e+04
-1.836618816539715044e+04
-1.625076887756557880e+04
-1.372914472751104040e+04
-1.103218594807954105e+04
-8.241764993734752352e+03
-5.204845723943941266e+03
-2.731369052794843356e+03
-7.259880679803314933e+02
1.084157270516080644e+03
3.067381300938556251e+03
4.923946731836145773e+03
5.662691886136302855e+03
6.006913278055690171e+03
5.997851432777362788e+03
6.111384132055818554e+03
6.202570570812146798e+03
6.302824841751640633e+03
6.333294515764567223e+03
6.798175811634397178e+03
6.759428136988922233e+03
6.287417623782083865e+03
5.090980400892775833e+03
3.954585050760172635e+03
2.707360100423498807e+03
1.932593851656118659e+03
1.346339591456525795e+03
5.966931594535626573e+02
4.381913154187640203e+01
-5.351169693604606437e+02
-8.429112377319099778e+02
-9.394275103533040010e+02
-8.724323356070045747e+02
-3.277272086574136551e+02
4.388167516885569057e+02
7.334432896338372529e+02
2.213745533738707252e+02
-2.001241259714226317e+03
-3.005225976871205603e+03
5.666527558419527395e+02
1.371621532662973777e+03
1.359782474283320880e+03
1.546362292376919186e+03
1.095637035773478232e+02
-3.850472554306430084e+03
-4.699556580593627586e+03
-3.364472221261227332e+03
-1.542072709032726380e+03
-1.137141901761705185e+03
-4.184844201676107787e+02
-1.033948499726562432e+03
-2.638334397058206832e+03
-3.455472840379847185e+03
-3.034176641408852902e+03
-2.484240906112875564e+03
-2.312539079652693545e+03
-1.972894752960406777e+03
-1.281108252432682661e+02
-1.233034197742871356e+03
4.805365186346994051e+02
1.089727404735164782e+03
-1.771277640406931823e+03
-2.066322827404559575e+03
-1.952232939120487345e+03
-1.920858170426813558e+03
-1.515031193344837675e+03
1.243692471855604111e+02
1.237517185951207011e+03
1.359560093733775602e+03
2.162624397712897462e+03
1.616867768715495913e+03
-2.275839396967840287e+02
-7.735880526369855943e+02
-2.260131157335944749e+02
3.600261652728599074e+03
5.949300825376652028e+03
5.890204529601434842e+03
5.840125632193693491e+03
5.576191670605934632e+03
5.294461003532890572e+03
4.812024998826665069e+03
4.569985998169226150e+03
4.266432047852562391e+03
4.130401151660017604e+03
3.857998951629935164e+03
3.618285456054666156e+03
3.554348699044819114e+03
2.997246887249384599e+03
2.693987350226883791e+03
2.275616340422850044e+03
2.040188346716821343e+03
1.980739953157751188e+03
1.418338589646269384e+03
1.091015055818314977e+03
5.668028833978643206e+02
3.858041764835406298e+02
4.471834395613362290e+02
3.705417730027986067e+02
3.261879958890554008e+02
4.222378151447553023e+02
1.446317730468813636e+02
2.176106914747176972e+02
1.959740902932678068e+02
2.327400580363310212e+01
-4.517117799806570133e+02
-7.565874465873815780e+01
1.476943210487572742e+02
1.224891854560456039e+02
1.863352578995925626e+02
-1.000999142723896540e+02
-2.381461895232760639e+02
7.339033458894088824e+01
7.229244753517733670e+02
6.962203812515999743e+02
4.422697904069640913e+02
4.238246056553610401e+02
6.036672437469616170e+02
6.648075344392821080e+02
8.983747146880665468e+02
1.170960883866173390e+03
1.342439154687062228e+03
1.203843874151304817e+03
1.225077754854714613e+03
1.548725116609929046e+03
1.559760800522977661e+03
1.784957799306087736e+03
1.973441520477876793e+03
2.112026179988278273e+03
1.915370981380747480e+03
2.066271465148643529e+03
2.458611291187862207e+03
2.597262881649100109e+03
2.592094317687183775e+03
2.635932718853912320e+03
2.880631269497302583e+03
2.992038579132400628e+03
2.742961395496178284e+03
2.735265469050161300e+03
2.915793003365875848e+03
2.686357441448555164e+03
2.218806067806394822e+03
1.952989201178402709e+03
1.432722446487220623e+03
9.707944562174743623e+02
1.202089926008154180e+03
9.785066522048715569e+02
7.668059346801543370e+02
3.778283792321807937e+02
-2.257600882765393635e+01
1.641968453188290766e+01
-2.923249725347431536e+02
-2.539916045175752402e+02
-2.047478922785141719e+02
-4.117803871801940545e+02
-7.162574341761993537e+02
-1.171390628812335081e+03
-2.818364524609866294e+03
-4.994377243321918286e+03
-8.235547710311346236e+03
-8.253034402402587148e+03
-8.378034449494012733e+03
-8.576708207056999527e+03
-7.950172853790016234e+03
-8.089561801757594367e+03
-8.148969981129191183e+03
-7.764551082613747894e+03
-6.842435084154359174e+03
-5.480737217406646778e+03
-4.578564128649595659e+03
-4.388035080561899122e+03
-4.267448981753138469e+03
-6.465911413318012819e+03
-7.426531669240552219e+03
-4.811389231864421163e+03
-4.176541172828598064e+03
-6.746142364204426485e+03
-5.384301461083552567e+03
-1.052148581993231801e+03
-2.897559537448981359e+02
-1.122018482537914252e+02
-8.555559060750671563e+01
-4.904722908253014602e+00
1.146305507709542297e+02
6.698468230704497728e+01
2.521025997390502198e+02
1.838950248010767723e+02
1.402476437882275206e+02
4.231519919758229094e+02
9.065854805069873237e+02
1.022534315652973419e+03
1.101956522197933737e+03
1.345814752512982068e+03
1.491041012143611169e+03
1.650600925024030857e+03
1.783447657413929846e+03
1.836564475471469905e+03
1.896006069709544136e+03
1.661750151569616264e+03
1.658792593227393127e+03
1.545119297088089979e+03
1.609800216080933751e+03
2.045805087187089157e+03
1.970133142650853870e+03
2.199776021461876553e+03
2.273780734500804556e+03
2.277164453364954170e+03
2.631978278215097362e+03
2.624226872848499625e+03
2.635011199479220977e+03
2.849403583035104930e+03
2.834450282124804289e+03
3.369167826325294300e+03
3.514573166044156096e+03
3.553712580061686822e+03
3.275611093424497540e+03
3.279330795619131550e+03
3.278940222225098296e+03
3.477442034943890121e+03
3.528930961493427731e+03
3.360404239091729323e+03
3.467875342647478192e+03
3.287507054265519855e+03
3.062456089041155792e+03
3.240688202974634805e+03
3.418006643156347764e+03
3.212504793138286459e+03
3.220370541466532814e+03
3.396012807289684588e+03
3.251560435808679358e+03
3.284978988474905691e+03
3.187256430035260109e+03
2.774413384009267702e+03
3.025548112432986727e+03
1.097665212760337226e+03
9.732415754747727306e+02
2.417330779546435224e+03
3.409131643128159340e+03
3.245846035554573518e+03
3.297654876210356633e+03
3.177794860669192076e+03
2.935490254731682398e+03
2.580960374078562836e+03
6.523749896866326026e+02
-1.742140327828157069e+03
-2.526390140100603276e+03
2.647893074393110169e+02
-2.375490276673367589e+03
3.148229022519452656e+02
1.881836301056828461e+03
-3.093187950935284221e+02
1.792393498910408198e+03
2.182976684536462017e+03
-5.750594711258526104e+01
2.035045155312156112e+03
1.436160120609132207e+02
-1.372771647475359941e+03
7.558798206468466105e+02
1.005559154091893532e+02
2.395269029748926187e+03
2.174012778636434177e+03
1.990738966516982373e+03
2.148419943926563974e+03
1.137042136886996559e+03
-6.574374622502724606e+02
6.680446769202342239e+02
-1.341467671329748100e+03
-1.471937681183900395e+03
5.046475443976629549e+02
-5.016889414450162121e+02
-3.218303822045063498e+02
1.634385930407875776e+03
6.930065829220534397e+02
-1.936907277176664138e+03
-1.850299293322887934e+03
-1.346096812201646344e+03
2.237849908302715392e+02
-1.325644640955548084e+03
2.077521719628007304e+02
-2.936947243671971137e+03
-2.506629153064863658e+03
-2.424225572554176779e+03
-4.626543201153052678e+02
4.901091046472580501e+02
7.311030043507414575e+02
6.714214167502645978e+02
4.410911596455442236e+02
1.901313674042540356e+02
-6.042335199299885318e+01
4.146015523757545651e+01
2.583915052908661636e+01
-3.563235689510366910e+02
-2.520201708535933847e+02
-1.952120300557045880e+02
-4.638177522819966043e+02
-3.546351577270811504e+02
-2.967427222048153794e+02
-1.056285959367336318e+02
-5.529506443605463346e+02
-2.374481807184632203e+02
-3.242000717135784384e+02
-2.650940741492890425e+02
6.190202350078778437e+01
3.119319125660218219e+02
2.128222608138008809e+02
2.739220756077126495e+01
3.015230106556952592e+02
2.475668414332131704e+02
3.376950252923089124e+02
3.306610407937117770e+02
2.954043528292968972e+02
7.010044520021904191e+02
7.784407310145313659e+02
6.797412128405227350e+02
7.137517298253766285e+02
7.024674482874057730e+02
1.040922432191123789e+03
1.137997305498450260e+03
1.066633750291017350e+03
9.232745380364548282e+02
8.588021022310168746e+02
8.307959675579047598e+02
1.041496221881636075e+03
9.559327178702903893e+02
9.876576911536443504e+02
9.998615830278731664e+02
8.337561420598569839e+02
1.099908969770991234e+03
1.219729901880813941e+03
1.281140053791229093e+03
1.576211721458003240e+03
1.582620360822664679e+03
1.498999590253992892e+03
1.240232515589128298e+03
1.201767144225875882e+03
1.423508776694948892e+03
1.539357595634588279e+03
1.535286978006560730e+03
1.810293024801594356e+03
1.972340425563025747e+03
1.591420169038590529e+03
1.462505232161805907e+03
1.350546762594762413e+03
1.394549790636170201e+03
1.543451758281526509e+03
1.432281018531196878e+03
1.276042946870313926e+03
1.196704625784631844e+03
1.113218217802263780e+03
1.292538379954093216e+03
1.485716178145057938e+03
1.109700365389174294e+03
3.614816090021934656e+02
-1.253990985830022055e+03
-4.892781650100366278e+03
-5.505936518036578491e+03
-5.000481051660451158e+03
-5.180449514303004435e+03
-1.655869394620450748e+03
1.201207155409303823e+03
6.771706028285524326e+01
-4.107451237294030761e+03
-5.469991007689533944e+03
-3.165076447614257631e+03
1.188211307177402659e+03
1.599830380163911968e+03
-2.692720998380374340e+02
-5.043113742471933620e+03
-5.737709747514266382e+03
-3.156125294092540571e+03
-2.339434093213536471e+03
-2.046602166251876497e+03
-2.466651092738291027e+03
-4.253636197994950635e+03
-4.828617764992392949e+03
-2.133630935452680205e+03
-3.194694517537577667e+03
-4.958840629225223893e+03
-4.901123406977173545e+03
-4.177545486537407669e+03
-4.812151959645678289e+03
-5.419989272348666418e+03
-5.115037426556021273e+03
-1.969343353137054009e+03
1.053018370467139221e+03
1.691025869180645714e+03
1.505666423344358464e+03
1.449909619847592012e+03
1.452718648006857165e+03
1.673098917919444375e+03
1.784989496383969481e+03
1.733380026055915096e+03
1.886221060363890729e+03
1.708521199333634740e+03
1.582243282646091984e+03
1.603377367084752677e+03
1.447877594755897235e+03
1.428754723077141762e+03
1.443017263877596406e+03
1.588629313911443887e+03
1.315591992339384433e+03
9.238611295647253883e+02
1.306382426904297972e+03
1.187181849936732760e+03
1.087239065177080420e+03
1.158510325791042533e+03
1.086012059142962244e+03
1.338686738747503114e+03
1.477539735023800404e+03
1.566517918715505402e+03
1.530601477275044317e+03
1.725787965408996797e+03
1.740070366569822227e+03
1.846411594561469656e+03
1.953911358736667125e+03
1.927610710859114533e+03
1.830650271247943238e+03
1.772754021683154178e+03
1.418902694719683950e+03
1.228967975757635713e+03
9.608447178187434474e+02
1.173494768218419949e+03
1.058173402136724690e+03
7.278619880391883044e+02
7.075117976908701394e+02
7.799666112599588814e+02
1.048186170650098347e+03
4.092053960286232837e+02
5.090229277949619586e+02
9.887966664774138508e+02
9.244601236975258871e+02
1.290702351896386517e+03
1.111603494214994953e+03
1.195407830307317226e+03
1.016840593344812419e+03
7.705582945854116588e+02
9.467694365295352554e+02
1.000319988317813568e+03
1.241139828226260306e+03
1.144191261424978848e+03
9.914409580305854206e+02
8.638751155078026613e+02
5.104823669733185625e+02
3.922452360116015484e+02
3.441352367348075632e+02
3.551026224449882420e+02
3.581144617098569256e+02
4.401659674675514111e+02
1.792393129044444606e+02
-1.237112563088809480e+02
-5.472855854669164444e+01
4.021509741951317807e+01
-8.691103125603498825e+01
-5.210296046895016531e+01
-5.438047814850748551e+01
-7.751557484754607152e+00
-4.542264169480386045e+02
-4.187991608191861133e+02
-3.325222557336488762e+02
-1.344311705392510135e+02
-3.504847520658994995e+02
-4.897408521496105323e+02
-5.622230218871818579e+02
-7.059400363739310933e+02
-9.258879185454276239e+02
-1.005028956716141124e+03
-8.784252408824978602e+02
-5.180666910871100299e+02
-5.579528310230231227e+02
-7.361221577072245736e+02
-5.605403287241633734e+02
-4.792292105473113679e+02
-4.701384960502890635e+02
-4.293069271246400831e+02
-6.667263972436452377e+02
-7.294084714945674932e+02
-5.073093637046220010e+02
-5.054389805164278755e+02
-6.218081275167925241e+02
-8.793736117991347783e+02
-1.285100844138223920e+03
-2.784029340829592456e+03
-5.346165243012910651e+03
-7.946476999251557572e+03
-8.389974244119650393e+03
-7.103630034461045398e+03
-2.679406882446336112e+03
-2.175347897970176746e+03
-1.914367901142973324e+03
-2.615444007196570510e+03
-4.437595740354383452e+03
-2.320672161624677301e+03
-2.039714759008833198e+03
-1.784839003604411801e+03
-1.694045434729976478e+03
-2.002229119659086336e+03
-1.770373173488546627e+03
-1.928454007504560650e+03
-1.990466262695019850e+03
-2.004371242709060425e+03
-2.199970415261052494e+03
-2.688171373304018744e+03
-2.869080765280137257e+03
-2.929977008726505574e+03
-3.257413806039109659e+03
-3.514798394992172234e+03
-3.334061126953969051e+03
-2.931847744420412710e+03
-2.810504044766415518e+03
-2.317880619283180295e+03
-1.164732970718490378e+03
-2.624197118020151720e+02
9.744239416737699457e+02
2.033811531957096804e+03
2.610441436613044061e+03
3.193576506752988735e+03
4.042976979674112954e+03
4.634838042806068188e+03
5.024159511639514676e+03
5.306928831174576771e+03
5.242258737794508306e+03
5.318286337171772175e+03
5.236751094790676689e+03
5.062955258967650479e+03
4.837782703255040360e+03
4.359097597539470371e+03
3.609124437573309478e+03
3.797745233121833280e+03
3.440826739183140489e+03
3.120591352275794179e+03
2.644232514007353984e+03
2.257580161401738678e+03
2.087580082494669568e+03
1.737132458151825404e+03
1.986467815255673031e+03
2.084365480641855356e+03
2.043198329718796231e+03
1.978713193472234025e+03
1.924926972725693076e+03
1.792715246505677669e+03
1.569093697454447465e+03
1.682083581667808403e+03
1.691689271808771309e+03
1.253947085698048795e+03
8.708977904321018286e+02
5.695053836103011236e+02
7.607358699117692140e+02
6.816100137495162699e+02
7.521252386879867800e+02
6.582684002722747891e+02
4.270208539265888135e+02
4.123827888470648304e+02
-1.386781758883447537e+02
-2.686148081908865151e+03
-3.728095232466382640e+03
-2.302478710501240130e+03
-1.582359425326264272e+03
-1.233727177167740820e+03
-4.187672503885328297e+03
-3.179236617311620648e+03
-1.922147000080911766e+03
-1.975603911555388322e+03
-5.146634105134856327e+03
-3.576316236613133697e+03
-5.256135731023571225e+02
-1.647536631458121519e+03
-3.412122375249884044e+03
-3.093406302143579069e+03
-2.590429693524384220e+03
-1.726221416934708031e+03
-2.470814430016214374e+03
-1.291208061926314940e+03
-2.364464095715722578e+03
-2.008599066281927890e+03
-3.134600161153768568e+03
-2.179510663573586498e+03
4.365966399845232360e+01
-2.568121471580968318e+03
-2.209881715846690895e+03
-5.056908587511848054e+02
-2.872555193846276325e+03
-3.020470946596862177e+03
-7.204801011253663319e+02
-2.875634083594532967e+03
-7.989612412687818050e+02
-7.654702142576981032e+02
1.865833005194969928e+03
2.163871361886447175e+03
1.988665173892809889e+03
-3.337991048532763330e+02
1.227436335781466141e+03
2.242319721845234199e+03
2.194840142704880236e+03
2.044987458175547317e+03
