-4.713821742205905139e+02
-1.258340812419904751e+03
-1.500523493171638393e+03
-2.084161725596787164e+03
-2.904387874473679403e+03
-3.168335997962287365e+03
-3.218161033567236245e+03
-3.113973815387440936e+03
-3.096957321582867735e+03
-3.271213655481653404e+03
-4.985821688277594149e+03
-7.870847679078696274e+03
-5.264352824989116925e+03
-5.249407835530229022e+03
-1.879076031864110746e+03
1.208528347343197538e+03
2.197387061323670423e+03
2.955366883764215800e+03
2.333331856278258329e+03
2.343316149372671134e+03
2.393312801928463614e+03
1.814202470171879213e+03
1.192894392176133579e+03
5.272086895639788509e+02
-2.269643291500736950e+02
-8.576763076768122573e+02
-1.465007873784034473e+03
-1.980075205087170389e+03
-1.703940371482825412e+03
-1.304623824214246270e+03
-3.991409329640000010e+02
6.294775633382212163e+02
1.131266819742310872e+03
1.619292747339978405e+03
1.914507476872418465e+03
2.424967622994891826e+03
3.203690032348220029e+03
4.112683356265565635e+03
4.093899574405966632e+03
3.982255658756085268e+03
3.473826347872044607e+03
3.288627804969673889e+03
2.930613672166944070e+03
2.532739623643614777e+03
2.187955038754809266e+03
1.887311528144742169e+03
1.539710682217091971e+03
1.408166572742287372e+03
1.022659662941658553e+03
1.098216665307423909e+03
1.573846759442409848e+03
2.104609115396237939e+03
2.461577487130988175e+03
2.569806983512517490e+03
2.953368015889995604e+03
3.286323341598625120e+03
3.564746041201194657e+03
4.228774787161220047e+03
4.650458130763203371e+03
4.744787603918853165e+03
4.233820134129355210e+03
3.192652889028388017e+03
2.556283530957383391e+03
1.953794587642781607e+03
7.901815470966489556e+02
-2.754253015837880270e+01
-7.623174332988452306e+02
-5.180123023487851697e+02
-3.966125607268460840e+02
-6.020317251161711738e+02
2.138623902508712717e+02
1.404181269935040518e+03
2.261019316238026931e+03
3.085462486539015117e+03
3.914598612069980845e+03
4.485584100823090921e+03
5.116602460593443539e+03
6.015818172707711710e+03
6.421325498348646761e+03
6.473161984939798458e+03
6.505385031082761998e+03
5.632108242419958515e+03
4.684482415142024365e+03
3.443602994885649878e+03
5.574156693874236908e+02
-3.983893592613682358e+03
-6.876199939249996532e+03
-6.730474529168912341e+03
-6.353557661965928673e+03
-6.542335466989135966e+03
-6.244620929121321751e+03
-5.671250195298348444e+03
-5.070070659534069819e+03
-4.584967795873922114e+03
-3.869724435091252417e+03
-2.723185339499174916e+03
-2.276255580467938216e+03
-1.824777070258673120e+03
-1.322670640831066748e+03
1.307308459431151505e+03
3.344320390187097018e+02
-3.433280648327731797e+03
-3.946818117277902729e+03
-4.408121905784193586e+03
-5.154056117131635801e+03
-2.085548132314163468e+03
2.161508191645914849e+03
-6.087531234444879829e+02
-5.451226621577137848e+03
-5.586803027500346616e+03
-5.208350844511793184e+03
-4.755771407181909126e+03
-3.899965681491156374e+03
-3.698723036631471132e+03
-3.491947175159550625e+03
-2.166514376382750470e+03
2.429804655265040310e+03
1.880131853066431859e+03
1.375617338453172351e+03
4.151365329967457910e+03
4.421503677135904582e+03
4.353157616222714751e+03
3.835397266162962296e+03
2.817289459066986183e+03
1.716951114121186265e+03
9.624549017796961152e+02
7.588714457103857285e+02
7.183472388769381496e+02
7.298180597303799004e+02
7.673698360627444117e+02
1.014076631387914745e+03
1.230144078294081055e+03
1.925717774892664920e+03
2.722831454704488806e+03
3.240706083655904877e+03
3.932579683153156566e+03
4.456584503289685017e+03
4.475530844165486087e+03
4.339549025957873710e+03
4.298052245853603381e+03
3.897092517824522020e+03
3.048742853379244480e+03
2.254951987962901512e+03
1.222734914836810049e+03
1.481490027264840137e+02
-9.888006950346459689e+02
-1.968083775595839370e+03
-1.377577659073014502e+03
-1.481349659779388730e+03
-1.558468768255708710e+03
-8.229472319712876924e+02
-2.412318231366350005e+02
1.515325541431273280e+02
5.301062999318266975e+02
1.214697837221805457e+03
2.132403319122227003e+03
2.909369927771430412e+03
3.150561857785930442e+03
3.250756485521651939e+03
3.210982968356338461e+03
2.608609539203361237e+03
1.904626973716758584e+03
7.028782017362949546e+02
-3.360267968744097971e+02
-1.478569183433367243e+03
-2.152162645580678145e+03
-2.579455175093337402e+03
-2.853762080150200291e+03
-3.154585958139912236e+03
-2.709846368176577926e+03
-2.259949111526125762e+03
-2.131008853956845087e+03
-1.604237556471651715e+03
-1.019706980342705720e+03
-6.424105329157270035e+02
-4.523262929706224327e+02
2.356249059496434128e+01
4.322405852588389052e+02
4.176442126283028529e+02
1.048242132621308116e+02
7.677765816253501896e+01
-1.935965520260835149e+02
-3.223675062225958072e+02
-3.505669133201088243e+02
-9.172778172615368248e+02
-1.709612016096754360e+03
-2.037660877725822729e+03
-2.310446570891139345e+03
-2.282076781836511145e+03
-1.873571565495544064e+03
-1.483870708100867887e+03
-1.227968256038089521e+03
-1.075070281228034446e+03
-3.832016875297358638e+02
5.405829238593495347e+02
1.189135735243742147e+03
1.662469369838983539e+03
2.010570879267738292e+03
2.184300367998261208e+03
1.570612216628532224e+03
-2.685778391853810945e+02
-3.522358483217690264e+03
-7.738900060828489586e+03
-8.490278326276737062e+03
-9.443626824587447118e+03
-9.691138594621457742e+03
-9.696901148862623813e+03
-8.235012157802380898e+03
-2.964653897742007757e+03
-2.748916962575285652e+03
-7.259906826122823077e+03
-8.162804802395429761e+03
-7.175206634081514494e+03
-6.688538614740336016e+03
-5.084887300944347771e+03
2.927054514571045161e+02
7.650629689509702303e+02
-2.735932805688456028e+03
-1.509418604726891544e+03
3.183486646120114983e+03
5.104610441929544322e+03
5.140952375941309583e+03
4.907323121142524542e+03
3.868449714809375564e+03
3.192192815266133039e+03
2.473416164364964061e+03
1.562909064461677644e+03
1.404518987315013419e+03
9.210992386987611553e+02
7.585156684489037389e+02
8.106646778359386190e+02
1.233434176519650237e+03
2.237708288394142983e+03
2.991402281097122341e+03
3.918405188602760063e+03
5.025568894147590981e+03
5.387802729274961166e+03
5.206053411800332469e+03
5.443160196644866119e+03
4.916932379030482480e+03
4.935364254715770585e+03
4.858417077672799678e+03
4.142785152553067746e+03
3.269314677927176490e+03
2.187771774261998871e+03
1.420929005626255048e+03
9.326992843783542639e+02
4.609735077378011283e+02
2.817129701612778945e+02
2.947829492404436564e+02
4.402402671983272597e+01
4.504309196554708592e+02
1.130925431022294561e+03
1.728389797181217318e+03
2.260784681409868881e+03
2.725093559632222878e+03
3.128249069391815738e+03
3.449286607089108657e+03
3.672131066604649277e+03
3.417661174579346152e+03
2.867858820038655722e+03
2.626707801979498981e+03
1.759121260598301888e+03
1.005975618120522086e+03
-1.883210159765851088e+01
-1.188338972324379711e+03
-2.132628249167692047e+03
-2.719604508486559098e+03
-2.988227260755231327e+03
-2.765047689910946701e+03
-2.908637464482860651e+03
-3.152014478574589248e+03
-2.477056377770964900e+03
-2.295017669585234671e+03
-2.784962802799896963e+03
-3.110719394726449991e+03
-1.511434789654814949e+03
-6.431314070507769429e+02
1.432620371679254276e+02
2.767080909327843301e+02
-2.197385611292158956e+02
-5.581083301666837997e+02
-1.153450792253285954e+03
-2.522759965094077870e+03
-3.938017381756202667e+03
-5.169368229920836711e+03
-6.505817060708061035e+03
-8.137463527786341729e+03
-8.894266860665915374e+03
-9.047169052326538804e+03
-9.039206414032985776e+03
-8.674266337459099304e+03
-7.849204117132084320e+03
-6.215016286726834551e+03
-5.034759010746382046e+03
-4.770305563050800629e+03
-4.554596905025487104e+03
-3.825587326540746290e+03
-2.909275232426477032e+03
-2.556632083569785664e+03
-2.703597742713182015e+03
-2.340189434408585385e+03
-2.583424016304250472e+03
-2.954287951966154651e+03
-3.904761548727304671e+03
-4.685799679783648571e+03
-5.305381926543590453e+03
-5.738510728863099757e+03
-5.962203882200330554e+03
-6.271400888382935591e+03
-6.147031594103665157e+03
-5.609018373804612565e+03
-4.932283677922656352e+03
-3.674762250557420884e+03
-2.632424789118168519e+03
-1.973250177492455578e+03
-1.015157649380066459e+03
-2.303095129988112788e+01
1.952205311682381534e+02
1.141654667372055201e+03
1.286270484907827267e+03
8.022022511462108696e+02
1.364381611965605714e+02
-1.000668094795051672e+02
-7.183476978105308035e+02
-1.190384169135056027e+03
-1.742072741755114521e+03
-2.111419148225358185e+03
-1.910459778857770061e+03
-1.269135170113065215e+03
-1.195408652036272997e+03
-8.541907885968363416e+02
-4.395403914794774991e+00
1.918013754666295426e+03
3.784062950934086530e+03
5.040866696962355491e+03
5.460536718606189424e+03
5.597108809674533404e+03
5.952658613910582972e+03
6.398218747638594323e+03
5.956765222505054226e+03
5.652487472853332292e+03
5.323783673499173346e+03
4.450929083765194264e+03
3.855705621614441952e+03
2.758224605005578724e+03
2.060649259708121008e+03
1.652988656197367618e+03
1.304109874185310673e+03
8.326938524969837090e+02
1.217377022360999263e+03
1.913896828811870591e+03
2.396116161957839722e+03
3.178966368474676074e+03
2.694442813235725680e+03
2.997620847709230475e+03
5.355963729601877276e+03
7.223487957608524994e+03
7.717588432594707228e+03
7.874999947289991724e+03
7.872608005569560191e+03
7.627285615365400190e+03
7.053693598613945142e+03
6.574731250114946306e+03
6.331482367990701277e+03
5.815652616746169770e+03
5.387001079169908735e+03
4.801624562430210972e+03
4.210419980095706705e+03
4.198215187765727023e+03
3.823019899197392988e+03
3.425698113335327434e+03
3.810117492872616367e+03
4.419742603062356466e+03
5.057440331824507666e+03
5.525267091708854423e+03
5.840893773592567413e+03
6.193285225435852226e+03
6.479260567713704404e+03
6.441743011049305096e+03
6.325547144331681920e+03
5.743541420990931329e+03
5.281522408197578443e+03
5.943333651090386411e+03
5.082868378841754748e+03
4.338023230575839989e+03
2.905656042759677348e+03
2.448605385005927928e+03
3.010807629990983969e+03
2.737152198303578643e+03
2.838524860771298336e+03
2.927895861500243882e+03
1.329113949037241355e+03
-1.487890884086637698e+03
-3.880085761094509053e+03
-2.815525003159254993e+03
-2.090257758513496356e+03
-1.680292844143064713e+03
-1.498672203397195517e+03
-1.652437138418154518e+03
-1.669527113267010463e+03
-2.434948742669268995e+03
-2.794678384542673939e+03
-2.505622428739201041e+03
-3.592943732540788005e+03
-5.146483972840001115e+03
-6.172197038958979647e+03
-5.356020683669780738e+03
-5.120802859934945445e+03
-8.346397619663428486e+03
-9.231674075480248575e+03
-9.508488902835548288e+03
-8.360677118153125775e+03
-1.800078805340517647e+03
-3.824764689328446252e+02
-5.895655724912450751e+03
-8.097393075104540003e+03
-7.483454120114508441e+03
-7.745598712492231243e+03
-7.516521743593534666e+03
-6.756976045567273104e+03
-1.673701734033408911e+03
1.495401884207831813e+02
-1.126013262243531472e+03
-3.959131637736914854e+03
-7.371566999196141296e+03
-4.761159781238407049e+03
-3.111554412572482306e+03
-2.836370111177657691e+03
-3.274300052288858751e+03
-3.325034734910339466e+03
-3.752214705058525851e+03
-3.424454778413618442e+03
-3.210366318949020751e+03
-3.608550150439709796e+03
-2.939561680174927460e+03
-2.272984183090824899e+03
-2.296532083340649478e+03
-2.792770281322815208e+03
-3.042301862214333141e+03
-3.280760109451198787e+03
-4.267772748392992980e+03
-5.672888176205473428e+03
-6.926777688750248672e+03
-8.511133223284114138e+03
-9.887617677509682835e+03
-1.016190792310793586e+04
-9.386668189395353693e+03
-9.862556709331405727e+03
-9.798197073629133229e+03
-9.206316903176177220e+03
-9.284608688381369575e+03
-8.684601698177784783e+03
-8.066880098883158098e+03
-7.235133201641217056e+03
-6.363088421682511580e+03
-5.789424433806670095e+03
-5.168729006735041366e+03
-4.765398861158007094e+03
-4.012817310598518816e+03
-3.450950614000998030e+03
-3.842470392806352720e+03
-4.344204166154811901e+03
-4.410973076915485763e+03
-5.294762509326996224e+03
-6.163520445414272217e+03
-7.341761698705375238e+03
-1.032247060379304821e+04
-9.661644538181973985e+03
-8.227979581417042937e+03
-6.928312714433866859e+03
-5.370527661173945489e+03
-4.008763557748456606e+03
-2.495399585688932802e+03
-1.040300727818900214e+03
-1.407500300260620918e+02
7.683381128274509138e+02
2.543314325848083627e+03
4.141157403757222710e+03
4.608735348880576566e+03
4.924412760364624774e+03
5.136017055883161447e+03
4.435500231234163039e+03
3.656930710336231186e+03
3.256264061005840631e+03
2.718530864380166804e+03
2.132668042116692504e+03
2.065629608941738752e+03
2.283408400103843633e+03
2.935875582360272801e+03
4.015933946959788500e+03
4.675509936940877196e+03
5.362561953497626746e+03
7.010997501510076290e+03
8.457743979832310288e+03
8.948673094726478666e+03
1.066573930798467154e+04
1.386174972408594658e+04
1.508454235102629900e+04
1.625902241276391214e+04
1.665703519449339728e+04
1.517239485586768023e+04
1.397088584857686510e+04
1.331423531638739223e+04
1.316318239077382714e+04
1.242240152878690060e+04
1.095364541019145690e+04
1.067667757128345329e+04
1.024418157782728304e+04
9.448839316948125997e+03
8.928339293414890562e+03
8.776392024452708938e+03
8.697755895093672734e+03
9.342147382760496839e+03
9.681214595149602246e+03
9.776617376001673620e+03
1.005312819786105865e+04
1.058947050473476702e+04
1.134524710211305865e+04
1.152914179427862837e+04
1.121582384806912341e+04
1.091495874073442246e+04
9.734163721112721760e+03
8.184076344036174305e+03
5.306294214203715455e+03
2.083534689319261304e+02
-2.229143563240372259e+03
-9.075440269659327441e+02
3.620731415196670241e+03
4.255270429679602785e+03
4.381765720367745416e+03
5.743937472846809214e+03
6.154505400198542702e+03
6.560896736732699537e+03
7.455781762580246323e+03
7.922817568674817267e+03
9.155682062805617534e+03
1.003407922577609133e+04
1.039364183517218589e+04
1.078202882963899174e+04
1.146592328922779598e+04
1.102502263572731135e+04
1.053605770981540627e+04
9.072714193716448790e+03
8.027676811964097396e+03
6.928621233755591675e+03
4.828196384206752555e+03
3.347085033034033586e+03
3.586939457786462299e+03
4.088416464215589713e+03
3.926210348892930142e+03
4.244066220332819285e+03
4.976852108324374967e+03
5.620365156711999589e+03
6.307386154132720549e+03
6.897734374220469363e+03
7.949263104979618220e+03
8.566874552349219812e+03
8.628376962475074833e+03
8.306669947036938538e+03
7.900641839782243551e+03
7.209232724849170154e+03
6.630349681788395173e+03
5.914900556601161043e+03
4.456791955692411648e+03
2.895979250591739401e+03
1.182441800819875198e+03
-1.987649917546961476e+01
-9.019510320405817083e+02
-1.568818171823273588e+03
-1.926474559470116219e+03
-2.698899113605860293e+03
-3.306955774088564340e+03
-3.625510452606497893e+03
-4.013515013498731150e+03
-3.893777830840962906e+03
-4.317214575184964815e+03
-4.183633495432005475e+03
-4.442777557452708606e+03
-5.914473644267180134e+03
-7.604588794874292944e+03
-9.884871595182365127e+03
-1.199512201672417905e+04
-1.382913515148342049e+04
-1.627972914682995906e+04
-1.891865059608213414e+04
-2.184471289870143664e+04
-2.431869211629061465e+04
-2.658230476246739272e+04
-2.896026591592370823e+04
-3.133034718776347290e+04
-3.327826456494802551e+04
-3.466064266079315712e+04
-3.607105049819859414e+04
-3.805509604989046784e+04
-4.058038878845499858e+04
-4.492561286234559520e+04
-5.030834784425154794e+04
-5.443022327311305708e+04
-5.486387177312488348e+04
-5.541082880469314841e+04
-5.389973472977826168e+04
-4.983318814171141275e+04
-4.342479408033861546e+04
-3.608616313849773724e+04
-3.042492400844057556e+04
-2.769965920331824600e+04
-2.682399818836548729e+04
-2.612057268233397554e+04
-2.592997197065921500e+04
-2.471282514083806018e+04
-2.085964629608840551e+04
-1.985801418086680496e+04
-2.117561735008938194e+04
-1.991808264214396331e+04
-1.797991175080400353e+04
-1.605064580159249817e+04
-1.469391981895114805e+04
-1.192730420385886828e+04
-6.037381189644861479e+03
-3.638749128926417598e+03
-7.040081430214469037e+03
-8.978990723231470838e+03
-8.037148556325421850e+03
-6.707179434611657598e+03
-5.431758383940454223e+03
-2.781630187545498757e+03
1.795196901350717553e+02
5.072008477474311803e+03
9.671050028465595460e+03
9.853879771615551363e+03
1.227477537441726236e+04
1.613002489873689228e+04
1.964887676954868584e+04
2.262154715514768759e+04
2.616426695396240029e+04
2.862531133321086600e+04
3.084784865539915700e+04
3.220107904215784220e+04
3.345114346976020170e+04
3.491704759592685878e+04
3.656803102947819571e+04
3.781119624622543051e+04
3.841971123239366716e+04
3.932750916844455060e+04
4.050954372951969708e+04
4.156683744611503789e+04
4.316136182678339537e+04
4.407510506738645199e+04
4.481719181378200301e+04
4.627170971723624825e+04
4.757162014166015433e+04
4.892758570331295778e+04
5.029152668956926209e+04
5.084932614911757992e+04
5.077687073196754500e+04
5.091308577873176546e+04
5.039476388796099491e+04
4.931167667042048561e+04
4.867148366000167152e+04
4.656804220699055440e+04
4.469337818002382846e+04
4.203429808552825125e+04
3.947040092591999564e+04
3.718803259397631336e+04
3.493199610911157652e+04
3.250102770496985977e+04
3.028168912235846074e+04
2.849967859008795858e+04
2.663937762716867292e+04
2.481713522562676371e+04
2.320078227359325319e+04
2.180128063890136764e+04
2.010984165898741776e+04
1.841487455745579791e+04
1.699733113223597684e+04
1.566675428192692743e+04
1.421528931327517057e+04
1.288928625169559564e+04
1.142901353088107498e+04
9.528140201438411168e+03
7.001619986145940857e+03
3.221185726889618763e+03
-1.654804701582578161e+02
-3.219036149500546799e+03
-6.216107066522460627e+03
-9.540855033009262115e+03
-1.299804403063419704e+04
-1.639532561825546509e+04
-1.920731238067561208e+04
-2.156857695601335217e+04
-2.323863454854779411e+04
-2.445713107914385546e+04
-2.642162466599496111e+04
-2.780260510848599006e+04
-2.860963833205830451e+04
-2.916432455530440711e+04
-3.014124965845372935e+04
-3.027089979935658994e+04
-3.029478898663905784e+04
-3.088346705649220894e+04
-3.144343647212962605e+04
-3.197723995569776889e+04
-3.268952434019544307e+04
-3.369194281851806591e+04
-3.454399066160193615e+04
-3.591325147050408123e+04
-3.765029531003625743e+04
-3.801158929120428365e+04
-3.730068072735502938e+04
-3.667705615975612454e+04
-3.676618382996154833e+04
-3.784453431888044724e+04
-3.960050531272128865e+04
-3.993751257247300236e+04
-3.794493577864342660e+04
-3.592321927709315787e+04
-3.308571823387398035e+04
-3.022671775856960448e+04
-2.748853512614220017e+04
-2.552355965841665966e+04
-2.037506518683731338e+04
-1.491532116001399118e+04
-1.695256697805035947e+04
-1.936984030446397082e+04
-1.881771707647684525e+04
-1.887651727810296870e+04
-1.831546323030779968e+04
-1.677579059661771316e+04
-1.272362894528601282e+04
-1.268721044094165518e+04
-1.375364571280114797e+04
-1.083594297135409033e+04
-5.707192617484331095e+03
-2.695552086178690843e+03
-2.355011397748070522e+03
1.275543071840215589e+03
2.728139530456237026e+03
2.971834640287391267e+03
3.352716166951558534e+03
3.609888394866064118e+03
3.835450874338258018e+03
3.569512720512585020e+03
3.065253225292211937e+03
3.281801585005863672e+03
3.211264880395557611e+03
2.508778271729719563e+03
1.987497698630490277e+03
2.416678840650764869e+03
2.361607618095067210e+03
2.188470000023559351e+03
2.311556003810738275e+03
2.818266095104348096e+03
3.303859160307833463e+03
3.735593341340758343e+03
4.538983714536543630e+03
5.558427492798450658e+03
6.472423531198546698e+03
7.612548915836678134e+03
8.427247293672340675e+03
8.909929055112550486e+03
8.529023352230124146e+03
8.291094762004080621e+03
8.009705569507346809e+03
7.748289163129642475e+03
7.320364203443358747e+03
6.513488585576144033e+03
5.651209331534410012e+03
5.512036775164293431e+03
5.792561649920457967e+03
5.667303854119768403e+03
5.238844690474283198e+03
5.651817080717385579e+03
6.621874136938437005e+03
7.321637099190994377e+03
7.827664289953660045e+03
8.720486209178561694e+03
9.667757593184089274e+03
1.012326676612369374e+04
1.073690760915362262e+04
1.125641538441518060e+04
1.083859277653558820e+04
1.052483814785706818e+04
1.013595912078213041e+04
8.798398121206959331e+03
7.633701375197592824e+03
6.667263250553532089e+03
5.956625165360621395e+03
6.432242932694549381e+03
6.437586538878096690e+03
6.503566176412002278e+03
7.020816631491480621e+03
7.605779932013270809e+03
8.434960213898661095e+03
9.299971630945654397e+03
1.003535867429888822e+04
1.012868820607521047e+04
1.022652068005282126e+04
1.102145915555132342e+04
1.164102663137681520e+04
1.163582870669783370e+04
1.200634438482507903e+04
1.226107096382093005e+04
1.233755079273937736e+04
1.188821169506562910e+04
1.090339768208840360e+04
1.019745030260165368e+04
9.022808431711555386e+03
8.127808326655265773e+03
7.210778817359650930e+03
6.549081359249013076e+03
6.324048853082353162e+03
6.049022598755756007e+03
6.144324358625735840e+03
6.295290938068217656e+03
6.366204965847377935e+03
6.399389525631922879e+03
6.314113960008791764e+03
6.177663556754478122e+03
5.815248979979965952e+03
5.004044864940257867e+03
4.193244241981906271e+03
3.190019925005843561e+03
1.830515752871006498e+03
1.072811610591333874e+03
-2.740038440310633518e+02
-1.423885614015173132e+03
-3.161857207197439038e+03
-4.494859343713475937e+03
-4.796856026043878956e+03
-5.517862899253578689e+03
-5.936877974164776788e+03
-6.055999620929979756e+03
-6.191181376215798082e+03
-5.615534675643250921e+03
-5.170118252736416252e+03
-4.948929288179350806e+03
-4.392037139632568142e+03
-3.779483414436042494e+03
-3.461403151896060990e+03
-3.738989401063890909e+03
-3.358408770484715660e+03
-3.288803077707127159e+03
-4.436381680036495709e+03
-5.556424583842878747e+03
-6.403193339309915245e+03
-7.016963450952792300e+03
-7.823972135115302081e+03
-8.437557664022531753e+03
-8.615106893986647265e+03
-8.473878885049483870e+03
-7.497169553098795404e+03
-6.754357666374585278e+03
-6.121636237269342928e+03
-5.403192501336108762e+03
-4.875146135201906873e+03
-3.920077381890110246e+03
-3.121404934320840766e+03
-2.898711807270314239e+03
-2.549760757193478639e+03
-2.183282485187057318e+03
-2.312000601875410666e+03
-2.651402379599646338e+03
-2.744769443449743449e+03
-3.017515149263796957e+03
-3.499215178377128723e+03
-4.241275587120793716e+03
-5.570153487210738604e+03
-6.312669659382239843e+03
-5.999530457317669061e+03
-6.061749766362348964e+03
-6.022878056256102354e+03
-5.445524907737057219e+03
-5.356204574618297556e+03
-5.020326042255586799e+03
-4.628498324896488157e+03
-3.843334111296407173e+03
-3.326015177461897110e+03
-2.723070323633769021e+03
-2.360221894495318793e+03
-1.761738422618125696e+03
-1.301854386338601898e+03
-1.135329726638457714e+03
-1.361877611637581140e+03
-1.556795722468746817e+03
-2.023603793112003359e+03
-2.834919241624241295e+03
-3.477148941296169141e+03
-3.805377576410406164e+03
-4.141408421351095967e+03
-4.558817895897010203e+03
-4.773982305795700086e+03
-4.202365053447139871e+03
-3.731198879352967197e+03
-3.206801314585317414e+03
-2.616470734877496852e+03
-2.345445035420787917e+03
-1.881035127185479951e+03
-1.259572361094806865e+03
-2.022563894396287196e+02
1.836636883692692663e+02
6.258838473748395472e+02
3.211638548599877936e+02
-1.197324716326304639e+02
-6.130632759513620158e+02
-1.070989945146896162e+03
-1.647685525851387638e+03
-2.184413429188389728e+03
-2.721268834053733372e+03
-3.067399512404798315e+03
-3.519967395714348640e+03
-3.769955345758175554e+03
-3.117375026739274290e+03
-2.461293799355943520e+03
-2.946699977227148793e+03
-5.034559973234043355e+03
-5.582856217786421439e+03
-3.806481897876679795e+03
-1.197406500336856197e+03
8.674976661473516515e+02
6.212895070279752190e+02
1.782967686655141051e+03
1.056280328405314890e+02
-1.100686205117556710e+03
-9.818340680798892208e+02
-2.352787887445062552e+03
-3.114486920672314909e+02
1.385271284928190880e+03
8.794377412776753999e+02
-2.148788184139741134e+03
-4.984229412132192920e+03
-3.318730592149583572e+03
-1.381572654677381138e+02
-4.883242939775166747e+02
2.852994410305183010e+03
1.354990066577487823e+03
-1.189168807170446371e+03
3.097812573670156553e+02
4.765095387790215682e+03
6.100097003057966504e+03
5.974962365459415196e+03
3.654941697636159006e+03
5.855267668828784736e+03
6.325246812786588634e+03
5.387091220637426886e+03
4.592025191781704962e+03
3.698227290782398995e+03
2.856905031298777430e+03
2.158226331576689972e+03
1.869385092063899492e+03
2.214663211409150335e+03
2.314227663166010188e+03
2.353284137676921091e+03
2.255051230921964361e+03
2.418804597243086391e+03
2.660731520123380960e+03
3.029068722698123565e+03
3.613090343551030401e+03
4.407010124478946636e+03
5.074034877701511505e+03
5.641411992006992477e+03
5.612368305314590543e+03
5.317096581321752637e+03
4.873862192046826749e+03
4.197912095004340699e+03
3.411354306582487425e+03
2.539267518659687994e+03
1.890838108958247631e+03
1.131294108765081319e+03
6.618890996737892465e+02
4.418128612701462430e+02
5.241182272660997796e+02
4.830367948074658102e+02
7.639282276225820851e+02
1.204875185249617743e+03
1.943047638377780004e+03
2.430541845778202969e+03
2.544651126021568871e+03
2.811215607626393648e+03
3.037407466940136601e+03
3.894015954643695750e+03
3.885744436391491035e+03
3.618363218285463972e+03
3.205486021448650718e+03
2.561243211620487273e+03
2.353705081698809408e+03
1.265735202367821103e+03
2.728776301491934078e+02
-7.571898931113541664e+01
-5.615395958293672720e+02
-1.429775629547820472e+03
-1.748586484500390497e+03
-1.444899166765303789e+03
-9.860382177053649002e+02
-2.037668303517717163e+02
6.212488907581315800e+01
3.997499977980739914e+02
1.025254348118594862e+03
1.305732079980055460e+03
1.946335272041553253e+03
2.739143871602947911e+03
2.955149412337576450e+03
2.813494235899773230e+03
2.329282940904796305e+03
1.591575965993991986e+03
1.123350561026202740e+03
4.526670576374527855e+02
-4.654023085811344913e+02
-1.410864609521464899e+03
-2.221700884534523084e+03
-2.450883228093801335e+03
-2.450359245203380397e+03
-2.253115908925618442e+03
-1.510142074233659287e+03
-8.103716830149983252e+02
-1.077663034821770509e+02
3.266520371143385546e+02
5.999554936078022820e+02
1.196175481240790987e+03
1.634333644700761397e+03
2.065462546204801129e+03
2.186549401713723455e+03
2.003548938262739057e+03
1.830476176717378621e+03
1.186321997555058488e+03
7.049643226213330536e+02
1.233061554120625090e+02
-9.276649857594219384e+02
-1.956954822396498912e+03
-2.284683187942438508e+03
-2.102960761285257377e+03
-2.241825151850319799e+03
-4.250288268187044196e+03
-7.004460141368860604e+03
-8.298396080099575556e+03
-7.319063485497073998e+03
-5.329541423617969485e+03
-2.361882042568483030e+03
-5.636087228549969950e+03
-5.259221904670972435e+03
-3.240365922166893142e+03
2.932471789256052944e+03
4.044197889295800451e+03
4.021769990227046947e+03
3.432190390829654916e+03
-1.078104543763535759e+02
3.267678301275194030e+01
1.623529932312055962e+03
1.309580485008622190e+03
9.657339239397576875e+02
1.096939347460955560e+03
6.170785096805452667e+02
3.620228816962539895e+02
8.067861169230709493e+02
1.190334956951249751e+03
1.541506463945532005e+03
2.035226723644385174e+03
2.556453068488395274e+03
3.101086348503161389e+03
3.305025950355089662e+03
3.400189041346336580e+03
3.963560853357545511e+03
3.945061236505785928e+03
3.705562765489240519e+03
3.176050206685372359e+03
2.449412679807329823e+03
1.648544999370418736e+03
7.083140657605176784e+02
-2.204518817352788460e+02
-4.818255980181966720e+02
-4.269432305925948299e+02
-7.958627862751715156e+02
-7.976437651593211058e+02
-5.713620783069919753e+02
1.799578713169279638e+02
1.229264474440930826e+03
2.133497268721770070e+03
2.581664033993047269e+03
3.039674943847886425e+03
3.282507411364274958e+03
3.414164091384535823e+03
3.731493089792512819e+03
3.896497608930343176e+03
3.323156589633847943e+03
2.443406621507733689e+03
1.726106557074376042e+03
9.451585712633655021e+02
2.355207716172640176e+02
-8.669218704014343757e+02
-1.287235975845018402e+03
-1.621510193390578252e+03
-1.868845144516919163e+03
-2.016266881476752360e+03
-1.906833310434253008e+03
-1.331571418498930370e+03
-4.474800708402916030e+02
4.414289824242096074e+02
9.131935686960094927e+02
1.840638449391553650e+03
2.435728987359417260e+03
2.681534952776609771e+03
2.811025110881263117e+03
2.456138894633606924e+03
2.386794706486874475e+03
1.953964350916739249e+03
8.485714534422254474e+02
3.495835493597855930e+02
-4.380945350671733536e+02
-2.782520208122975873e+03
-6.068706253146396193e+03
-9.864719253586508785e+03
-1.047359092714383951e+04
-1.002932285703345042e+04
-9.502892049445707016e+03
-8.370321290435902483e+03
-7.720580465501613617e+03
-6.643623322336987258e+03
-5.978378633042808360e+03
-5.431837612277507105e+03
-4.110010179320281168e+03
-3.155843396946116172e+03
-3.409306132318963591e+03
-3.179383033149293624e+03
-1.185039602243908348e+03
1.638187867041719414e+02
-3.991825215474601009e+03
-5.263063363073054461e+03
-5.050843157995621368e+03
-5.481181895058708506e+03
-6.062070034315247540e+03
-6.059418732195146731e+03
-5.894182971846425062e+03
-2.966365776620225006e+03
2.209062193396359817e+03
1.053184962642166738e+03
-3.577897273566552940e+03
-3.806141960013519565e+03
-2.445295532520936774e+02
-6.198508014011272849e+01
-1.849437585713693807e+03
-1.147794258811398777e+03
1.590017229307684829e+03
3.088080281674660455e+03
4.734423829052590804e+02
4.458154314176309526e+03
5.903169120830239990e+03
5.365566530727814097e+03
4.652542370975058475e+03
3.524192774967853893e+03
3.098528694647855446e+03
2.915584406584320732e+03
2.251426301721136497e+03
2.405119421810208678e+03
2.745809464226979799e+03
2.867603850367478117e+03
3.749531684426478023e+03
4.284569383631273922e+03
4.392892018954707055e+03
4.757566091845381379e+03
4.885718671845288554e+03
5.008352766673736369e+03
4.931495534512411723e+03
4.678166872225030602e+03
3.754723341749988322e+03
3.327283144266585168e+03
2.787952280069619064e+03
1.638772582250838468e+03
1.078766909749229626e+03
6.440451477306187371e+02
2.565863851693122228e+02
-1.505903665025312534e+02
-5.253571486484195248e+02
-1.294855530852295828e+02
7.200340694251410412e+01
4.900163123436096271e+02
1.224672859049360341e+03
2.117138974192669593e+03
2.454194720846427117e+03
3.117864894109936358e+03
3.035538561212919376e+03
3.742346422495954812e+03
4.026207905274102814e+03
4.143233084206104650e+03
3.873223579306100419e+03
2.870308596552315066e+03
2.269856208572602554e+03
1.704650197728542025e+03
1.028448789841500002e+03
1.443229228682240262e+02
-5.408471030537766637e+02
-7.147003968450867433e+02
-5.566921654947541356e+02
-6.984276335623285377e+02
-3.554242413336372124e+02
3.880366749966522377e+01
4.319477406106907438e+02
3.539853070287574042e+02
7.438906447965032385e+02
1.174999726156128872e+03
2.225980047751097572e+03
