1.918486596072766361e+03
1.370940393277284329e+03
1.544491472031548255e+03
-1.029382126735750518e+02
-1.402446926467180447e+03
1.013937952062354384e+03
2.760143210631973943e+03
2.736128366227989318e+03
2.370907161188911687e+03
1.989263694325285996e+03
2.074064368457598448e+03
2.332391034617065998e+03
2.217166074204340930e+03
5.713363140790740999e+02
6.671634793879641734e+01
1.137277869146239937e+03
2.666873134500068772e+03
3.491393506046492803e+03
4.038897967857914409e+03
4.100281728069060591e+03
3.389545928295016438e+03
3.158471765431692347e+03
2.964090676626374716e+03
3.087676398178890850e+03
3.685848487731236219e+03
4.467365866076774182e+03
5.601357103133655073e+03
5.233041054904606426e+03
5.459460101155827033e+03
6.265336533407121351e+03
6.160409840055794120e+03
5.977461755910024294e+03
5.392561322736860348e+03
5.338780709763510458e+03
5.798129394423153826e+03
4.773722565326487711e+03
4.077266274352136861e+03
3.782713739167946642e+03
2.081940731742472508e+03
2.099916747347442652e+03
2.189668560334554513e+03
2.100294802404826896e+03
1.211662262473655119e+03
9.702878919013350014e+02
1.063068850716996621e+03
4.642300678951304462e+02
-1.173417854152130104e+02
3.142655955056978314e+02
1.520014121074139894e+03
8.317940835918342373e+02
2.475806856127533990e+02
3.244440332145323396e+02
-1.906980620649385685e+02
-4.190274095425348264e+02
1.214370823297588089e+02
7.987302481279095900e+02
6.069213700891270946e+02
7.639604647917122975e+02
1.857655133465782228e+03
3.439718293031729104e+02
-1.892000977011037094e+03
-4.158193395809072172e+03
-6.519527797741930044e+03
-7.869004736511576084e+03
-8.977785519096853022e+03
-1.004885814668631792e+04
-1.044119495080944398e+04
-9.439790459772522809e+03
-6.908563748017618309e+03
-6.739599945822499649e+03
-8.269863212166883386e+03
-7.897379299652258851e+03
-7.279118380574858747e+03
-6.369876737931919706e+03
-6.073623920769190590e+03
-3.966403860295201412e+03
-1.811130372908894515e+03
-8.115358143043948758e+02
-1.071744989121865956e+03
-3.593842406402519828e+03
-3.982648224238795592e+03
-8.078153607926408768e+03
-7.711325340300782045e+03
-7.379989015305443900e+03
-7.731071092715524173e+03
-7.784621912852825517e+03
-8.225701169148607732e+03
-8.345109136318837045e+03
-8.210655920766675990e+03
-9.050397729603382686e+03
-8.634135329352755434e+03
-5.127768104437001966e+03
-8.993130693512747484e+02
-1.022666721596874709e+03
-2.509770800751029128e+03
-2.633474858921853865e+03
-6.226026226278733020e+02
5.289195068163920723e+02
1.701116062144669513e+03
2.447196670154784442e+03
2.464231204832546155e+03
2.693362188968003466e+03
2.394783738182887646e+03
1.972577461023541900e+03
1.645815127358761856e+03
2.388637577330982367e+03
2.981090902838750480e+03
3.274334016176278055e+03
3.570573840587392624e+03
3.457956538355979774e+03
3.037564732447125607e+03
3.898565377261808408e+03
6.572164678331188043e+03
8.293506618679592066e+03
8.260661332826892249e+03
6.931800405991688422e+03
6.383143891067818004e+03
5.843924640781743619e+03
4.706190918252348638e+03
3.688149741177885062e+03
4.410003965780223552e+03
4.496879510578620284e+03
4.991902216448120271e+03
6.247192233593989840e+03
7.026999220128383058e+03
7.264400760033282495e+03
6.571554616915520455e+03
5.723523658555895963e+03
5.444346390577392413e+03
5.306199368001069161e+03
5.551152633798458737e+03
5.415461743959552223e+03
4.628241500309550247e+03
4.619585895602459459e+03
3.888481284828344997e+03
3.110137166413158866e+03
2.994981961146690992e+03
2.057315912647916321e+03
5.082978813586364026e+02
-2.401251779094480128e+02
-2.238694441330655707e+02
-1.204019142657498833e+03
-3.645155856216709253e+03
-2.989419777406987578e+03
-1.567699828510732004e+03
-1.712670460976579307e+03
-1.345385278541183197e+03
-2.667927791761604112e+03
-3.470135144612807835e+03
-3.315984967256706113e+03
-4.431412320797978282e+03
-3.027273937537627262e+03
-2.692577689339815151e+03
-4.121259962510754121e+03
-4.148269652233297165e+03
-2.901615773767181963e+03
-2.411223520306997216e+03
-2.886983886455046559e+03
-3.449781601072723788e+03
-3.654525730856038990e+03
-4.043235566909595491e+03
-3.720981835363416394e+03
-2.764760752165681424e+03
-2.396461364860440426e+03
-2.450047938818169769e+03
-2.523466246967708685e+03
-2.043736038622499336e+03
-2.100913393112183712e+03
-1.704027141371265088e+03
-1.316024392341701741e+03
-1.236893860415583276e+03
-1.638701471972432500e+03
-1.712414853203174289e+03
-1.557991774457284237e+03
-1.282453417885635190e+03
-1.287859302390811536e+03
-1.521283635598344745e+03
-1.232690371171125435e+03
-4.628814994176148048e+02
7.319040796270029432e+02
2.074573325457402007e+03
3.313100529908648241e+03
3.174368390002101478e+03
2.308347915841464328e+03
1.857896585152227999e+03
2.073905291170391592e+03
2.015394730423612373e+03
3.113392165104501601e+03
3.893713152325598912e+03
3.527009596932722161e+03
3.134190794161941085e+03
2.580245736654558186e+03
2.470101345597989166e+03
1.887665365869155039e+03
9.048475261546291222e+02
8.444727448769690454e+02
1.098424108343153193e+03
1.247605242440064558e+03
1.590954241972986210e+03
1.770379841697573283e+03
8.678182226761920219e+02
6.903135144378231871e+02
9.232864236094499688e+01
-2.242611220566807049e+02
7.444548601890311375e+02
1.091534840594041952e+03
2.998744584206913260e+03
3.607792575830468195e+03
3.304608222360963737e+03
1.084380653306880731e+03
2.640857500845950199e+03
5.531777491818238559e+03
5.828762564024980747e+03
4.817794356339331898e+03
4.214023203777263006e+03
4.090108128036965354e+03
4.245256267217991990e+03
4.777192248655520416e+03
4.412708081300183949e+03
4.617358536000773711e+03
4.881392253768832234e+03
4.528386269359500147e+03
3.621986577890020271e+03
2.676424012493529972e+03
1.683383007274938109e+03
1.567542122613466518e+02
-3.912571525709925027e+02
-5.891005875291123175e+02
-2.596834303331815477e+02
-4.144940833494481467e+02
-5.436948217675728756e+02
-4.412706589940535196e+02
-1.153480307508958504e+03
-1.812113725501219278e+03
-2.320439725186620308e+03
-2.569646745137458765e+03
-2.849925740505005251e+03
-3.445627902735641783e+03
-3.804460587297203801e+03
-4.091674192429654340e+03
-4.452829798663815382e+03
-4.930906147061854426e+03
-5.731834278600810649e+03
-5.936607638075422074e+03
-6.370469684964376938e+03
-6.588321989739832134e+03
-6.108310862392388117e+03
-5.108958575360245050e+03
-4.525091924429880237e+03
-3.757557722020589154e+03
-3.790572361510658084e+03
-3.923318281324363397e+03
-3.348893708041483933e+03
-2.743320067212742742e+03
-1.884605692113552777e+03
-1.755814289524526657e+03
-2.118001389056502376e+03
-2.142161533333328862e+03
-1.428370081969199418e+03
-8.527033762524552003e+02
-6.980362340034400859e+02
-3.414555520362923176e+02
1.277016858972812230e+02
6.734559953699509833e+02
2.872857177022247924e+03
3.197899251836533040e+03
2.978561827962570987e+03
3.889814483545725125e+03
4.133608342882951547e+03
2.975945802516903768e+03
2.030917418842686402e+03
1.998623382213162131e+03
2.393920758757763451e+03
2.645742975333307641e+03
2.248289682687233835e+03
1.053565920962091923e+03
7.705310524509852712e+02
-1.955843134656257462e+03
-4.318489883088105671e+03
-3.463400091804440308e+03
-3.232502899636584971e+03
-4.265724038014952384e+03
-4.469123551912871335e+03
-3.692830452079431325e+03
-3.968729113730063546e+03
-3.746753561578957488e+03
-3.409870318780882826e+03
-3.977054293402517033e+03
-5.977197564463547678e+03
-6.762261729640868907e+03
-7.199183063542130185e+03
-6.025912372787161985e+03
-4.015304607835270417e+03
-4.491272730659597983e+03
-4.606716007216147773e+03
-5.141495249599533963e+03
-4.672715946835865907e+03
-1.417325243808610367e+03
2.144760442158826663e+03
1.585696599570549552e+03
-4.515150603764467405e+02
1.478170959180529962e+03
2.139872774160601693e+03
2.106628796572893862e+03
2.440426730198806126e+03
2.536306922973250039e+03
2.462502836832282355e+03
3.566074569481508206e+03
4.057040539024587360e+03
3.705581604839477222e+03
3.500780546345133644e+03
3.424656040702099290e+03
3.747192634456996529e+03
3.903501112038972678e+03
3.736682416491797539e+03
3.337730921359713648e+03
3.073915444940083489e+03
2.897435383232249023e+03
2.910424435727532000e+03
3.357975168734350973e+03
3.164132712001735399e+03
2.289974831140922106e+03
2.095600661497489000e+03
1.725999237533350197e+03
1.855014079128434787e+03
2.369509836385670496e+03
2.713681596094979341e+03
1.726010119079966671e+03
6.294582019963822859e+02
8.410822706361972223e+02
1.142910276203394005e+03
7.380063281956181527e+02
4.972527113583587379e+02
1.230637001465787989e+03
9.582382607845249822e+02
6.172727762244145424e+02
1.679001860456681243e+03
1.891282117666640033e+03
1.936550820113020336e+03
2.300505570091283062e+03
3.013202091650945931e+03
3.326426474921607223e+03
2.504320214938256413e+03
2.468139051475009182e+03
3.538743260659424323e+03
3.451260250381554215e+03
3.345818556226733108e+03
3.458308522853579234e+03
3.455473192385122729e+03
3.242415861740464607e+03
2.640408186265130553e+03
2.569361035208160956e+03
2.439908787097133882e+03
2.545926747663411788e+03
2.281474993020582133e+03
2.196547911477930029e+03
1.967167114881687439e+03
1.585320091530438958e+03
1.530828767789489802e+03
1.677673046355887209e+03
1.486870393233747791e+03
1.541369463493600279e+03
1.032044710825937955e+03
9.909244596942066892e+02
1.061030214252086353e+03
1.060306374994741191e+03
8.457991486519316595e+02
2.774478924368491448e+02
-5.287866541058496495e+01
-1.533564369041292252e+02
-1.246944347515863001e+03
-2.544564287277295534e+03
-2.178078764613694602e+03
-1.211542250968199824e+03
-1.870116330060384371e+03
-1.870685526353420983e+03
-1.393226910111696725e+03
-1.154962432622690812e+03
-9.869742233184957740e+02
-1.448348254407831064e+03
-7.031453753754913123e+02
-8.738141432235994444e+01
2.609292441589915938e+02
2.467583862832084947e+02
7.805789110673383391e+01
3.468302948397570162e+02
-7.978621887344173729e+02
-9.260783739879381073e+02
-1.046901496970915332e+03
-1.614456507417705097e+03
-4.560794999059098700e+03
-8.646800404441519277e+03
-9.281400479946452833e+03
-7.301731594682756622e+03
-3.832819221160529196e+03
-2.206632903782425274e+03
-1.181289440402671744e+03
-3.687685870414192777e+03
-5.449849210893800773e+03
-6.765721358059318845e+03
-6.793547236849887668e+03
-3.629422079285505333e+03
-1.933259952156215377e+03
-1.135065876408132681e+03
-3.676426294909139187e+02
-5.901333288734131202e+02
-3.747135819893420603e+02
-2.832218990044260067e+02
-2.047957516711410335e+02
-1.503494412178940252e+02
-1.258525469124404736e+02
-2.843675782954934661e+01
2.658206314766389369e+02
-1.090640821026968155e+02
-2.860032954151573108e+02
-2.949724861439744359e+02
9.297559256263630800e+01
2.378499764944357651e+02
-3.053662259105818748e+02
-6.067697362624381867e+02
-7.083643009123666161e+02
-2.760778205195299506e+02
1.920345406250052065e+02
3.269236714405681710e+02
-2.033500247168138344e+02
-4.877420126741369586e+02
-2.702294747238524906e+02
-1.311898871907966850e+03
-2.546776994802789886e+03
-2.849825494398515730e+03
-2.901019044140185542e+03
-3.480291379910690466e+03
-4.102561091302360182e+03
-3.823878351146908244e+03
-1.242249450955706379e+03
-5.506717402527798413e+02
-6.841571989244444012e+02
-9.069452021385772866e+01
-2.382643031255992980e+02
-4.037172982999983333e+02
-4.959782892805411620e+02
-1.015059559481294400e+03
-8.249786231624962056e+02
8.434463974886489268e+02
2.762154734271563029e+03
3.126128201687812179e+03
2.527450226471054066e+03
1.896131663947214747e+03
1.521204114949225414e+03
1.519641317475032793e+03
1.380485289600479518e+03
1.190963975388995550e+03
6.841682191337790755e+02
9.121003483117099222e+02
1.029731202469172558e+03
7.010613260729257945e+02
8.971406434296899306e+02
1.283148254430414227e+03
1.227054279674183817e+03
7.168983431357968357e+02
-3.521489563792091531e+02
4.518388060686579593e+02
1.929478713555921274e+02
-1.726737802926883887e+03
-3.252165087644397317e+03
-9.372406086669692513e+02
1.080204147324245241e+03
6.759527362445751351e+02
-2.299064866165719195e+03
-2.645702650317426560e+03
-2.481272037569230449e+01
-1.355324572937626954e+03
-1.829227076445815555e+03
-1.929363921774144501e+03
-2.827858911476460548e+02
-1.808485800178811360e+03
-1.404402351775437182e+03
-2.195150643127373087e+02
-2.126696173822591845e+03
-2.883911649249335369e+03
-5.268118465074508094e+03
-3.282223704823298249e+03
-8.551317613234076589e+02
-1.770911580990877155e+03
1.108496335011052224e+03
-1.079067239572605956e+02
4.798429382664896821e+02
-2.174173636429758517e+03
-1.659894376376164473e+03
1.656733280140645093e+03
1.651845886722345540e+03
1.743418964246278620e+03
2.640435058300960463e+03
3.059922172839351788e+03
2.771800994920752601e+03
2.772071865058820549e+03
2.680760371474882959e+03
1.026885500867337441e+03
1.534770164528880230e+02
1.645575567718566617e+03
1.822146986756168417e+03
2.067259021100536302e+03
1.574844078432488232e+03
-1.109187483716916176e+03
-4.079392639617188365e+02
1.183572956135245931e+03
1.694314229902912757e+03
1.412297417151348782e+03
1.132523967037172952e+03
9.179556478004452629e+02
9.585554474696531315e+02
1.140257911655072348e+03
1.233056450891823260e+03
1.480991921957178647e+03
1.434062814704814627e+03
1.700097327878175975e+03
2.212080788396226126e+03
2.134035557183136916e+03
2.029871665497876847e+03
2.529546427214123469e+03
2.543973930222198760e+03
2.364957376880469383e+03
1.984581866930625210e+03
1.761873409760921732e+03
1.172623856685124110e+03
1.427797164539055359e+02
-1.839631976173557632e+03
-1.957689161503932382e+03
-2.384258226211391957e+03
-3.119185072936163579e+03
-1.753250828804928005e+03
-2.358559317996141260e+02
4.028997479443311818e+02
-4.862412275192813240e+02
-6.102033279127372225e+02
-1.067639655832012068e+03
-7.128236736430949350e+02
1.013224687373346569e+03
2.267531813482788039e+03
2.120915761518645922e+03
1.411183685239624992e+03
1.465299966622000738e+03
2.156249042539365746e+03
1.748149600046082924e+03
1.906129056935709059e+03
1.292892433855900890e+03
1.111035069321547553e+03
1.383768615704000922e+03
1.191974456389835268e+03
1.424462044052670763e+03
2.593304977632332339e+03
3.306453027130028204e+03
3.440939508285096963e+03
3.525680529156109060e+03
3.676346190570118779e+03
4.100921778622846432e+03
4.240498658998067185e+03
4.436065326861210451e+03
4.533240291676288507e+03
4.028035048682412253e+03
3.280448702829131889e+03
2.977403177923392377e+03
2.855889095142077622e+03
2.428032166596839033e+03
1.738723302946784997e+03
1.677927052982067607e+03
1.952572864067382170e+03
2.436597273315236635e+03
2.099961359388827987e+03
1.290671746990390375e+03
1.043747243833261109e+03
8.271857021139830977e+02
3.820062950681468124e+02
2.922096273989763517e+02
4.048298186236294214e+02
1.117898011313748725e+02
3.497911204761050641e+01
5.644597795875193924e+01
3.612586690476682065e+02
2.823855762188189829e+02
-1.292124820574382966e+03
-3.901296204871445752e+03
-7.589170602047654938e+03
-8.307695633339271808e+03
-8.621755495871795574e+03
-8.577334989792352644e+03
-8.329473835779899673e+03
-8.346140040921238324e+03
-8.402313073075107241e+03
-8.682828389538246483e+03
-9.444833322883085202e+03
-9.269946355586127538e+03
-8.860321211544709513e+03
-9.046988972928174917e+03
-8.327909574871508084e+03
-7.798102533339207184e+03
-6.670501994965942686e+03
-9.577118110275290746e+03
-1.138787128130371275e+04
-1.085263172628298707e+04
-1.227139145038657989e+04
-1.223816427567195751e+04
-1.177978747282659242e+04
-1.163822628733270722e+04
-1.128250333609394329e+04
-7.435558808854687413e+03
-2.901289743693924265e+03
-1.785735669565546573e+02
-7.113849289790505281e+02
-4.646549461438033859e+02
3.036669555511504655e+02
1.692715507797770670e+03
3.751450093405217558e+03
5.692903882227613394e+03
6.074219285119783308e+03
5.891504492104626479e+03
5.923826555175412068e+03
5.493251840743061621e+03
4.681810639213908871e+03
4.402579182359638253e+03
4.492625590438591644e+03
4.244041186988961272e+03
4.544860402143108331e+03
4.008111602017339465e+03
3.328890637579688246e+03
2.891368686057177456e+03
2.925629705663176082e+03
2.789734504051497424e+03
3.389692304671452803e+03
4.445456026491201555e+03
3.765106274831709470e+03
4.151915245645421237e+03
5.336895787472489246e+03
6.108969150727737542e+03
5.858188095384920416e+03
5.387690186035136321e+03
5.585553111223684937e+03
5.938759754893061654e+03
6.283284474740270525e+03
5.742125556832385882e+03
4.479363722444535597e+03
3.921045958387275277e+03
4.780143158342469178e+03
6.058701554868461244e+03
6.647767592315758520e+03
5.249601382116136847e+03
4.003324403570052255e+03
3.713240195007825150e+03
4.670530134679514049e+03
5.078119973065556223e+03
4.672004406995784848e+03
4.051688386880681719e+03
2.619075288498490409e+03
3.568216024028037737e+03
3.627437955232442619e+03
2.872561459813231522e+03
2.060651957897264765e+03
1.271981243385518155e+03
3.562941094567989353e+02
1.366800713609362674e+02
1.087104575434645994e+03
8.825103357501768642e+02
-5.980487668506924592e+02
-1.387552771995523699e+03
-1.172071136199561806e+03
-2.786934676726810949e+02
-5.705350694461830017e+02
-1.235629504064422918e+03
-1.347932590410685179e+03
-1.645381695231830463e+03
-1.661953945509723098e+03
-1.416660765424175906e+03
-1.440507725367003559e+03
-1.520627611790049059e+03
-9.700786343648647971e+02
-6.889124367131312283e+02
-8.131969505198718480e+02
-3.349244690835679990e+02
-5.861223911488144722e+02
-9.869262540004791617e+02
-1.246308651183394204e+03
-4.562852403715593255e+02
8.910946854593914850e+02
9.297358427439818342e+02
-2.013087983825594449e+02
-1.017057206974027849e+03
-1.678599746721811698e+03
-1.634996054890371852e+03
-9.622664251311741737e+02
-1.458508820866489032e+03
-1.947859931133351665e+03
-2.221533491084441266e+03
-2.390461632284111147e+03
-2.344698734552911901e+03
-2.217490320890934981e+03
-1.782801258649321881e+03
-1.635675104567945255e+03
-1.906179850956101518e+03
-2.364334139710997988e+03
-1.158256222875198318e+03
3.938381504531848805e+02
1.443787398340203254e+03
2.151642255550693335e+03
2.440415978033924603e+03
2.295052950932935801e+03
1.452488458119325060e+03
-3.673005462607115987e+02
-7.764453070399024455e+02
2.189588272295358138e+02
1.220872060077012293e+03
1.310153304542793421e+03
9.987392930890779326e+02
4.766025391288719106e+02
3.367224785490511181e+02
-3.760183217549998744e+02
-2.085732499806850228e+03
-2.375359506717917156e+03
-3.038934580646907762e+03
-3.927690305777721733e+03
-2.493586479022101685e+03
-1.739514322840309660e+03
-1.162550114939425612e+03
-1.279119527152452065e+03
-1.143178706078102323e+03
-5.426270031791977999e+02
-8.594665529435618510e+02
-1.454868181065382942e+03
-1.709058284784439593e+03
-2.163858766528559499e+03
-8.302941376145382719e+02
1.542778569131701971e+00
-4.896338657470307680e+02
-2.485966508603054308e+02
-1.315064905555398695e+02
5.695467590918971155e+02
5.657736764233912936e+02
3.060165227989166397e+02
4.584983757275239213e+02
5.729541174987664363e+02
4.410143032725397205e+01
8.716270182525853727e+01
3.788456063928913409e+02
-6.946013304600630818e+02
-1.270293105186281764e+03
-1.176065134936916138e+03
-1.614223822131686575e+03
-5.839158716422723501e+02
1.610559257791594234e+02
8.676512867375936366e+02
1.938777543982715997e+03
1.555553561799345971e+03
1.114052086591311991e+03
8.592296463756821367e+02
6.151145855526266359e+02
4.998300600986972881e+02
4.453493229577569537e+02
4.995661160477612270e+02
1.348617057078175094e+03
1.780499941338344115e+03
2.073178316938001899e+03
1.987961124484049378e+03
1.672727131205279647e+03
1.450335999892641212e+03
8.517968157536739682e+02
2.882642031097622635e+02
2.297891040074685804e+02
2.054103181037451975e+02
1.251596919315472292e+02
-3.408950882837341965e+02
-4.957489531189021363e+02
8.664579840420692847e+01
-2.405839621702872932e+02
-3.253978862652686530e+02
6.211467001999118764e+01
1.081394877554578215e+02
3.748357095749839800e+02
2.942072334492015671e+02
2.102960411529709575e+02
2.050726084912950000e+02
6.036899250831288555e+02
9.522644182673451496e+01
-1.300175276694946433e+03
-3.819454349800865202e+03
-7.682430456921921177e+03
-9.191125464964610728e+03
-7.675438652097140221e+03
-1.842265539155397846e+03
-2.117653220073012221e+02
3.012582631840542291e+01
-1.871501209873948937e+03
-5.735471162125631963e+03
-5.216710817541800679e+03
-4.317161613654216126e+03
-3.182793182318970594e+03
-2.067678136547684971e+03
-1.700686718148257341e+03
-2.015622238439852481e+03
-3.248433829691634855e+03
-3.687984795309971560e+03
-1.454317550592661064e+03
3.116621802786431090e+03
3.540887903853568787e+03
-4.236267687362801837e+01
-5.000813011372677579e+02
-3.526127836829469686e+01
3.318554944648727201e+01
-6.057590852332721170e+02
-1.063124085522390942e+03
-9.678103695801644335e+02
-1.706812275427810732e+02
5.113724743998606641e+02
3.295479444228444208e+03
4.684597979039092024e+03
4.911730662750999727e+03
4.781935850411661704e+03
4.355314554316959402e+03
3.683034168901077919e+03
2.686187525694975648e+03
1.568732609471745491e+03
2.276677590215813325e+03
3.566088906899475205e+03
4.701993432144361577e+03
4.603390386883753308e+03
4.002303708451669991e+03
3.094792216487257974e+03
2.814924008173166385e+03
2.880776121476352728e+03
2.796338611293022495e+03
2.818600568389764248e+03
3.081615142098603883e+03
4.104401278330441528e+03
4.602958901603814411e+03
4.267305221239825187e+03
3.883417122019936869e+03
3.449269011299659724e+03
3.001913320207780544e+03
2.779234638659605935e+03
2.570624608526343309e+03
2.074279620599252667e+03
1.951322635261835330e+03
1.648470904393991304e+03
7.777109380115837212e+02
1.340350060482716970e+02
-3.805186383870072291e+02
-1.950010941441867544e+03
-1.880501368795508597e+03
-3.222941529874766729e+03
-8.943830672988698325e+02
-8.118479701381821769e+02
3.167261567536663236e+01
3.812483013107498095e+02
-1.965879658434347732e+02
-1.688203443383355022e+02
-3.734300398786331812e+02
-4.541163596598362346e+02
-7.409519737408235187e+02
-9.651525351642598025e+02
-7.985697969369140310e+02
-1.513647472508905309e+02
3.412662845554211231e+02
6.628668725493746194e+01
-3.793286747468816316e+02
-5.899972917937959664e+02
-5.187075580901212106e+02
-4.515662554149485572e+02
-3.645123216551506857e+02
-1.697680139659887573e+02
6.836717569317530661e+02
3.966034663389817183e+02
-6.641224432404922027e+02
-1.183649402408587321e+03
-9.330175806061104140e+02
-3.552411203450198514e+02
-3.321691162538075393e+00
1.777808473807929772e+02
-1.640098865813086206e+02
-1.328083178877512580e+02
4.083007227956374550e+02
5.732951874702139321e+02
-4.598834008782514360e+01
-9.334775164375764689e+02
-3.841833120007332809e+02
8.237879597329142598e+02
1.042316797402484553e+03
-4.764859078304072426e+01
-1.291280354742466443e+03
-1.720624994027682533e+03
-9.605462277899104038e+02
1.492484049735371521e+01
-9.648440593183489966e+01
-4.509839554026876272e+02
2.985661455978308823e+02
8.752494763388000365e+02
2.053864569991138069e+03
2.542347426878076931e+03
2.287675448997035346e+03
2.099888268697341118e+03
1.683053527816677843e+03
5.870278550131814654e+02
-2.544341551283104309e+03
-5.577101919126710527e+03
-6.310226106428147432e+03
-6.662599962684698767e+03
-6.438223157909588735e+03
-6.321176744329249232e+03
-4.421647103073994003e+03
8.482607142046957733e+02
2.642463243305587184e+03
1.940863827027935713e+03
1.245831078813939712e+03
6.742088241525760850e+02
-2.706090054998765936e+03
-6.253035027761383390e+03
-5.698721747889788276e+03
-4.689894635447069049e+03
-3.057543784028223399e+03
-2.118833508152752074e+03
-1.525883932526611716e+03
-9.586360969831889633e+02
6.779840960519455848e+02
1.832984211374238612e+03
2.213290970855341129e+03
1.221831637107678262e+03
-3.342538132210917183e+02
-1.324899913332596725e+03
-1.092209805566276827e+03
-8.871384575497794458e+02
-2.587050717135495574e+02
1.073019557975971111e+03
1.831072483162580056e+03
2.270547937655297119e+03
1.772513426479617920e+03
8.460152841139969269e+02
5.290045604261965764e+02
1.013461771016973216e+03
4.834504975958816999e+02
5.989946925250437744e+02
4.121819673602818170e+02
3.489768750872074747e+02
2.033175859599864737e+02
2.928979472568289921e+01
-1.939184530681783656e+02
-1.122293345566089897e+02
2.483187385260430347e+02
6.426329663082610750e+02
4.307376222362138378e+02
9.682610487030916602e+01
5.798859868428328355e+02
1.539971882338771820e+03
2.140150520204424993e+03
1.228490164329595927e+03
8.160760314641177047e+02
6.149038505043126861e+02
4.510139256323028008e+02
4.475019533923353947e+02
5.403992720254919959e+02
5.385939803305074065e+02
5.712949604190048092e+01
-1.948522934659731334e+02
-4.082619844502137312e+02
-6.690696332247313194e+02
-7.562453842526711014e+02
2.344106603603451333e+02
4.791485337602824188e+02
3.538063018605257071e+02
2.011756494738650076e+02
-2.175696425832735486e+02
-7.203595413509717673e+02
-1.288088814826466887e+03
-7.186162638533966174e+02
-3.879248784870101190e+02
-1.077906203614465994e+03
-6.994540031239583868e+02
-6.316559329784912507e+02
-9.013707054935761107e+02
-8.495515134770670329e+02
-4.813278111701869761e+02
-2.715957504778597240e+02
-8.422727321172783377e+02
2.627133990123194280e+02
1.503349798214026123e+03
4.506011520550603677e+02
-1.073727971997653157e+02
3.725302177391502596e+02
4.026767784038268871e+01
6.898785074028795634e+02
1.218283852309007898e+03
6.044800506344744235e+02
1.805613465158610609e+02
-9.142186329752242102e+01
-5.928198611513747096e+01
-3.114603273165656816e+01
-8.999316570189870390e+02
-5.956526361973610619e+02
1.312647233550452029e+03
1.229113844222618354e+03
1.174812261413492024e+03
1.784719061929152758e+03
2.090816008179808250e+03
3.029152439745864285e+03
2.870744345679323033e+03
1.648608242770310198e+03
1.843766991111747302e+03
1.789079681913601689e+03
1.289582244297561147e+03
3.412483074222674304e+02
4.619883922270054200e+02
8.049238964847179432e+02
7.620798014160644698e+02
8.334608378312342438e+02
4.751177353138480726e+02
-1.158671411917398757e+02
8.049289757474446105e+01
7.781590897820098007e+02
1.440926208040876645e+03
4.846948530766252361e+02
3.785233317448764296e+02
1.593562223437527564e+03
1.995813084500220384e+03
1.209248350104029441e+03
1.031871133312745087e+03
8.736129680521107730e+02
6.113584967649140935e+02
3.461194514865806582e+02
5.048121215165151057e+02
4.392854147618960869e-01
-4.790082065389014474e+02
-3.246430113891000246e+02
5.152077373989033759e+01
-1.224579831250291363e+03
-1.628940124058906804e+03
-7.605940957683613988e+02
2.653738783864777702e+02
8.090609478419493144e+02
-1.205764339274841603e+02
-3.586616729251987863e+02
-4.094405521376313004e+02
8.640513158733710952e+01
-1.299075899435827068e+02
-3.114532818192392369e+02
-5.799167536656604938e+01
3.092120742165274692e+02
7.849016500863594956e+02
5.415731621585722451e+02
7.484584221570765976e+02
6.305103204135318720e+02
2.161311623908702870e+02
4.285251004210219890e+02
4.229769092495895677e+01
-1.484773897487053489e+02
-6.380012371945298355e+02
-5.164096649896526969e+02
3.424919600600113512e+01
-3.420172584487815470e+02
9.158361127483440214e+02
1.733795329384960723e+03
1.345558971882148398e+03
1.241860834123507175e+03
1.459964716116435966e+03
1.851197977855436648e+03
2.026332360455684466e+03
2.082316829923851856e+03
1.440181182518577089e+03
5.368557895617032045e+02
-3.377260015551846664e+02
-9.096101652196996383e+02
-9.668748238584346382e+02
9.547598834990840544e+01
4.122315170634881838e+02
-2.095950195023093556e+02
-8.519335738415607011e+02
-1.052746845869501840e+03
-3.549629667938076523e+02
7.334047457776864576e+02
1.197387630988200272e+03
1.419888919800051326e+03
1.643637024011368339e+03
1.283834451574353579e+03
8.683851461450545912e+02
5.863265530504594381e+02
9.626876849788868640e+02
1.088490112314667840e+03
1.261708137871275994e+03
1.455281371889591355e+03
1.177220109262741289e+03
9.405222382619801920e+02
9.801928367236341728e+02
1.044087614666075069e+03
7.001825710118314419e+02
-5.038659824587456626e+01
-1.425569931337729031e+03
-2.161406318134036610e+03
-5.309944391622482726e+03
-5.638195470117407240e+03
-4.989072382970946819e+03
-4.460538430640001934e+03
-5.081658417710255890e+03
-5.607415596568283036e+03
-5.821717927089374825e+03
-5.002697896262695394e+03
-4.812229362691069582e+03
-5.167077060322636498e+03
-4.851474448880462660e+03
-5.507301639487312968e+03
-5.249719681193383622e+03
-3.935666997159935818e+03
-1.311324197453670422e+03
-3.106632386163025330e+03
-4.644535191037612094e+03
-4.819103954912166955e+03
-4.873225518014015506e+03
-4.792872613123761766e+03
-4.646979162315058602e+03
-3.884497207938422889e+03
-3.011444608779447663e+03
-3.381837872338824582e+03
-3.824665233175537196e+03
-3.575847844412186987e+03
-3.883336657749227470e+03
-1.156129521930894725e+03
7.257375613791867863e+02
1.566259607269101025e+03
1.140459981357953211e+03
2.344313438590460009e+03
2.881851637146502526e+03
3.606183781002220258e+03
3.838346317732008629e+03
3.032449495260688309e+03
2.075463454478941003e+03
1.947237138013199456e+03
2.702742799460947026e+03
2.859040055152738205e+03
2.752246492579982714e+03
2.691355836508655557e+03
2.807352532208081811e+03
2.111296848305666572e+03
2.199306920492235804e+03
2.725427896600431723e+03
2.869586042640131382e+03
2.690681619276027504e+03
2.390794701496859034e+03
1.266057004381093066e+03
7.635332976348555576e+02
1.039201463884474833e+03
2.969914605920848317e+03
3.449669668292718598e+03
1.606663172149698767e+03
9.650895155066929192e+02
1.769877646055072546e+03
1.315900700165329681e+03
7.690579132612543845e+02
5.213546704847815363e+02
4.147918447727966509e+02
8.344072342194646126e+02
4.424343079045444256e+02
-2.389946426783787103e+01
7.561063308776157044e+01
6.640470019724753001e+02
1.252321573768579810e+03
2.327372063953016095e+03
3.919189151675557696e+03
5.282842409907019828e+03
5.566252328276525077e+03
4.217031736959242153e+03
1.038392502313799241e+03
1.481502802791644172e+03
2.770379910530898542e+03
2.618189341041284479e+03
2.127074781042043014e+03
3.182324872815392069e+01
1.102468130275010026e+03
2.456220769174270572e+03
2.617671620898331639e+03
2.682753898307629242e+03
2.564475846704862761e+03
1.890817935927774215e+03
1.658617702044266935e+03
1.397927219839278905e+03
9.539900300650492682e+02
1.161819466075973196e+03
1.786341996684216383e+03
1.527529466456926912e+03
1.489317324937511330e+03
1.309706366373847914e+03
2.096382272614051772e+02
-1.145030300522961852e+03
-1.827284711097516720e+03
-1.182135775021280324e+03
-1.275718935493937920e+02
-2.335906804734730144e+02
-2.521801087095072376e+02
-5.094228768577550568e+02
-1.158285753252955601e+03
-1.066874609623833976e+03
-6.291642665347707180e+02
-4.801665696092898656e+02
-8.179116482531889005e+02
-5.163571492376846663e+02
5.544464765275565696e+02
7.844386929134378761e+02
