2.186277433149888111e+03
1.402644999212577204e+03
2.145216698929258655e+03
5.843541833078631498e+03
3.497171697769176717e+03
5.947856496912706916e+02
1.628153719235500375e+03
6.675015975550618350e+03
7.480100798900665723e+03
7.512109660411178993e+03
7.315603893378810426e+03
6.732137353473190160e+03
6.240426341850977224e+03
6.341215629487638580e+03
6.252160864751381268e+03
5.368949661684991952e+03
4.595243954174939063e+03
3.715894618094639554e+03
3.981685345924337980e+03
3.864228602410906660e+03
4.348379976033366802e+03
4.276888153808380594e+03
3.522527628588228254e+03
2.851039420827119102e+03
2.395182449711381196e+03
1.919777256644601039e+03
1.903680384543293485e+03
1.698685766739361270e+03
2.566931643164991783e+02
-2.897343834024921307e+03
-6.276679901268020330e+03
-6.335905384770801902e+03
-6.737214057760089418e+03
-6.141706604865560621e+03
-5.572630919316200561e+03
-1.817888159877392127e+03
-7.734578132291088650e+02
-1.420498668050211108e+03
-2.272072849190577472e+03
-2.234504171194909759e+03
-2.417083625443280653e+03
-2.941831387375337727e+03
-4.278710095063983317e+03
-5.265644028822001019e+03
-5.731634147808050329e+03
-5.659474730869125779e+03
-6.375524091808237245e+03
-6.894279285508001522e+03
-6.824640799878462531e+03
-6.787429102514199258e+03
-7.895051851208811058e+03
-9.004286226264988727e+03
-9.338337143001917866e+03
-9.129891905740540096e+03
-8.717523592957244546e+03
-8.555932533796214557e+03
-8.435666108090195848e+03
-8.029365554224088555e+03
-8.110658571320179362e+03
-8.517518902114788943e+03
-9.071271983883092616e+03
-8.942624364845967648e+03
-9.811216380811707495e+03
-1.100755951886155890e+04
-1.150313011185433788e+04
-9.809451550896112167e+03
-8.706112453100118728e+03
-7.513722725572553827e+03
-6.924850487970004906e+03
-6.808799757494606638e+03
-5.775976447212157836e+03
-5.369906520947842182e+03
-5.733863544925108727e+03
-5.406357391108566844e+03
-4.380887366494085654e+03
-3.512898567394845486e+03
-2.469692870257625600e+03
-2.819641698600025393e+03
-3.586112385598109086e+03
-2.918570608489777896e+03
-1.776413787290693108e+03
-1.141011355826664840e+03
-3.696134231787142426e+02
-3.104875194854646452e+02
-6.149950440248582026e+02
-4.784757329206221925e+02
-2.183015950340748361e+02
1.562438840563870315e+02
-1.279057070494008713e+03
-4.360521641730919328e+03
-6.929482697846737210e+03
-5.501635750218561043e+02
-5.147844106279028438e+02
-6.548646647912944900e+03
-9.775990802059859561e+03
-9.936757614541707881e+03
-8.811646796172728500e+03
-7.177960741401809173e+03
-5.753810876335731336e+03
-5.117541909069534086e+03
-4.522388344101672374e+03
-3.718694593493892171e+03
-3.197772893084154930e+03
-2.542909603237991178e+03
-1.996351781944919821e+03
-1.483465476404858009e+03
2.021535647305975544e+03
-1.222765945973481621e+03
-3.257964213900561390e+03
-8.863008624053434232e+02
4.397994923633705184e+03
2.457479477029030022e+03
4.192837177769045411e+03
6.901855487856117179e+03
8.018179021075950914e+03
7.685289544852265863e+03
8.108713611454467355e+03
8.141177186864576470e+03
7.716278143567115876e+03
8.808529826270034391e+03
8.785379247886738085e+03
8.002376121236267863e+03
8.066062666384234035e+03
8.876962684350823110e+03
9.195606804551071036e+03
9.511515512656087594e+03
9.681152862816230481e+03
8.896968269904557019e+03
8.501315391261852710e+03
8.038700664004282771e+03
7.033733185019420489e+03
6.673837277575408734e+03
6.708269732237586140e+03
6.317337858113880429e+03
5.993350387137259531e+03
5.745614981621835796e+03
5.702468612323136767e+03
5.999364524884126695e+03
6.359605171100497500e+03
5.536491373912279414e+03
4.454076537784286302e+03
4.413461676718910894e+03
3.899760460684407462e+03
3.135149102541773573e+03
2.185815671354997448e+03
1.061950468313665397e+03
2.597374342225393775e+02
7.820573149562379456e+01
8.885224433611549557e+02
1.269730588744779197e+03
1.213674824966464485e+03
2.011472205570665665e+03
2.089510061496612252e+03
2.007337698505621347e+03
2.735948238596249212e+03
3.983445306299367985e+03
4.332514429964827286e+03
3.360055626865433169e+03
2.159829824263762021e+03
3.638215478724868717e+03
3.682136484869911783e+03
2.931824697243569517e+03
2.558914272215694382e+03
2.760245061491672914e+03
3.562161602111391403e+03
4.640304876502070329e+03
4.463478239935242527e+03
3.175407161586472284e+03
2.577992395402369766e+03
2.173957916544201908e+03
2.302949308061356987e+03
2.553681175332379098e+03
2.633957076280368710e+03
1.562533912661529939e+03
7.850150387968963059e+02
-9.069747503260815691e+00
-8.970092370771150172e+02
-1.209093247868946037e+03
-1.717465715432686864e+02
5.867436610554378831e+02
5.628788591637430727e+02
6.680837210953916383e+02
-3.691773439298707444e+02
-1.076440445229806073e+03
-7.531674378038640043e+02
-1.088826299059261601e+03
-1.887755303359463369e+03
-2.226402773691746461e+03
-2.521474545002070499e+03
-3.131554520210740520e+03
-3.195930036571337041e+03
-2.955904711860642237e+03
-3.137182243864231168e+03
-3.461327465463176395e+03
-3.257768773943639644e+03
-3.534088302392519381e+03
-3.489018090176216901e+03
-3.199091149880098328e+03
-3.697797721892340178e+03
-4.065632540274825260e+03
-4.242194331224481175e+03
-4.506132817358984539e+03
-4.503096276494773520e+03
-5.011777315273531713e+03
-5.472705974924951988e+03
-6.217217356784244657e+03
-6.471786828600158515e+03
-6.449945750032524302e+03
-6.441333698197356171e+03
-6.374415462530091645e+03
-7.346817545232576776e+03
-9.440104847920481916e+03
-9.760718088130815886e+03
-5.521077460015792894e+03
-4.363805115690859566e+03
-3.927306746458564703e+03
-3.905799708718516285e+03
-3.104030965220234521e+03
-1.352703633160656636e+03
-1.453331202128611267e+03
-1.718356205355470593e+03
-3.426387546990367355e+03
-5.697897090042863056e+03
-2.771958086101366916e+03
-1.504944260087264638e+03
-2.164658381664080935e+03
-2.770243026938870571e+03
-2.704937565199074470e+03
-2.604268925971243334e+03
-2.512376281156098685e+03
-2.715044029378529558e+03
-3.024712843874795908e+03
-2.438437152312460512e+03
-1.838147697667578768e+03
-1.455514922124324130e+03
-3.671060940688922756e+02
5.459944975004117396e+02
1.056551420803017209e+03
1.534490161835469735e+03
2.150807718720284811e+03
2.005466919063238720e+03
1.841083247895963041e+03
2.120219006549736605e+03
1.537773138738563830e+03
7.557081131365347346e+02
1.698800276925327637e+02
2.282284166337250042e+02
4.469804519010770605e+02
5.645954808885537659e+02
6.409705346638124865e+02
8.149237476066244881e+02
1.095088312777593501e+03
1.836257507671095254e+03
2.984528667999363734e+03
3.727988120606928533e+03
3.488982612765373688e+03
3.684889921537523151e+03
3.698466094304424132e+03
3.899794653946647486e+03
3.590413585114051330e+03
3.094395484159620992e+03
2.544923746648659289e+03
1.754462456500882581e+03
1.727363583983384615e+03
2.202297178467793401e+03
2.677579778959611758e+03
3.035909365561939467e+03
2.535518852427456750e+03
1.948692056963194318e+03
2.096471571801142090e+03
2.280742709745834418e+03
2.558585678270083463e+03
2.832198607582278783e+03
3.025615097160413825e+03
3.588954433044269535e+03
4.239234883792870278e+03
5.021679213760068706e+03
4.991281888634797724e+03
5.197204862643706292e+03
5.170768486294897230e+03
5.503887999749642404e+03
5.379596079975503926e+03
4.879951128080792842e+03
3.885019185831883533e+03
2.896875781037967045e+03
2.535657142736811238e+03
-1.306093774521764999e+03
-2.382248972396592762e+03
-3.118011576561985294e+03
9.698893176809380066e+02
8.886028861751766499e+02
2.171216524964226210e+03
4.312534070889757459e+03
3.809930717033999827e+03
7.056645390803164446e+03
4.055869615561371575e+03
7.489760952582701975e+03
8.917498560737329171e+03
8.740203380342501987e+03
5.477083905257877632e+03
7.687189610591019118e+03
8.208514157550727759e+03
4.930153194452842399e+03
4.970513819101341142e+03
4.277837434494003901e+03
-1.692080425020786606e+03
3.837685874329352487e+02
2.622556586919258280e+03
8.242073206900747095e+01
3.915404143420081709e+03
3.534538311629828513e+03
3.335025061116949473e+03
4.312136431551542955e+03
4.235004768462799802e+03
4.865607069630774276e+03
4.474050121145766752e+03
7.663618803361459868e+03
8.360541555651408999e+03
7.910869400649087765e+03
7.840484570291184355e+03
7.448382052101897898e+03
7.614797643692286329e+03
8.214752434887132040e+03
7.463304427271372333e+03
6.285431260405222929e+03
5.765216132682321586e+03
5.371044440407410548e+03
4.473527634374459922e+03
5.206162160908354963e+03
5.892384786389925466e+03
5.404274402021018432e+03
4.648752149216144062e+03
5.494895572955346324e+03
7.021793197155901908e+03
7.956722784025261717e+03
8.358893717591461609e+03
9.039766742710751714e+03
8.370810158193331517e+03
7.995986057340681327e+03
8.490435491589609228e+03
8.714190594520463492e+03
8.357145242688067810e+03
7.077450349364329668e+03
5.750651680151506298e+03
4.756832243160314647e+03
3.739323997654362756e+03
3.069687830393746481e+03
2.925452421208704436e+03
2.587217604535865121e+03
2.252546100631612262e+03
1.524757106281071401e+03
2.326734387966655049e+03
2.691012512604299445e+03
2.881686412054566517e+03
3.716626703748680029e+03
4.306128621247153205e+03
5.604923080849197504e+03
5.959326711942478141e+03
6.027526057895487611e+03
5.830734952605687795e+03
5.845222889532812587e+03
4.544884403226608811e+03
3.676488434154392507e+03
2.407620854657918699e+03
2.126104522523129106e+02
-5.466115541262964825e+02
1.533300965755472021e+02
4.459741393478645364e+02
7.279491266682018704e+02
1.037141001814028186e+03
1.736995767199085094e+03
2.017479856455189974e+03
2.004699116731490449e+03
3.051705360444944745e+03
4.644394341101459759e+03
6.122861080365762973e+03
6.228063038201409654e+03
6.120978594484810856e+03
5.616995845991351416e+03
4.793791285357633569e+03
4.471996330577645494e+03
4.496785183427768061e+03
4.171093112625883805e+03
3.680345796140812126e+03
1.806218383207114812e+03
-5.816088317859450996e+01
4.822024834865160301e+02
2.438793699572537207e+03
2.650249197884965724e+03
1.996386826172717974e+03
2.038709202696330522e+03
1.801023079094796913e+03
1.150855866924660859e+03
2.057017765229675661e+03
4.071455563617389089e+03
7.284269918136652450e+03
8.736588936409871167e+03
8.391196992290948401e+03
7.056734096051654888e+03
5.828467163384964806e+03
4.473680680391713395e+03
3.160662197582199042e+03
2.993242567974871690e+03
1.991909180472600610e+03
1.807086573026585484e+03
1.322544142575073238e+03
-2.376290706168773795e+03
-7.029809644337337886e+03
-1.113128680005366368e+04
-1.198653529061483277e+04
-1.050783209787311171e+04
-9.069412458865712324e+03
-8.019632503386911594e+03
-6.605921444809522654e+03
-2.283610560996100048e+03
-3.608348976165672411e+03
-2.743049364024857368e+03
-5.095352118400059226e+03
-2.270900384172902704e+03
2.800837377891171400e+03
3.527347420435065487e+03
2.304122956697120117e+03
1.051825382141108093e+03
-1.281749771432038642e+03
-2.527974263601942766e+03
-4.028164888290586532e+03
-5.979390144922283071e+03
-8.299907879838943700e+03
-9.340015619037962097e+03
-9.081005912437254665e+03
-8.483043355114972655e+03
-9.569500254350285104e+03
-9.895657869234370082e+03
-8.968828564151848695e+03
-8.769305971796236918e+03
-7.287499999052341082e+03
-5.635722528663518460e+03
-4.421120259686574173e+03
-3.697042724937156436e+03
-4.236709924657780903e+03
-5.128356940671096709e+03
-6.470279678585860893e+03
-6.702646638997419359e+03
-6.976597291614613823e+03
-9.215316368891868478e+03
-1.214290431741978864e+04
-1.319959231383348924e+04
-1.206263120849288498e+04
-1.150825353962735790e+04
-1.086369305185567100e+04
-9.620114329570855261e+03
-8.562682029652545680e+03
-8.872503192961483364e+03
-8.311784078227634382e+03
-7.052772689349056236e+03
-5.413775435241152081e+03
-4.142135626527886416e+03
-3.530175134918988078e+03
-4.434200666752479265e+03
-6.399539084240939701e+03
-8.479439240289111694e+03
-1.012228923245881742e+04
-1.115633407303130662e+04
-1.049090251000903845e+04
-1.125043571712091580e+04
-1.102029131444858285e+04
-1.139700593923582710e+04
-1.282984054537281190e+04
-1.366792502475505171e+04
-1.379442394739359406e+04
-1.430885710380833916e+04
-1.388409841465920181e+04
-9.486884512778458884e+03
-7.247703697346830268e+03
-7.099192914173157988e+03
-7.399095888947919775e+03
-7.262836412167133858e+03
-9.326953342595823415e+03
-1.318888071974935883e+04
-1.145962055328010319e+04
-1.112626026936874041e+04
-1.379669491360750362e+04
-1.727543630136025604e+04
-1.621499382359885931e+04
-1.597233985708618638e+04
-1.600328517182802352e+04
-2.030953768917113484e+04
-1.777108544833658016e+04
-1.526284019703683043e+04
-1.509477239533787179e+04
-1.568985773555755259e+04
-1.893512701442327671e+04
-1.838470441206427495e+04
-1.652265297059842487e+04
-1.120118034489431921e+04
-1.281647711011542924e+04
-1.081769361132366976e+04
-1.008401405922309641e+04
-1.098571825573132082e+04
-9.316147815421125415e+03
-1.178252937946698330e+04
-1.107221186663570370e+04
-1.171762073639152914e+04
-1.291732539055032612e+04
-1.529584677972362806e+04
-1.495362253265345316e+04
-1.224414644537395179e+04
-1.246406594652744570e+04
-1.423904048641336885e+04
-1.231473909845917660e+04
-7.981902920004009502e+03
-1.062223905474134699e+04
-7.935449117677282629e+03
-7.843400552071776474e+03
-6.107891096544299216e+03
-8.390714409848125797e+03
-5.840634578123154824e+03
-6.354733660708840944e+03
-1.526100991160345757e+03
-6.275354716026379265e+02
1.011956711825416846e+03
3.485273445662484392e+03
9.643653400048772255e+02
1.740796348603553270e+02
1.977298594335213238e+03
3.976860435249364855e+03
4.469549046093296965e+03
4.924268389059484434e+03
6.114752108346884597e+03
6.659779629295318045e+03
7.284025292141670434e+03
8.016032050408687610e+03
1.017837873363438484e+04
1.190651809656971818e+04
1.414202222389502640e+04
1.898349835912627168e+04
2.196456571587828876e+04
2.440672721936864764e+04
2.623151355160955791e+04
2.792742324998468030e+04
2.883399205655551486e+04
2.812867808998823602e+04
3.030377264427319096e+04
3.148728878203834392e+04
3.100786365933967318e+04
3.157766926615331249e+04
3.331991716410783556e+04
3.461691488293138536e+04
3.528143188602235023e+04
3.682144882197332481e+04
3.796271554849563836e+04
3.929736868108619092e+04
4.174730288153404399e+04
4.480189154938601132e+04
4.757262010131855641e+04
5.057598320592125674e+04
5.282641946816746349e+04
5.362197584323794581e+04
5.422823392218635126e+04
5.765561088323801232e+04
6.339606452136596636e+04
6.617446131671233161e+04
6.765248540350487747e+04
6.842972790870133031e+04
6.895165258618853113e+04
6.879563013954265625e+04
6.753907404474765644e+04
6.711467151624898543e+04
6.831123481739591807e+04
6.978791699197384878e+04
6.978532512831820350e+04
6.888909376772280666e+04
6.956465091408952139e+04
7.163702313114257413e+04
7.400242847428187088e+04
7.232343202251907496e+04
6.764641764511373185e+04
6.389110001149820164e+04
6.033113434137662989e+04
5.462228675678047875e+04
4.561944073537804070e+04
3.297847032396552095e+04
2.001025608349206595e+04
1.159563865320533841e+04
5.674626440928220291e+03
1.766201716865630942e+03
-3.105577997931420668e+03
-1.131851465130786892e+04
-2.246746777943235793e+04
-3.691238112471219210e+04
-5.488109402435464290e+04
-7.766327664353666478e+04
-1.007865791243884159e+05
-1.102974815851798485e+05
-1.254981939836740203e+05
-1.447871638914102805e+05
-1.572820804928803700e+05
-1.626823076829053462e+05
-1.688000173057064239e+05
-1.850102554531810747e+05
-1.915250733867547242e+05
-1.840535573460973101e+05
-1.698597397950041923e+05
-1.595756496188405436e+05
-1.567311665247272467e+05
-1.515471492927294748e+05
-1.482864526820268948e+05
-1.291715292591656034e+05
-9.298925134247972164e+04
-7.165721182292785670e+04
-5.849090242083791964e+04
-5.021885872707669478e+04
-4.248946232218383375e+04
-4.069025196832316578e+04
-4.811045281449391041e+04
-5.283821966412694746e+04
-5.268964332865280448e+04
-5.190188916774286190e+04
-5.196187228183163825e+04
-5.180065451653742639e+04
-5.204711620686664537e+04
-5.027196976685333357e+04
-4.943810061369731557e+04
-4.793337807606782735e+04
-4.166660109715820727e+04
-4.288040096551836905e+04
-4.790448395718452957e+04
-5.323037245707615511e+04
-5.717457382269627851e+04
-5.765655718367117515e+04
-5.716082738083434378e+04
-5.258980666782925982e+04
-4.222486601085210714e+04
-2.685331405090196131e+04
-1.343741386613342002e+04
3.697629411369495756e+03
2.528461799804558541e+04
4.466139118505051010e+04
5.822086663873959333e+04
7.134004441687634971e+04
8.653392330886033596e+04
9.783554359968692006e+04
1.164449108565371425e+05
1.364458735549029952e+05
1.471023575892381486e+05
1.480775714361172286e+05
1.454847140296386788e+05
1.430768705276030814e+05
1.366021730707247043e+05
1.289678006918309402e+05
1.218258028166035801e+05
1.170852560699488240e+05
1.140222376183312590e+05
1.086510679260657926e+05
9.947702401736365573e+04
9.267038043295177340e+04
8.906237655322684441e+04
8.940928063680834020e+04
8.784835179181212152e+04
7.902272179136017803e+04
7.477267697273855447e+04
8.197422654358828731e+04
8.241958895974802726e+04
7.629729997458949219e+04
7.939102947668773413e+04
8.443301899865780433e+04
8.537122586900385795e+04
8.247960030179355817e+04
7.230623130945960293e+04
6.426914043007999135e+04
5.924626668649479689e+04
5.409838713916304550e+04
4.823489630138765642e+04
4.053260127860138164e+04
3.038978873344598105e+04
2.052903310719524234e+04
1.032712066886824869e+04
-4.200614192860160756e+02
-1.004167980083676230e+04
-1.852493369098955372e+04
-2.858297473999488284e+04
-3.824816284773466759e+04
-4.452875369417027832e+04
-4.904101517872192198e+04
-5.253236101419175975e+04
-5.527139504990827118e+04
-5.675669982182783860e+04
-5.841981764933464729e+04
-5.954119514214815717e+04
-6.077261557779846044e+04
-6.126487594129467470e+04
-6.156260760770112392e+04
-6.209577817915707419e+04
-6.144739959868842561e+04
-6.151038866516050621e+04
-6.238969966516867862e+04
-6.316129529455752345e+04
-6.384619886353737820e+04
-6.457945391235808347e+04
-6.503528148854383471e+04
-6.486190867550835537e+04
-6.312949986232691299e+04
-6.184130940292107698e+04
-6.046990620364623464e+04
-5.892896899676296744e+04
-5.808793343368254864e+04
-5.693641071839305368e+04
-5.456816867271976662e+04
-5.090892938967706141e+04
-4.610641898526850127e+04
-4.038046373651476461e+04
-3.551800444069432706e+04
-3.128512078767906496e+04
-2.734286221547738387e+04
-2.375528571412516612e+04
-2.037634897008416374e+04
-1.691809019878162508e+04
-1.470065886449893696e+04
-1.224437735981268270e+04
-9.623677196858714524e+03
-8.401028813366649047e+03
-7.869691477053701419e+03
-1.061236656301831863e+04
-1.476665131328409370e+04
-1.904293408713042299e+04
-2.033384627985702537e+04
-1.856920511414568318e+04
-1.155778389977070583e+04
-8.022401865299942983e+03
-4.829320720718227676e+03
-2.510434270220077906e+03
-2.112588208762810154e+03
-2.504714945663607068e+03
-3.639882040303252779e+03
-5.538982110626655412e+03
-9.249373480947936059e+02
3.889597818046865996e+03
4.892609894054977303e+03
6.181180053768796824e+03
1.033416941651715206e+04
1.266892692385847658e+04
1.488911199368832968e+04
1.893336966142195524e+04
2.134570271845659227e+04
2.343315489424033876e+04
2.602722999604469805e+04
2.885862758023996867e+04
3.142586079083855293e+04
3.395064887638447544e+04
3.694219947806376149e+04
3.860774019349052833e+04
3.971537754784268327e+04
4.146801734690303419e+04
4.299778263469146623e+04
4.413506450244716689e+04
4.502242735568367789e+04
4.630100233549821860e+04
4.746939941350169829e+04
4.840967923984874506e+04
4.815636248756223358e+04
4.720985719674347638e+04
4.687661431075861765e+04
4.713775201666876819e+04
4.664838997944566654e+04
4.562002736166882096e+04
4.481212060206762544e+04
4.385770260232857981e+04
4.283987043713015737e+04
4.150252978896402055e+04
3.939563530125130637e+04
3.719181101265842881e+04
3.589029653286334360e+04
3.589374116767179657e+04
3.369813217934918066e+04
2.916816972937538594e+04
2.614084088367342338e+04
2.374489109070239647e+04
2.114080656866085337e+04
1.902997531849061124e+04
1.635530129056816440e+04
1.292527996137844457e+04
9.056270698581873148e+03
5.294925769635241522e+03
3.194967775359245024e+03
1.247953955862617704e+03
4.955581702244306257e+02
5.363151074446536626e+01
-9.699360128019972080e+02
-2.099331124035390530e+03
-4.793041905176706678e+03
-8.620263950145512354e+03
-1.197205737343837427e+04
-1.476785958081227909e+04
-1.757354630030907720e+04
-2.066810494107474005e+04
-2.439644335342051636e+04
-2.843747101738713172e+04
-3.331702455399508472e+04
-4.076283583614389499e+04
-4.586687916783169203e+04
-4.622278472655115183e+04
-4.942711565059975692e+04
-4.967365695761854295e+04
-5.480425884541901178e+04
-5.343317379677031568e+04
-5.543393993334013066e+04
-5.469223625765112956e+04
-5.187560841651409282e+04
-4.697855774481946719e+04
-4.722854294341578498e+04
-4.679296876401682675e+04
-4.546315209432590200e+04
-4.627139218099179561e+04
-4.551793723171613965e+04
-4.258689299064489751e+04
-4.263443833962263307e+04
-4.538291509487261646e+04
-4.264259865221798827e+04
-4.176635904919313907e+04
-4.392809768544211693e+04
-4.521173097354361380e+04
-3.858012543348075269e+04
-3.777913064861152088e+04
-3.788950797749377671e+04
-3.321204380001724348e+04
-3.102859704392627100e+04
-2.827995550745765286e+04
-2.278278966118588869e+04
-1.918570523429152308e+04
-1.874147250561068358e+04
-1.205082968019741384e+04
-6.340376351536284346e+03
-3.414393041734049348e+03
-5.171418486092815101e+02
1.986923750952403452e+03
5.079346629472191125e+03
7.913911715248730616e+03
1.048666513327467328e+04
1.350169674472214683e+04
1.538988094223685584e+04
1.686673255299238372e+04
1.938582269529985570e+04
2.200569993057905231e+04
2.465614065047052281e+04
2.661115823859595548e+04
2.804182355514221490e+04
2.886738572395974188e+04
2.917811852849828938e+04
2.821549130954045540e+04
2.819662732352051535e+04
3.055645664930868588e+04
3.342939657747979072e+04
3.341886241359806445e+04
3.239922069348984223e+04
3.155972085763425639e+04
3.133303088277839925e+04
3.183375435330619075e+04
3.238707803277198036e+04
3.257582330101099433e+04
3.194590942133988574e+04
3.191509004885387549e+04
3.131346183421331807e+04
2.933239272213778895e+04
3.010003216185242491e+04
2.973431726450165661e+04
2.903342824388462395e+04
2.871487125500867114e+04
2.837176804730397998e+04
2.842796241922432819e+04
2.696203286878044310e+04
2.532811396383649844e+04
2.420889088845223523e+04
2.378189076072704484e+04
2.283814101634403050e+04
2.215603603685773487e+04
2.068807395590274973e+04
1.910764584009376267e+04
1.825030736285133025e+04
1.778120336206863067e+04
1.774431299358109027e+04
1.654729266122517947e+04
1.594547533437227503e+04
1.430393405714517212e+04
1.377353019216542998e+04
1.325577618036207423e+04
1.265623669027577853e+04
1.241324283344054675e+04
1.284321671753041301e+04
1.356640350942768055e+04
1.328967840150719712e+04
1.287388490945198464e+04
1.224730281480335543e+04
1.087383802928812656e+04
9.507309209862254647e+03
8.741930154298863272e+03
8.684298421742425489e+03
9.202728548242917896e+03
9.014250646361750114e+03
8.381333724745491054e+03
7.582549467985119009e+03
6.781833569411576718e+03
6.116148981379923498e+03
5.779603151212151715e+03
5.671908256025956689e+03
5.234503981110560744e+03
4.567137504829728641e+03
3.910403841275063314e+03
3.365816432500997962e+03
3.253711578510800337e+03
3.663379401010143738e+03
3.412356043887938995e+03
2.695391420670651769e+03
1.933731636362679637e+03
1.255471629822431851e+03
7.456124977205882942e+02
6.361134452580933640e+01
-7.206890996410583057e+02
-3.758374223222022920e+03
-7.744329606630732087e+03
-1.203296796463075225e+04
-1.258251329226967027e+04
-1.269357883595840940e+04
-1.249636475078679359e+04
-1.192952338766378125e+04
-1.092467822092644928e+04
-1.050518150829452861e+04
-1.087807721826037050e+04
-1.090908222167896747e+04
-1.125808477500285699e+04
-1.181611919739624500e+04
-1.149512920245946225e+04
-1.014171840338767106e+04
-6.070899604928084955e+03
-4.380591627660478480e+03
-4.264667098602591068e+03
-4.220209861553567862e+03
-4.369312629631169330e+03
-4.756863787828488967e+03
-4.713994480387893418e+03
-3.987065945234700393e+03
-3.895277624989088963e+03
-4.730946830294309621e+03
-5.363356332335633851e+03
-5.300954310241688290e+03
-4.740060914116277672e+03
-5.106991678279888220e+03
-5.271077261914872906e+03
-4.167708585511752062e+03
-3.223269710283695076e+03
-3.429190316290312239e+03
-3.690022714937469118e+03
-3.993092043206608651e+03
-4.832648694386200987e+03
-5.650079254768668761e+03
-6.144820674647493433e+03
-6.110265284758052076e+03
-5.791832336742817461e+03
-5.840056854179062611e+03
-5.762544131324955742e+03
-6.172677825992414000e+03
-6.986944498055473559e+03
-6.823819094384352866e+03
-6.424659145632092077e+03
-6.482935252393433075e+03
-6.443259646295505263e+03
-7.074213832730550166e+03
-6.699393975520907588e+03
-5.807373283948058997e+03
-5.645596614410977963e+03
-6.002503846721558148e+03
-6.803549151216775499e+03
-7.194154554978345914e+03
-7.267705595476017152e+03
-6.815664349026997115e+03
-6.709341588259352648e+03
-7.481108463357228175e+03
-7.553333693126065555e+03
-6.341222002601060922e+03
-6.489990537401484289e+03
-7.873634013291528390e+03
-7.780277863792872267e+03
-6.765199211299356648e+03
-6.212827574981312864e+03
-6.095614437294784693e+03
-4.894661600617592740e+03
-3.895267173666135932e+03
-3.833969969539650720e+03
-4.206969193455405730e+03
-4.284315014598661946e+03
-4.331129471769285374e+03
-4.437361841466810802e+03
-4.593951346794191522e+03
-5.981657042426102635e+03
-6.342744541940905947e+03
-5.949091434577791006e+03
-5.341791611570521127e+03
-4.790133759024196479e+03
-4.833020798565581572e+03
-4.948518191853505414e+03
-4.718835955720218408e+03
-4.609858721730719481e+03
-4.339524839452586093e+03
-3.624917869538938703e+03
-3.400081515677392872e+03
-3.117904396907126738e+03
-2.416426963453802273e+03
-2.672641429101460290e+03
-2.532311624558358744e+03
-2.334286241391223939e+03
-1.800517346115364262e+03
-1.940799691648324142e+03
-1.101959592939639606e+03
-2.698022134998985280e+02
-1.991264509249674859e+02
-8.787479082018023746e+02
-5.964441083590529615e+02
-4.188115862255421007e+01
5.612628388356232563e+02
1.047179001518820769e+03
1.753109670427067840e+03
2.129402059928775543e+03
2.281417812839876660e+03
2.167464579136033080e+03
1.977840844938373493e+03
2.012900932438552900e+03
2.022020303330433990e+03
3.024603701628900126e+03
4.172038532397260497e+03
4.482599949783004377e+03
3.988481667000121888e+03
3.915204157094060520e+03
3.576373593441204321e+03
3.340330502083412284e+03
3.968401115266167835e+03
4.278026937369113512e+03
4.114555202425180141e+03
4.182406577728400407e+03
3.817103307877193856e+03
4.486095419127791502e+03
4.966787778319639983e+03
3.781452033757380832e+03
2.700433517998751086e+03
2.338972922925021976e+03
3.773390902781506611e+03
6.007056041896994429e+03
6.096356495902842653e+03
5.215663527518687260e+03
5.645375676655977259e+03
4.544837393139443520e+03
4.170315223488033553e+03
3.676169999845396887e+03
3.368799267948837496e+03
3.158551447507511966e+03
2.678769066725415087e+03
1.509911966077635270e+03
6.403096318195949834e+02
4.931640382405418563e+02
5.145356670480084631e+02
-8.174667592702066088e+01
-2.565142666682512299e+03
-1.013775167116288117e+03
5.979025966739932301e+02
1.393035312081559596e+03
1.110924830675376370e+03
1.315147944193114995e+02
-4.705560436627966396e+02
-7.145049305779177757e+02
-7.735081399974645819e+02
-3.466166146219820803e+02
-3.427575468217246453e+02
-5.147018949723155856e+02
-1.371657887735634631e+03
-2.245195487749041604e+03
-2.550286274168466207e+03
-2.880502432661784496e+03
-3.016303079605612311e+03
-3.286703716789085320e+03
-3.163578478827158506e+03
-3.431510345001738642e+03
-4.170598056849967179e+03
-4.206727697866395829e+03
-3.607274741295575495e+03
-2.862972423829067793e+03
-2.876365878266748041e+03
-3.064687226833933437e+03
-3.419863499904234686e+03
-3.708991307075788882e+03
-3.313662752711300072e+03
-3.289144818762968043e+03
-3.727182879554239207e+03
-3.757098143488527967e+03
-4.313211591892460092e+03
-5.292662995958900865e+03
-5.397655844811903080e+03
-5.414431764774421026e+03
-5.502189981200174770e+03
-4.928060811396743702e+03
-4.149311545042231046e+03
-3.505288907883908905e+03
-3.129201235985539824e+03
-3.166383079604283921e+03
-3.524031453006735774e+03
-3.124397491392613574e+03
-2.726701415313237703e+03
-2.193137291714103412e+03
-2.195837404395185786e+03
-2.429139021584301645e+03
-1.957516330915639173e+03
-2.023065937299945460e+02
7.184139453685482977e+02
1.328480221145131736e+03
-2.863965941089283547e+02
-3.375476868822887354e+03
-6.587092451661408631e+03
-6.807517014805291183e+03
-6.953035630811868941e+03
-6.561865527745726467e+03
-6.257403036527252880e+03
-6.396721526444620395e+03
-3.881580003444775571e+02
3.474833272226631834e+03
-3.716992472110428025e+02
-1.671228205592875838e+03
-1.318167552196426868e+03
-1.224810169386016469e+03
-1.244527233328333750e+03
-3.654786706511731609e+02
3.813053598971454448e+03
8.015648231535372361e+03
8.665926105098622429e+03
6.182578643410086443e+03
-5.217553400231037131e+02
1.711704134499038673e+03
2.597733623579218602e+03
-1.186961611657661933e+03
-1.842813754502082929e+03
-1.254201078936632484e+03
1.849669694360992935e+03
4.829432161331648786e+03
7.214782524893434129e+03
7.298341615910077053e+03
7.485818706241568179e+03
7.703868645696371459e+03
7.328161914827085639e+03
8.086270198450162752e+03
8.492799032369139240e+03
8.834521569675294813e+03
8.089116053377213575e+03
7.274259087812708458e+03
7.222756761859055587e+03
6.721336310912387489e+03
5.985648343066552115e+03
6.073332569371500540e+03
6.262105265075559146e+03
6.026755630072296299e+03
5.464078731233203143e+03
4.436797316871693511e+03
4.497657930418308752e+03
4.956410095886461932e+03
5.305752427969149721e+03
5.526381339228386423e+03
4.902198043999627771e+03
3.754973912221262708e+03
2.813463316755266987e+03
2.453403922493320351e+03
2.244503169396785779e+03
1.474518615353165615e+03
7.883111054733096807e+02
-3.829068794330737546e+01
-1.166424552655380239e+03
-1.827121716004100108e+03
-1.292670242259205907e+03
-7.604753846018128343e+02
-4.195892520836386552e+02
-1.522717127047565782e+03
-2.718570240887092950e+03
-2.797222023784260728e+03
-3.124956938561027528e+03
-4.083989361906759314e+03
-4.830385190379297455e+03
-5.522211631472446243e+03
-7.517638543738154112e+03
-1.108768225102311953e+04
-9.767366155463645555e+03
-7.478800699684947176e+03
-6.591984193046819200e+03
-7.571847149086571335e+03
-6.988351503228731417e+03
-7.299591438592544364e+03
-7.795195089614195240e+03
-7.901985369161807284e+03
-8.303864018247422791e+03
-8.560800667013018028e+03
-8.501668904618483793e+03
-9.247376218402374434e+03
-1.015189974595207241e+04
-9.693178212004206216e+03
-9.406066297449724516e+03
-8.653414958755021871e+03
-8.660096707488806715e+03
