8.563668113285444861e+02
1.314018349785053772e+02
-3.092108882426298919e+02
-1.052419489144354429e+03
-2.045232334051847147e+03
-2.645674474831534098e+03
-2.709869646774070134e+03
-2.640718731589816798e+03
-3.089151616884214491e+03
-2.756182569327042984e+03
-1.792652311844141877e+03
-1.203546074829178451e+03
-6.589580120106077175e+02
2.530912688134185942e+02
8.317316219183383055e+02
1.511145282961810153e+03
1.932201779319202387e+03
1.858789604664906847e+03
1.813873989100862673e+03
1.759445604681661735e+03
1.785492769308075140e+03
1.313007911243435728e+03
3.908986025925601666e+02
-5.019786671457474085e+02
-1.311633805836643432e+03
-1.860980223492952518e+03
-2.310692452159512413e+03
-2.184889307450573597e+03
-1.637600915877054376e+03
-1.120848667426618704e+03
-1.146014652536903355e+02
4.861217442230368988e+02
5.912618765464702619e+02
2.976682288272050414e+02
-9.797675285788379824e+02
1.120112998837010537e+03
2.066069614283522696e+03
2.003548063630209299e+03
1.396437091830561485e+03
7.153431972898165441e+02
2.683744958316573275e+02
1.064073917450017603e+01
-5.380307909798127639e+02
-8.973755017995031267e+02
-9.497725496904408828e+02
-1.957132465543178796e+03
-2.722900541076002810e+03
-2.700396117640425018e+03
-2.657465252601890370e+03
-1.867067535835093167e+03
-1.014280021513244719e+03
-4.819838613179931741e+01
3.952416906232558063e+02
2.600248366879681043e+02
1.150982408441023154e+03
2.412192745261872460e+03
3.607684753313838883e+03
3.657291941233405851e+03
3.394770957086310318e+03
2.984042499501521434e+03
2.340127717071322877e+03
1.646931087736954623e+03
8.784163330352176899e+02
-2.254988172038302991e+02
-1.428881487220412055e+03
-2.234823304278301748e+03
-2.355421945856353432e+03
-2.332730213470234048e+03
-1.912783532077479322e+03
-1.413557523873926584e+03
-6.220951735160156204e+02
-2.142880584193041216e+01
4.764063988435389092e+02
1.467472819418266454e+03
2.282706892861579945e+03
2.961031017765852539e+03
3.486429962745494322e+03
3.357899926972157118e+03
2.937461604734238790e+03
3.249066516786130251e+03
3.467675047204555540e+03
3.133251109684648782e+03
2.370748958477858196e+03
1.269969629862313923e+03
9.792709506297045152e+01
-7.035218476562167780e+02
-2.571372348908549611e+03
-6.026629676984188336e+03
-1.062056635633650694e+04
-1.039125518139424275e+04
-4.151603280149060993e+03
-8.836581725876984592e+02
-5.170444340725976872e+03
-7.942032524429317164e+03
-6.672442393324035038e+03
-5.946681502404155253e+03
-4.420749536989878834e+03
1.183091582884219832e+02
2.235620773713183667e+02
1.892228399358796651e+03
3.389970143490069859e+03
3.721835894466441914e+03
2.985810772106308832e+03
1.529755050516655047e+03
3.866462590520483218e+02
-1.327032530308204059e+02
-4.192929765651796856e+02
-7.351561658385872988e+02
-7.893357801545396342e+02
-6.528124812477210526e+02
-1.196497038015031080e+02
5.832511853152710728e+02
1.317916386655080487e+03
2.185301509388099021e+03
3.308402286793069379e+03
3.654264023074801116e+03
3.707895059673275682e+03
3.885245482365631233e+03
3.502365062613398095e+03
2.899270508815843186e+03
2.215889560278204499e+03
1.363183312384130886e+03
6.230736752544113415e+02
-1.783867783487562235e+02
-7.312312997219964927e+02
-8.915695660476364992e+02
-1.442448095902871728e+03
-2.070846502637938556e+03
-1.898852205746068648e+03
-1.324441162811835284e+03
-5.365972805428070842e+02
1.847144395182625942e+02
3.813789916353468925e+02
9.524398117247509390e+02
2.104931112439262506e+03
2.770876816808108288e+03
3.145237127156962742e+03
3.730990416278963949e+03
3.897115453645082653e+03
3.583640039854761199e+03
2.670566946116919098e+03
2.479823368724261854e+03
1.788320059784073464e+03
8.550001597588657205e+02
5.181602073586546453e+01
-5.133132265770494769e+02
-9.584588397030202032e+02
-1.272700726636438048e+03
-9.241225922812728868e+02
-7.906467462956579766e+02
-6.143569598674291683e+02
5.757280961279013809e+02
1.407609915081778126e+03
2.116329487217177302e+03
2.799858164413890790e+03
3.184138915773216922e+03
3.746126522022786503e+03
3.544867448494631844e+03
2.776263084385025650e+03
2.198225718912768116e+03
1.963693665121250433e+03
2.098653947030862128e+03
1.101359554334393351e+03
7.105701242754703344e+02
-2.097157351413426568e+03
-4.139908687301880491e+03
-9.006636925073880775e+03
-1.051238266611262225e+04
-1.002723975377497300e+04
-9.284218787228634028e+03
-8.926391296815269015e+03
-7.951759396195697263e+03
-7.336314708514057202e+03
-6.629046867528563780e+03
-6.192037071945466778e+03
-6.002345856006329996e+03
-5.388929594958782218e+03
-5.546947450786794434e+03
-5.196600946784101325e+03
-3.130880832696341258e+03
-2.738557602735529031e+02
-3.748676322702006473e+03
-5.591419245511805457e+03
-6.595164290972743402e+03
-7.181959858264071954e+03
-7.582843750509022357e+03
-7.803920144063517910e+03
-7.434278751229741829e+03
-6.409030688290421494e+03
-9.241543602955239294e+02
1.747358651714968801e+03
-2.717456072474422854e+03
-3.373619779232565179e+03
-4.622003478296646790e+02
1.712708147544802614e+03
-1.251837317692946044e+03
-5.585721433451237772e+01
4.020533478280814052e+03
3.317325564597011635e+03
1.112519637703187755e+03
5.980999617405824210e+03
5.551648572610757583e+03
5.545482602493624654e+03
6.060481664082320094e+03
4.597595550917444598e+03
4.328687288132904541e+03
3.593696975093721903e+03
3.165591191854547560e+03
3.464323865143254807e+03
4.035962291319347969e+03
5.179427201951419192e+03
6.353653376910332554e+03
7.422633782333758063e+03
8.281428289673216568e+03
8.979904065345161143e+03
1.007703168469557568e+04
1.099076656750871734e+04
1.107912439881475802e+04
1.074829534571801923e+04
1.019129234063672084e+04
9.401931626207247973e+03
8.815036082005013668e+03
7.712609512303712108e+03
6.816757051658468299e+03
5.410527180527071323e+03
3.083004251408034634e+03
3.058224470937731894e+03
2.946157872494360618e+03
1.499506847072535720e+03
1.447023594855771989e+03
3.134003578133693281e+03
3.310565405551009007e+03
3.483730791533142110e+03
3.250386729734113032e+03
3.386602124159694995e+03
3.021080375154109333e+03
2.240796598402067957e+03
2.086263553945747390e+03
1.284249073108672064e+03
2.346008174722340698e+02
-7.198609042270451255e+02
-1.379785003981559157e+03
-1.098479077834109376e+03
-2.014295838279862210e+03
-2.779935620175820986e+03
-3.849596895131713154e+03
-5.236718822934480158e+03
-6.527961123092107300e+03
-7.350451691757387380e+03
-8.103889906330447047e+03
-7.441991267641114064e+03
-6.799603387728647249e+03
-6.312106259138514361e+03
-6.108333641558626368e+03
-5.121326000877466868e+03
-4.065382383583604678e+03
-3.619489980481625480e+03
-4.894614982711327684e+03
-4.557679891975636565e+03
-3.786692204471759396e+03
-3.856695813800778978e+03
-4.175690384264082240e+03
-5.410650983398665630e+03
-6.983661914514871569e+03
-7.931752881154075112e+03
-8.451842823311579195e+03
-8.016995875319449624e+03
-7.459283929822557184e+03
-7.430657285374536514e+03
-7.281017313385482339e+03
-5.832442124789880836e+03
-1.747864875119724275e+03
7.647811077620556262e+02
2.597593828698678408e+03
4.092649531309828035e+03
5.010996087650233676e+03
5.217669644474947745e+03
5.207647605648422541e+03
5.541994989445886858e+03
4.584790254875324536e+03
1.621075117532324157e+03
-2.659110658000276544e+03
-5.530725935712905994e+03
-6.727803002756104434e+03
-7.024373530680508338e+03
-7.491435103342099865e+03
-7.841931151485205191e+03
-7.962799208498027838e+03
-8.426994980879149807e+03
-6.739442950814393953e+03
-7.364046694601503077e+03
-7.782469077724168528e+03
-4.080937806538602217e+03
2.013683557849324416e+03
1.585557444465638127e+03
-2.488195582073828518e+03
-3.113538854678488406e+03
-5.034251858654417333e+02
1.029222199867209156e+03
-2.739520772114829015e+03
-2.886171665995675539e+02
-1.530054268547887432e+03
-2.616685074201202951e+03
-2.367433323775522240e+03
-2.367306690800591241e+03
-2.118171993823803859e+03
-2.174052483985906292e+03
-2.475922955731160982e+03
-1.251678759279866426e+03
5.118055166732183352e+02
8.367202530206712936e+02
2.599113859696829877e+03
6.299017395884624420e+03
8.936534306979832763e+03
8.867823914092425184e+03
8.281031785262270205e+03
8.407294264141903113e+03
7.828660146335818354e+03
7.478202908238440614e+03
7.009988222155563562e+03
6.325121691713422479e+03
5.188601963916212298e+03
4.137415572423988124e+03
2.630507747510397166e+03
1.369941379934763290e+03
7.127103482745671954e+02
3.438328180475000408e+02
-3.867398393984315703e+02
-9.180417351662737246e+02
-6.990983742687038784e+02
-1.620150707535052277e+02
-7.171573648105530197e+01
1.976489685537315566e+01
1.633468642075079345e+02
6.120857486296670231e+02
1.314956831191404262e+03
1.901893043395909444e+03
2.752864483942061725e+03
4.242923818818067957e+03
3.959141940388619787e+03
4.005558050456540059e+03
3.424207386489546479e+03
3.986072821792947707e+03
5.205451260232146524e+03
4.873491293295036485e+03
3.671173176821511788e+03
3.734166034302779281e+03
3.877369844910694610e+03
3.971070397808641246e+03
3.342063412564087685e+03
3.038373966117545933e+03
2.835854687444571937e+03
2.855669680975012398e+03
2.475809688701589948e+03
2.445091525646842911e+03
4.109245750360094462e+03
4.659042575110337566e+03
4.290411774443467039e+03
4.372495575930894120e+03
4.534484987672953139e+03
4.388547303186223871e+03
3.557808001931610761e+03
2.775419050641421563e+03
1.852459303047778576e+03
4.810128884760467258e+02
-9.537811579798651564e+02
-2.702731840388551973e+03
-3.101745453670820098e+03
-3.169643562397012829e+03
-3.716301793931354950e+03
-4.327639283815768067e+03
-4.132504285859226911e+03
-4.051613305232581752e+03
-4.246758482459070365e+03
-4.282768177076935899e+03
-4.160372403576468969e+03
-4.058370067131708311e+03
-4.000571044439605430e+03
-4.728808757511696058e+03
-5.029947043365415993e+03
-5.254825546567743913e+03
-5.935232284888942559e+03
-6.966059806468669194e+03
-8.153108554998720138e+03
-9.459171033335809625e+03
-1.036114215671947386e+04
-1.050889802341034192e+04
-1.020825985096906879e+04
-1.112604342325198559e+04
-1.176801828265639961e+04
-1.137903016601227137e+04
-1.056682891115395068e+04
-9.908140699303829024e+03
-9.682790474590457961e+03
-9.136565077042789198e+03
-8.593219910302648714e+03
-8.058477635040077985e+03
-7.777115957786694707e+03
-7.452993803328921786e+03
-7.099904998768557562e+03
-6.847782946082296803e+03
-6.993388571846347986e+03
-7.532277541292442947e+03
-8.507460017537381646e+03
-9.448886913826394448e+03
-1.016147068662617676e+04
-1.101802501052751722e+04
-1.103643235009885029e+04
-1.110463777499628850e+04
-1.021749570817264612e+04
-9.206846063504710401e+03
-8.460584377260418478e+03
-7.342581351451036426e+03
-5.537741094997692926e+03
-4.239883048027711084e+03
-3.343831364402409690e+03
-2.835501378425193707e+03
-2.602956369531925702e+03
-3.183375753456783173e+02
9.400021441112905904e+02
9.800794454471681547e+02
3.387869688638004959e+02
2.690933750528749613e+01
-5.809833912607599160e+01
-5.965128610792941117e+02
-1.248404368793465892e+03
-1.899879946511194476e+03
-1.798417911147078257e+03
-1.368657049532316023e+03
-8.563818596668885164e+01
1.201166469555428193e+03
2.646070170108396724e+03
5.930624165682755120e+03
8.450932302635987071e+03
9.523730933707371150e+03
1.083886182464438934e+04
1.149417532050084264e+04
1.167696522196126352e+04
1.200482240387533784e+04
1.209241315591636339e+04
1.165314575242792307e+04
1.115618664035950133e+04
1.035292512177544450e+04
9.395245598079121919e+03
7.626734275926940427e+03
5.997893434220201925e+03
5.444333675782228056e+03
5.558589773660235551e+03
5.448858024356589340e+03
5.739603192907759876e+03
5.969211951270772261e+03
6.886171460319668768e+03
7.845980896763278906e+03
8.048898513690172877e+03
8.960165703371010750e+03
1.037872425485142048e+04
1.089741019858539767e+04
1.051026544665071742e+04
1.077324609912814230e+04
1.130391252986060681e+04
1.121275474063832735e+04
1.041150510662890338e+04
9.181640825035465241e+03
8.174765346534257333e+03
7.350426992444590724e+03
7.170057809875438579e+03
6.613223493404227156e+03
6.088705291813500480e+03
5.867937005168837459e+03
6.505358019219608650e+03
6.685555438385677007e+03
6.598121524806145317e+03
5.902591884888060122e+03
4.908531499403563430e+03
5.995565668616077346e+03
7.700348335364839841e+03
7.519515645520552425e+03
4.804628956551649026e+03
2.200225537227978293e+03
1.001900749019882028e+03
4.742017704211935438e+02
1.045719393450532152e+03
1.946258131866832855e+03
1.630284259862334920e+03
-4.865685265822688876e+01
-1.014912691507149816e+03
-8.801730368844677344e+01
-1.400497612052861768e+03
-1.334632421593225445e+03
-2.979588517797870750e+01
3.275702794455500225e+03
9.895600820286322232e+02
3.285455617179140972e+02
1.844379898299186607e+03
3.602760205204037902e+03
3.864483134912969490e+03
4.031244652062584919e+03
9.522758592811725975e+03
1.089275286385368781e+04
5.596872748714648878e+03
3.337006527465990075e+03
3.084861155101216809e+03
6.114241812687985657e+03
1.978008229909595229e+03
-3.640167273926813323e+02
-1.726053624047790663e+03
-2.428203587683314709e+03
1.174330644286542793e+03
3.496384481899062393e+03
4.311898968154700015e+03
5.931870093022169385e+03
6.781137939433644533e+03
7.680698198513468014e+03
7.673563785212842959e+03
8.375837803945405540e+03
9.371459852289022820e+03
9.526389090486029090e+03
9.208708264377859450e+03
9.390484577369121325e+03
8.900887750580972352e+03
7.963002889519381824e+03
7.249948721781844142e+03
6.193854114262175244e+03
4.587746871475178523e+03
2.910793934259768321e+03
2.148206541163775000e+03
4.521715280423879335e+02
-1.152215347651744423e+03
-2.209974964204223397e+03
-2.557781664947939589e+03
-2.711304836833025547e+03
-2.517237890250808960e+03
-2.098155327451019730e+03
-2.154700741370560536e+03
-2.279612763303115116e+03
-2.395560018560104709e+03
-2.565860866973514476e+03
-2.765524562309349221e+03
-2.737153485830249792e+03
-3.642511652341697300e+03
-5.125075960657291034e+03
-6.909432208951769098e+03
-8.780119867897865333e+03
-1.004166978991781252e+04
-1.183060930495095636e+04
-1.412034244196828513e+04
-1.681256276147865356e+04
-1.737561974517317503e+04
-1.815784982565361861e+04
-1.874071542562780451e+04
-1.886622204741801761e+04
-1.873074058597228577e+04
-1.905597738122445298e+04
-1.945566642107683947e+04
-1.951127607662719311e+04
-1.970799223534688645e+04
-2.013570597092436219e+04
-2.102528596119690701e+04
-2.209486150898133565e+04
-2.318872555845271199e+04
-2.478424633292491853e+04
-2.572777024804574103e+04
-2.720370816911735528e+04
-2.934853910695141167e+04
-3.113471356534278311e+04
-3.297072192234346585e+04
-3.416593821416026185e+04
-3.472856003313116526e+04
-3.528408646629050781e+04
-3.523309094544884283e+04
-3.500587704692259285e+04
-3.401749291655814159e+04
-3.204828262304677264e+04
-3.023962367385985635e+04
-2.808973715119329063e+04
-2.564099761446005141e+04
-2.255073810007193606e+04
-1.997628479339883052e+04
-1.761193678709552842e+04
-1.561904875738014562e+04
-1.285401764233348331e+04
-9.717297512558589005e+03
-6.017308880248708192e+03
-2.257495229573477445e+03
1.264692070251321638e+03
4.668750963196767771e+03
7.486138023179471020e+03
1.150230855988692747e+04
1.543981561460775083e+04
1.854317470897835665e+04
2.186386140469045858e+04
2.454934082370197939e+04
2.702006847459195342e+04
2.889447442778562618e+04
3.056694584333522653e+04
3.222183142537029926e+04
3.335359790496154164e+04
3.396955023088060261e+04
3.366604867586201726e+04
3.502526581609597633e+04
3.533446513556884747e+04
3.186699082113404438e+04
2.625514480686152820e+04
2.420300590123291477e+04
2.252376438280137154e+04
2.192757612595639876e+04
2.082861157145423567e+04
2.024700418928307772e+04
2.015683751415606093e+04
1.967511410169256851e+04
1.917501447547217322e+04
2.332866424680284763e+04
2.576684845541650793e+04
2.651066552656681961e+04
2.679416426817297179e+04
2.692727159214850326e+04
2.660288425937005741e+04
2.615491427069063138e+04
2.640330174494224048e+04
2.611984184274122163e+04
2.490835898331055432e+04
2.362368283785227322e+04
2.295262853874446591e+04
2.192098874587853061e+04
2.145137970258263158e+04
2.073943368559243390e+04
1.916092182765222606e+04
1.765150588140032050e+04
1.686472701178518400e+04
1.625622181006740357e+04
1.576461176843867361e+04
1.600048800208284956e+04
1.641942338579886564e+04
1.701896085571672302e+04
1.735763834922371461e+04
1.721602566473097977e+04
1.660659061700140592e+04
1.653086779819079675e+04
1.586130133522491269e+04
1.487329452970203238e+04
1.387229359053339977e+04
1.245569944704129011e+04
1.049284153042551043e+04
8.495027521542866452e+03
6.220557100597545286e+03
3.643857203452680551e+03
5.511996496253314035e+02
-1.414243617933635733e+03
-2.772191369003943691e+03
-4.682358527134071664e+03
-6.163386010036026164e+03
-7.353985210224393995e+03
-7.852935055693964387e+03
-8.521964152057618776e+03
-9.020801726954392507e+03
-9.652191547027374327e+03
-1.228088303192787862e+04
-1.449259482415064667e+04
-1.287307492653149893e+04
-1.298611462640666832e+04
-1.434741783608771038e+04
-1.595774910693502716e+04
-1.729893996951258669e+04
-1.895877227063401733e+04
-2.060209537259827266e+04
-2.228260750610688774e+04
-2.351523816924847779e+04
-2.480575938146940098e+04
-2.607196706768962758e+04
-2.716766215066329096e+04
-2.785064235461402131e+04
-2.792061328360155312e+04
-2.759224445490373546e+04
-2.854120564524301153e+04
-3.204524994589316339e+04
-2.892017241834609376e+04
-2.439754696022218559e+04
-2.346404263717874346e+04
-2.522229226377885789e+04
-2.483799088690788267e+04
-2.510978712856836864e+04
-2.376327277144350592e+04
-2.233907752537085253e+04
-2.691683353271253873e+04
-2.555520102241965287e+04
-2.332574032228463329e+04
-2.570809100469554687e+04
-2.275486675794432449e+04
-2.401162273583060232e+04
-2.160508130854857882e+04
-2.111871653856102057e+04
-1.996483758731893249e+04
-1.590690494135564404e+04
-1.681835376103410090e+04
-1.388553331245602203e+04
-1.097782330780225311e+04
-1.226554286255978514e+04
-7.909976401484258531e+03
-7.695461478600409464e+03
-5.324299626231955699e+03
-3.794733429604514640e+03
-4.180919722818283844e+03
-1.561500228474277208e+02
5.022552722252445960e+02
2.089892091595362729e+02
9.690189197717249669e+01
5.075770512455498817e+01
-2.839601749744464996e+03
-3.073525118571707253e+02
1.624372479492405091e+03
2.247604209185300533e+03
2.525276635883259132e+03
3.719218305119926754e+03
5.189519751185142923e+03
6.672273872479464444e+03
8.256419038843268936e+03
9.285981761433591601e+03
1.017200849640074193e+04
1.071466108549494493e+04
1.095707744864518281e+04
1.092738224605147116e+04
9.518701822302246001e+03
7.959158916675367436e+03
9.901928552932633465e+03
1.077119437401840332e+04
1.018110822339212245e+04
9.717822448905097190e+03
9.501552247848638217e+03
9.447583707438961937e+03
9.394225515142146833e+03
9.327750040597184125e+03
9.931363901240631094e+03
1.125535718232053114e+04
1.231924762691494470e+04
1.316162703631398836e+04
1.366892665926255540e+04
1.376945409943055529e+04
1.306149512727325782e+04
1.371616427684351947e+04
1.500614884244281711e+04
1.581116325298290212e+04
1.583572112931471383e+04
1.513990172690241889e+04
1.437316167184238293e+04
1.334976696138483567e+04
1.194934622244179809e+04
1.035027375626271169e+04
9.315943266729191237e+03
8.925912836285118829e+03
8.459881383468600689e+03
8.619997288188125822e+03
9.441791323598918098e+03
9.799080047205936353e+03
1.002004269919016588e+04
1.038515239531845691e+04
1.046305392595995363e+04
1.106967263022813313e+04
1.087546909009450792e+04
1.034111055666297580e+04
9.848342766978594227e+03
9.092674559765566300e+03
7.642714627320324325e+03
6.442545638836811122e+03
5.598072219136687636e+03
4.088196816530347405e+03
2.831380526588103749e+03
2.240163728785951662e+03
1.249291959505309478e+03
1.079136281505081115e+03
1.099152636398656796e+03
8.019684225443573951e+02
1.230089485699382976e+03
1.581042315186596397e+03
1.858438254628162440e+03
2.053831113150117744e+03
2.445693116379872663e+03
2.049590978629050824e+03
2.010050540811534120e+03
2.249575196862976554e+03
1.899650305207168685e+03
1.765789592095168473e+03
1.473463413727224861e+03
1.018055454014362340e+03
2.901485175686410116e+02
-6.778496816884171494e+02
-1.821573758645746466e+03
-2.741655722035292456e+03
-3.782746768380832691e+03
-3.922504979442196600e+03
-4.538536511548651106e+03
-7.027470885421574167e+03
-1.053493492495688042e+04
-1.248852784402726320e+04
-9.408830682664689448e+03
-8.465510597988404697e+03
-9.746273709286599114e+03
-9.106745261894839132e+03
-8.283597572408098131e+03
-7.863482331214113401e+03
-7.722123982054543376e+03
-7.909239168967306796e+03
-7.570660359488637368e+03
-7.875147877769470142e+03
-9.281298655055579729e+03
-9.533201315194106428e+03
-5.142690867931818502e+03
-3.904550542206589853e+03
-8.463708734158060906e+03
-9.142066718275800667e+03
-1.196848192339854359e+04
-1.302478356534096383e+04
-1.236593265042790881e+04
-1.104777130170477540e+04
-1.001320570083535131e+04
-9.511165714151160500e+03
-8.300555862488301500e+03
-5.740306215612503365e+03
-2.792379624534270988e+03
2.571630674147764353e+02
1.767365569403705877e+03
1.661303275716696135e+03
1.075920529636814081e+03
7.471661903049741795e+02
9.409139902445533608e+02
6.690106461719864228e+02
-2.156492541607144062e+02
-1.223187243322631730e+03
-1.055657028238687190e+03
-1.659226163676907618e+03
-2.250147099524682289e+03
-2.063566968248140711e+03
-2.041637408320791110e+03
-1.896538512053546810e+03
-1.537516299954043234e+03
-7.387353162020675654e+02
5.216522655525513983e+02
1.240464831734996551e+03
1.354392754593388645e+03
1.894153775954556068e+03
2.606444905808257317e+03
2.859981930737628772e+03
2.586511857626653637e+03
1.996764870463246780e+03
8.464146823971524327e+02
-2.788499092272640496e+02
-1.259274236807742000e+03
-2.346035084500201719e+03
-3.142439552798945442e+03
-3.429721768992230864e+03
-3.579048476187188498e+03
-3.458610555375677450e+03
-2.713664454621943605e+03
-2.076364447191734598e+03
-1.475871063846160496e+03
-9.483734039348140641e+02
-8.679649442409291851e+02
-9.797240531837441146e-01
7.203692877915998451e+02
1.369214708958546225e+03
1.474685774789646302e+03
1.694244223937945890e+03
1.740685937410486304e+03
1.218743217022406498e+03
8.941611105563854380e+02
2.355372589959409311e+02
-1.530412646779384431e+03
-2.510554521264096820e+03
-2.078978651119116421e+03
-2.641944863151514255e+03
-2.666962419298530676e+03
-2.462277499184642693e+03
-1.902012719009742568e+03
-1.314374319458125456e+03
-5.905401864660975662e+02
5.013276607451940095e+02
1.035945577749770109e+03
1.405196811794413179e+03
1.548965823427864734e+03
1.905033473228168305e+03
2.214152325694395131e+03
2.275178168007277236e+03
1.670859512467660124e+03
1.628943215254917504e+03
1.422288811171163388e+03
6.527613576988317163e+02
-8.289541090379347565e+01
-9.409177961265068006e+02
-1.626531053710273000e+03
-2.016966062283737756e+03
-2.363415694750495277e+03
-2.482077493938313182e+03
-2.535095920697652218e+03
-2.395597412093569346e+03
-1.073660593407597844e+03
4.651490921265712331e+01
5.577952692339117675e+02
1.309117547936757546e+03
1.948318382712434413e+03
2.263231643578084913e+03
2.633779546006578585e+03
2.994819832538712490e+03
3.385247055664240179e+03
3.281967713018841096e+03
2.296882990944193807e+03
1.452724095065399069e+03
3.613303100528286222e+02
-2.423495840942561017e+02
-2.825371610657878705e+02
-8.023911538101265251e+02
-1.113085100871556506e+03
-1.394772564776169247e+03
-1.466547806192334292e+03
-1.284452046654321521e+03
-4.154419918776777649e+02
5.503988716726324810e+02
9.306407526439666071e+02
1.701204949139677638e+03
2.591045894624377979e+03
2.926048912751843545e+03
2.858066927957949247e+03
2.487054931459216732e+03
3.026877326789890958e+03
2.582397303954654490e+03
2.331458427865760314e+03
1.433900142370722278e+03
2.776092228352438838e+02
-7.505313876485496394e+02
-1.714686391254087766e+03
-2.205029355977024352e+03
-2.315713037885096583e+03
-3.273602992478642136e+03
-3.154549195050125945e+03
-1.907139324232101899e+03
-1.322675560386609959e+03
-9.000020710793709213e+02
-6.688868054134817385e+02
-2.146115221778775606e+02
3.657948523387204887e+02
6.591223546905165449e+02
4.522579333096723531e+02
-5.637154919558734179e+01
-3.322422157096290363e+01
5.547821691115544951e+01
-4.849787122654794302e+02
-1.040034603402338917e+03
-2.124485517417912888e+03
-3.350622474080330903e+03
-3.738347367264364038e+03
-3.799626002472301934e+03
-4.452790882401900490e+03
-4.853461415435483104e+03
-5.007894181138347449e+03
-4.695155991969711067e+03
-3.996947266917804427e+03
-3.421685795747992870e+03
-3.105093952193764835e+03
-2.440385945769586669e+03
-1.243544168926596512e+03
-6.394092932070969937e+02
-2.633318643409119773e+02
-4.900598058282059242e+02
-4.464916616567480787e+02
-8.856492941366680043e+02
-1.606531079438519328e+03
-2.317956025366246195e+03
-3.335365155082993169e+03
-3.676672358174105739e+03
-3.207766859821322669e+03
-3.604583024406621917e+03
-3.247067865649991745e+03
-2.458193294625605176e+03
-1.938921067469726268e+03
-1.062130601362377547e+03
-7.967013081414038425e+02
-2.134876879679469823e+02
3.005351132081357264e+02
9.745616444396475799e+02
1.628746623330255261e+03
2.595255191637067128e+03
3.345241076855385472e+03
4.099589859821579012e+03
4.497395295811390497e+03
4.998846243031657650e+03
4.856979853017993264e+03
4.782927121077022093e+03
4.362784712919944468e+03
2.934800166235778306e+03
1.995192840786231727e+03
1.414902904810411201e+03
1.365964703512423512e+03
1.477520219890251383e+03
1.913511068459181843e+03
2.492261424475024796e+03
2.228919742328537268e+03
-1.090235010853561562e+03
-7.731242126739393825e+02
2.605296249336073288e+03
6.309164593691552000e+03
6.177640458781284906e+03
8.262949962726010199e+03
5.469287921095981801e+03
5.586903662641492701e+03
5.847987735583840731e+03
7.834727202060334093e+03
5.097171796257534879e+03
5.894461991550778293e+03
4.272882456322751750e+03
3.201483544814213928e+03
4.796366062617613352e+03
1.729761561244183895e+03
3.900986285154129291e+03
4.674152213638764806e+03
3.159286053057296158e+03
2.385618616577367902e+03
5.219349015230228360e+03
1.367676161853607709e+03
2.257732979270787837e+03
5.524869349304073694e+03
3.626341403327961416e+03
7.077252686035229090e+03
7.650844083653953930e+03
6.787371603965862050e+03
4.546023956356100825e+03
6.122925949554241015e+03
5.362246421123699292e+03
3.687064337199031343e+03
2.168549067413366174e+03
9.379070900927234788e+02
1.212143635062711837e+02
-2.204429928546185238e+02
-4.888583112923473095e+02
-6.537781640786607795e+02
-5.600017825691612643e+02
-5.382815171686127087e+02
-8.243020824322189810e+01
1.266442870740920768e+02
1.932445468330281244e+02
2.963831339845282642e+01
-3.110179261524821186e+02
8.146553748981132514e+01
4.517179057825941868e+01
-3.966887912417023472e+02
-7.929143167104770100e+02
-1.716363534188674521e+03
-3.018862345800723233e+03
-3.950378460832038854e+03
-5.436704527996357683e+03
-7.064577963616602574e+03
-8.228742936833887143e+03
-8.432965596964650103e+03
-8.471225745909605394e+03
-8.364184901646889557e+03
-8.132454761027154746e+03
-8.065058453821922740e+03
-7.525839514560324460e+03
-7.056538474186546409e+03
-5.475007778300786413e+03
-5.246961964430985063e+03
-5.636555052750645700e+03
-4.226597862829455153e+03
-4.360758087141449323e+03
-4.968729370861489770e+03
-4.757827072958917597e+03
-5.040298882208378927e+03
-5.494678439831773176e+03
-6.204544849333529783e+03
-6.283982332584485448e+03
-6.786930653239435742e+03
-6.428279302602057214e+03
-5.871935321428220959e+03
-5.593796833838463499e+03
-4.889740981518817534e+03
-3.671684463942922321e+03
-2.708374932363613880e+03
-1.988845886180766001e+03
-1.202517195904134951e+03
-1.627193999730051388e+01
1.073051569631970551e+03
1.861533145215513741e+03
2.205181620920565820e+03
1.915983267660252750e+03
1.038025661241587386e+03
7.840231581644904679e+01
-2.258619379186165190e+02
-4.158203640711938647e+02
-1.075421679095000172e+03
-1.869689133375280335e+03
-2.199643448477505444e+03
-2.199260156425076275e+03
-2.114533608266115607e+03
-1.941474396679546089e+03
-1.144127897414432027e+03
-1.575469821301980460e+02
6.413320824878762778e+02
1.387567047624485440e+03
2.185084731784758787e+03
2.897797534623583942e+03
3.641648549570857995e+03
4.305670462451754247e+03
3.420846155983923836e+03
2.918173769559791708e+03
2.607562783307158043e+03
2.569866278490383138e+03
2.092002564615907431e+03
1.086871643966452439e+03
7.563669031324658363e+02
3.964652516682704118e+02
-6.290526295496224520e+02
-8.214817229123315201e+02
-6.741189812432970712e+02
-6.421170089634143778e+02
-9.548466435325606128e+00
9.526212546826775451e+02
1.121157127578391737e+03
1.515847630914244974e+03
3.177527842230882470e+03
3.448107723504516343e+03
3.818455981279628304e+03
4.440358191250023083e+03
3.855711069800450332e+03
6.932684225515656635e+02
-3.978197694319722814e+03
-5.449717603614473774e+03
-5.716599455766477149e+03
-8.351701176734412684e+02
1.724411949831228412e+02
-4.880343233525625806e+02
-4.208519609951418374e+02
-3.952915637982034127e+02
-4.646171789934315370e+02
-1.391007996812991792e+02
-8.095741885088067136e+01
6.956420067770666265e+02
1.738435241812954018e+03
2.422217872239756616e+03
3.086766870038465640e+03
4.162825948411814352e+03
5.272150087037465710e+03
5.510556666849838621e+03
5.377715473364895843e+03
5.784351610716881623e+03
5.957228690310448656e+03
5.611070971899011056e+03
4.698617615870111877e+03
3.762565303558083542e+03
2.830560497143313114e+03
1.844277111460947026e+03
1.008442572754916341e+03
2.277904583585795422e+02
6.003084059753858526e+01
3.079661539627838351e+01
-1.831919297265662294e+02
5.618858588017208149e+02
1.349758602897961509e+03
1.603147928366251108e+03
2.151853235755992046e+03
2.615608285604282173e+03
3.174118141703484525e+03
3.904137480431293625e+03
4.400427160514384013e+03
4.050785449331716791e+03
3.844982308334110712e+03
4.097733094766923386e+03
3.514768208764678548e+03
2.694814945597753649e+03
1.924653863882194173e+03
5.630002256052611074e+02
-3.414111852332808894e+02
-2.458155086817034203e+02
-9.639992178402118839e+01
7.685200164149963484e+02
1.998760766615708462e+03
2.782220021905522117e+03
3.544713189061221783e+03
4.154012861698985944e+03
4.659940500525450261e+03
5.834567462941115991e+03
6.858699924007788468e+03
7.582106573319374547e+03
8.219728095161915917e+03
8.131334438820562355e+03
7.851833001145461822e+03
7.426092852230858625e+03
6.429005290262359267e+03
4.891497053579021667e+03
2.803424518382121278e+03
2.124603272290789391e+03
1.412109424178567224e+03
8.878227758518729615e+02
-3.949746766800895870e+01
-8.748706568811862780e+02
-4.513065951452035165e+02
-5.578156911959326862e+02
-6.603732150964558514e+02
-7.299891766236648891e+02
-9.026442916791137350e+02
-1.177272219633980512e+03
-9.868048999849605707e+02
-1.553274589150398015e+03
-2.547677326846240248e+03
