-7.839954243179588047e+03
-7.395635731752318861e+03
-6.353041659968424938e+03
-4.648090639304617071e+03
-3.536739251010132193e+03
-3.328018536523201419e+03
-3.179964530928243676e+03
-3.338430342312113225e+03
-4.186456836296441907e+03
-5.184097110589596923e+03
-5.730284013809264252e+03
-6.273079653266597234e+03
-4.923472057300603410e+03
-2.708384410344860953e+03
-1.651773564540347706e+03
1.880412282094611101e+03
2.183209453622965157e+03
1.983628327567332462e+03
2.237799024454230221e+03
1.633665838530952669e+03
4.202149588243975700e+02
-5.285541615090170353e+02
-1.726568228288372438e+03
-9.958046404968367824e+02
7.647719084454862468e+02
1.848198713829457802e+03
2.044558233444748112e+03
1.482872329772030525e+03
1.591821309369619541e+02
-1.344553707209422555e+03
-1.731291564961129097e+03
-1.061098981264617350e+03
3.130433954241252081e+02
1.933183663428173304e+03
2.620427871311975650e+03
3.152846866070289252e+03
3.120509978412044802e+03
2.524448289426609790e+03
2.285615952653673048e+03
2.177080201913917335e+03
2.305910703655538782e+03
2.038010540975851654e+03
2.102359282419080955e+03
2.505169885641646033e+03
2.464566399483781424e+03
2.323486237007317413e+03
3.609868718340217129e+03
3.294686412799154368e+03
1.896954229245238821e+03
1.419690125560055321e+03
9.239602368821200571e+02
3.517715767985934008e+02
-8.480046376907516503e+01
3.463767993161795289e+02
1.010188749936884960e+03
1.102704384314867184e+03
6.649069907848622734e+02
-1.411608572525960028e+02
-6.683327302112767256e+02
-1.785918005554307229e+02
7.990517430448693403e+02
1.381680369599803043e+03
1.399484507337176638e+03
1.833534659200558508e+03
2.608792843391145198e+03
2.762076047056507377e+03
2.575439871061071244e+03
2.282054333231791134e+03
2.045623848953594234e+03
1.247181221671846060e+03
4.267496132806170976e+02
6.345620743508018968e+00
-2.919816405720628723e+02
-9.415476407117168947e+02
-1.243173038033716239e+03
-6.757609008026630590e+02
-6.226556255097648318e+01
-2.226679766408247190e+02
3.101175900410142905e+00
2.310556761139970945e+02
-2.718414889666748309e+02
-1.136451669289814532e+02
5.596096228407399167e+02
1.039872749341926465e+03
6.322567606460471552e+02
2.008410247390713437e+02
5.125798965248862942e+02
8.704051872165421173e+02
2.839029676289313642e+01
-8.754875924139133758e+02
-1.512276221385188364e+03
-1.264995190165216172e+03
-5.267583061442551298e+02
1.449655109505119910e+01
6.707633795988750762e+02
1.040946327828205540e+03
4.791014725050817447e+02
-3.697031210483767154e+02
-8.574461021998308752e+02
-9.691628662060737724e+02
-1.091888796178392113e+03
-1.135689762855459321e+03
-2.265143037905166352e+02
1.207618409748656859e+03
1.347690598292038203e+03
1.043747782906178372e+03
8.288163039584604803e+02
8.208285011926415109e+02
3.417532385423732535e+02
-9.146840580561426748e+01
-6.079154256223267794e+02
-7.776610378323384793e+02
-1.153741225709023865e+03
-1.594209918896689260e+03
-1.893078455237574417e+03
-1.815384991164150051e+03
-2.083050277310186630e+03
-3.063982658699951116e+03
-3.444201999307876576e+03
-3.371855255146836043e+03
-1.917989668840446939e+03
-1.046619396540556409e+03
-1.808142263827299985e+02
3.025600449772981619e+02
2.504758626603486391e+02
1.487848770472716751e+03
2.017742014363865565e+03
8.511241049438092432e+02
-4.740578634163462652e+02
-1.477847401855298131e+03
-2.381335601313320240e+03
-2.582655935330406919e+03
-2.454887726525813832e+03
-1.976019336346232876e+03
-1.628053656391948152e+03
-8.449298160873993311e+02
-3.514786209413523466e+02
5.182335498579394653e+02
1.409802060799680021e+03
1.636599979585715118e+03
1.337650537196870118e+03
1.573128885989032597e+03
1.813651721340889026e+03
1.770355995016354200e+03
1.569140138995924644e+03
2.204119546010613249e+03
2.185197857847379964e+03
1.728227496207861577e+03
1.053043795000168529e+03
5.210544666077871625e+02
-3.681437986819088337e+01
-1.958904212467398338e+02
-9.577107493290168350e+02
-1.916583171101166499e+03
-2.165647971954515924e+03
-1.420118863603192722e+03
-8.325465490915106557e+02
-3.430862240217950898e+02
1.800827162212231372e+02
-2.347252557062014944e+02
-1.826148196410667595e+02
6.008980453457240145e+01
3.935943852062052883e+02
1.145771784759983348e+03
1.330609405102273058e+03
1.403229049734548425e+03
1.509363186070626398e+03
1.308320374717685809e+03
1.037981381649662353e+03
-3.152981529764288737e+01
-1.857238367463484110e+02
2.133589857743265554e+02
2.276867643877914134e+02
5.993707137200595980e+02
1.324499392378468656e+03
2.001082514788379058e+03
2.690136421883210915e+03
2.664516895727249448e+03
2.571158577307059659e+03
1.721994873472906420e+03
-1.539054908193961637e+03
-2.193018170272997395e+03
5.912808198605215892e+01
2.378383190857632144e+03
1.777791410730436610e+03
-9.626524288336444215e+02
7.280647331534898967e+02
-1.330092287514745294e+03
-1.817119983483620217e+03
-4.195037382235163022e+03
-5.390853941651891546e+03
-5.631588936476702656e+03
-2.699319499584022651e+03
-1.407058585274977986e+03
-2.572789019375830776e+03
-7.884694477417303915e+02
1.889578088537658687e+02
-3.715353332692795334e+02
-1.354966933386375331e+03
-1.954260396814067917e+03
-4.884032074267600478e+02
2.055500263747608642e+03
2.384462939432602525e+03
2.174535057453445461e+03
-1.791460995419484732e+02
1.943376847980083767e+03
7.917935854318730549e+01
-1.509826887748089121e+03
3.032155841041774238e+02
-1.202588075203577546e+03
-1.172226476811978955e+03
-2.097648493758080804e+03
-9.418177746658927845e+02
-1.741712016868945511e+03
1.328703546786678999e+03
-2.566386971670356729e+02
-3.390728876753145414e+03
-3.999474405788246258e+03
-1.902870840284309224e+03
2.200108834891893366e+03
1.044133642040642229e+01
3.820525914516076114e+02
1.548909983339629207e+03
2.119111497601976225e+03
2.623743970228725175e+03
2.193748447634445256e+03
-2.058238038449077294e+02
1.134059315198420109e+03
1.052439056800625849e+03
1.303723931829243838e+02
-8.221290918486967030e+02
-8.171853668716980792e+02
-6.058368203487646042e+02
-1.547049004393898258e+03
-1.666724794932622899e+03
-1.261814370162266187e+03
-5.722394708456984063e+02
6.710519790897836856e+02
2.221092113320368753e+03
2.993863863231990763e+03
3.605262505921772117e+03
3.912213176668029973e+03
3.618797903836437399e+03
2.935083539322984507e+03
2.586124291260690825e+03
2.471000984886447441e+03
2.643683265622134968e+03
2.017161063004253265e+03
9.694628306392879722e+02
9.633801121359699238e+00
-7.123965629490403444e+02
-1.669613848732243923e+03
-2.447239475938646592e+03
-2.106195093372945394e+03
-6.958706270309132833e+02
6.400145786978571323e+02
1.183021106751419666e+03
9.802787311250327775e+02
8.698796614155157840e+02
7.237984565352948039e+02
9.808597824829414549e+02
7.831254445994134130e+02
4.096856515818884077e+02
6.415464695759064853e+02
5.707048816202582202e+02
6.681563519123657215e+02
4.538578804173108097e+02
-2.681941808751752774e+02
-9.988719724695431523e+02
-1.643255405538789319e+03
-2.554835004834576466e+03
-2.956332626026713115e+03
-2.753798939185751351e+03
-1.880216882879727791e+03
-6.516405733008487005e+02
-2.641520926621424792e+02
1.732733219442117161e+02
5.467661032434866684e+02
1.081394252770684943e+03
6.972570543198521591e+02
3.321758575652078775e+02
3.493794234668926890e+01
-3.724703640882279387e+02
-4.440260479636238529e+02
-1.266624837102918946e+02
6.647673816362565731e+02
1.996473846456344745e+03
1.924470472063410625e+03
8.094844006970138253e+02
-6.155531441366705394e+02
-1.298726493195430749e+03
-1.942122218652714309e+03
-2.111769282391499019e+03
-1.472641892837331852e+03
-1.489529102204476203e+03
-1.278295462180096138e+03
-2.931292627897797161e+02
-2.209570643622314989e+01
-7.301624791582715943e+02
-1.934663486379946207e+01
1.734419449789970031e+03
2.560167156253052326e+03
2.086825812805484020e+03
1.832194937225423701e+03
1.480419293978465475e+03
5.866549860592092500e+02
-6.011627987512498095e+01
-9.989466878130634768e+02
-1.112991952186481285e+03
-3.532717375831662565e+01
-2.569648271653636584e+02
-4.048675090452897507e+02
-1.098928768415668173e+03
-1.657139080048429378e+03
-1.066619467426326764e+03
-2.504248779518148353e+02
-1.442627678842823343e+03
-4.073100063555621091e+03
-6.238689248007500282e+03
-6.160542811681844796e+03
-5.631792389546697450e+03
-4.759530324227324854e+03
-1.945770670661835766e+03
1.458434894096975086e+03
1.496017719392471463e+03
1.534913590535016056e+03
1.888374330062833224e+03
1.429579508842441328e+03
1.136562317741850848e+03
1.572788740068042728e+02
-7.153405345832062494e+02
-1.477257474934940774e+03
-1.785542609874985601e+03
-1.709199763775165593e+03
-1.320125744402817418e+03
-2.783569088663813318e+02
9.580535762522550840e+02
1.773122938363001822e+03
1.953844581804812833e+03
1.658201439793294639e+03
1.811164984659845686e+03
2.302819626180362320e+03
2.140106783417757015e+03
1.191936846406094446e+03
1.166470214735899617e+03
1.592883780204405866e+03
1.647245395016689145e+03
2.030562416289315252e+03
1.752894524976123421e+03
1.781111010227664565e+03
1.440956244074108326e+03
4.694191249383584363e+02
5.955917858568491852e+01
2.153940335422560395e+02
6.669232231187310163e+02
1.113099353182468121e+03
1.654814551253083209e+03
1.871091611562598018e+03
2.088874529252050252e+03
2.200045661178937735e+03
2.333489417801674335e+03
2.386222396156137620e+03
2.435244336219423076e+03
2.582482917287382406e+03
2.817897606346260545e+03
2.936478716097562938e+03
2.947194081357028608e+03
2.362999334578260004e+03
1.649873248302420734e+03
6.958164082463025579e+02
1.587622208063066580e+02
-4.122765068360040459e+02
-8.113171045762958329e+02
-2.384125701517330356e+02
6.904997398401509372e+02
7.704107930822918888e+02
6.293134517266490775e+02
8.481365490831291254e+02
2.709018910996131240e+02
8.525772971434972760e+02
8.842360419600073556e+02
7.279312368253451950e+02
9.715066576613822917e+02
1.733013369801881481e+03
2.548672304393008289e+03
3.218556088204854859e+03
3.399706005473570258e+03
2.947173666379387214e+03
1.782908788654316822e+03
7.979412227269159530e+02
-1.156833671831863484e+02
-6.009191029478870405e+02
-2.546828963309068513e+03
-5.481330459572388463e+03
-7.756391372365622374e+03
-7.226936554475979392e+03
-6.360845800536319985e+03
-5.207996789999011526e+03
-4.994321999969179160e+03
-5.128771971305205625e+03
-5.486264560092839929e+03
-5.538735234848902110e+03
-5.137181635784076207e+03
-5.748507109255998330e+03
-5.616556198488373411e+03
-1.981156510878204017e+03
2.705781291380843868e+03
1.416388457923427723e+03
-4.497249577731882709e+03
-4.374998418686488549e+03
-3.665755893576175367e+03
-6.575587266905477009e+03
-7.347517980706279559e+03
-7.297485288689766094e+03
-6.336417179834456874e+03
-5.870229682933839285e+03
-5.902755399508979281e+03
-5.636922602122840544e+03
-4.983649193369279601e+03
-4.834887936712741975e+03
-4.535627027600115980e+03
-4.145757166323154706e+03
-3.947238638848763912e+03
-3.438084326574563875e+03
-5.471053873905581213e+02
2.326748770233907180e+03
3.274563899977340498e+03
2.779343630004824263e+03
1.332139882497068811e+03
1.599938777627496052e+02
-6.940765658277523471e+02
-9.340529797225435686e+02
-2.369234834610881535e+02
1.072832727382271401e+02
1.093627685301589963e+03
1.958161648041110766e+03
1.887034018010944465e+03
1.422524801986913644e+03
1.089573246883506044e+03
1.834969245155766885e+03
2.950682067216044743e+03
3.132878176117250860e+03
3.025754163917813912e+03
2.776000415128582517e+03
2.940926714563907353e+03
3.012506253979263420e+03
2.947913013996062091e+03
3.032034111353474600e+03
2.213797494260979875e+03
1.574946617843583226e+03
9.474234112627814284e+02
5.813514114137434490e+02
5.605069504890009284e+02
3.930967529677509447e+02
4.503629793983034233e+02
8.562024132247587431e+02
1.461540206741223528e+03
1.753287551417680561e+03
1.286260828040598653e+03
8.696435105287550869e+02
1.797462547715489109e+03
2.191787650351301636e+03
3.144183151700764029e+03
3.659988208286490135e+03
2.347090744522309251e+03
1.604142250783545705e+03
9.245898670994904478e+02
1.275023128933679118e+03
2.123211269678158260e+03
2.453747832284334436e+03
2.430781306430586937e+03
1.575190712027718064e+03
1.072234735232744242e+03
9.729400835099235110e+02
1.216053373746255374e+03
1.726241133488849755e+03
2.250267306610187006e+03
2.547640882812694144e+03
2.599985353768155164e+03
2.868985303645639306e+03
3.432504752654152981e+03
2.902383437086841241e+03
2.335535557018491090e+03
1.931977306256459769e+03
1.421347226967991446e+03
1.918659547018417697e+03
2.972911520437404306e+03
3.209068084230508703e+03
3.113858217311075805e+03
2.311039714093886232e+03
1.559526449345737774e+03
6.641066051503204335e+02
-3.438685668639340065e+01
2.568788614804879558e+02
1.604788470379683531e+03
2.524202669576745393e+03
2.296955266703084362e+03
1.951838823570814839e+03
2.592760775598052533e+03
2.848732614258881767e+03
2.931683949220880095e+03
3.077470462060342015e+03
2.803913337689437867e+03
2.368831934253978488e+03
2.211120648773376615e+03
2.489653204493694375e+03
2.364363250748023347e+03
1.770171539844470544e+03
-1.975990892173445445e+03
-6.003248443172798034e+03
-5.495753101615339801e+03
-2.287740556627059505e+03
-6.670413633143273728e+03
-7.767899482411955432e+03
-7.062229828735915362e+03
-5.783467401689028520e+03
-5.701668945006911599e+03
-5.101937865524851986e+03
-3.982310624406781244e+03
-2.590981213569198644e+03
-1.297926680744978285e+03
-7.260240192776425374e+02
-1.149580418619668080e+03
-1.533669176532429674e+03
-3.482225294960946371e+02
2.294732747892294810e+03
4.137032593570663330e+00
2.779556951927517616e+02
3.411133037313623845e+03
4.596585627944618864e+03
4.772146066234516184e+03
4.319700760744178297e+03
3.061252004621834658e+03
2.384771487872267699e+03
2.509179606069123111e+03
3.571457971999437177e+03
4.527752805398727105e+03
4.266120157771804770e+03
3.446498147210665138e+03
1.953901294422712454e+03
1.213773678591426801e+02
-1.200078108860778912e+03
-3.794514069839411832e+02
1.984191713079639840e+03
2.405968263015214688e+03
3.191030061340665270e+03
3.839476659353430477e+03
2.811323859975260802e+03
1.172629604073221572e+03
-1.044544146781986910e+03
-1.451217245401958280e+03
4.237459908516584619e+02
3.093345950656935202e+02
-3.884421060092428775e+02
-1.155460368819235100e+03
-1.912516085279459503e+03
-1.290563341003009782e+03
-3.156305324150575302e+02
-6.755241982801381084e+01
-7.221051028340992843e+02
-9.591690791124500493e+02
-2.885361629097371861e+02
1.284938671975172156e+03
2.611315858467423368e+03
2.016752440510332690e+03
3.683310242738020293e+02
-7.358963474942659104e+02
-9.626789989672450929e+02
-1.857976870813661030e+00
9.597637229746148932e+02
4.838352799320058750e+01
-1.593924879967735933e+03
-3.408084168310949735e+03
-2.872753256485804741e+03
9.437492416117002847e+01
1.455482240875467369e+03
2.075602489939431507e+03
2.341126691604184089e+03
2.146116235888699066e+03
9.635930350025363396e+02
-1.571250862557997834e+03
-5.645844262401973538e+03
-7.865327420962532415e+03
-8.216749090015722686e+03
-7.755936767581978529e+03
-7.613583373891671727e+03
-8.848385489300579138e+03
-9.477182827237102174e+03
-1.015279195612717376e+04
-1.071906908933440900e+04
-1.062288642898783837e+04
-1.045609323840317666e+04
-1.083357507347574028e+04
-1.184119034855992322e+04
-1.243879809111284703e+04
-1.265514217225732500e+04
-1.332197942546464765e+04
-1.388013871479474437e+04
-1.556744292862271323e+04
-1.820969350904356907e+04
-1.909861873944458421e+04
-1.908009859907464488e+04
-1.837202995558721159e+04
-1.724028221762306566e+04
-1.387973244551506286e+04
-1.065615798304362943e+04
-1.019739737733376387e+04
-9.377264209651844794e+03
-7.530572450345918696e+03
-5.891263286362988765e+03
-4.223204564799066247e+03
-2.443283449756896971e+03
-1.275382706550321700e+03
6.435524967223111616e+02
2.493610414497849888e+03
4.507965841049271148e+03
6.495716180291582532e+03
8.187002211118297055e+03
9.952988616070475473e+03
1.130778810955593326e+04
1.277447076836187807e+04
1.401714741020359543e+04
1.515982084850348110e+04
1.582953948632165520e+04
1.675039506563056057e+04
1.769443148709270463e+04
1.778280577251351133e+04
1.816357821742967280e+04
1.881082776796028338e+04
1.842961870671681754e+04
1.781082461913664520e+04
1.729335828733374365e+04
1.690035592983737661e+04
1.704085875055134602e+04
1.707880600205266819e+04
1.672324508495507325e+04
1.688809980512673792e+04
1.708642403737979112e+04
1.641419933856860371e+04
1.542569725192355327e+04
1.499765669004844494e+04
1.456797751391195379e+04
1.422963054040273892e+04
1.395253772643015873e+04
1.303867775172201800e+04
1.217905360606091017e+04
1.172062425974572761e+04
1.123431285807789754e+04
9.762880600314019830e+03
8.308453729971697612e+03
6.871330123483879106e+03
5.704518963767626701e+03
4.629518571585299469e+03
3.652025693675924686e+03
3.186051329256048575e+03
2.567587251608912084e+03
1.834324754398086952e+03
7.454740879183500510e+02
-5.044404863279233950e+02
-2.284333953907745581e+03
-3.828365292944451994e+03
-4.679672027305917254e+03
-5.465647915453193491e+03
-5.730539548814987938e+03
-5.451227983197641151e+03
-4.919504532711777756e+03
-4.183919303797198154e+03
-4.530741796656623592e+03
-5.110553472969566428e+03
-5.896639460219322245e+03
-6.793344316843604247e+03
-7.521906721843168270e+03
-8.055312132576369549e+03
-8.199937606672907350e+03
-7.892997394960203565e+03
-7.574745852026537250e+03
-7.299075346061309574e+03
-6.781060349301515089e+03
-6.541243526790207397e+03
-7.270696225988150218e+03
-6.694717057088881120e+03
-6.223386974607625234e+03
-6.313125330431957991e+03
-6.328249377638861915e+03
-5.695553165642377280e+03
-5.403164544929873955e+03
-5.021324237217335394e+03
-4.380341605511209309e+03
-3.886100124997339663e+03
-4.091023322167746301e+03
-4.807300602695117050e+03
-5.663126184989432659e+03
-6.151672409127079845e+03
-6.566060388612602765e+03
-6.063439226738282741e+03
-5.343939329062816796e+03
-4.468807533910337952e+03
-4.312251186305963529e+03
-4.470355055672040180e+03
-4.563212614718231634e+03
-4.671023144293319092e+03
-3.931974853051355694e+03
-3.088163260424245436e+03
-2.855705940058718170e+03
-2.688752665350119059e+03
-2.105296195562677440e+03
-3.315422257459309549e+03
-5.710300599784372935e+03
-8.456058485771465712e+03
-9.260760929221261904e+03
-8.168478499044696946e+03
-8.673309777063197544e+03
-9.859492875177647875e+03
-9.781276469196307517e+03
-1.007476664301698838e+04
-9.342954986379143520e+03
-8.026903950646644262e+03
-7.505762293362678975e+03
-7.458579847519674331e+03
-6.172475897770106712e+03
-5.540427591294853300e+03
-5.033326413725691964e+03
-5.712701768869857233e+02
1.749664478068802055e+03
1.229322585362834616e+03
-1.882397578590783951e+03
-4.760488908644474577e+03
-4.294915591781229523e+03
-3.750613756621538414e+03
-3.847659853139040024e+03
-4.022135422789475797e+03
-4.431033476287857411e+03
-3.763404424341036702e+03
-8.383106440154058419e+02
1.609272808570993448e+03
2.873479823093584400e+03
3.719317678888384762e+03
4.205726235653014555e+03
4.205854901116779729e+03
3.482803320806205193e+03
3.103616646650521488e+03
3.167395576131188136e+03
3.908059729513676302e+03
5.890497741582266826e+03
7.317749058991455968e+03
7.790921487778682604e+03
7.643102591311906508e+03
7.064358729403304096e+03
6.458820292404231623e+03
5.663573265929539048e+03
5.823612482103842012e+03
6.715912120776943993e+03
6.839544470850884863e+03
5.907633988166322524e+03
5.050268316426157071e+03
5.339454007603430910e+03
5.997326617373372756e+03
6.866940494023279825e+03
7.468501345025722003e+03
7.825229942957457752e+03
7.628192917649518677e+03
6.633364464919089187e+03
5.999621006871690042e+03
5.846022032075128664e+03
5.904694867857179815e+03
5.867426600869508547e+03
6.550671453830476821e+03
7.175863835111061235e+03
7.001783563612793841e+03
5.895111256435738142e+03
4.749942114264852535e+03
3.907277243036928212e+03
3.356109324080998704e+03
3.002604366997281431e+03
2.847801750617218204e+03
7.867291791891162802e+02
3.543286014210472672e+02
2.470771689599687761e+03
2.011248407343771760e+03
1.021014270907656851e+03
1.012114714542944625e+03
1.319199291619370570e+03
1.616430626403602673e+03
1.779368292383342578e+03
2.328003257785181177e+03
3.185272587076558921e+03
3.405293605582651253e+03
3.306006687649105515e+03
2.971499216018885818e+03
2.699942620228424857e+03
1.532377223157567414e+03
2.867898706027562525e+02
-7.187688152390606433e+01
2.534914665253449186e+02
-2.830410076467154568e+02
-1.104343048252096423e+03
-1.339215779838775461e+03
-1.494526621560544754e+03
-1.131210340361798671e+03
-1.125278004863371279e+03
-1.338833136082107558e+03
-1.362697801159702294e+03
-1.348848431702757580e+03
-1.319291312057674759e+03
-1.407872806568963824e+03
-1.087435816123758968e+03
-9.408168523196969772e+02
-4.609912961613968605e+02
-8.441436808354341110e+02
-1.353201994368746909e+03
-2.124122326740302015e+03
-2.692826745685440983e+03
-2.588293308930259627e+03
-2.844604083092568544e+03
-3.041785736945445478e+03
-3.138780998833754893e+03
-3.136460424884298845e+03
-2.099801389885371464e+03
-1.315814334057555925e+03
-1.303562892175280695e+03
-1.550112276268222104e+03
-1.925302821752365389e+03
-2.252024811668915390e+03
-2.523283709216765146e+03
-2.743185073237088545e+03
-3.170838157653797225e+03
-3.187267934625732323e+03
-3.182323069418687737e+03
-3.998916022830002930e+03
-4.875993044271843246e+03
-6.242695520855272662e+03
-8.087309518717655010e+03
-1.031882316514937884e+04
-9.456230104632735674e+03
-9.472543866959997104e+03
-9.061724380057963572e+03
-6.779636862244530676e+03
-1.440117624142852037e+03
7.259781595378682368e+02
5.194772248180777297e+02
-8.926719507203447392e+02
-8.705933201349588444e+02
-9.630570341980828175e+01
3.722611328987891852e+02
8.339390764864509720e+02
1.192711508999246007e+03
1.239595191730950091e+03
1.251495983441180442e+03
1.226392709493090706e+03
1.162294996881847737e+03
2.992274966810689421e+02
-2.988870381904221176e+02
-7.151079463270341421e+02
-8.764999231652009257e+02
-5.971503203082780828e+02
-5.869751789678368823e+02
-1.768446846398860544e+02
5.420975772502040400e+02
1.126692900904642102e+03
1.049873936796744601e+03
8.415461883584946463e+02
7.924374549586481180e+02
1.155458367151989705e+03
1.696698512777815949e+03
2.072055582748264442e+03
1.776396862698493123e+03
1.931718129798639666e+03
2.271938101687337166e+03
2.679930863814753138e+03
2.446660245121950538e+03
1.413982201513984592e+03
1.009829576564568129e+03
2.041433942220662345e+02
-2.791207605627473640e+02
-4.302064930332944925e+01
5.163459410829218541e+02
1.080926768543598200e+03
2.358681219436761239e+03
2.814619377845088366e+03
2.936730821556463070e+03
2.683028983760490974e+03
1.743472108778202028e+03
1.487075602492155667e+03
1.565910631272158298e+03
1.991941435447879030e+03
3.010159812858747500e+03
3.169611554477118716e+03
2.369330457559807201e+03
2.244328039789481863e+03
2.239568446132529971e+03
1.661094660951141577e+03
6.239133410988118840e+02
-4.510287808413022503e+02
-1.444835908230886162e+03
-3.019528893547566895e+03
-2.590095116012254266e+02
6.418098237136154012e+02
1.146922975333862041e+03
2.029373807617909506e+03
2.275235589381469708e+03
2.279545674344775762e+03
2.122417626196344827e+03
2.138864379535596527e+03
1.854848209544351221e+03
-6.507115180645494092e+02
-2.908438255298928652e+03
-2.047263740811951493e+03
5.607144178313556040e+02
9.865038522286695297e+02
-7.808957430510264430e+02
-6.574730980576329102e+02
1.987798843750476578e+02
-1.889043238227920483e+03
-8.874378387314949990e+00
-2.426619148404054613e+03
-1.800192174387663272e+03
-2.535556845245481327e+03
-2.689722258487771796e+03
-2.005677974503732912e+03
-1.463290592625600368e+02
-1.547751025640158957e+02
-1.272080033000113190e+03
-2.512295383247506379e+03
-4.986430378896794537e+03
-4.155400344865974148e+03
-2.975143830369282114e+03
-3.233513608717830266e+03
-3.400479268423845497e+03
-1.226100952198445384e+03
-1.923346797264772476e+03
-3.046236008176404994e+03
-5.103790400617358500e+03
-4.059063695346280383e+03
-9.441261707794901668e+02
-2.073008768832478836e+03
-2.089659491550863549e+03
-3.426949218445241513e+03
-4.719017569176393749e+02
6.585005564767407122e+02
-1.593694378521288627e+03
-4.874844504797245577e+02
2.510685846371227683e+02
1.509705664592116818e+02
-1.928863134115243383e+03
1.844985323388780500e+02
3.640297475528236077e+02
6.972958767512317024e+01
2.456563858581436932e+02
5.239262492766278001e+02
5.605513104448119748e+02
2.556202882616152863e+02
3.130998073266442816e+02
3.568433272980053630e+02
3.277319480128879263e+02
3.817652265833835941e+02
9.249667916763753510e+02
5.983974503529283311e+02
-6.491894073754326655e+01
-3.860514749151306546e+02
-7.280864480356768809e+02
-1.300995812902327771e+03
-1.231737897775317151e+03
-6.163572187866731156e+02
-7.467495380900672899e+02
-9.448081231281240662e+02
-1.764285841953017666e+02
1.179200596563739282e+03
3.274800088583114302e+03
4.448705395113853228e+03
4.115150597015803214e+03
3.245944729630000893e+03
2.622160059574614479e+03
2.020584899555222364e+03
1.799979841118762124e+03
1.424308430413782617e+03
1.001025321447986130e+03
1.413753790247249526e+03
2.166589896793688240e+03
2.819590906670990989e+03
3.108173114176815034e+03
2.976628810440156485e+03
2.630930968290325382e+03
2.366347412852037905e+03
2.613121977467795659e+03
3.140724617846962246e+03
3.185280890421994627e+03
2.632107162280241027e+03
2.582006483519569429e+03
2.270772273855414369e+03
1.116740924610195179e+03
-2.346416889239494878e+02
-4.003907320373254493e+02
-4.373065663773937217e+02
-1.206558907666850700e+03
-1.618270770514573542e+03
-1.317420755773883684e+03
-6.989444027645421329e+02
8.051955087353824183e+02
2.159088883547414298e+03
2.525641118470105539e+03
2.154770248613767762e+03
2.161505425347052551e+03
1.715835978286795125e+03
1.090764755912726514e+03
8.942676996217728629e+02
9.573512268485687855e+02
1.062101011895839747e+03
1.258453806682751292e+03
1.362325015309668743e+03
1.003749160281926834e+03
4.478680214049209098e+02
-2.033397724307899352e+02
-5.989903583662930942e+02
-1.746089066819351501e+03
-1.413716927635194224e+03
4.361300808467448178e+02
2.178532125129012002e+03
2.925590799920311838e+03
1.198385013046121230e+03
-2.043083005174635900e+03
-6.507846109844517741e+03
-6.469944704722164715e+03
-2.690272133672830023e+03
-2.906931981407969488e+03
-4.235993782065766027e+03
-6.298373817526425228e+03
-6.111956986786136440e+03
-5.307685252679122641e+03
-4.874606442537328803e+03
-4.492699007918551615e+03
-4.176958513888656853e+03
-3.956357090095402327e+03
-5.297734875418268530e+03
-5.682194619297878489e+03
-5.392939380490453004e+03
-3.818735140813718317e+03
-2.607448541709949041e+03
-5.708200768626922581e+03
-6.507993836871864005e+03
-6.319829352487129654e+03
-4.959660177628348720e+03
-1.670472457064465743e+03
1.434699222027825954e+03
2.341865359139953398e+03
2.782011371547090221e+03
3.468191354697355109e+03
4.137405633129622402e+03
4.492770461411750148e+03
4.234329876850598339e+03
4.668028485635976722e+03
3.797821222240606403e+03
2.737758468952557905e+03
2.142871344190823947e+03
1.441170913033918850e+03
6.517100253955862854e+02
9.404469137041154454e+02
1.168401216727302426e+03
1.435552464114392251e+03
1.913930363731511989e+03
1.717589077787511087e+03
9.925554022357507620e+02
5.488448879049541347e+02
4.714147605045194496e+02
1.810286122892350249e+03
3.115435823961786809e+03
3.340898959041373473e+03
3.009688772068642265e+03
2.991894793370738171e+03
2.679504584827066083e+03
2.271446005741930549e+03
1.672762329833192553e+03
7.944692681463433246e+02
1.995793553493975594e+02
-1.249586591319986724e+02
2.167343304351931010e+02
9.436707571554701417e+02
9.538921690760435013e+02
1.130476367972613389e+03
1.369507117423869659e+03
1.794997051737997708e+03
1.625935543327319920e+03
1.332439983453501782e+03
9.625597792060204938e+02
6.841665110129208642e+02
5.332360197958680601e+02
5.967248226925985364e+02
1.327555946355110109e+03
1.636825893864788895e+03
1.294664175960213242e+03
6.703189989241824378e+02
-3.264436400597338661e+02
-1.247471365582780436e+03
-1.475816028580610009e+03
-1.118509226023889141e+03
-8.889724842589532727e+02
-1.528292418352986715e+03
-8.762913803005286582e+02
-3.930059300328459813e+02
2.215592672288144627e+02
8.715579307039799914e+02
2.298962054057625437e+02
-5.014424401181082089e+02
-6.514898107273700134e+02
-9.172444730803639459e+02
-8.127781137932050797e+02
-5.390530642153211147e+02
-8.510711938545622957e+01
2.771095129022309038e+02
8.875652162447304363e+02
7.852590108144264605e+02
1.715971779349554183e+01
-6.588000086233095089e+02
-6.406089942981021750e+02
-5.073315504829979545e+02
-1.007987180773978025e+03
-9.925975227931184008e+02
-8.511016790210356930e+02
-7.095028275807903810e+02
-2.948075581632546687e+02
-3.710559258192056404e+02
-7.142638133973028971e+02
-8.993999678887064420e+02
-2.974346526250984084e+02
4.105739246418425523e+02
6.885953063286184488e+02
7.976311342152829411e+02
6.507288059354441430e+02
4.338841062513379256e+02
4.930273047886915947e+02
8.921872584416030350e+02
1.141322750697602032e+03
9.593913360220263939e+02
2.393238028198301208e+02
-4.948940955192385900e+02
-9.423132344606215156e+02
-1.264929317892761901e+03
-1.624756070143558645e+03
-2.084749737853897386e+03
-2.083827330145787528e+03
-1.826005538770830753e+03
-1.605306977176104283e+03
-9.938013509104299601e+02
-7.035408307455691101e+02
-3.094823639821730694e+02
2.454285526469343495e+02
3.551353512977718765e+02
1.608587765112423767e+03
3.136876435655264686e+03
3.715014861774803649e+03
3.356999546544999248e+03
2.512809025279422258e+03
1.603540683725301051e+03
8.877933259098311964e+02
6.665126733615228716e+01
-7.318856740394905955e+02
-9.618602983679645604e+02
-1.007238337334619132e+03
-5.840053121706181400e+02
-3.360570775287339984e+02
-6.013557725753370278e+02
-2.619910205366117225e+03
-1.420671426766473132e+03
4.242588380396902608e+02
6.758232490305093734e+02
7.529985665672714958e+02
3.399579718016817083e+02
-5.041600028347406806e+02
-1.390467949511797315e+03
-1.780077474387471057e+03
-1.895747641388771171e+03
-1.608761507527130561e+03
-7.718014575265139001e+02
-4.531211812457275414e+02
-6.316206657527495736e+02
-4.863311531028008403e+02
7.407405070606477011e+02
1.128711863151683929e+03
1.149396371589821911e+03
6.616925046096429242e+02
1.486005597634062951e+02
-6.256889205090330961e+02
-1.306173473228776174e+03
-6.218795699074892127e+02
1.912532797712185868e+02
1.802271310766017223e+02
5.587966536434603313e+02
1.016190546440084859e+03
1.751473240302933618e+03
1.950725704479907108e+03
1.143700106505612894e+03
-3.576702980242778551e+01
-1.081414636587133145e+03
-1.797284063446309347e+03
-1.670128530959537557e+03
-1.264409278275099723e+03
-6.651196614473832369e+02
1.809224339775790895e+02
1.187536770017050685e+03
2.326833594054053265e+03
2.768784975607049546e+03
