1.358612534222780778e+04
1.384179694117564577e+04
1.403165481979206197e+04
1.389353539559838646e+04
1.330327097242457967e+04
1.195675657266582493e+04
1.149588472837090012e+04
1.101065103262923549e+04
9.410200839414676011e+03
6.813640396237095956e+03
2.932956363467575102e+03
7.312211912283918309e+02
9.238039783587349518e+01
6.945612152473738661e+02
2.142977995023123185e+03
2.987815018717560179e+03
3.065317569469795671e+03
3.357748462341626237e+03
3.551027450635546757e+03
4.744147302990249045e+03
9.596116938875917185e+03
1.095212217892958142e+04
6.834314238060560456e+03
2.368737456152064169e+03
5.556455096020694100e+02
-2.988918376702127944e+02
1.316275135154656709e+03
3.566321899910410139e+03
4.020537136853905395e+03
3.165170001627176589e+03
8.564468434592314452e+02
-1.339246995798681610e+03
-2.537634274287659991e+03
-3.527514110647729467e+03
-6.003687430225313619e+03
-7.976766625836065941e+03
-8.938324978424961955e+03
-9.083038321323356286e+03
-8.699561805079983969e+03
-8.290633576851896578e+03
-7.458017361307001011e+03
-6.205535567240744058e+03
-5.732037298132203432e+03
-5.109120719755780556e+03
-3.928405962445118803e+03
-2.869635174663209455e+03
-1.997410960623869187e+03
-2.313528710158338413e+02
1.755774807126869518e+03
2.858387461310491290e+03
3.207968940975995338e+03
3.453945606513668281e+03
3.030682779598555044e+03
1.430568549042919358e+03
7.830647221726906082e+02
4.416011947601118095e+02
2.865664503418186086e+02
5.615853316565502382e+02
1.780181119535980770e+03
3.485808883653272005e+03
3.512032440133469208e+03
3.165342444806193271e+03
2.319156036232108363e+03
1.795924358489141241e+03
1.680228951838165813e+03
2.003617774212821359e+03
2.388503131540420782e+03
2.406481943296477766e+03
2.819244830295391239e+03
3.563386268111364643e+03
3.943489154488523127e+03
3.846115369168826419e+03
3.132895893465745303e+03
3.049415182139365243e+03
4.321259280629189561e+03
4.348212196177863916e+03
4.581120777024526433e+03
6.175804943895906035e+03
6.241814118839980438e+03
6.199896295965508216e+03
7.157604613701996641e+03
7.922697960518969921e+03
7.527657787742626169e+03
5.977068699347318216e+03
4.454598241245587815e+03
4.066136383110648239e+03
4.909374182261860369e+03
5.681901296725982320e+03
5.941429903566187932e+03
7.053712389830448046e+03
6.755574150817162263e+03
6.084760532204636547e+03
5.617068355713016899e+03
4.608369418282672086e+03
4.241415260036460495e+03
4.653909373170657091e+03
4.979483616331557641e+03
4.975738554558429314e+03
5.054402165527460056e+03
4.213336813015504049e+03
3.469554338655913398e+03
2.892732451185527680e+03
2.444404772597536066e+03
1.764277956905907558e+03
1.145132592959240355e+03
1.896638101110916750e+03
2.249401208374460111e+03
1.273023329198442752e+03
5.501652349869079899e+02
-6.734954917337178131e+02
-1.911412210705872667e+03
-2.761989233099552621e+03
-4.298551364172843932e+03
-5.495446355092846716e+03
-5.680972934405815977e+03
-5.803544845603008071e+03
-6.024536587707543731e+03
-6.141474491627133830e+03
-6.486822290200653697e+03
-6.628057402538473070e+03
-6.356567028301082246e+03
-5.381655187548998583e+03
-5.798857620449960450e+03
-6.896751200017846713e+03
-7.574858662347925929e+03
-8.142652601180372585e+03
-9.181618975940717064e+03
-1.036023383780181211e+04
-1.170698865559822298e+04
-1.239159088216212331e+04
-1.236068334440555373e+04
-1.178083592763563502e+04
-1.115173453644731489e+04
-1.036611138651544570e+04
-9.785689993975551261e+03
-8.727209961230644694e+03
-6.771402923526900850e+03
-4.979004958404529134e+03
-4.130867295098124487e+03
-3.443753675530691908e+03
-3.029437220595848885e+03
-2.456744613263348128e+03
-2.431536499591698885e+03
-2.245799695019616138e+03
-2.139637497511538186e+03
-2.558064934743967569e+03
-2.318846235024429006e+03
-1.826905785569739237e+03
-1.955429393405985138e+03
-1.522407751770123923e+03
-2.696816337385428596e+03
-4.238546848897094605e+03
-1.103654465144336427e+03
2.313339722934688325e+03
4.815306728563801698e+03
6.775293409734492343e+03
8.354096678695090304e+03
9.397389610827758588e+03
1.014597697046314715e+04
1.064633766941274371e+04
1.119277729250238008e+04
1.109576571007665734e+04
1.104193565954172846e+04
1.051028231798118941e+04
9.876092656348828314e+03
9.748158306433611870e+03
1.040769119444124226e+04
1.083627555298179686e+04
1.061545399190484386e+04
1.062853302376199463e+04
1.111901201451465931e+04
1.209209107785124070e+04
1.330343070177712798e+04
1.406227778439266694e+04
1.454523264045680480e+04
1.450453173162461098e+04
1.363230132679493545e+04
1.316457903700265342e+04
1.316439149444745999e+04
1.388617302499866673e+04
1.488623887875771288e+04
1.516186347830564227e+04
1.506146143162613043e+04
1.640098023513780936e+04
1.699627207981834727e+04
1.693447179300673815e+04
1.722676065653479236e+04
1.755224670255371166e+04
1.772582694191148767e+04
1.835964433240495782e+04
1.909184926547936266e+04
1.932848548262504119e+04
1.986948304642857329e+04
2.092081493495942777e+04
2.065768745604012656e+04
1.984211848193924743e+04
1.858803698236913624e+04
1.713757605357827561e+04
1.550086238953047177e+04
1.381886837548503354e+04
1.224036367554282879e+04
1.045018786580937194e+04
8.808280421609402765e+03
5.394728554822650040e+03
1.689377611991838194e+03
-1.600774212837047571e+03
-2.599731033523133192e+03
-3.197656406055399657e+03
-3.167621285691894172e+03
-4.098571253913447435e+03
-5.742393199476416157e+03
-6.806076707358576641e+03
-7.584698762974134297e+03
-8.523237308165120339e+03
-9.516339640814496306e+03
-1.033526272165886621e+04
-1.079625991973371492e+04
-1.020532409806921896e+04
-8.216195153045533516e+03
-5.322897550836959454e+03
-7.152485400875539199e+03
-7.821923015693170782e+03
-8.116240319435118181e+03
-9.021421813219458272e+03
-9.819421962070809968e+03
-9.471221100489432501e+03
-9.374513916953375883e+03
-9.948065469693035993e+03
-1.119575924663657315e+04
-1.198742098532756972e+04
-7.954810265722843724e+03
-6.050468852848314782e+03
-8.360901463676987987e+03
-8.769182831377671391e+03
-4.284180370298860907e+03
-2.329340718406091128e+03
-1.627313409297724320e+03
-1.650711407029466272e+03
-2.421978124949444918e+03
-2.985055171935024191e+03
-3.750882027682373518e+03
-3.912967891576695820e+03
-3.952891127422501995e+03
-3.747256178409303175e+03
-4.199376282869638999e+03
-4.945574235559109184e+03
-5.232321803418231866e+03
-5.376338244154098902e+03
-5.818300887069802229e+03
-5.669266794034419036e+03
-4.637595849516785165e+03
-4.397774613829886221e+03
-3.344372267554042992e+03
-2.511282487787564150e+03
-1.457543959215942323e+03
-1.200464287581896770e+03
-1.007561430247346948e+03
-1.071637472479785174e+03
-1.771600526198963621e+02
1.155262410663194260e+03
1.233133207629151912e+03
1.964143001490922131e+02
-3.043788397278699449e+02
-5.404534582618686045e+02
-6.654335016584058167e+02
-6.097911753385959628e+02
-1.630563521183454441e+03
-2.871524121119051415e+03
-5.060400686902321468e+03
-7.003397176511255566e+03
-7.437729650973575190e+03
-6.015756589444699785e+03
-3.220675430790441624e+03
9.963276497838345449e+02
4.046461845323103717e+03
6.535771524270146074e+03
8.087553203504176054e+03
9.924892647298562224e+03
1.153247795396345828e+04
1.144443567598069239e+04
1.183432087084181330e+04
1.203048355527495369e+04
1.178133693655211391e+04
1.048030236770311785e+04
9.820017618783051148e+03
9.010181307864999326e+03
8.196076150634240548e+03
9.500046232278464231e+03
1.157635989154326671e+04
1.217098305044690096e+04
1.087338306042693330e+04
1.002595576608677038e+04
1.043755906371518176e+04
1.095656553526714742e+04
1.134705682896551116e+04
1.150176723398717149e+04
1.224574430785078403e+04
1.312897877371279537e+04
1.337053926224041061e+04
1.350891601128070579e+04
1.401704137647661628e+04
1.433022809864231749e+04
1.428245429768353824e+04
1.365954372515318209e+04
1.282874916111525818e+04
1.218622984151825040e+04
1.163161707537179973e+04
1.135599431387068034e+04
1.081102761646786348e+04
9.831409108542909962e+03
9.027921936151777118e+03
8.504900429948986130e+03
8.211285147403435985e+03
8.369405320302845212e+03
8.342507036382805381e+03
7.925467438313966341e+03
7.717444491930622462e+03
7.703616654830946572e+03
8.157454363250604729e+03
8.577899352649581488e+03
8.793449815287787715e+03
9.235994825400024638e+03
9.132866976077786603e+03
9.057499334874381020e+03
8.971267619936845222e+03
8.523578661729727173e+03
8.144262106067530112e+03
7.890344851174264477e+03
7.481708846694876229e+03
6.826296911489015656e+03
4.865581958868091533e+03
2.061987901618201704e+03
-2.773627399220131906e+02
-1.808446136875304319e+03
-2.540184816771245096e+03
-1.667911472296413649e+03
2.037522346614021671e+03
6.204590287756120233e+03
6.490686233462003656e+03
5.285035220902455876e+03
3.203991651694061147e+03
1.988798279555541740e+03
1.673185244887706631e+03
7.302945250690427201e+02
-1.534937405978179640e+03
-3.707447471420000511e+03
-5.219067814731815815e+03
-7.097959592393293860e+03
-8.444848099773189460e+03
-8.854664996282384891e+03
-9.519592715810240406e+03
-9.842248923494342307e+03
-9.732314480910237762e+03
-1.011370462650307854e+04
-1.014933107799332902e+04
-1.041818607801526196e+04
-1.042935283513381728e+04
-1.027357429515118019e+04
-9.912734452985991084e+03
-9.645639033603694770e+03
-9.919935992321990852e+03
-1.047246333416968628e+04
-1.152281861626025966e+04
-1.289920695837605126e+04
-1.426484492606217827e+04
-1.613508782112801418e+04
-1.817345326031136210e+04
-1.959457552739576931e+04
-2.072602881925180918e+04
-2.114606272923017968e+04
-2.169480680926064815e+04
-2.270452959457432007e+04
-2.245755182175739174e+04
-2.226205048078838081e+04
-2.286122325274477407e+04
-2.427222717928894417e+04
-2.516912975645386177e+04
-2.544797301751306441e+04
-2.674688001603404700e+04
-2.878480785769683280e+04
-3.126566980164713459e+04
-3.356407227643999795e+04
-3.559555862309139047e+04
-3.691590278400793613e+04
-3.722902920737215027e+04
-3.843087430804350879e+04
-3.984339511538302031e+04
-3.978067369152476749e+04
-3.952176105907543388e+04
-3.967748545106568781e+04
-4.009700314101094409e+04
-4.064474693041643332e+04
-4.090312385717192956e+04
-4.080966739774844609e+04
-4.133695137985347537e+04
-4.109440603773584735e+04
-4.031857922654536378e+04
-3.976135727995347406e+04
-3.783947906317941670e+04
-3.686268748103266262e+04
-3.903182681422408496e+04
-4.267977730471507675e+04
-4.408730744903574669e+04
-4.512838195187946985e+04
-4.715718877603714645e+04
-4.963392646748706466e+04
-5.204418699319977168e+04
-5.221185274196564569e+04
-5.184225986564415507e+04
-5.026048010898740176e+04
-4.853586339884133486e+04
-4.643809049884378328e+04
-4.307624815530797059e+04
-3.982909756007009855e+04
-3.388459055255731801e+04
-2.847575920173843042e+04
-2.923467584512343456e+04
-2.999169430513630141e+04
-2.950407281343125578e+04
-2.869715849702585547e+04
-2.805387059684331689e+04
-2.761118743359074142e+04
-2.585972064667733503e+04
-2.304946867230323551e+04
-2.118660040938909515e+04
-2.035752357147955627e+04
-1.921275423067244628e+04
-1.859167347308871467e+04
-1.811372748205059906e+04
-1.429864471551655879e+04
-1.004038259780147564e+04
-7.971834322878139574e+03
1.472916611543745375e+02
3.026137815091588891e+03
-1.644074960214068426e+02
-4.675321499964326222e+02
2.045358259379180481e+03
4.962947804436960723e+03
9.017004007773792182e+03
1.434705951894145619e+04
1.583115949558605826e+04
1.691041522758295105e+04
1.930689593507258905e+04
2.242467573917925984e+04
2.329477224422834479e+04
2.445013291461391054e+04
2.641872446978330481e+04
2.891736938588838166e+04
3.065487108956575685e+04
3.099195009018667406e+04
3.313418397566339263e+04
3.624428223217697814e+04
3.819176658381093876e+04
4.074720879871207580e+04
4.611404636374748952e+04
5.258668110590378637e+04
5.643353230105726107e+04
5.871685992936835828e+04
6.049383626987942989e+04
6.314862968075463868e+04
6.418859522004677274e+04
6.524993659444643708e+04
6.673685542498269933e+04
6.652428920419809583e+04
6.559813857040074072e+04
6.587732221716320782e+04
6.736593846816565201e+04
6.920413497191770875e+04
7.018486587785920710e+04
7.024306199392164126e+04
7.585113371996778005e+04
8.032916680607938906e+04
8.154533538239353220e+04
8.231361192695975478e+04
8.524999690637475578e+04
8.779779524849670997e+04
8.930481085640362289e+04
9.102105386811753851e+04
9.188382829631811182e+04
9.107626855773874559e+04
8.940442980102378351e+04
8.581694315437054320e+04
8.350091600475736777e+04
8.236408491093467455e+04
7.948807208901381819e+04
7.604135998597875005e+04
7.294377020125379204e+04
7.187687584115381469e+04
7.399557433028599189e+04
7.299243447741711861e+04
6.973369314264046261e+04
6.899511106236811611e+04
6.842939541589803412e+04
6.852599717003687692e+04
7.190152303288283292e+04
7.169492275157890981e+04
6.688107959035008389e+04
6.207177737872969738e+04
5.585705379345508118e+04
4.722028178117197967e+04
3.941798975293820695e+04
3.257181696578922492e+04
2.485255236008771681e+04
1.118699374552466907e+04
-9.810993101531743378e+03
-3.179824192342077731e+04
-4.489158376750246680e+04
-4.863970374173681193e+04
-4.178397738425946591e+04
-2.607693368866300079e+04
-1.521764631969322181e+04
-1.550585802052060535e+04
-1.892460821917938665e+04
-1.636369424207888551e+04
-1.579774979267451454e+04
-2.025514906693139346e+04
-3.025802675469281166e+04
-4.127934631428625289e+04
-4.627576628425891977e+04
-5.248903780895167438e+04
-5.282997093966676766e+04
-4.491232003627355152e+04
-3.493049769616364938e+04
-3.398748534739487513e+04
-4.087228827781005384e+04
-5.010368529651135032e+04
-6.281532128148474294e+04
-8.265099070891815063e+04
-9.657838083919019846e+04
-8.851186496188661840e+04
-7.464175544443289982e+04
-7.091715469307653257e+04
-7.546107536961589358e+04
-7.555732528034271672e+04
-6.937212701800117793e+04
-6.713218712429233710e+04
-7.365099056858402037e+04
-9.105083553930069320e+04
-1.085978744067673397e+05
-1.094350447696814081e+05
-1.167789347017854016e+05
-1.201083121309458074e+05
-1.244927630178542313e+05
-1.301336424614288699e+05
-1.222925303074248222e+05
-1.150795848511589429e+05
-1.317513829454786901e+05
-1.534205846356019028e+05
-1.729339946476205951e+05
-1.814775521386375185e+05
-1.801759919912198384e+05
-1.714368235541487520e+05
-1.637485547418145870e+05
-1.726728972732567927e+05
-1.873825026887994027e+05
-2.050967899885834486e+05
-2.194850758968727023e+05
-2.384067339403854858e+05
-2.543791569816355477e+05
-2.691756245346172363e+05
-2.749585328668301809e+05
-2.562953328751226363e+05
-2.297414690812127956e+05
-2.010113520004544698e+05
-1.748933628189430165e+05
-1.673158912884648307e+05
-1.686734948868099018e+05
-1.712227882622631150e+05
-1.670313636711910949e+05
-1.632737685025635583e+05
-1.610446421133896802e+05
-1.507635148812435800e+05
-1.410200029135287041e+05
-1.195879573373563035e+05
-9.218724074463061697e+04
-6.504876475233887322e+04
-2.900649909390112225e+04
9.950645325992245489e+03
4.474964801107512903e+04
7.533047153199765307e+04
9.903772997468290851e+04
1.150710658064460731e+05
1.272741475331434194e+05
1.364244668230536336e+05
1.389714199933593918e+05
1.332072824082722655e+05
1.255601858155012451e+05
1.155001909988589759e+05
1.092773580651081720e+05
1.077483672529808246e+05
1.143848075461329427e+05
1.368010437427865400e+05
1.733622586211838934e+05
2.197534144755976740e+05
2.617255969252382638e+05
2.792326972578587593e+05
2.809823407706959406e+05
2.910132677882658318e+05
3.053858546201984282e+05
3.168772072378847515e+05
3.198983405816915911e+05
3.127302548905666335e+05
2.949437309826796991e+05
2.699652967510893359e+05
2.571933409062416467e+05
2.573969047326593136e+05
2.694848903271066956e+05
2.768451401165554998e+05
2.771101955361688160e+05
2.781574450444104732e+05
2.795162158178644604e+05
2.801125890321708866e+05
2.766664969176250743e+05
2.736056350706089870e+05
2.686484881816415582e+05
2.619434472311320133e+05
2.544257903957173403e+05
2.429016504159500473e+05
2.309869238647921884e+05
2.220373521253012295e+05
2.150365228023077943e+05
2.098078953679314291e+05
2.032326480529772816e+05
1.933167527453016082e+05
1.801089199736394221e+05
1.657858979375889176e+05
1.525832479673539056e+05
1.394553647582102276e+05
1.244326167434513336e+05
1.085991074880685919e+05
9.137583977118748589e+04
7.229677064619050361e+04
5.239266630802820146e+04
3.192008681625578174e+04
9.828540275701081555e+03
-1.459852068537449304e+04
-4.105678932653860102e+04
-6.449403099859230133e+04
-8.337716340819216566e+04
-1.004372847483691730e+05
-1.169775405277375685e+05
-1.329661752604306384e+05
-1.473314203512025415e+05
-1.609367438253590080e+05
-1.728227594121771108e+05
-1.793260170852802985e+05
-1.831161273041969107e+05
-1.874317194995754980e+05
-1.907234897135348001e+05
-1.933212518475799880e+05
-1.961448851753234921e+05
-1.975852245682356297e+05
-1.975582202296826581e+05
-2.001097583787055919e+05
-2.026147314696928370e+05
-2.052111990940828982e+05
-2.078520694015521149e+05
-2.104900214333293261e+05
-2.111737710708291852e+05
-2.098823593674070435e+05
-2.086536861465185648e+05
-2.076935638027810201e+05
-2.105004910284788930e+05
-2.092853326919836400e+05
-2.072811509768179385e+05
-2.075055670661592740e+05
-2.030726332555144036e+05
-1.977223044617576234e+05
-1.957248126396865409e+05
-1.919568774898082775e+05
-1.877124595598372689e+05
-1.825397815332913888e+05
-1.754034014794608229e+05
-1.681541722694374621e+05
-1.587859936143697123e+05
-1.457929729644987674e+05
-1.357044965860631783e+05
-1.284232477461767121e+05
-1.170948332917326188e+05
-1.041579458564114757e+05
-9.118150264971463184e+04
-8.074794901114431559e+04
-7.273266746722834068e+04
-6.394702663354805554e+04
-5.343185870192259608e+04
-4.347550878608829225e+04
-3.694077478538845753e+04
-3.232252744222813271e+04
-2.638764504782126096e+04
-2.001785185436362008e+04
-1.400021762666812174e+04
-7.894590440812670749e+03
-2.976336211785933756e+03
2.786453686921789995e+03
1.107517188088164403e+04
2.082267082220939847e+04
2.890164263955911520e+04
3.472873419963128254e+04
3.819384350249726413e+04
4.103970530628081906e+04
4.316143460897539626e+04
4.426128677020097530e+04
4.622048367442627205e+04
4.795136770512318617e+04
4.943943660048556922e+04
5.131947913944369066e+04
5.295844082156845980e+04
5.497214485879173299e+04
5.620967756455491326e+04
5.803838301564472204e+04
5.967059719559844234e+04
6.126468684671702067e+04
6.394118707274715416e+04
6.655101666058198316e+04
6.804217651115225453e+04
6.900775761071566376e+04
7.012389770844241139e+04
7.106703925862327742e+04
7.301655788625910645e+04
7.530989109049165563e+04
7.603579562167086988e+04
7.562202720714505995e+04
7.464632763481918664e+04
7.378153449053959048e+04
7.168461289342594682e+04
6.737078896101134887e+04
6.664861625115321658e+04
6.570960251135303406e+04
6.584104232654916996e+04
6.437058714570994198e+04
6.185695174185028009e+04
6.280544576877130021e+04
6.009965866751348949e+04
6.283540979432900349e+04
6.782351400473075046e+04
7.189885349886560289e+04
7.168945764239659184e+04
7.434442825619310315e+04
7.346590105735108955e+04
7.484585847651259974e+04
7.581432369281431602e+04
7.285940735319374653e+04
6.989325502409644832e+04
6.780405904500839824e+04
6.271377607831428031e+04
5.887220734837416967e+04
5.699276976099353487e+04
5.359584527571662329e+04
5.246132666205169517e+04
4.974629709111303964e+04
4.590284020412010432e+04
4.368771053236329317e+04
4.186121154235573340e+04
3.677580399686336750e+04
3.030358309334428486e+04
2.459975911161972181e+04
2.041362690100928376e+04
1.672718963539438118e+04
1.413639848137630179e+04
1.192332410366007389e+04
8.825395154353627731e+03
6.345187815913562190e+03
3.599879095607957879e+03
1.016739882518965260e+03
-9.282449941908240589e+02
-4.729495048480264813e+03
-7.605649994277227051e+03
-6.170360655172392399e+03
-7.069580242760049259e+03
-9.036866788084373184e+03
-1.259053314592892821e+04
-1.522342381657612350e+04
-1.586119009220360022e+04
-1.579430122333733743e+04
-1.283368341985500956e+04
-7.975006496760445771e+03
-4.006438652078116320e+03
-2.801864675068868110e+03
-2.333572535680215879e+03
-3.335365164307705186e+02
1.817115022037654171e+03
4.245312781374614133e+03
8.057476988567176704e+03
1.097503986236946912e+04
1.303069384578531390e+04
1.635811570002761437e+04
2.055731449175689340e+04
2.391944273680317929e+04
2.584762477563767970e+04
2.620188607264566599e+04
3.245028500011200231e+04
3.666267289981685462e+04
3.759166867623904545e+04
3.742898751156854269e+04
3.541337804000363394e+04
3.195399634211498415e+04
2.908895723569815891e+04
2.451166116557363057e+04
1.789553126599190728e+04
1.056752707706475121e+04
1.801123079681659078e+02
-1.059542248432549422e+04
-1.743275630247991285e+04
-2.271081681533775190e+04
-2.688070052862140074e+04
-3.158704730298960931e+04
-3.620239132322975638e+04
-3.867146766668283817e+04
-3.944406236748989613e+04
-4.087243548652021127e+04
-4.344854465963861003e+04
-4.575697456613001123e+04
-4.631050426924274507e+04
-4.535247425049560115e+04
-4.375966675545023463e+04
-4.026948607883723889e+04
-3.665928452123658644e+04
-3.354419646129472676e+04
-3.059187289808702189e+04
-2.740005052910770246e+04
-2.307519453070480813e+04
-1.782636775481014411e+04
-1.385816923727449830e+04
-1.136878298434234239e+04
-9.840860270668094017e+03
-8.363842453107656183e+03
-7.355621192301896372e+03
-5.356027146997809723e+03
-2.888721024223186760e+03
-1.774704670572024725e+03
-1.625060698419823893e+03
-2.045575884930429083e+03
-3.511605570458927559e+03
-4.561196553402037352e+03
-4.966094234296399009e+03
-4.411497536200911782e+03
-5.798405853552814733e+03
-7.885517227482346243e+03
-9.439281342326494268e+03
-1.087133612496825117e+04
-1.179525670777434971e+04
-1.243810987112133080e+04
-1.320373825651794323e+04
-1.476742383688952395e+04
-1.523931135866001932e+04
-1.646302540105608932e+04
-1.737229467542960629e+04
-1.885426163488675957e+04
-2.034280163389236986e+04
-2.083391780628779816e+04
-1.820647567904624157e+04
-1.763526802917775785e+04
-1.941725925230057692e+04
-1.983849897835040974e+04
-1.945382376287473016e+04
-1.925978003660043396e+04
-1.989941882728380369e+04
-2.043209237746961662e+04
-2.008876219664209930e+04
-1.900712875530250676e+04
-1.756995973223739202e+04
-1.714758958551911201e+04
-1.680854871294759505e+04
-1.611647605388302509e+04
-1.609677014826715640e+04
-1.637458837680788201e+04
-1.640258698083245690e+04
-1.618730048361224726e+04
-1.589511700798755373e+04
-1.583010492704214630e+04
-1.663260711726183217e+04
-1.728060363026105551e+04
-1.716904777780493532e+04
-1.629100274021918267e+04
-1.520411406941348469e+04
-1.400623018791476534e+04
-1.238444917439373239e+04
-9.306851749646255485e+03
-6.730586828185271770e+03
-5.180449519932885778e+03
-5.515969992774495950e+03
-5.696606240697854446e+03
-5.560008368985545530e+03
-6.162943164247807545e+03
-6.449033762494205803e+03
-6.051645982042264222e+03
-5.541230159233024096e+03
-4.562194966632960131e+03
-4.131832992129494414e+03
-4.115462820009986899e+03
-3.309346762485684394e+03
-2.499606527188820110e+03
-2.107365022774906265e+03
-1.546720756927264119e+03
-7.891096859399532377e+02
-8.011212705564444150e+02
-4.532308119657537304e+02
8.271390463488811520e+02
2.604626767962082795e+03
3.319731637685702481e+03
3.724019446404698556e+03
4.457922973362233279e+03
4.915529607950848003e+03
5.651099829650599531e+03
6.631070725641571698e+03
7.381733115130638907e+03
7.641528680646508292e+03
7.276869653459491929e+03
6.447030187333449248e+03
6.229197932444217258e+03
6.160941515605494715e+03
5.988640440216680872e+03
5.416706103917937980e+03
4.571611543406912460e+03
3.990821668991477054e+03
3.217612415175006390e+03
2.313184135170126865e+03
5.818278352878317037e+02
2.456067787120592129e+03
3.718671483173215165e+03
3.612711895217214533e+03
6.116477658599894312e+03
6.006467325430854544e+03
2.129664096980477098e+03
3.531252295529632192e+03
4.949754514290997577e+03
4.093350694459155079e+02
1.568207780120244479e+03
6.386795496793902203e+02
-1.296112342156621480e+03
-3.189572628603448265e+02
1.711241908865107689e+03
-1.198599489152458773e+03
-2.103028709646761399e+03
-8.385931940444236261e+02
2.373553737862339858e+03
3.303427610635743349e+03
4.321205288045382986e+03
4.304261475126816549e+03
2.864959403955482685e+03
4.751428914078182970e+03
1.914703094429352859e+03
3.672038562695934615e+03
5.699944240123316376e+03
2.746834165214951099e+03
3.690867000043356256e+03
4.525212108141122371e+03
3.823143163213767366e+03
1.282929830457336038e+03
-8.350573105395905031e+02
4.163608374722065264e+02
-2.940822767935822867e+03
-1.447548810087453603e+03
-2.695508662779657243e+03
-2.577279433532718940e+03
-3.063423188384202149e+03
-1.175637958430524804e+03
1.495270619073740477e+02
7.925477060351015552e+02
1.037604932836792614e+03
8.749759555997732150e+02
9.079937317665004457e+02
4.099926735329235612e+02
-8.607191297884465939e+02
-1.799973437988550359e+03
-2.972533403624840957e+03
-4.588274975213110338e+03
-5.220934397860595709e+03
-5.383331815295689012e+03
-5.689509882979152280e+03
-6.245370658842819466e+03
-6.706865544114008117e+03
-6.475861762367069787e+03
-5.543259296081517277e+03
-4.722647683986131597e+03
-4.232947779129383889e+03
-3.679170107622279374e+03
-3.826124267109302309e+03
-4.296629168731007667e+03
-4.846433521338043647e+03
-5.772422371984269375e+03
-6.150498086900157432e+03
-2.600335107984003571e+03
-2.486096457519382056e+03
-3.429813457066987212e+03
-4.756545203602410766e+03
-4.055153271423343540e+03
-4.451424957386821006e+03
-5.782093111693026003e+03
-6.811773709179373327e+03
-7.053765964310431627e+03
-7.376340807846547250e+03
-7.662585790505057048e+03
-6.922299581520224820e+03
-6.535769966226206634e+03
-5.793811092621468561e+03
-4.143571965654369706e+03
-3.826085341809367037e+03
-4.036616136193601051e+03
-3.453610353304977707e+03
-3.201977981903062755e+03
-3.691454978485598531e+03
-3.372374680038400584e+03
-2.347045588258560656e+03
-2.037367793075698501e+03
-2.020946702315886341e+03
-1.524038266351411494e+03
-1.446653227851857537e+03
-1.477934012028284087e+03
-1.417261360877607558e+03
-1.622706882993478985e+03
-1.826294404995316881e+03
-1.982342764334202684e+03
-2.274160424809907454e+03
-2.436930053324436358e+03
-2.044949963498176203e+03
-1.733489465027711276e+03
-2.092787381176942745e+03
-2.237124722095515608e+03
-1.919770501075905031e+03
-9.360570611687570590e+02
3.826581394368442943e+02
7.391961157246248604e+02
2.062139794237614865e+02
9.399290997270597359e+01
-3.255574154276226295e+02
-3.006409020229384623e+02
-2.314531808988248542e+02
-6.594184982611055830e+02
-4.606009844530630204e+01
6.442781553313948280e+02
5.970220294240274370e+02
7.006148359415470850e+02
5.576270082424720158e+02
2.909007999062246768e+02
1.702344479040062879e+02
1.421659248294621136e+02
1.227244644917914457e+03
2.332095138361316458e+03
2.852332233642451683e+03
2.093758013770731395e+03
9.220961565076660236e+02
-1.297043297359231019e+03
-1.080087964088112813e+03
-1.090397233224611682e+03
-2.221079343699037054e+03
-3.750274669809043189e+03
-3.826763876414803690e+03
-8.006220184358909364e+02
1.508177410020657589e+03
-7.204194757844263677e+02
-5.589414029599102832e+03
-6.046792634529695533e+03
-5.629614241400621722e+03
-5.550782325152316844e+03
-2.120075010385990026e+03
-1.021353809340119597e+03
-3.213228707638844526e+02
1.911137033219773912e+03
2.639744937480705175e+03
2.629456628231065679e+03
2.625308389318093305e+03
2.698467764031352999e+03
2.831029654902058610e+03
3.090881788151527871e+03
3.359775242804277241e+03
3.157655736110606540e+03
3.014648338642140516e+03
2.863788996078007585e+03
2.644993615935627076e+03
2.248208527688808772e+03
1.639490573808744330e+03
9.208104649932625989e+02
-1.987392738683720665e+02
-8.150284237243497500e+02
-9.540148554886808370e+02
-1.205590853928576280e+03
-1.002702889259007407e+03
1.266054778939127488e+02
9.745793812784959300e+02
2.246509104396043313e+03
2.655557455771364857e+03
3.006906445139565221e+03
2.805812735968422658e+03
1.747417876943228976e+03
6.259095782494391642e+02
-8.333190451585139726e+02
-2.391918149348281531e+03
-4.234501439965622012e+03
-5.118602409468393489e+03
-5.779918135808528859e+03
-6.851067498266235816e+03
-7.323729801916294491e+03
-7.774369186081115913e+03
-8.109500405747552577e+03
-8.837667499272913119e+03
-9.726463237769014086e+03
-9.274595031121107240e+03
-8.377700952720279020e+03
-7.903085919820414347e+03
-7.553243011907478831e+03
-7.412117363922683580e+03
-7.197319694074523795e+03
-7.520093028435514498e+03
-7.543858497742465261e+03
-7.098102557126763713e+03
-6.161459835421998832e+03
-5.216689619023200976e+03
-5.582065391205558626e+03
-5.794208440160788086e+03
-6.410660485126750245e+03
-6.593950623262217960e+03
-7.736610803519058209e+03
-8.702985412199672282e+03
-9.171562645976215208e+03
-9.400946033396083294e+03
-9.605645472507681916e+03
-1.036630294778793359e+04
-1.059242854549432013e+04
-9.862457375754243913e+03
-8.290877452859615005e+03
-7.292122106006418107e+03
-6.991615648902170506e+03
-6.843905527257710673e+03
-6.702605865744595576e+03
-7.000237783023348129e+03
-8.026302575056627575e+03
-8.106247437606123640e+03
-7.535556257653021021e+03
-7.625819902038981127e+03
-7.351609265876488280e+03
-6.622549660049611703e+03
-5.231238368495186478e+03
-3.633357931553211074e+03
-2.910648234582742589e+03
-2.115683464148589792e+03
-7.900165096391847328e+02
9.079455798456680213e+02
1.686629416373032655e+03
1.738304052791280583e+03
1.578428588243642480e+03
2.055351144289143122e+03
2.625375148789868035e+03
2.636843749564467544e+03
2.339004675375319948e+03
1.791245912220913397e+03
1.619839380269617322e+03
2.292967447123240618e+03
2.471916316966794966e+03
1.938056121763286228e+03
1.355614481793242021e+03
1.263769002589837555e+03
1.224885236432038255e+03
7.862466028378794363e+02
8.350738067714644330e+02
9.385104837530876694e+02
1.387765884925671799e+03
1.728109605094877224e+03
2.033777342959682301e+03
2.915932306738453008e+03
3.659759691279363778e+03
3.814335458616583310e+03
5.218671620706578324e+03
6.740899202827294175e+03
8.324184518859578020e+03
9.158661567640607245e+03
9.751329726402564120e+03
9.803235544633304016e+03
9.404451835829930133e+03
9.320064455567453479e+03
9.540142018812095557e+03
9.878525655081768491e+03
9.845136054038386646e+03
8.575016855775475051e+03
8.823609624568180152e+03
9.996695144161092685e+03
1.111285058515008495e+04
1.236640810170961595e+04
1.321983740620335084e+04
1.423489674282854867e+04
1.498097781044133626e+04
1.509163500780870527e+04
1.473643052880979303e+04
1.336549886319895995e+04
1.278363022056848058e+04
1.235146313158398334e+04
1.137880333366863124e+04
1.065937324044812340e+04
1.016372745443853455e+04
1.047588360877581727e+04
1.106842370010278682e+04
1.114155061445343927e+04
1.107888528053180016e+04
1.164921910676509287e+04
1.260332446689451535e+04
1.328199659009428069e+04
1.359000540206033838e+04
1.348779746520459594e+04
1.371817488937838971e+04
1.423946570286925817e+04
