-5.300865033754354954e+03
-5.688343648330092947e+03
-4.822359915909239135e+03
-6.570874878717201682e+03
-7.132974239792282788e+03
-7.448658897526251167e+03
-8.478949575114507752e+03
-8.034858627333164804e+03
-6.777370585153546926e+03
-5.487654254848043820e+03
-2.422854349195585201e+03
-2.660114475504095026e+03
-6.172400185668502672e+03
-5.468649188435831093e+03
-1.964888587562109478e+03
1.529150965991385931e+02
3.336205484813331168e+02
6.132549918322726334e+00
1.939159662762344638e+01
-1.606582895309234402e+02
-4.619562529405016562e+02
-6.994753457876413449e+02
-7.003386295393996761e+02
-4.386631128459756042e+02
-1.225448630978453139e+03
-1.678784066229065729e+03
-1.460723123608878041e+03
-2.034293698992511736e+03
-2.349523031543988509e+03
-1.178495179866247781e+03
-8.071850488980128375e+02
-1.290796091947697278e+03
-2.096663212955269046e+03
-2.744693933054580157e+03
-3.327789103311981307e+03
-2.933052161173633067e+03
-2.869447313378090712e+03
-2.395046143510100592e+03
-9.780670625093739545e+02
6.341837203046046056e+01
-9.084696911950171625e+02
-6.978876552348248197e+02
-2.079936336830627113e+02
-4.928686341574154994e+02
-6.305567362374795266e+02
-4.899532328591845243e+01
-8.501923788198356533e+02
-1.870249081866474626e+03
-2.691312182850378576e+03
-3.128568444192449078e+03
-3.622056111732689715e+03
-1.944797899740055527e+03
-5.516386712471542069e+02
-1.036167852869886019e+02
1.340861014014643331e+02
3.784075976206941050e+02
4.483386954201055232e+02
1.539299482350574806e+02
2.280912399676337543e+02
6.645928445103886588e+02
6.851628492709194234e+02
1.881876637460358950e+02
6.229207865742368995e+02
1.200058312552861935e+03
4.954378175634615786e+02
-3.599353674956552140e+02
-8.770548354337238379e+02
-1.153856989124367828e+03
-1.257590198806970193e+03
-1.059446740386114925e+03
-5.283140995837045466e+02
-1.116091394428364310e+03
-9.868594626383461446e+02
-2.101508617923009865e+02
6.910131779689338600e+02
4.818146387061040059e+02
8.398902969440423760e+01
1.505074882290168148e+02
1.362228723330444957e+01
-1.886960987281756559e+02
2.383843005747451969e+02
-1.282342796263646676e+02
-8.615495217596449038e+02
-9.173952109384365485e+02
-4.017816003855584199e+02
-7.428975147701962669e+02
-3.698793491557966036e+02
6.321994463808032378e+02
7.004341072212527024e+02
5.568758085730413541e+02
8.585494491959783545e+02
2.984964949238657255e+02
-6.344229998691179162e+02
-1.333107644516470600e+03
-1.043553061393798316e+03
1.600897312187401553e+02
7.698096952315298722e+02
1.097820796951535556e+02
-2.859256697573888459e+02
1.146894483237559683e+02
7.006608420562567972e+02
6.846857620778653200e+02
7.007672272442524672e+02
4.879591799386121238e+02
2.994524621768949828e+02
5.314029701695798167e+02
1.846983925769015684e+02
-4.747878999360001444e+02
-8.290439285266940033e+02
-5.491720916848270235e+02
-1.035116838310522553e+03
-1.728838816113031271e+03
-2.653774064634558840e+02
1.309124653050667121e+03
6.978366522536466618e+02
1.067541490148439891e+02
4.959159284791870732e+02
5.804629603858439850e+02
4.573538420590436999e+02
-1.483426861823093361e+02
1.643406946844849017e+02
3.123913539266462180e+02
5.289102121752139283e+02
1.884848495184034164e+03
2.416146568046358880e+03
1.719842523000090978e+03
1.249007830454151190e+03
1.166799841259855157e+03
1.607348723730725624e+03
1.285762564124149094e+03
2.518901463491410482e+02
-8.924116872906993194e+02
-6.699299591821730928e+02
7.243688775332224772e+00
2.190234419693424854e+02
2.715596194248479947e+02
3.729774222411736559e+02
3.113479495137918889e+02
4.034167592344080617e+02
9.934583170280292279e+02
1.416275232017870621e+03
2.185863141067150536e+03
3.095319224238246534e+03
2.800374646515228505e+03
1.987019501205204051e+03
1.366530918798628591e+03
2.055291252455732774e+03
1.739070227352034863e+03
7.158315363003035827e+02
1.845447540686672880e+02
1.048278560256771925e+02
-2.501180901045905216e+02
-7.780450477876283912e+02
-1.327597450898659190e+03
-1.622794602535076137e+03
-6.506565856270156019e+02
5.788198903729924041e+02
2.650621283252297872e+03
3.727766875848625659e+03
2.667319058437893091e+03
1.468262855300140700e+03
1.625685707519095331e+03
1.847534763262430033e+03
1.810483779128875540e+03
1.453560223499765925e+03
1.235871587206898994e+03
1.226822171216433844e+03
6.231520828339226910e+02
1.408605697062598665e+02
-4.248679157516030500e+02
-5.691209578882944697e+02
-4.951397104383516101e+00
7.775970418039523793e+02
9.976503094425190739e+02
4.072597020674031683e+02
2.854035955809430902e+02
7.600286709318556859e+02
1.736098635736491588e+03
2.303630707919872748e+03
1.279567366377665849e+03
5.899711417287713857e+02
4.748616871044475829e+02
-2.686655781912397174e+02
-2.477546202774386984e+03
-4.764904864860707676e+03
-4.915838654622230933e+03
-3.130272384833783235e+03
-1.098144294419989365e+03
-2.831490251327204078e+03
-1.052336071375594202e+03
-5.831747839608766299e+03
-6.880705315211865127e+03
-6.452117198772534721e+03
-6.717974194988533782e+03
-7.715330307674893447e+03
-7.248158813735757576e+03
-7.458297479397333518e+03
-7.707986619291789793e+03
-8.300897387223947590e+03
-7.875239770163598223e+03
-2.806056605283667977e+03
-2.684382311499308003e+02
-3.980446014463546817e+03
-4.380030712145501639e+03
-1.352073991043807155e+03
-1.721521907743755719e+03
-5.126452780900417565e+03
-5.070822685209574047e+03
-7.856867463175095736e+02
2.680792792963234206e+03
3.082594048984431538e+03
3.148709869159777099e+03
2.459170544732009148e+03
8.830298255720319958e+02
-1.848632767506635901e+03
-8.758411466776318548e+02
2.492893152909966261e+02
7.537297267076489788e+02
8.284622113670918679e+02
9.943239204637072817e+02
2.084287519392569266e+03
2.866437612282974897e+03
4.159814579692610096e+03
4.928418494684257894e+03
4.695156534258610918e+03
4.119094214398714939e+03
3.414352299377856525e+03
2.948006088627318604e+03
2.626893749687243599e+03
1.300892716968973218e+03
-8.218982426686637837e+02
-8.125056211278033516e+02
7.359603984838223596e+02
2.684519303264472910e+03
3.770350299942207585e+03
2.106587753982501454e+03
1.930222638931986694e+03
2.833084348314700947e+03
2.486086418586792661e+03
2.388480896052516528e+03
2.767423341779510338e+03
2.725840080021855101e+03
2.137654393234719464e+03
1.384876084648764390e+03
6.914316363678457265e+02
9.625464637905135135e+01
6.642931537731569733e+02
1.073834017249910630e+03
1.835002331148412622e+03
2.152593490148892215e+03
1.239429073563629572e+03
8.455470057819798058e+01
-6.991244500535791495e+00
1.477731614255003763e+02
1.939304916068961120e+02
-4.653793979426839087e+02
1.069499115219590806e+02
8.550343927515281166e+02
3.915749933921202341e+02
7.443869065243264913e+02
6.400940615143754258e+02
5.197909672355717703e+02
5.259869493276561059e+01
3.615122180476584504e+02
1.737174952865361547e+03
2.232371709588777321e+03
2.002341382101182262e+03
1.934502886721725190e+03
1.479169374637118381e+03
6.886703590398801680e+02
4.168755449710863559e+02
8.685011587867675189e+02
5.544737372897520800e+02
-3.121152957671856143e+02
-7.442017065537355620e+02
-1.074712348321071204e+03
-1.303538526600704017e+03
-1.267665658038323727e+03
-1.481131006064562598e+03
-1.931048620331347365e+03
-2.238320697696702609e+03
-2.374898648432753362e+03
-2.346839380457055540e+03
-1.854130854572687440e+03
-8.676718210896967776e+02
1.786252278633061508e+02
8.526335183076320163e+02
-6.173208731035580143e+01
-1.838408042246028117e+03
-2.183225740799309733e+03
-1.683128058760333943e+03
-1.525159543898864285e+03
-1.176507298756419004e+03
7.483930031937939020e+01
7.119763869441173938e+02
6.071163341779603115e+02
1.742390086271899008e+03
2.207736143362224993e+03
2.400872834033527397e+03
1.509692157907823457e+03
7.172972245687418535e+02
6.899741809949956632e+02
1.118154955007101762e+03
1.232913416326214019e+03
1.139763292088606477e+03
1.124748038623774619e+03
1.248874455754066958e+03
6.092470789781862095e+02
2.546865440304308379e+02
4.421712461764226987e+02
-4.511244146392191965e+02
-1.583144597541616349e+03
-2.682615145611028311e+03
-1.189611886585946877e+03
-6.912378726608899342e+02
-3.705299924807817206e+03
-8.153875539560067409e+03
-8.188069264202057639e+03
-3.271899173533569410e+03
-2.027304741095911822e+03
-2.118214497924961506e+03
-2.159446317294881283e+03
-2.155864115285466141e+03
-5.803338853710704370e+02
3.792540960402853329e+02
-3.302704398777112829e+02
-6.981299543336660918e+02
-3.702707134591483964e+02
1.324887009823990809e+02
1.041874813393235115e+02
-1.621120428050148234e+02
-2.801910941476487551e+02
-7.148573363894572594e+02
-1.100439048866632447e+03
-5.459719987708746203e+02
-5.333674873858745258e+01
1.486047776015336979e+02
5.877560032747821239e+00
-1.454493491741813784e+02
-1.661916354314089403e+02
-2.224934121941440139e+02
-8.075308396102901725e+02
-1.511168979980559016e+03
-1.694419211030534143e+03
-1.571700746950824907e+02
1.400214262228313373e+03
1.547824448173670817e+03
2.546661144374868400e+02
-7.426454784331634755e+02
-9.934250702309890357e+02
-8.075991864177377693e+02
-1.733084802419936750e+03
-2.858396636063166170e+03
-2.060357880766823200e+03
-8.783370999348007899e+02
-2.294576621600427870e+02
4.842962586046579645e+02
-8.601303672785165872e+02
-1.744557046478664006e+03
-2.226765745001959203e+03
-1.094698656465388240e+03
1.782450863339796115e+03
4.118688213840034223e+03
4.407167420646967912e+03
3.797959068077343545e+03
2.982029154294399632e+03
2.925337839155324673e+03
1.748977920609155944e+03
1.970992422705712386e+02
-4.514758714051562833e+02
-1.197858945782981209e+03
-1.306862767638535161e+03
-9.955464805140107956e+02
1.612126344592220732e+02
6.184108603532869211e+02
1.190119411306589882e+03
1.354285424490191872e+03
9.828302983294811384e+02
1.044831888262427583e+03
1.350179681096931517e+03
8.837564241702829122e+02
9.561567873314722021e+01
-4.451098918406486291e+02
1.378643342184032683e+01
5.631981363577098136e+02
-1.190109082261073894e+02
-1.996127054931905036e+02
-4.554573142576141720e+01
5.911447891855359558e+02
-3.257945081432684447e+02
-2.171577585321178049e+03
-1.962155591963869938e+03
-8.203258156321189745e+02
1.201113047044501400e+03
6.341484285485825012e+02
2.769310671312530303e+03
2.744748197483643253e+03
2.597446369606316694e+03
3.116356681660838603e+03
2.964251151923267116e+03
2.946289550332906401e+03
3.051899349637613795e+03
3.548081065945032606e+03
4.158495636448417827e+03
3.971839735073673637e+03
4.087096423682522072e+03
2.926298211049301244e+03
2.217387370242712223e+03
2.347383394084238716e+03
1.635292179303393596e+03
-3.282467789966126048e+01
1.949915384213914820e+02
4.413784619933165345e+02
5.722132242335701449e+02
2.485101072826048494e+02
7.513241435705971298e+02
5.666911547371411189e+02
2.986064737952223140e+02
4.628651026385343812e+02
7.893671557723884007e+02
4.912623442521967831e+01
-1.685840883887522295e+03
-4.396839850003765946e+02
-9.354087800535907036e+02
-1.133861097181468494e+03
8.399128564666964394e+02
2.540732396890683049e+03
3.082326803518948054e+03
2.374637901963742479e+03
2.099569076912172932e+03
2.045105909462393583e+03
2.088332157557509163e+03
1.520153703588867984e+03
3.466209591447964726e+02
-7.044921384314960733e+02
-1.675323316485151054e+03
-1.283818321934159258e+03
-1.376884220970665410e+03
-2.647600737112473439e+02
6.974582235163220503e+02
2.408565767428167987e+02
-6.764474589654570309e+02
-1.291688143759787636e+03
-1.389284983356064686e+03
-1.570420231634769607e+03
-8.467167929912392310e+02
-7.504100009015969590e+02
-1.192950200600887683e+03
-1.666703726006105853e+03
-2.113995085674066559e+03
-2.949918487394519616e+03
-3.660511709518365933e+03
-4.400006739013197148e+03
-5.144187001763425542e+03
-3.384033291231933617e+03
-2.929565039158349919e+03
-2.659812707907640743e+03
-2.852129076022059053e+03
-3.395417923033425268e+03
-3.376611007623863316e+03
-2.776054458440466078e+03
-2.190071720878741417e+03
-2.076543250147477465e+03
-6.933484662200266939e+02
2.901134499087513632e+02
2.088600701036789076e+02
1.379405444354592305e+02
-6.857013918235194296e+02
-1.755177969827841252e+03
-1.903397884962821990e+03
-2.932023270260839922e+02
6.655774506241540394e+02
2.686578532236651427e+02
3.977630886040498126e+02
1.338778109121277112e+03
1.680644865997306852e+03
1.134310020142438134e+03
8.226728766066549952e+02
6.872581889352962037e+01
-1.886168463875571604e+02
-1.008455725870518108e+03
-1.550728438633973383e+03
-4.584016029531206300e+02
1.409520915595128372e+03
1.982167791369446604e+03
1.392380715262731201e+03
1.629049005603565092e+03
9.302821927886026288e+02
-7.594661272740884783e+01
-7.386414719248421079e+02
-1.349638462762260815e+03
-4.291126967787302533e+02
1.141020032540660850e+03
8.898053216907824208e+02
-1.184023017139090371e+03
-6.696119537275159246e+02
1.577030271237027364e+03
2.176920931958246911e+03
1.187232087968024643e+03
7.188981783874205576e+02
7.168408798080326960e+02
4.400628187076096083e+02
5.281718037985859127e+01
1.016277648149302422e+03
3.552083096676433343e+03
5.124048559753124209e+03
5.265265572311349388e+03
4.922958755062913042e+03
4.078292636472352115e+03
3.422133535245879102e+03
2.602378246889212278e+03
2.027140868589881848e+03
1.452520612605580709e+03
2.804281083633802609e+02
-2.704177969976952227e+03
-7.873210900652986311e+03
-8.606658456719735113e+03
-7.236506622820309531e+03
-3.573801554005034632e+03
6.478697608924977658e+01
1.131181827248267837e+03
5.292160954347139068e+02
3.700088930357547724e+03
1.920928966846022831e+03
8.225873658806852973e+02
-1.299053201945884268e+02
1.077514882003815501e+03
2.263939155684372054e+03
1.909365168393706881e+03
8.199295261989819892e+02
-3.772595604821738107e+02
-6.451176104878821889e+02
2.244662932478467496e+02
1.217378152244928287e+03
1.808543374881002364e+03
9.790007188664219484e+02
1.529953989126658598e+03
1.514365086828094263e+03
6.742449220137370958e+02
3.117528306245046110e+02
1.779356232205012702e+02
1.261708311540736076e+03
2.438043885943578971e+03
1.813030201951098888e+03
7.089142371767298982e+02
9.578740646963497056e+02
1.844976758891988311e+03
1.985133920605761887e+03
2.412457367263000663e+02
-2.465674241179206092e+03
-4.326627265770113809e+03
-2.567491513605072214e+03
1.268808173777924367e+03
2.720267744917255186e+03
1.356980736397996907e+03
-1.945094732190754030e+03
-5.977749863247818212e+03
-7.321903680384141808e+03
-2.220577290958975937e+03
3.484363556806221368e+03
2.805050777509462023e+03
2.126427946466124467e+03
1.197522903784286882e+03
9.214663939393911960e+02
1.652538720628125475e+02
-1.448127062502779154e+03
-2.255623419371696400e+03
-3.120044378401330960e+03
-6.172442687063429503e+02
8.618744907748687183e+02
3.022032522717491361e+02
2.312689939713285639e+03
3.772563698103052047e+03
3.207095530122285709e+03
1.007165723311651846e+03
-4.496393347850291775e+02
-1.543068999096102516e+03
-2.355944440983678760e+03
-2.408209896416727588e+03
-9.050900755015853747e+02
2.255438942736557692e+03
3.433590871256189530e+03
1.476578419310872732e+03
-3.636879111688474495e+02
-1.974373260354047261e+03
-3.353491393009801413e+03
-3.972562670824527686e+03
-1.775497951985711097e+03
2.140597680717300136e+03
1.470961435520700434e+03
-5.152733340464968137e+01
-1.128262983745434212e+03
-1.236210972821051655e+03
-8.692559953494948104e+02
-8.923448131306167852e+02
6.066347428110253759e+02
4.897210632808004789e+02
-2.141117355866097569e+03
-5.147667380611359476e+03
-9.044802962705680329e+03
-1.220368484525866552e+04
-8.490560036840302928e+03
-3.202520303518929268e+03
3.727546383007231270e+03
5.501001055019273736e+03
1.985071525944622863e+03
-2.008424336831029223e+03
-5.446602412130762787e+03
-2.004170080805336283e+03
4.181712823458105049e+03
4.847782398714045485e+03
3.585067471276856395e+03
2.649612467309862041e+03
5.353399107123248086e+02
-6.026580437469658591e+02
7.386289507800943284e+02
2.632317543860728620e+03
1.811269885713672238e+03
9.302836293934043397e+02
1.007397935227163771e+03
1.286707509625238572e+03
1.013165788743016378e+03
4.718240431856366399e+02
-7.331990008243656121e+01
7.358224064732544321e+02
1.506327776695435205e+03
1.209106917386291798e+03
9.910626754549680300e+02
-5.457977601978961957e+02
1.665741541243656343e+02
5.829984272360642308e+02
1.782512706696183159e+03
1.772086146612737366e+03
1.507700645922751164e+03
2.117292551173851734e+03
1.350869145634770575e+03
1.206790883742180540e+02
-1.395043633114188651e+03
-2.882782326905539776e+03
-1.696563600819009707e+03
-1.350441570369111560e+03
-2.219572628629505743e+03
-7.744438819856942473e+02
1.091927852280473189e+03
2.540118929818786455e+03
2.292869373886915128e+03
-3.357806266461292353e+02
-3.237373348324875224e+03
-3.956099759793038629e+03
-1.605273623090503179e+03
1.359820864304953375e+03
-1.243507398229243790e+03
-1.443609564347180822e+03
-1.625122641279045638e+03
-1.645955149940465844e+03
-4.268392528111647152e+03
-6.248387003939040369e+03
-2.878109346280493355e+03
1.968578756129278872e+03
5.287295568626319437e+03
4.565954471344361082e+03
2.922684105704285230e+03
2.175666847093572414e+03
1.376824175194480404e+03
8.610006527204319582e+02
5.822855384363697340e+02
1.607759136234710013e+03
3.196155258652551765e+03
2.189560600635029004e+03
4.217287568964133584e+02
5.319222903896097705e+02
1.559158989317006217e+03
1.718958900888074140e+03
2.129650984168007199e+03
1.832958677162837148e+03
9.127358242917227926e+02
4.669594459396451498e+02
5.408373185946151125e+02
-6.595296367675309739e+02
-1.246444970523890561e+03
3.652068485404662965e+02
2.657376510970345407e+03
3.646642596986221179e+03
2.257105096445756317e+03
1.420904992532049846e+03
3.110564745432706673e+02
-8.954052677571836512e+02
-1.269406572322598777e+03
-1.764971303471001647e+03
4.079815603483023523e+01
8.229846289193560551e+02
5.493941687865016092e+02
7.593726103543657757e+01
1.952742961039671854e+03
2.409970657855406444e+03
1.751258971748749218e+03
1.052620940714770313e+03
2.148843178447621995e+03
3.262860124704158807e+03
2.052687785774952772e+03
-3.105610182757011444e+02
-1.076758632136122287e+03
-4.930369031140219818e+02
1.418429249592199767e+03
2.947676764284732599e+03
2.814711953231848838e+03
1.536393833409478475e+03
-6.743271355395212368e+02
-4.358079264258425610e+03
-5.696656287461448301e+03
-6.294324953129774258e+03
-6.917372034772687584e+03
-6.071783672324637337e+03
-3.055758588170210714e+03
1.482861455218609990e+03
1.972069646139590304e+03
1.620033009086633683e+03
1.653661240983597509e+03
8.626256080223643039e+02
-1.574165852585901348e+03
-6.329462523437774507e+03
-5.921426433245815133e+03
-3.651898425635036801e+03
-3.726819146387316778e+03
-5.089202277759583922e+03
-5.792975924180771472e+03
-5.056269676867967974e+03
-2.913271403700143765e+03
3.639916923009748189e+02
1.731679596157403012e+03
2.010774008574949448e+03
1.750193264513513213e+03
1.378030730995725435e+03
1.244343262348596909e+03
1.443201277061489236e+03
1.862514902625788864e+03
1.119253911882250577e+03
4.565680502716260776e+02
-6.413665624205403759e+00
-6.116246418765166482e+02
9.797923616142878700e+02
1.121970203390337019e+03
-1.399174541342394150e+03
-4.198637141353060542e+03
-5.836134675987676928e+03
-5.778630483582308443e+03
-2.068063096003609189e+03
-1.572753571260457761e+02
5.087555410958012772e+02
3.661817522536144224e+03
5.356935546109998540e+03
4.188497688486603693e+03
2.882418240859161870e+03
2.110424499613996431e+03
3.271577433884787297e+03
3.120066855010553809e+03
1.374926390211804119e+03
-1.040866586871136860e+03
-5.831650452521610077e+02
3.850249382382247859e+03
4.172468695243270304e+03
2.334345558695830277e+03
8.027670632626739007e+02
4.440627676061686770e+02
1.620235590923543896e+03
1.999161570427915194e+03
1.028941569921119935e+03
1.102809134292943554e+03
1.483846672947411207e+03
1.766132965435145934e+03
1.605672795648352803e+03
9.816397767518524233e+02
9.015763611232451922e+02
1.193876483312623122e+02
-2.063275725602604780e+03
-9.615693539547070259e+02
-2.655233111532260182e+02
-8.299217889626794431e+02
1.434055254406372626e+02
1.996109615817182657e+03
1.815710493772620339e+03
9.573197641238294864e+02
-3.610715324630694454e+02
-8.846659789926751500e+02
-1.350560657630393507e+03
-1.423280794214158504e+03
-1.371909988807173249e+03
-3.962212535266816644e+02
1.875854413522066125e+03
2.542061047822976889e+03
1.936367533113259924e+03
7.458730696171263617e+02
1.163764993905113442e+03
5.099592333641741106e+02
-7.474994952367073893e+02
-5.635662054957562077e+02
2.666556537400488764e+02
1.592432333865263274e+02
-7.437691769572792282e+02
-1.549483457009476979e+03
-1.585818443482025486e+03
-1.175700335514303106e+03
9.148666477547604927e+02
2.578862740525735717e+03
2.231450551157531208e+03
1.524737733370685419e+03
1.104786884100971292e+03
1.164653337163935021e+03
7.960238626560905004e+02
1.048672512836490569e+03
1.437875318577945791e+03
3.087887041255927443e+02
-2.354681706903578515e+02
-6.967081156667616142e+02
-1.661102700250482940e+03
-1.153097315732153902e+03
3.812307767346651417e+02
5.183595668909472352e+02
3.984501462964096845e+02
1.577460308560981503e+03
1.321099677095209245e+03
2.193309148745771040e+02
-5.925726927422522294e+02
-9.346525331117815085e+02
-5.519172179629238144e+02
3.653473914101909372e+02
2.297136208979357889e+03
2.515463482573079546e+03
1.088224973549074093e+03
-2.015293984339365068e+02
1.242710974738657512e+02
2.598052782568806833e+02
2.360203759280045404e+02
8.677499855874083323e+02
1.946947296275889812e+03
-5.225602417544416767e+02
-1.934480551906921846e+03
-1.536958049858401864e+03
-3.456625499223804354e+02
-4.587834062038808156e+02
-2.814408872871521453e+03
-6.325457904022253388e+03
-4.907007389212470116e+03
-2.601139094529569320e+03
-1.550116079974167405e+03
2.408821879685503973e+03
5.287035185137414373e+03
3.913693904547351394e+03
2.335704499775294153e+03
1.369999823756465958e+03
1.294582225694547617e+02
-2.540521814005609826e+02
-4.196585256340613341e+02
-1.498209201999405877e+03
-7.815678596113060621e+02
1.389600200375400163e+03
2.043517300896406823e+03
1.187038886942131967e+03
-1.034611799883332878e+03
-3.887881873217578232e+03
-4.346946507896273943e+03
-1.803512398868647551e+03
-6.961971570182403184e+02
-6.248371835448095908e+02
2.289570713319876631e+03
3.100477466189397546e+03
2.366594617701044172e+03
2.546255912278649248e+03
3.080611337634820302e+03
2.903548446834648530e+03
1.575096725144588845e+03
2.061230371760406115e+02
4.414873591950621972e+02
7.231392409038347751e+02
7.833598208674553689e+02
1.682071684810184934e+03
2.371991018324672950e+03
1.588109284962252332e+03
9.754549476544832487e+02
1.009111658001585170e+03
1.028146643763771635e+03
1.511444777650352307e+03
1.723780792349657077e+03
4.591294529592063327e+02
-2.423785962756774666e+02
3.283581663906954304e+02
-1.308810393395379776e+02
-4.601658740615167176e+02
-7.786328686695387660e+02
-1.532139697079199550e+03
-3.813632689162228871e+03
-5.936193122444613437e+03
-4.386787273495962836e+03
5.136566868931703311e+02
-4.468646095748323432e+02
-1.621427875224375384e+03
-2.418283965824816732e+03
-5.118341882720146714e+03
-2.079388867599066543e+03
2.649432183238516245e+03
3.302814778654701513e+03
1.476719731643736623e+03
-1.650603952291043470e+03
5.527496294061496940e+01
2.093217657596178015e+03
1.928993876730163038e+03
-4.577007159901437490e+02
-1.228886941615422757e+03
-3.566116623628875459e+03
-2.898671949615207268e+03
-3.265222154169291571e+02
1.594307649852981967e+02
1.332483191651284187e+03
1.020479640779993701e+03
3.385798495238218948e+03
1.935281031897442290e+03
-3.699560781499720292e+02
-1.771660233852306192e+03
-1.273693194093531389e+01
4.776129976895713014e+01
-1.372114957371849414e+03
-4.533279301885261816e+02
1.455127220382230007e+03
-8.708194334960146534e+02
-6.016752935430269389e+01
-1.965928475136508041e+03
-5.015608846606851756e+01
2.757073474369771702e+03
8.976709446337183635e+02
3.207657814112233154e+03
2.568014982845611485e+03
6.548599460987525163e+02
-1.334743581738504190e+03
-1.577840749986021137e+03
-1.359534500381717407e+03
-1.644659229163096370e+03
-1.639267174842159420e+03
-1.573503063908397280e+03
-4.418521554653782914e+03
-5.899299683488285154e+03
-6.264610475476981264e+03
-7.542433256751084627e+03
-7.897707522775725920e+03
-6.630450760412312775e+03
-4.782729812793308156e+03
-4.231498459505465689e+03
-2.801929539042107990e+03
-3.556021262371907596e+03
-5.634708731517393971e+03
-4.518970098488264739e+03
-7.820146347318069502e+02
7.262683760860218172e+02
3.473962369111228782e+03
2.778044943637223696e+03
5.824111552892601367e+02
-1.530054623527952799e+03
-1.749292569296004103e+03
8.202715955126039660e+01
2.004923084887272580e+03
1.679283510322642314e+03
1.467063562788746367e+03
1.432223381207569446e+03
-5.042656198029521875e+02
-4.128299343619295541e+03
-3.189686779500582816e+03
1.084844847295803447e+03
2.741354551601711592e+03
3.960002834223017089e+03
4.837395012109991512e+03
3.162235712211632745e+03
2.999410934329906468e+03
2.344762315094513724e+03
4.692231757107057092e+03
7.336077958985824807e+03
6.223380919420820646e+03
3.083142283653180584e+03
4.461383880206211870e+03
3.799385237541770948e+03
4.214762334978754552e+03
5.614340776384070523e+03
6.211307729776612177e+03
7.451795792715644893e+03
7.985825355877353104e+03
8.088231429339122769e+03
7.365919347034625389e+03
7.188515887965644652e+03
7.096177900616620718e+03
6.681975843287856151e+03
6.815981505534685311e+03
6.537048993451982824e+03
7.093057002709735571e+03
5.530985961651983416e+03
3.149754246759941907e+03
1.099491438950591146e+03
6.623055142226579051e+01
1.265030570276662729e+03
1.627740913103729554e+03
2.490089592343017102e+03
5.542418184703653878e+02
-1.515540941040123471e+03
-1.717188243256015539e+03
-2.615734981071258517e+03
-3.316409678164979596e+03
-2.631638129130579273e+03
-1.892701709987749155e+02
3.746192981588354769e+02
-1.046111792968220470e+03
-2.492482173252024893e+02
1.621506515189489164e+03
1.789105441411285710e+03
7.733170595342800198e+02
-3.299104964953437502e+02
-1.608386181725954884e+03
-3.881261183748591066e+03
-5.787422071411196157e+03
-6.048081509878154066e+03
-4.169671778882368926e+03
-2.347819499300332609e+03
-2.931221809052931349e+03
-1.014910464423959411e+03
1.239437746041700592e+02
-1.800809997337207506e+03
-3.652133851368515934e+03
-3.852902835685020818e+03
-3.656165503263378923e+03
-3.231960924282047017e+03
-4.380356612765108366e+03
-6.841196979706055572e+03
-6.570437735705871091e+03
-4.168202608346514353e+03
-4.416252569748401584e+03
-4.364527394511136663e+03
-4.406380213455730882e+03
-4.277756846626190054e+03
-4.207495622189324422e+03
-5.315724066931534253e+03
-5.324479467010160988e+03
-4.096639468783459961e+03
-3.504132021692543276e+03
-3.916896711015789151e+03
-6.264973902846546480e+03
-4.658322637018846763e+03
-5.565966400616676765e+03
-4.534870374553890542e+03
-1.963085412333047543e+03
-1.608677859564512573e+03
-1.775527306272108717e+03
-1.329531610178970595e+03
-2.125964577788234919e+02
1.007159712494447717e+03
2.175785327165965555e+03
2.799442769460743875e+03
1.986097199569827353e+03
1.812707432943777349e+03
3.217388251525804662e+03
3.585181038574036393e+03
2.884073737793709370e+03
1.872188094253191366e+03
1.561597275369724457e+03
1.430150303531341478e+03
2.637802628932110110e+03
3.094587979116047336e+03
2.568604527327362121e+03
2.759046057104883857e+03
2.331954633652114353e+03
1.488479059482775028e+03
2.343547043778487932e+03
2.366077398376794008e+03
1.065169035484909728e+03
6.989688472455382851e+01
-1.563667199273367714e+03
-2.349418332090911917e+03
-2.249381577250643204e+03
-1.714623484823008084e+03
1.099921541511170062e+03
3.595324080194345242e+03
3.141511824085800072e+03
1.332657312934592710e+03
1.737898542881180674e+03
2.308295487072382002e+03
2.731770728045545638e+03
3.330456900494683850e+03
3.624448363317473650e+03
2.177585393573153851e+03
2.103034038897692426e+03
2.818005221847520716e+03
2.788666095633541772e+03
3.303772937294408621e+03
3.735309837094299837e+03
2.133813896041213866e+03
-3.329049582271614440e+02
-5.082040776509753414e+03
-4.667092697524230061e+03
-3.376051963236282973e+03
1.857012639480936741e+03
2.460862576875467312e+03
1.844477064403944723e+03
2.354320105169423641e+03
2.092774486789058756e+03
1.532607054934831922e+03
8.187747500257357842e+02
-3.367441147283265082e+02
-8.994359634083286892e+02
-3.115961571642637651e+01
2.565090901739998230e+02
1.016585102249983265e+03
1.250109239327066234e+03
-3.339103854242541729e+02
-1.850423582801936845e+03
-2.792359806938186921e+03
-4.877537285337743015e+03
-3.477100912626363879e+03
6.184712887386735503e+01
2.870297293036437623e+03
3.629381796258079248e+03
1.769270953863895556e+03
1.036149298378244566e+03
2.888227032748695819e+02
-9.259156422420950321e+02
-1.313889599050718289e+03
-1.771109345217479586e+03
-2.065825621970223438e+03
-1.611883859015365488e+03
-9.441251233251402937e+02
2.733875112259424327e+02
6.855847476293037062e+02
2.945350104395038784e+02
-1.095599094764388610e+03
-1.638829747458644533e+03
-1.526271924100718024e+03
2.480586723113875394e+02
1.522214610241929222e+03
4.021227055906591659e+02
-4.682601198985254314e+02
-1.403823007133584724e+03
-1.414552287717173385e+03
-2.015479420865432587e+02
1.681190350652532288e+03
1.399747935482266712e+03
-1.099637654084670544e+02
2.431904561625106851e+02
7.912043500213395646e+02
1.072918776941021179e+03
6.023916613260583972e+02
-5.413876548940185103e+02
-8.162923157603100890e+02
-4.063870271624936663e+02
2.853331510946547382e+02
3.728807927546047836e+02
1.005079173740741908e+03
1.328696977365432758e+03
4.900045452193773485e+02
-9.921242942059667485e+02
-2.041713340160030384e+03
-1.485661484668981075e+03
1.256091083909635699e+02
-1.086120423550459236e+03
-3.016640141975868119e+03
-3.440038128381872866e+03
-6.139476614364079978e+02
5.461849967558753605e+01
-3.056649460439141990e+02
-1.288791480537493953e+03
-1.179770474260237961e+03
-5.987394214766538880e+02
-1.517460467471172933e+03
-2.142368288492361899e+03
-1.201730660710641132e+03
1.167779614340384114e+03
2.174853402725085289e+03
8.444575438657923314e+02
-1.355924058296856174e+02
-9.689720558544722451e+01
-4.912863461537324952e+02
-9.660278468075085812e+02
-1.633571703813885733e+03
-1.990777972946033287e+03
-1.712322408633773648e+03
-1.064809725620716563e+03
4.238976954326120676e+02
3.485140111731322122e+03
4.481504300669887016e+03
3.767222958283055050e+03
3.704904083441644161e+03
3.612356983682916962e+03
3.062897542288877958e+03
2.499121439427005498e+03
2.759257164470336647e+03
3.192419506855747386e+03
3.487452768342960553e+03
2.952300252032378012e+03
3.130117222712906369e+03
3.090631039570077064e+03
3.654735015359777663e+03
3.539393381007656444e+03
2.771783943933635328e+03
2.362796430593797140e+03
2.468340661868109692e+03
2.934471379147291827e+03
2.875086930497024241e+03
