7.716133945120487851e+02
7.090762046027418819e+02
3.669781034437594940e+02
-1.425630020269043285e+01
2.798709486239255284e+02
2.327243658195896217e+02
5.694670856483191557e+01
8.687674797712305974e+01
2.141942018746796066e+02
-5.804421198483766808e+00
-8.917155736986265424e+01
-1.858952757184923996e+02
-1.891223782526262198e+02
-1.038387425155187742e+02
6.009730017514535803e+02
3.882921606221373168e+02
2.160635084420820817e+02
-8.769636888812647157e+01
-1.459897942886008479e+02
1.031722527227511677e+02
1.885774350183064385e+01
-8.699443922509910863e+02
-2.909305372692470883e+03
-2.774197247970472745e+03
-2.170624148247567518e+03
-3.821592170258470560e+03
-2.832113259542009928e+03
-3.690172817559617215e+03
-1.963768779010159506e+03
-1.357866272777127961e+03
-1.589479911666480348e+03
-1.056127594442230730e+02
-2.058287120362639598e+03
-2.368511516135892634e+03
-1.528208237641662208e+03
-1.107385820125067539e+03
-3.370705561951669438e+02
-1.948283536130684297e+03
7.696573050747191758e+01
-1.700320657372941696e+03
-6.901171046490949266e+02
-1.570377548100347212e+03
-1.786144119267677752e+03
-2.484383675072397637e+03
-2.052079645383015759e+03
-4.010915609309911929e+02
-1.453677277464493955e+03
-1.838127758824601301e+02
-1.456507459972911192e+03
-1.183689361897992285e+03
4.463886158721869890e+01
-1.056560609068766098e+03
-3.522473911800561268e+02
1.415627486244271438e+02
-1.780098884573824989e+03
-1.446273034327588675e+03
-2.529612344682988976e+02
4.278701636855057586e+02
-1.370788951077820457e+03
2.380664852448946647e+02
4.974283528125852172e+02
8.013156054493148304e+02
6.797196728726112269e+02
5.956468022112831022e+02
6.280853933441457002e+02
-1.849692572489698250e+02
-1.723524204169798395e+03
-2.735909112466336524e+02
6.488477196417821915e+02
7.348184207294982571e+02
9.022781248149523208e+02
7.362641844655561272e+02
6.497626101408171735e+02
5.817704647583717588e+02
6.572553268178290864e+02
7.362422507753758509e+02
4.727353340516864932e+02
9.057386558900690261e+02
8.862209742472639391e+02
8.521981270430231916e+02
9.676596035183634967e+02
8.106225435151600323e+02
8.710703657837323135e+02
9.480398267465334357e+02
1.047490784288666646e+03
8.524150098158157789e+02
6.428313636735791761e+02
5.447326285925270213e+02
5.691132616630185339e+02
6.969069715925438686e+02
8.101309112659560014e+02
7.247725665434182929e+02
8.177756373761336590e+02
9.382661899537183672e+02
7.892730289517239726e+02
8.596239239713855795e+02
8.822412104785922793e+02
8.263763605105430088e+02
8.820530180574299948e+02
6.593084234530905405e+02
5.331304008807295531e+02
6.595047387153130103e+02
5.305764360313025918e+02
4.814217395376115860e+02
6.251931636268906232e+02
4.435991824261139413e+02
1.916002962157935201e+02
6.511177705356953993e+02
6.271132332983497690e+02
5.202912772952352043e+02
3.988196914548365726e+02
2.589889653315859164e+02
3.626458443688796365e+02
5.815712519475115414e+02
2.519644660117108970e+02
-1.627977167704993633e+01
4.980450879297026745e+01
8.185847667436926045e+00
2.852605920007042162e+00
-5.124746627058738113e+01
5.894295613494836772e+00
2.028153328307088898e+01
-2.840935778375040854e+02
-2.902887761879470077e+02
-4.642673294302602471e+02
-9.730443258594841609e+02
-1.033650602639544331e+03
-9.091157953270379721e+02
-8.534137188472309390e+02
-7.915027384749761268e+02
-7.534341114236842714e+02
-5.802204121189361103e+02
-6.068724569787888186e+02
-5.973910129077455622e+02
-5.228005340958492297e+02
-2.091367544140929340e+02
-5.193568388090059216e+02
-8.235016817994672920e+02
-8.455842711938054208e+02
-7.495595366207736561e+02
-6.194520989324552147e+02
-6.643419392619565542e+02
-4.752067763977083814e+02
-6.680588492984987852e+02
-7.318881597047445666e+02
-7.627351577411626522e+02
-6.356249678427636809e+02
-5.855444280845119920e+02
-5.044746547572402164e+02
-2.074440482214728831e+02
-1.954783955739730743e+02
-3.785549564012051746e+02
-4.476947941048795201e+02
-4.698913792357160446e+02
-1.631639663536744820e+02
-1.445809388881754387e+02
-4.311144808189108062e+02
-1.495780985913201903e+03
-3.263591972265264303e+03
-6.295562885437766454e+03
-6.668651595015310704e+03
-6.757877492741769856e+03
-6.670259441339903788e+03
-2.813800173983432160e+03
-7.225428457641836530e+02
-7.035255539646593661e+02
-4.597688351117526508e+02
-5.002048388649964181e+02
-1.128836372814982724e+03
-2.610696144391808957e+03
-4.997665611859478645e+02
2.519818785072148160e+02
2.725315721139065204e+02
1.887050771911042091e+01
7.290073443525585617e+01
2.036133687740734501e+02
1.830493704848410630e+02
2.152511197374445828e+02
1.721704962597886777e+02
1.508070147176839839e+02
-1.884732551240716703e+01
-2.527925448043744723e+02
-5.240124366107809237e+02
-3.715240272566902036e+02
-4.553095659381262408e+02
-7.454247542392641890e+02
-8.488486840099760684e+02
-5.385746282833778196e+02
-3.336111578494155765e+02
-4.169652625964661752e+02
-6.063131785626379866e+01
2.763939268025479805e+02
3.800947756827565058e+02
5.794998499726548289e+02
3.676308255175266027e+02
-6.529161203886323150e+00
1.790062118671130236e+02
2.112433316329973820e+02
7.916663301912993234e+01
1.678163219754615341e+02
2.732062980927310036e+02
4.303255473156407902e+02
5.921761436337770874e+02
8.268054707418151565e+02
7.181829754649936604e+02
7.792571963116351981e+02
7.430778941824901267e+02
1.065636353353092090e+03
1.197930242263987566e+03
9.339585521066833280e+02
8.987478188481481993e+02
1.171300987929815619e+03
1.224631968510505430e+03
1.571710941388185802e+03
1.447570344638967526e+03
1.386259429524871848e+03
1.442766704487385141e+03
1.607071377074302745e+03
1.521184353702670478e+03
1.557127683152095869e+03
1.770909002760921112e+03
1.912566479104662903e+03
1.802100285629386462e+03
1.580542032402743644e+03
2.163874644284206170e+03
2.133150663827655990e+03
2.240377362588845699e+03
2.283556826898810414e+03
2.318673402145631826e+03
2.310727966515672961e+03
2.516750461263050965e+03
1.742762216222012967e+03
-4.302648723200965719e+02
2.276673404667591512e+03
2.646638098507266477e+03
6.656312514937955171e+00
9.117448593782935404e+02
-1.020854450938680884e+02
2.122156624664341962e+03
-4.165109235028061221e+02
-1.030043480430944328e+03
-2.664129334914680953e+02
1.325349886807014855e+03
-1.865718339568513557e+03
-3.417632357035582118e+03
-2.303811210876326925e+02
-5.089398985566371607e+02
-3.893530244635376221e+02
9.134144257580817339e+02
-1.228614857055767061e+03
-7.543952628254506010e+01
-1.981009504519309530e+03
-1.000314641836972100e+03
-3.335391044189791501e+03
-1.120166048833473724e+03
-1.230664306534206844e+03
-9.418752984611588772e+02
-9.878869486993704641e+01
-2.306384621109309137e+03
5.339115218908553828e+01
-2.083425071881708391e+03
-1.006892915000804919e+03
-1.815975718091598537e+03
-2.184642895080090057e+03
-3.938877079083848912e+03
-3.731777744812404308e+03
-2.786330013034480544e+03
-4.985194686224298266e+02
-1.413255399931572356e+02
2.025174153832509560e+01
2.882117438384431125e+02
6.244977347246782529e+02
5.041985771803541070e+02
3.553007130657363177e+02
2.438111864859240825e+02
3.256980278515483747e+02
5.669701087743812877e+02
6.237059035781911689e+02
5.719930893159967127e+02
7.739515480607490190e+02
6.224470468789581901e+02
5.243986729420753363e+02
6.489839760987539421e+02
5.439678234303069075e+02
4.165064263940412275e+02
4.733393120853564255e+02
5.745578735570127265e+02
8.232284918574116546e+02
6.752601855669065571e+02
3.869886388170201030e+02
6.711817775250937075e+02
1.122687445017472555e+03
1.192623505003264427e+03
1.208187280204411081e+03
1.015503659915218350e+03
4.522355551473127093e+02
5.234820464755706553e+02
7.822127498240325849e+02
9.486846693381164641e+02
1.142951999180773100e+03
1.276068519772015406e+03
1.409948191145998408e+03
1.489469701006173864e+03
1.564848164996462629e+03
1.165923956485723238e+03
1.334944566877049738e+03
1.535740386758438035e+03
1.371286092174630994e+03
1.284737369770891746e+03
1.144706986939193712e+03
1.439669412526311362e+03
1.401860752767894155e+03
1.431818090896657168e+03
1.584429237576562855e+03
1.551695298536393011e+03
1.554657632912454119e+03
1.439421713077500044e+03
1.634330637137622261e+03
1.666675653074042202e+03
1.815187190378394462e+03
1.605686098684947183e+03
1.576027730963356589e+03
1.642175696775277174e+03
1.493136469812838186e+03
1.482687524121629167e+03
1.823834976834457620e+03
1.937622837436236296e+03
1.989041633886764657e+03
1.785138276980074124e+03
1.890913292520908271e+03
1.785291445437124821e+03
1.902225972370692944e+03
2.024681693400779523e+03
2.120692612822278079e+03
2.015254510248775887e+03
1.992497385852092293e+03
1.695525928135746199e+03
1.881529734354101947e+03
1.680768725170914877e+03
1.886509624083621020e+03
1.793052924739532955e+03
1.774678739187284691e+03
1.883635421641876064e+03
2.030070941325657486e+03
2.192148711602955245e+03
2.010009839638482163e+03
1.916757378643342463e+03
1.221392561108385507e+03
1.219898425274128471e+02
3.186035002491587989e+02
7.993803527747857061e+02
-1.161551140832209057e+03
-4.833193055871911383e+03
-5.821490423930457837e+03
-5.770397464656605734e+03
-5.305954935711934922e+03
-5.420182562059394513e+03
-5.713080192228651867e+03
-5.507630207219026488e+03
-3.771831927861713666e+03
-6.573497715600204572e+01
1.578730592294093185e+03
1.443535450691938422e+03
1.381661359347813232e+03
1.098036305648627149e+03
-2.958278939145569439e+03
-5.642229928192606167e+03
-4.514767893958369314e+03
-3.208854420005911379e+03
-2.255466068191042268e+03
1.704263753380414812e+02
7.209060002392499200e+02
1.175972980089266684e+03
1.533605593535106209e+03
1.641888654470033543e+03
1.469832294663448920e+03
1.425460974010295786e+03
1.443748477462951541e+03
1.523711911249314653e+03
1.210396312607166237e+03
1.166799316382628604e+03
1.004934135509529369e+03
9.958046662449373798e+02
9.873671188936926910e+02
8.225614427893495986e+02
1.132362733492844654e+03
1.249717430885324802e+03
1.229580964022750777e+03
1.163867464632773135e+03
8.345345760394708350e+02
8.785602454577116305e+02
5.699121726619373476e+02
7.165544121437903868e+02
6.555623998589592247e+02
5.108951918309504663e+02
7.305366794583912906e+02
9.764838358543703407e+02
5.427084472321442945e+02
3.232734916724352843e+02
4.391941011028026196e+02
6.155198545778841890e+02
7.272794740417564299e+02
4.964468429450713529e+02
1.620224362802804876e+02
6.805390907858726735e+01
3.286073984203757732e+02
3.716658154754998691e+02
3.412264238256914268e+02
5.093292120327973294e+02
8.360126482283304767e+02
1.184305350070533905e+03
1.119217735287678124e+03
9.217394891616361292e+02
1.063947077521731671e+03
8.640063240006529668e+02
4.530898769576749601e+02
7.160213129552892042e+02
1.217859900400853121e+03
1.213872291045435077e+03
1.245058601575999546e+03
1.057111331842078243e+03
7.951304102479895164e+02
1.683105082649938140e+02
8.583488352802501709e+01
-1.374450056811884622e+02
-8.715104422720905859e+02
-3.452540532378249623e+02
5.060796289994149788e+02
1.015586359865668101e+03
1.324345907914843565e+03
7.103916384547682128e+02
1.467792812125155422e+02
-3.342951130620566147e+01
2.447967461841708712e+02
1.615128475749341419e+02
1.957521104986518026e+02
2.075731290606549351e+02
8.602378902696253249e+01
4.216609182850223192e+01
2.804797437956224115e+01
1.127145649112756729e+02
3.822333301882060397e+01
-3.133988273733886487e+01
-1.249197471797127292e+02
-3.625282739727295507e+02
-3.051505261496219532e+02
-1.836918899735806860e+02
-1.601417246163925086e+02
-5.024595152868774335e+02
-9.015671714690131466e+02
-8.664756914233556699e+02
-9.551177309541731120e+02
-9.124422126632122172e+02
-7.994632942659484343e+02
-1.002137477625157544e+03
-1.351451757738216884e+03
-1.395386591416195188e+03
-1.219908665883850290e+03
-1.391002862202705046e+03
-1.040668275849225665e+03
-7.289066610828589319e+02
-9.877198698606541711e+02
-9.131249809764648262e+02
-1.082095519144505943e+03
-1.058656617792644283e+03
-8.598102861324596233e+02
-9.035263399098656691e+02
-7.308326460398933477e+02
-8.247999018306504695e+02
-1.257405073392794975e+03
-1.383696041696252678e+03
-1.206668530084490158e+03
-1.040359340348743899e+03
-9.848328837686018460e+02
-1.132125545813786175e+03
-1.401324813236498812e+03
-1.816377010435104694e+03
-1.769365517394561948e+03
-1.843392275814382401e+03
-2.013532968892513509e+03
-2.043777615037451596e+03
-2.022256407049526160e+03
-1.724023666972748515e+03
-1.085199395193648797e+03
-1.080853643318859440e+03
-1.390050622127964516e+03
-1.415895317057589637e+03
-1.462522910608075790e+03
-1.769979335033837287e+03
-2.401113338382711390e+03
-2.545524019269822020e+03
-2.249124437378274251e+03
-2.278758576683669162e+03
-2.308901294603543647e+03
-2.440567478319772817e+03
-2.602329102803947535e+03
-2.193859817553881840e+03
-1.541208294954747316e+03
-1.269564008962732714e+03
-1.134179661373014142e+03
-1.044875260600213096e+03
-1.066849536531310605e+03
-7.906952133664694884e+02
-9.273504453515168962e+02
-1.020014345448173003e+03
-1.129971104635389793e+03
-1.394166213612814545e+03
-1.183007665756230836e+03
-1.046432288662578230e+03
-1.256701115889644370e+03
-1.115928892151364153e+03
-1.079908742475987083e+03
-1.136490299948740585e+03
-1.137893945242814652e+03
-1.189327714422048757e+03
-1.008049436449125324e+03
-5.556619395647589954e+02
-2.428714346310910059e+02
1.968992279362985869e+02
8.915672302362830806e+02
2.127902477909036406e+03
2.269789383530147916e+03
2.129824956628747714e+03
2.141939358919218193e+03
2.290664578137554599e+03
2.449667353433456356e+03
2.636697859156124196e+03
2.748466249846494065e+03
3.100707627301104367e+03
3.221256542921985329e+03
3.134861651688059737e+03
2.652265403800619879e+03
2.410082969625045280e+03
2.767348322726113565e+03
3.329811202235518977e+03
3.952135458930756613e+03
4.891056677712801502e+03
5.477389485842027170e+03
6.026920190663914582e+03
6.120389084454359363e+03
6.365575183485807429e+03
5.851118200348155369e+03
5.499046805088762994e+03
5.003162978461143211e+03
5.054151730870574283e+03
5.934818434926427472e+03
5.070990060931057997e+03
2.966409815699590126e+03
1.522875362819740758e+03
2.977223225398052364e+03
3.682303913955589906e+03
3.694891465138284275e+03
6.557713944674118238e+02
-8.629066912617780645e+02
-1.412487351460234777e+03
-9.511514739065546564e+02
-4.690760918610178578e+02
-7.139012643896816712e+01
1.477928552399759781e+02
3.633542062110872735e+02
7.521531357957338741e+02
1.756122186222349683e+03
1.945101102634815788e+03
2.907024458612846956e+03
3.559797018339475017e+03
4.443142884619834376e+02
3.081549837304988159e+03
6.758413593648247115e+03
6.815874602904292260e+03
6.210832051619119738e+03
4.870263438010688333e+03
4.171717600148554084e+02
-2.504954225579605520e+02
2.354289002399412766e+03
9.880476555047214788e+03
1.495804020346668221e+04
1.868902626795545802e+04
2.130848003604354381e+04
2.287143084506397281e+04
2.359488600132110878e+04
2.445291716195682238e+04
2.518157501883712393e+04
2.571989688994117023e+04
2.614395526782386150e+04
2.672182437260849474e+04
2.723560247973112200e+04
2.647038049161347953e+04
2.460030609374889900e+04
2.128346217418977176e+04
1.660498981286889830e+04
1.077601829030085537e+04
4.078702478673944370e+03
-3.767783380641346412e+03
-1.172526237122913881e+04
-1.936960744347820582e+04
-2.602064586750209128e+04
-3.113321090826551881e+04
-3.457508702095871558e+04
-3.674607073485016008e+04
-3.848896382074410212e+04
-3.929456076587745338e+04
-3.916162945118277275e+04
-3.834993578143380728e+04
-3.827423989349787007e+04
-3.831025133067611750e+04
-3.835166717690449150e+04
-3.716132989826356061e+04
-3.499602043403678545e+04
-3.290924362450796616e+04
-3.033162866242061136e+04
-2.727206729460450515e+04
-2.460637059312612109e+04
-2.258394996348431596e+04
-2.067151942415526719e+04
-1.838178207804254635e+04
-1.640759635157007506e+04
-1.520406094386995392e+04
-1.303785822043921871e+04
-1.167747182740742937e+04
-1.094646499987119932e+04
-1.081648462395803654e+04
-1.083424534234133534e+04
-1.075087445571888020e+04
-1.054314185112070845e+04
-1.032228008295946893e+04
-9.955127561867137047e+03
-9.389414617521593755e+03
-8.580647309260051770e+03
-8.034502486729980774e+03
-7.761740860702229838e+03
-6.725069975707071535e+03
-5.623119402342790636e+03
-4.301561929879180752e+03
-3.228113731370491678e+03
-1.982430504593455680e+03
-4.492233240505001390e+02
1.489864809392352981e+03
3.699112185291762216e+03
5.882798042321031062e+03
8.276234458214159531e+03
1.052376073078437003e+04
1.285163512647370044e+04
1.496010470600873487e+04
1.689952011206404495e+04
1.822415924020899547e+04
1.900725986632160493e+04
1.963913153768286793e+04
1.997503264437972393e+04
2.011825114051753189e+04
2.060598802478492871e+04
2.045153911419588621e+04
2.018713298196614051e+04
1.983899984295088143e+04
1.892536586324139353e+04
1.835049358332175325e+04
1.797759994317883320e+04
1.763584685926175371e+04
1.756743538120991434e+04
1.694858038195706104e+04
1.616649455352804944e+04
1.559737268878354007e+04
1.568435665595743012e+04
1.563455034907346089e+04
1.501914329914752852e+04
1.431531596251065275e+04
1.380318068401103119e+04
1.332883456727530393e+04
1.300238922900012767e+04
1.184098156147179179e+04
1.074774740402825773e+04
1.034275648634644131e+04
1.079411869690293679e+04
6.244940467186158457e+03
3.381232353951835194e+03
3.479991958199724195e+03
3.432314581973421809e+03
3.363274564154974996e+03
3.201907069408958250e+03
3.361230181143774189e+03
6.130320894311033953e+03
6.800126046883551680e+03
6.728632075966368575e+03
6.478870025506929778e+03
6.320793531154243283e+03
5.942315714152871806e+03
5.429370285900965428e+03
4.416925397539242113e+03
3.750997657436194913e+03
3.409512941160261107e+03
2.764370295605790034e+03
2.283296771121246820e+03
1.543383372639361369e+03
9.406954372383876262e+02
1.409283633517680698e+02
-6.427801532468592995e+02
-1.597783521091646435e+03
-2.226352618639874436e+03
-2.975461361519892307e+03
-3.489183915975164382e+03
-3.688444811863757423e+03
-4.111748011555045196e+03
-4.970268841286374482e+03
-5.478012875760801762e+03
-5.898245819960381596e+03
-6.213016211254818700e+03
-6.102732430744758858e+03
-6.379370909801310518e+03
-6.611307077535589997e+03
-6.801486953057646133e+03
-6.984438841794995824e+03
-7.036300933643912686e+03
-7.401047120175926466e+03
-7.594971637525153710e+03
-7.529530486251497678e+03
-7.309620351112665048e+03
-7.107716103775926968e+03
-6.840134498262147645e+03
-6.968795130090489693e+03
-7.235144022765967748e+03
-7.291455287470619623e+03
-7.229723671448011373e+03
-7.234355522891352848e+03
-7.128632590280177283e+03
-6.993804782530944976e+03
-7.232244261546838970e+03
-7.112958623631296177e+03
-6.923279070076722746e+03
-6.723132672136491237e+03
-6.508035989164684906e+03
-6.533263526680256291e+03
-6.375834435317829048e+03
-7.114138332965423615e+03
-6.462417084330593752e+03
-5.853900339970278765e+03
-5.783862128066828518e+03
-6.221501561354559271e+03
-5.882017966239561247e+03
-5.377661042569008714e+03
-5.073634937053302565e+03
-5.143206490846074303e+03
-5.115629628291805602e+03
-4.754043596688591606e+03
-4.539615440955888516e+03
-4.573600744113430665e+03
-5.034140073873825713e+03
-3.899470561961735257e+03
-3.954850993453129377e+03
-3.265166518200751398e+03
-2.098732045018985900e+03
-1.936745031736038754e+03
-2.246384513874764252e+03
-5.221807143013637869e+03
-7.774157258771110719e+03
-7.997614935881342717e+03
-7.327366643829559507e+03
-6.658532717655954912e+03
-6.581230449624720677e+03
-5.881594010864828306e+03
-5.586717709472998649e+03
-5.327759546452643008e+03
-4.936792044585346048e+03
-4.426898315801850003e+03
-4.361166314719473121e+03
-3.917680044704170086e+03
-3.224532440956913888e+03
-1.147987935608725678e+02
1.177500147094426893e+03
-6.357442855962741532e+02
-6.958616732937149152e+01
9.979450421154421065e+02
3.277829921831281354e+03
1.917991351539239758e+03
-2.555798514814059956e+02
-6.209198229288265338e+02
-5.230453617025311814e+02
-4.239801782143482001e+02
-1.178713364030351585e+01
2.934786734287815761e+02
1.809293396750058207e+02
3.489595191576918751e+03
6.405490260637058782e+03
6.965644573665775170e+03
7.376058492796485552e+03
7.339789229849376170e+03
7.073901779504626575e+03
7.314402877142641046e+03
7.359388397091378465e+03
7.128928456837013073e+03
4.853127423791913316e+03
6.105081091294921862e+03
7.333816407564802830e+03
7.289372909659045945e+03
7.062841932643603286e+03
7.025268403912197755e+03
7.206745777189687033e+03
7.195369925067220720e+03
6.945274240369637482e+03
4.472533970988775764e+03
5.070247528400435840e+03
6.140500472036897008e+03
6.195445742520476415e+03
5.989386334314380292e+03
5.916439411986284540e+03
5.600842500502496478e+03
5.351865570452587235e+03
5.025618115244698856e+03
5.039982236454689883e+03
4.070170758577821744e+03
1.625315201099060687e+03
3.760864572225427764e+03
4.082877642400652803e+03
4.071488119803171230e+03
3.717926739424261541e+03
3.425031482708174735e+03
3.400938274568065481e+03
3.479914603695448932e+03
3.310790070337636735e+03
3.184835375928919348e+03
2.848021556884956681e+03
3.003536716364414133e+03
2.738668645900996580e+03
2.139541906246461622e+03
1.995601992934532291e+03
2.003541311243947803e+03
2.095373724569309616e+03
1.561440347534925195e+03
1.337939303679884915e+03
1.406093595787526965e+03
1.139298321455090900e+03
1.296425356465651475e+03
1.281445701716661233e+03
7.060404743549648856e+02
6.669935645065472727e+02
5.976617861324280057e+02
7.150046477313146625e+02
5.643869734794429860e+02
5.088202784583780840e+02
5.313557326893946993e+02
6.461246545536295116e+02
6.212286411354525626e+02
4.526928139071220585e+02
4.951447581806215936e+01
-2.420351002325945728e+02
-2.636125750863952248e+02
-5.211809989949190367e+02
-5.695171063680486441e+02
-6.883674309817987478e+02
-8.834623069644538873e+02
-7.065582425558912973e+02
-5.663496370641400972e+02
-4.275976303602566873e+02
-7.211164849370644561e+02
-8.698277862722151212e+02
-1.021715993643825755e+03
-1.074830226243955849e+03
-1.098162086987664225e+03
-1.163717508456321411e+03
-1.015542155931124739e+03
-1.128696811862750110e+03
-1.138288191434829969e+03
-1.234290904809672611e+03
-1.273713734575497483e+03
-1.384573007155935329e+03
-1.692014422709629571e+03
-1.721190078352023875e+03
-3.089138457841896980e+03
-4.946032261897359604e+03
-7.649971044747714586e+03
-6.118030185945097401e+03
-4.772305552778053425e+03
-3.209826729924472602e+03
-2.881769755042674205e+03
-6.284273316281517509e+03
-7.427031945705060025e+03
-7.418482619620230253e+03
-7.404456953785334917e+03
-6.785018534069184170e+03
-6.770271937349517430e+03
-3.554260400552792817e+03
-9.507640856352821856e+01
4.501160472751183761e+02
-5.554357844246035256e+02
-2.649944906077756514e+03
-5.945873431535937925e+02
4.165540996200658128e+02
5.764154721800651942e+02
3.859649651253481011e+02
6.730341451114178426e+02
8.415207511634704360e+02
6.803130907096517603e+02
9.633526907650577868e+02
1.052532743883280318e+03
1.356741208144822394e+03
1.560834726522624806e+03
1.267697842360951881e+03
1.175221992276404762e+03
1.646286445739888222e+03
1.503801990497910083e+03
1.228668766236092097e+03
1.649775180464743471e+03
1.982037280459620661e+03
1.754430678880867845e+03
1.635911978469032647e+03
1.731423666110324120e+03
1.793940572897367019e+03
1.558419318194598191e+03
1.700793383400637367e+03
1.531067346955636140e+03
1.633225550532656371e+03
1.798223919740106339e+03
1.773098964043289470e+03
1.890789659791269969e+03
1.712245890815784833e+03
1.579443004976063321e+03
1.677362565698777189e+03
1.776990061598142347e+03
1.941291516332378023e+03
1.946247299879915317e+03
1.524789894898081457e+03
1.297905958995138462e+03
1.435586912925368324e+03
1.499846442207357995e+03
1.378638543476569339e+03
1.226964584847084097e+03
9.767978830742309810e+02
9.542041248290969406e+02
9.581647605593967683e+02
9.396112542204360807e+02
1.043471134460039593e+03
1.115145725245533868e+03
7.245784230493444511e+02
4.095222473566938106e+02
5.668749007849703503e+02
5.757549232143256859e+02
3.971702092603952110e+02
5.819641181879155738e+02
5.259328197490167440e+02
1.503853223933359402e+02
-3.739150443019053114e+02
4.931545784548401201e+01
4.029660072437212079e+02
3.259756755575119200e+02
4.013553652378257652e+02
5.161476260609064184e+02
4.553204947728465868e+02
3.448646958375082932e+02
-2.046162244373268550e+03
-2.844785065811775439e+03
-1.318974108395992062e+03
-2.268722910224718362e+03
6.902576558689675323e+01
-2.257284931538361548e+02
-2.665007016712220775e+03
-3.311785282892148189e+03
-3.317028445591742638e+03
2.250231932656606038e+00
-8.509816923414077792e+02
-2.349684048342151073e+03
-1.562832932315395283e+03
-1.772431674385673887e+03
-1.705133004173050892e+02
-1.832052238535706238e+03
-9.850553803730122127e+02
-2.079506824382079685e+03
1.295680001364163729e+02
-1.612835679132359701e+03
-2.715690606981362635e+03
-9.800023628340868527e+02
-9.976873199302117712e+01
-2.132004906614727588e+03
3.463181327428084160e+02
-4.808384219908934938e+02
-2.216479472894330684e+03
2.013929383820916144e+02
-4.321990059103628141e+02
-1.469218906015134962e+03
4.743146069839057759e+02
7.283713625949845891e+02
6.779390100404468740e+02
2.170371967218393365e+02
-2.068325504417970478e+03
-1.908133258791644721e+03
-3.535401175177328241e+03
-7.751448594499005367e+02
-9.343465087510694502e+02
-1.646026403440081367e+03
5.518580210408547373e+02
8.902654574819472373e+02
1.016303075811939152e+03
9.508558161832253290e+02
6.949085748988102296e+02
6.425326090939541928e+02
8.077454172805190638e+02
7.465319822847225169e+02
9.457443139101150109e+02
8.145431128726935412e+02
5.540360889532928468e+02
5.930089464822580112e+02
7.756196983887579108e+02
4.559195045906764108e+02
8.087594138304798435e+02
2.214139837373450348e+02
-2.150249987556690485e+03
-4.334883458135357159e+02
2.698657131652224734e+02
4.528548540816084369e+02
4.775566292419359797e+02
4.139428007028421348e+02
3.973404447505476469e+02
6.005271763326138625e+02
6.545640204035455554e+02
6.594270063673367304e+02
7.550695537700042905e+02
7.016017046380337661e+02
8.508434077949772245e+02
7.267969767880880454e+02
5.784835997849802425e+02
6.148511212733795901e+02
6.577476627243862595e+02
4.873282973738834016e+02
5.838164752357482712e+02
6.182324421673563393e+02
9.030072504927984482e+02
9.205591629008738437e+02
8.129650210992966777e+02
7.909662895161949336e+02
1.096749273300368941e+03
7.579852808135036639e+02
8.411997213729732721e+02
1.099268180810690183e+03
1.321392791085867657e+03
1.603286041834948946e+03
1.491816830476413088e+03
1.334519258937685663e+03
1.524148405481933196e+03
1.588639196094577301e+03
1.639593151821967240e+03
1.849296959775358800e+03
1.616862155053873494e+03
1.589153679089286470e+03
1.733191513036114884e+03
1.545150907790567089e+03
1.620158566872307347e+03
1.540135591759209774e+03
1.381058084206598778e+03
1.632126406315812119e+03
1.872119609616047001e+03
1.883993540917239216e+03
2.169768219097242763e+03
2.411704842973049836e+03
2.472838226208637934e+03
2.575093436697920424e+03
2.669465590789130147e+03
2.490998436376591599e+03
1.102911492678210379e+03
-1.139059536149346059e+03
-3.905957321756138299e+03
-4.332395805559215660e+03
-3.967491650597445641e+03
-3.928243637477124594e+03
-3.730635444311197716e+03
-3.612638280947828207e+03
-3.863224125626036312e+03
-3.597378538516870776e+03
-4.041005718706127936e+03
-4.008029933135365809e+03
-4.095763312350723027e+03
-3.479927278410999861e+03
-1.504059128587142027e+02
-7.117146434511869302e+01
5.264139420692442428e+01
2.037996161761514941e+03
1.460330068886496804e+02
-4.127230012598018760e+01
-1.817927466534363703e+03
-4.137904345226364057e+03
-3.870227702166340350e+03
-3.812813791192074405e+03
-3.860660892373776278e+03
-3.898805347745606014e+03
-3.546249691129988150e+03
-3.591961691539146614e+03
-3.497907141402355592e+03
-3.113081992249201903e+03
-3.073463971663581560e+03
-3.123040353893848987e+03
-1.287812173501876941e+03
1.889230557366499625e+03
2.281582039590433055e+02
1.428945393831085994e+03
3.816172529083488030e+02
2.158183609968029486e+03
2.380654460715543792e+03
2.217051377974850311e+03
2.471377944142693195e+03
2.752630995184668336e+03
2.019834433909199333e+03
-9.596815411308868704e+01
-1.607421570214002600e+02
1.962522141909694255e+03
2.307832645860795765e+03
2.387234450260018548e+03
2.321686369289898721e+03
2.264221747502647759e+03
1.954857947249948666e+03
1.723586461467588606e+03
1.737405584279154255e+03
1.937340337488630439e+03
1.906443504995855847e+03
1.782695206608351100e+03
1.334154757723717694e+03
1.400791953308610346e+03
1.305630857202964080e+03
1.289689314443024386e+03
1.516933758457230624e+03
1.396400360534682477e+03
1.202117966732298328e+03
1.057101089869804127e+03
1.031358308958473799e+03
9.159010686655392419e+02
6.777191734559676206e+02
9.248256108402122209e+02
5.713509621266043723e+02
6.853613703800539270e+02
7.969656760173536441e+02
1.798283061177062905e+02
1.169452936871560240e+02
-7.687660694265825896e+02
-2.950264496515175779e+03
-9.172649672986847236e+02
-2.333582691394816266e+03
-1.278242246798814222e+03
-4.272576585743466353e+02
-5.768207655537426035e+02
-6.889836633122777130e+02
-1.180012220205475842e+03
-3.147016668687512265e+03
-1.039023059243749003e+03
-2.288532446414734238e+02
-4.278842196931993840e+02
-4.326334824263357177e+02
-4.821930912463815844e+02
-1.995247313689424686e+02
-2.296209775821820358e+02
-3.645213574298144295e+02
-5.582482901431176288e+02
-5.897934453205771206e+02
-6.602097483514752412e+02
-6.654918750279938422e+02
-8.216729198108591845e+02
-8.337287010092674109e+02
-8.816356247852038450e+02
-8.824425338314187002e+02
-7.821950144281220219e+02
-4.848642698990889812e+02
-4.994806818589955810e+02
-5.430716958758258670e+02
-4.046584748623178029e+02
-4.282104352904549955e+02
-5.517249865368391966e+02
-5.842973558415948219e+02
-7.449073335044805617e+02
-7.945844966617557930e+02
-8.503918395744453846e+02
-7.342825559741235111e+02
-8.312877755994792324e+02
-6.824703124812513124e+02
-6.638392156188268700e+02
-7.434157819593808654e+02
-7.522153672805527549e+02
-2.682418017467913955e+02
-9.052981160746352884e+01
-2.781209288619186850e+02
-3.040657128180652080e+02
-2.023854446636475473e+02
1.496126961568509017e+01
-1.660816808884507338e+02
-1.035798995729728773e+02
-2.845772370578226855e+02
-2.400595839221796837e+02
-1.780426378097768065e+02
2.344198681441309873e+01
7.232947466994167485e+01
5.844680975287609437e-01
1.261789164818401616e+02
1.370742010525711692e+02
4.222509698267634235e+02
4.307187005676725562e+02
-9.455769127064029362e+02
-7.607123642888120685e+02
-2.937175455988688668e+02
-1.400647422892169061e+03
-2.203524358985202980e+03
-3.933130640459230563e+02
-2.147052897970632785e+03
-3.497916960377464193e+02
5.253540284614383609e+02
5.513429683216473904e+02
5.681734134476556619e+02
5.148124001797494884e+02
