8.729951263247112365e+02
1.885027690494886883e+03
1.238732587173239153e+03
-4.791378191728050524e+02
2.627660232505127624e+03
3.119194892785795673e+03
3.005351928177106402e+03
3.123954986950382590e+03
3.130794677407624476e+03
2.445567154431390009e+03
2.517343688057187137e+03
3.124248778893747385e+03
3.124815719835030450e+03
2.616310751148441796e+03
1.515824418117327014e+03
1.150056678115984141e+03
1.076773652741555452e+03
1.468958281970706821e+03
1.723691572466462731e+03
2.407872700670121958e+03
3.280038908439218631e+03
3.057343957908251923e+03
3.619224062362359746e+03
4.997708349028126577e+03
6.861757219124840049e+03
8.581762079882151738e+03
8.763470229170576204e+03
8.520581678732001819e+03
7.936998752518318724e+03
6.826703043610113127e+03
6.166292757190858538e+03
5.597514601241907258e+03
5.950188099607077675e+03
5.679065570568912335e+03
4.974809232717790110e+03
4.431218691851743642e+03
4.693170267438894371e+03
4.048341823405925425e+03
3.710396388746562479e+03
4.398034261639019860e+03
5.311117253274628638e+03
5.632509324261312031e+03
5.526937427180509985e+03
5.678273816178406378e+03
6.475306821359723472e+03
7.125754703328544565e+03
7.011323510545474164e+03
7.011891896946006455e+03
6.552214020385484218e+03
5.761914234962784576e+03
5.210835036506985489e+03
4.642744459455150718e+03
4.290498894458144605e+03
3.713833433935506946e+03
2.779458726675261460e+03
2.151341324638747210e+03
1.972229642842597059e+03
1.013727476421896199e+03
-8.832354181184646222e+02
-4.672777189555351470e+03
-6.246243326626462476e+03
-4.701672656834733061e+03
2.118963153325488747e+03
3.170372638994937461e+03
-2.357650192190875259e+03
-3.911275725225470978e+03
-3.362822512740892762e+03
-3.150781510745796368e+03
-3.002037962481876548e+03
-3.407725154102493434e+03
-3.395103430206586381e+03
-4.010248281310768107e+03
-4.684166847215286907e+03
-3.806240680791125669e+03
-3.790713091172124223e+03
-9.777692892588025870e+02
-2.362693022626320726e+03
-5.356593960009404327e+03
-1.482415233822369828e+03
3.040299163664165917e+03
3.740158248858642764e+03
4.183169486509435956e+03
4.153298080907801705e+03
4.178431095761441611e+03
4.025476778336319967e+03
3.811544883730483434e+03
3.628421952107930792e+03
3.512722655888131158e+03
3.084335203274211835e+03
3.555129941093533034e+03
3.253947255968627815e+03
1.926785016987431845e+03
1.207573138357244488e+03
5.213163016459345727e+02
-3.679606592964129845e+02
-8.096060627860076693e+02
-1.368216331151588747e+03
-2.460902526613043392e+03
-3.636717206714078202e+03
-3.924694390890957493e+03
-2.965763163510372578e+03
-1.740935220477919529e+03
-7.082204934742946989e+02
-1.083206884698228123e+02
6.531647510468727660e+02
9.255038413284197532e+02
1.130749117616962167e+03
1.324779194892214264e+03
7.429939662407336982e+02
1.691468455092262388e+02
-6.039120289456711816e+02
-1.068422590671481203e+03
-2.042434321649050389e+03
-3.265832526315422456e+03
-4.346978353489667825e+03
-5.136259276895628318e+03
-5.520105343501611969e+03
-5.851969341981501202e+03
-5.763410678337842000e+03
-5.500786097977770623e+03
-4.743589498305189409e+03
-4.404917751187905196e+03
-4.522159164768194387e+03
-4.432750840010602587e+03
-4.371543825749971802e+03
-4.439126591772669599e+03
-4.444691377021847984e+03
-3.975916655030061975e+03
-3.587224095647127342e+03
-3.230242983436168743e+03
-3.465658484018706076e+03
-3.651337920096634207e+03
-4.246956459933858241e+03
-4.561622981564648398e+03
-4.480112625905547247e+03
-4.565907206859444159e+03
-4.449013790576435895e+03
-4.881645161916349025e+03
-4.741671198464604458e+03
-4.352698642596474201e+03
-4.019191285746672747e+03
-2.979836166032901019e+03
-1.737256445542487199e+03
-1.217987427625656892e+03
-6.086592267761220683e+02
-4.087841744944185507e+02
-2.798994895263100489e+02
2.696498950184844716e+02
1.123362043503890391e+03
1.501598401343894011e+03
1.324680449471111842e+03
1.211971693726672356e+03
4.968434268715904523e+02
3.247798111364314764e+02
4.252857046301899686e+02
-2.528159441289271214e+01
-7.356771037143340664e+02
-1.324535468000095989e+03
-1.497331142917200395e+03
-1.022428650627632123e+03
5.508174550228161479e+02
9.690643979559711170e+02
5.297511371910401294e+02
5.192810444903536791e+02
9.784567735575884626e+02
1.877124793393471236e+03
2.084724600131473380e+03
1.582576421866396004e+03
1.480325520343716562e+03
9.087288286152773935e+02
3.904392216313473796e+02
-4.809801485238482996e+02
-1.228933811996754230e+03
-1.204717352655173954e+03
-1.862770541598269119e+03
-2.079468440689742692e+03
-1.976191982415037501e+03
-1.893361836564735313e+03
-1.748239183390056041e+03
-1.567178128202854168e+03
-1.497528831542854505e+03
-1.169664086212825850e+03
-1.578024089367754414e+03
-1.914901923518064677e+03
-1.833713021829210220e+03
-1.633753775917580015e+03
-2.241543336423774690e+03
-2.350572483937953621e+03
-2.440348671100963656e+03
-2.890270554441042805e+03
-3.594746273717098120e+03
-5.069233074054644931e+03
-5.633463996792590478e+03
-6.359989055597890001e+03
-8.806510882482185480e+03
-1.176548109174211459e+04
-9.082468418072949135e+03
-8.649932725012355149e+03
-8.589334051667336098e+03
-7.144584441474213236e+03
-5.983447971637247974e+03
-5.137647731286271664e+03
-3.958713967126991520e+03
-3.062378511340752084e+03
-2.172047477165704549e+03
-1.656001145303847579e+03
-1.265884611193325782e+03
-6.095916329964005627e+02
-9.918289188708436086e+02
-1.739525513315952139e+03
-2.332606796481162291e+03
-2.530886530546876202e+03
-3.416310224593094063e+03
-4.788500416161067733e+03
-5.695928499356165958e+03
-6.134560265991890446e+03
-6.583315010084720598e+03
-6.587104552046562276e+03
-6.426061574719669807e+03
-5.882502071340669318e+03
-5.426787703140981648e+03
-4.813112903837897647e+03
-4.191612410467578229e+03
-3.008682269227176221e+03
-2.304494065377017250e+03
-2.108096837077825512e+03
-1.337958266154266312e+03
-7.304720076983529680e+02
5.408482782898969532e+01
-1.576885317544294765e+02
-7.556959723625207062e+02
-1.101124123823571836e+03
-1.288189897722570095e+03
-2.001145554993766609e+03
-2.730564410236332151e+03
-3.408020450046471979e+03
-3.428987542414522522e+03
-2.565100556868233980e+03
-2.443961117554194061e+03
-2.763247453520355066e+03
-2.167925753450798766e+03
-1.340852841885988028e+03
-6.087052201320155973e+02
6.447124395266721422e+02
2.072587630673048352e+03
2.133268686075622554e+03
1.335210785495558866e+03
1.814539032343281406e+03
2.231184243012716252e+03
2.637425787667294571e+03
1.904067983554299190e+03
1.114958901979095117e+03
5.842630010086005541e+02
3.594087697114591151e+01
-4.190208758956005113e+02
-6.526631907445155321e+02
-6.489817341078615982e+02
-2.060131030695437744e+02
-9.769353245172227389e+02
-3.379755849403597040e+03
-2.037791570195892746e+03
-2.198255123151806742e+02
1.929095991924434884e+03
3.634924831923939109e+03
3.966585823397323111e+03
4.583942252453456604e+03
8.468996005351345957e+03
1.012381906167146008e+04
1.077306121087182692e+04
1.004348912680773356e+04
8.047112899998531248e+03
9.665885572319864877e+03
1.496557878147080919e+04
1.384292958791527417e+04
1.620173138190629834e+04
1.769182398316344916e+04
1.510729368280600465e+04
1.823717645913944216e+04
1.661419141315389425e+04
1.786113156799296485e+04
2.251685547425541154e+04
2.138639830011151207e+04
2.239082160513309645e+04
2.254508023702357605e+04
2.335021122654999635e+04
2.627639635965851630e+04
2.681055805180764946e+04
2.624661346761777895e+04
2.576268050461796520e+04
2.545593938383015484e+04
2.454844251656500637e+04
2.372328692532881905e+04
2.324956154689171672e+04
2.268843745719049912e+04
2.196921229848639632e+04
1.964706676305023211e+04
1.785626654029543351e+04
1.709711198038415750e+04
1.638102398602772701e+04
1.662347124261319550e+04
1.672478687411150895e+04
1.582920951302330832e+04
1.487633221957711794e+04
1.501768257073751920e+04
1.529564873355101372e+04
1.407485487792058848e+04
1.246507867866687957e+04
1.087396254504069475e+04
9.152273438767628249e+03
6.334640593279325003e+03
2.907810413911910018e+03
1.160642751315431497e+03
-9.610859826763679621e+02
-4.245422422378843294e+03
-6.613516055133994996e+03
-7.925354153529590803e+03
-1.133571272545268948e+04
-1.286320188674845303e+04
-1.184996874041079718e+04
-1.131612409986643434e+04
-1.108674340592577028e+04
-1.053623614093366814e+04
-1.141422775664575238e+04
-1.560523222515737325e+04
-1.535860023187987645e+04
-1.489989323710856297e+04
-1.595461808544318592e+04
-1.560738440660375272e+04
-1.296141379168523235e+04
-1.152096104380324323e+04
-1.132252482778240483e+04
-1.146731162795929777e+04
-1.119092877664270418e+04
-1.035779318551543838e+04
-7.102754941250665070e+03
-7.183731060659003560e+03
-9.919114591146473686e+03
-1.235558913069463051e+04
-1.295561026247545851e+04
-1.226840651502613400e+04
-1.097395795822297077e+04
-6.834060831951666842e+03
-2.897106765202689530e+03
-2.345710738139033310e+03
-2.611630444992819776e+03
-2.871339067038790745e+03
-5.278763184732201807e+03
-7.248801408611497209e+03
-9.487917221508219882e+03
-1.093717810833537078e+04
-1.122154963710820812e+04
-1.622633677614326552e+04
-1.742310222990111652e+04
-1.942763223881292652e+04
-2.148423098027354717e+04
-2.457010724075748294e+04
-2.731100393758928840e+04
-3.194376606806780183e+04
-3.939128068976126815e+04
-4.545290450101032911e+04
-4.854285161532052734e+04
-4.940690096104464465e+04
-5.071817041314323433e+04
-5.627283875193175481e+04
-5.854698599285712407e+04
-5.329056260356180428e+04
-5.110325605409461423e+04
-5.334366281296429952e+04
-5.918553073897392460e+04
-6.687144246156536974e+04
-7.116632379969659087e+04
-7.081307389400107786e+04
-6.364147542565033655e+04
-4.862620272377669608e+04
-3.986905322851365054e+04
-3.668982705295311462e+04
-2.773712337360298625e+04
-1.948373594554509691e+04
-1.758996284157524497e+04
-1.379658994273240569e+04
-1.274155672117946051e+04
-9.741703676836328668e+03
-8.057933218794389177e+03
-5.374153710142189993e+03
2.894766404456007422e+03
1.519599850564270491e+04
2.368782151301484555e+04
3.010749028171845930e+04
3.733621830938500352e+04
4.165908701736070361e+04
4.525523083718842099e+04
5.262374099691411539e+04
5.876556690205720952e+04
5.959375446211813687e+04
5.737728781728218019e+04
5.457106253147465759e+04
5.390690881450360757e+04
5.321570123516304011e+04
5.206438976158913283e+04
5.135890161955416988e+04
5.061511387933180958e+04
4.930092151801738510e+04
4.826332916739851498e+04
5.024133123312723910e+04
5.413892546877370478e+04
5.775993094530907547e+04
5.963909774298782577e+04
6.075019606034144817e+04
6.177291955597112246e+04
6.324201967731589684e+04
6.543600673527197068e+04
6.592031411117599055e+04
6.398015702338873962e+04
5.996689668910967157e+04
5.544919525290304591e+04
5.217892223637612187e+04
5.053025831450827536e+04
4.945127630930246960e+04
4.755652256121246319e+04
4.332348030776128871e+04
4.062455992216990126e+04
4.159810630973880325e+04
4.113645051053601492e+04
3.645804535702465364e+04
3.225920082323053066e+04
3.011608640925955842e+04
2.797398135796558927e+04
2.425106738818880694e+04
1.981970195087775573e+04
1.664796786757463269e+04
1.240178002364813983e+04
7.210301604868222057e+03
1.751623735268372911e+03
-3.795314602935717176e+03
-8.463372754997993979e+03
-1.209949128254828429e+04
-1.517765548536674032e+04
-1.770502821671613856e+04
-2.075165310621289973e+04
-2.307457783135474529e+04
-2.490705115890052912e+04
-2.592828430752226268e+04
-2.766164138555171667e+04
-2.916537472632864592e+04
-3.095585526142589515e+04
-3.167746829024995895e+04
-3.157457479869594317e+04
-3.044652649687390658e+04
-3.051859656850789179e+04
-3.083722989885729839e+04
-3.317892756248694786e+04
-3.353592721150325815e+04
-3.496980481253173639e+04
-3.763965984268110333e+04
-3.768705511426953308e+04
-3.834084122099466185e+04
-3.973995736710169149e+04
-4.112010710203693452e+04
-4.046188389194977208e+04
-3.401708223089102830e+04
-3.486745458039145888e+04
-3.992880679489327304e+04
-4.101904461210556474e+04
-4.141702233467962651e+04
-4.030066965194555814e+04
-4.023283097027905023e+04
-4.109738191060195095e+04
-4.028728646978190955e+04
-3.611056723872618750e+04
-3.822911772814053984e+04
-4.057594729366945103e+04
-4.092727855648378318e+04
-3.507123426828486845e+04
-3.379887464470876876e+04
-3.969643579623194091e+04
-4.186306816694120062e+04
-4.223794666430950747e+04
-4.119714746326977183e+04
-4.030989797376238857e+04
-4.140146484831116686e+04
-4.107518430048311711e+04
-3.753229598225259542e+04
-3.483806678887989256e+04
-3.340778974890382233e+04
-3.001182823339602328e+04
-2.285358673374939826e+04
-2.091630429012801324e+04
-2.042227460205614989e+04
-2.291881086082879847e+04
-2.015630931178593164e+04
-1.938719362734569586e+04
-1.906874014092695870e+04
-1.796729265181017399e+04
-1.646336560436941363e+04
-1.409654016999799023e+04
-1.068319077109276805e+04
-9.318674467061069663e+03
-9.325526081113215696e+03
-7.994193445535342107e+03
-7.739053959674948601e+03
-8.494569405771791935e+03
-8.420226970619329222e+03
-4.352308948667988261e+03
2.408583662601820379e+02
2.540692965830317917e+03
7.605812261281676911e+03
1.041177260471993577e+04
1.032726198602147269e+04
1.126686732515794210e+04
1.171815396151199639e+04
1.256279629076853053e+04
1.254347361598243333e+04
1.257866719718533932e+04
1.317793016206341599e+04
1.219981111675418470e+04
9.447838625659678655e+03
1.502121928425926671e+04
1.726348353562941338e+04
1.796642908792893650e+04
1.856421316967038001e+04
1.962769543494971367e+04
2.009105795601244972e+04
2.110070293744203445e+04
2.560334844397917186e+04
2.840692186881933958e+04
2.943304466947520632e+04
3.170085425165457855e+04
3.448350673614161497e+04
3.679230647165956907e+04
3.758711131940182531e+04
3.749687448720799875e+04
3.620668110335012170e+04
3.759226059843228722e+04
4.142928572910047660e+04
4.203510520601944154e+04
4.149650877962743107e+04
4.053991244278716476e+04
4.127243878762618988e+04
4.371861981885318528e+04
4.474274994612686714e+04
4.588782891879919771e+04
4.908144140770118975e+04
5.051768070148517290e+04
5.043602961905199481e+04
5.072990885736868950e+04
5.324473267241068243e+04
5.471593671223725687e+04
5.521709604771374143e+04
5.462677884037711920e+04
5.434854825619645999e+04
5.397608395266329171e+04
5.265399953921269480e+04
5.196406039531068382e+04
5.144406052413940051e+04
5.148574141445111309e+04
5.254992474947078153e+04
5.324444040708886314e+04
5.216811214076753822e+04
5.270094676260554843e+04
5.301100823281104385e+04
5.137031164639236522e+04
4.943797489926576236e+04
4.889224511311626702e+04
4.825725735083790642e+04
4.854818381958476675e+04
4.775738078679245518e+04
4.622231767840445536e+04
4.458342686495634553e+04
4.175000736199725361e+04
3.966848516413727339e+04
3.497841431418700085e+04
2.822919933625145859e+04
1.976833187151598395e+04
1.569459185864019673e+04
1.062142922856275072e+04
7.906267830458093158e+03
1.016082837769482649e+04
1.054489548542981902e+04
1.665116170497869234e+03
-4.688504232227272951e+03
-8.504833974880464666e+03
-1.250028192484585452e+04
-1.719190599476860734e+04
-2.382661849705462737e+04
-2.909960569338186178e+04
-3.313802352218997839e+04
-3.768272501702199952e+04
-4.182155955496110255e+04
-4.744137373664822371e+04
-6.104700920330994268e+04
-7.518931471413154213e+04
-9.589831241679897357e+04
-1.092805930764427176e+05
-1.088376984636255074e+05
-1.136321672465356824e+05
-1.227507015400153032e+05
-1.337971350026867003e+05
-1.454361937167015276e+05
-1.522486825244232314e+05
-1.564200943426947924e+05
-1.596106672055628151e+05
-1.581547880957673769e+05
-1.562009584795142291e+05
-1.553994849688851682e+05
-1.505086852597368124e+05
-1.476648998510017409e+05
-1.467906326981791062e+05
-1.392252518154263380e+05
-1.261346897153180471e+05
-1.098645149778518535e+05
-9.778401496926951222e+04
-8.942059020821466402e+04
-7.785844722183050180e+04
-6.296981520003268088e+04
-4.530581160016189824e+04
-3.151637391870006468e+04
-2.107083580935519421e+04
-7.929660930099316829e+03
2.889724070431818745e+03
1.016405130458954591e+04
1.430137276991543877e+04
1.522327163349717375e+04
1.658878951398724166e+04
1.958774066826478884e+04
2.307622729945164974e+04
2.870121888621598919e+04
3.225955583368770749e+04
3.400372206855055265e+04
3.539697455989378795e+04
3.823623872024718730e+04
4.087925824643114174e+04
4.381874921293193620e+04
5.004239115059986943e+04
5.828109888998154929e+04
6.079431972159741417e+04
6.339919713278164272e+04
6.472295355055265100e+04
6.575428459044334886e+04
6.550844903758313740e+04
6.388389138622365135e+04
6.177574308578117780e+04
5.921879582055297215e+04
5.789112942172950716e+04
5.727399636212748737e+04
5.785468252573439531e+04
5.770104396939777507e+04
5.840930246104999242e+04
6.010952194653676997e+04
6.067141916525477427e+04
6.190101300000798074e+04
6.246870611424958042e+04
6.246572203546572564e+04
6.081010821211841539e+04
5.763666645099750167e+04
5.487729922433198226e+04
5.218586488256041775e+04
4.800415932529162092e+04
4.329899699103539751e+04
3.923211001985633629e+04
3.649917650897218118e+04
3.653260517674692528e+04
3.788376317918962741e+04
3.940414699336185004e+04
4.160428896723649814e+04
4.461969505097286310e+04
4.914273828532704647e+04
5.382368505931026448e+04
5.783972312521165441e+04
5.721122654425774090e+04
5.332155349197695614e+04
5.046105832715454744e+04
5.285593141167781141e+04
5.277117615440751979e+04
4.906672126136588486e+04
4.545433801409776788e+04
4.146899752726459701e+04
3.774784169424357242e+04
3.399961202519513608e+04
3.052778240792935321e+04
2.829811294933357931e+04
2.576764097523532473e+04
2.242912976795152645e+04
1.908090934647357790e+04
1.524547865493970858e+04
1.329949625967603060e+04
1.070851080297782937e+04
6.111847258710857204e+03
1.341947640462613435e+03
-3.038800999493816107e+03
-8.767091637702727894e+03
-1.319466092564957944e+04
-1.660440485089766662e+04
-1.893330772706176867e+04
-2.222835619723234777e+04
-2.413450943321097657e+04
-2.506669379981133170e+04
-2.642993982236647207e+04
-2.687747681509007089e+04
-2.821348050701215107e+04
-2.978500462072287337e+04
-3.152527734841140773e+04
-3.374046253437272389e+04
-3.627887194655296480e+04
-3.865091180277798412e+04
-3.996697554261026380e+04
-4.005837158110836754e+04
-4.007139427603616787e+04
-3.772046522706687392e+04
-3.579017448108151439e+04
-3.384181463341343624e+04
-3.207536943744214659e+04
-3.263454717865785278e+04
-3.496882227417136892e+04
-3.751161938415069017e+04
-3.846041343742595200e+04
-3.919164862057255232e+04
-3.935331996785230876e+04
-3.892328071271985391e+04
-3.932138516369400895e+04
-3.947314366374300153e+04
-3.959807146546547301e+04
-3.970184217960116803e+04
-3.933490810473245074e+04
-3.875261549045190623e+04
-3.805947740126158897e+04
-3.626874641995513957e+04
-3.437444613759489584e+04
-3.408279823212980409e+04
-3.394421471088032558e+04
-3.326356681944656157e+04
-3.360167932592776924e+04
-3.395475183856950753e+04
-3.409387995081033296e+04
-3.273249052123810907e+04
-3.110617579142807517e+04
-2.961528071382282360e+04
-2.836998522955275985e+04
-2.697672455976539641e+04
-2.576208923522435362e+04
-2.370132214598988503e+04
-2.216353373246109550e+04
-2.133596462167582285e+04
-2.028662262610519247e+04
-1.909419981423463469e+04
-1.712224092477856539e+04
-1.525094766388454991e+04
-1.461693592493402321e+04
-1.277611410615227578e+04
-1.014746012120531850e+04
-8.094027032730594328e+03
-7.180780572767699596e+03
-6.467701674846188325e+03
-5.523854480765424341e+03
-5.221956297502784764e+03
-5.042685430963363615e+03
-4.312825510534339628e+03
-3.326978924166618526e+03
-2.677665255834105665e+03
-1.402527661476571211e+03
2.695175418048361848e+02
1.175846172558721719e+03
2.640095491727147873e+03
3.923588345783618934e+03
5.383114012741953957e+03
6.572436371039774713e+03
7.400204127724711725e+03
8.994199019458212206e+03
1.169513441141500152e+04
1.298690728795932409e+04
1.345734154481094265e+04
1.296526803833262602e+04
8.711752792233561195e+03
8.478864813403188236e+03
9.793946091153364250e+03
1.376126038525657168e+04
1.143093846788707015e+04
1.011907711522552745e+04
1.329285860819214940e+04
1.225056924619825804e+04
1.407926437500557768e+04
1.627284617027030436e+04
1.501778809096774967e+04
1.579060575030493055e+04
1.889451142502195944e+04
1.808281042704515494e+04
2.118888887711098869e+04
1.837232347411836599e+04
2.035367924528713411e+04
1.830557092572483089e+04
2.011431503060609612e+04
1.845722971331683584e+04
2.128004430882777524e+04
1.765642163745874132e+04
1.719508554831793663e+04
1.547257265104873477e+04
1.667339010289180442e+04
1.359226965707680574e+04
1.478590584630679950e+04
1.588579322967569169e+04
1.687679282705590231e+04
1.724686897322730874e+04
1.739281630437529384e+04
1.718322716319113533e+04
1.707397222707105539e+04
1.715589945720654941e+04
1.723792081273661461e+04
1.802190338073010207e+04
1.806074388241812630e+04
1.687236226760701174e+04
1.622751487651973548e+04
1.574700969658416034e+04
1.510263115438136265e+04
1.497415735104833220e+04
1.367748181314092653e+04
1.179256613108048077e+04
1.028913911759461917e+04
9.424079599782242440e+03
9.376417755692196806e+03
9.598093744049272573e+03
8.888869991407036650e+03
7.313561695444052930e+03
6.526968083365336497e+03
6.534023634447072254e+03
6.728564234436687002e+03
7.398277010115702979e+03
7.804115925423682711e+03
8.025001004835411550e+03
7.556175732833943584e+03
7.343592110772851811e+03
7.346304855085703821e+03
6.706721343399884972e+03
5.677849995486611078e+03
4.762273282401582037e+03
4.413666951072413212e+03
2.888724155016664099e+03
2.359093120539944721e+03
1.531468287889879548e+03
8.503569952499926785e+02
8.353040638898399948e+02
1.100966133538860277e+03
4.711226762916556368e+02
1.705332058653790455e+02
3.644869664788224668e+02
3.072236950006949883e+02
2.404000829800116890e+02
6.246077057562650907e+02
1.306154343957953415e+03
1.922642194147187411e+03
1.589156846492659497e+03
1.514720978654778776e+02
-7.420633311267206977e+01
5.427923512170924596e+02
-2.549280210395923234e+02
-2.211937398531689269e+03
-4.159901252193206346e+03
-5.001926874468141250e+03
-5.232068225670424908e+03
-4.904281194604812299e+03
-5.042921358558574866e+03
-6.014079828182988422e+03
-5.794710381527156642e+03
-5.401240523618514089e+03
-6.135604971205696529e+03
-5.819799631343066721e+03
-5.204607059710652720e+03
-4.095755007068992654e+03
-3.184893706434165779e+03
-3.600179053533255228e+03
-4.276772867889175359e+03
-4.243273255071451786e+03
-4.506372314043232109e+03
-4.299831461295550071e+03
-4.717889353215244228e+03
-5.363713471617797950e+03
-5.805927532312755829e+03
-6.412807750743132601e+03
-7.531540130594771654e+03
-7.652146770463327812e+03
-7.857522744330662135e+03
-8.184957255284537496e+03
-7.006932204209711927e+03
-5.934735222341956614e+03
-5.498761047948793930e+03
-4.658153631757476433e+03
-3.730024566541825152e+03
-3.124571287674196356e+03
-2.028240364207432322e+03
-1.726301614227955724e+03
-3.820052267348634359e+03
-7.027049151297091157e+03
-1.025882395114290557e+04
-1.055432252340375635e+04
-1.151688775934341538e+04
-1.146966020644599303e+04
-1.093084590796360681e+04
-1.026959687154679159e+04
-1.105701294031188627e+04
-1.207524044438665806e+04
-9.059367327819902130e+03
-6.825647388278064682e+03
-3.578247824961548304e+03
-1.785435971839199283e+03
-5.953807815942392381e+02
-7.442563277737217220e+01
5.881577453809816234e+02
1.048252213789965026e+03
1.754631338188999734e+03
2.047169753242219031e+03
2.081693234569067499e+03
2.157139322470842217e+03
2.236539605670698165e+03
1.738705147243434567e+03
1.259568084120364119e+03
1.249147292851193697e+03
6.023788231742414609e+02
-5.685104414671155126e+01
-3.757293345339498956e+02
-6.965213786681092643e+02
-7.094368076596315404e+02
-1.102663225255436373e+03
-9.454214445881115125e+02
-6.739601895643379521e+02
-4.435899080798429281e+02
-2.124808592086871784e+02
5.473098875596879225e+02
1.047013931586543777e+03
1.629796860746124139e+03
2.081617725934272585e+03
2.504004665177865718e+03
3.423022193366622105e+03
2.539940648150884499e+03
1.377748837162297832e+03
8.935415313725593478e+02
4.583192807620153530e+02
1.240818710423590403e+02
-6.611218382712899029e+02
-1.272376157233996537e+03
-1.336205282832982846e+02
-1.856773885840472076e+02
-6.224951685679991442e+02
-5.520095493769205177e+02
-8.230985582414680835e+01
6.537245069983686108e+02
1.506397550824002337e+03
2.227848202516104720e+03
2.873151789464708600e+03
3.598584153857686943e+03
3.962138816802983911e+03
3.648809337323966702e+03
2.722574715961238326e+03
2.148630451837690998e+03
1.857990672969804109e+03
2.409609136951590699e+03
1.564482307899678972e+03
7.635587927658218632e+02
5.689395271153975955e+02
5.772109449043135498e+01
-6.999281907618654941e+01
2.199554050044460496e+02
6.463532768593836408e+01
4.031942463004134538e+02
4.016245226381288376e+02
1.372903552866034261e+03
-3.507956718144612864e+02
-3.189617018874768746e+03
-6.217477566295909128e+03
-5.216338620707001610e+03
-4.802131746831772944e+03
-4.896646447712298141e+03
-5.105654331264434404e+03
-5.281060657677747258e+03
-2.178965560673816526e+03
2.661602656432487038e+03
-3.370312280921999445e+03
-6.959674771201436670e+03
-7.661419500714581773e+03
-7.722550740272009534e+03
-8.024968425986859984e+03
-8.289559467435228726e+03
-7.162330679770723691e+03
-3.642255178619889193e+03
-5.339252896781054915e+03
-7.366363619098849085e+03
-6.917538967607558334e+03
-3.376562267245201383e+03
3.330624118162103059e+03
2.461032483681229678e+03
-4.050186274239966679e+03
-4.604029547533200457e+03
-3.952472862997151424e+03
-4.411706737833792431e+03
-4.591764074002683628e+03
-4.727564423316955072e+03
-5.106115627250384023e+03
-5.698355841674700969e+03
-6.152302846995190521e+03
-5.688087396677634388e+03
-2.552588442794150524e+03
-4.807724236669063430e+03
-5.674497908701693632e+03
3.081344097598673102e+02
2.589125230746792568e+03
3.296479104978550822e+03
4.071394550943174181e+03
4.793808661376339842e+03
5.283659608978770848e+03
5.968978197934127820e+03
6.856845456731017293e+03
6.711291317956803141e+03
6.052346523458742922e+03
4.975067691550118070e+03
4.322514348381489071e+03
3.574649441573636523e+03
3.095454559478961073e+03
2.640971992065893119e+03
1.951033052942603035e+03
1.347497159239849680e+03
5.783952909913705298e+02
2.048135775885210990e+02
9.120497976617497216e+02
5.221286251782116778e+02
6.170810436931012646e+02
1.054978376577535300e+03
1.333837638561321000e+03
2.014944666754277705e+03
2.490720330358444699e+03
2.906264009330676799e+03
3.533925122746244597e+03
3.189099497911461185e+03
2.880652734907765080e+03
3.022402083584586308e+03
2.532098598372570450e+03
1.564384581798295812e+03
1.410252582408381613e+03
2.078836495684706279e+03
1.196585309848013367e+03
-4.884547386495750061e+02
-9.960393353912190832e+02
-4.703020463693270585e+02
-1.738031466304325363e+02
1.616406226750636677e+02
1.506208264499155121e+02
5.629156360364797820e+02
1.293031184843959181e+03
2.097677922994512301e+03
2.895174509832187141e+03
3.851228910714900394e+03
4.065156052689857006e+03
3.710573097483455058e+03
3.792041955028248594e+03
3.981498340986591302e+03
4.119555837317958321e+03
3.653411346784380839e+03
3.148455103863623663e+03
1.913120983785909630e+03
5.513805022624254661e+02
9.423574028121625190e+01
1.047953050403072410e+02
6.214517183978041714e+01
3.113120944291600836e+02
2.222782857761706055e+02
5.004246850047702821e+01
4.906142788583583751e+02
1.643950330525738309e+03
2.859143464678184500e+03
3.458338657347980643e+03
3.572539283782385155e+03
3.240686340784305230e+03
2.986804700096754914e+03
3.031952525889424578e+03
2.546225328411600458e+03
1.819614361644282553e+03
1.141150905408513609e+03
5.017502492489375072e+02
2.322107931017115163e+02
1.441241171153100531e+01
-7.465219088451929110e+02
-1.036500493818269661e+03
-9.136593283710867581e+02
-1.451065062911662835e+03
-4.281770240562270374e+03
-7.437794773064936635e+03
-9.163037193645737716e+03
-8.174472534694531532e+03
-7.790103901204744943e+03
-6.560962061245362747e+03
-6.083082814268471338e+03
-3.071416957773923514e+03
1.326023922388889332e+03
-1.474868474828674152e+03
-5.754305756369805749e+03
-7.770203411310141746e+03
-8.083657551182222051e+03
-7.820764020813386196e+03
-8.683554941466038144e+03
-9.751183154645977993e+03
-1.075881964564127156e+04
-7.896545267559119566e+03
-6.320514055143707083e+03
-8.678841721861730548e+03
-8.598550149604307080e+03
-8.271644812477230516e+03
-5.548308454679306124e+03
-2.407685891516778611e+03
9.071542421474684943e+02
1.656163750954549641e+03
1.808207229705634745e+03
2.608167587922293023e+03
3.241932694700061347e+03
3.309544160507706692e+03
2.807045549666628176e+03
2.325354178099973979e+03
1.669338905594087464e+03
1.237838539831355774e+03
5.957760590783865382e+02
-9.493213532466083393e+01
-5.282059801703039739e+02
-8.791817298904690006e+02
-3.239348692447079543e+02
2.436082603577168868e+02
1.222973753731563562e+02
6.311364691885179354e+02
1.880100290292148884e+03
2.892223253813436258e+03
2.973442694774408210e+03
3.395745632009505243e+03
4.115092417195373855e+03
4.554344674120286982e+03
4.580213506012772086e+03
4.675788882833877324e+03
5.013143904678634499e+03
5.126104839092778093e+03
4.014700936240161809e+03
3.232714715246859669e+03
3.771687581597909684e+03
4.076420286862901321e+03
2.987010061696214052e+03
2.016282822829115275e+03
1.948052848963967335e+03
1.966201641596396257e+03
2.306267997927251145e+03
3.189909366933482488e+03
3.366091479607558540e+03
3.557640448616225967e+03
3.956305072944117001e+03
4.765301358930536480e+03
5.800907478129434821e+03
6.286980467325657628e+03
5.990539164338224509e+03
5.882443452799284387e+03
5.923346786663742023e+03
5.560709321231028298e+03
4.899945553636259319e+03
3.889768866706023800e+03
3.168148104120138214e+03
2.396956005977208861e+03
2.512159300468572837e+03
3.115606626576464805e+03
3.615210028608977154e+03
3.204654038960597973e+03
3.038934130474223366e+03
2.935493716502378447e+03
3.233080188721174181e+03
3.948849875114033694e+03
4.334103013023503991e+03
4.291009674209853074e+03
4.694535022824135012e+03
4.418619706585439417e+03
4.669322512375638325e+03
4.825189926414113870e+03
4.388767498361928119e+03
3.749742401235956549e+03
2.805864072961583588e+03
2.509396070700606742e+03
2.749690045098873270e+03
2.822309956060470995e+03
2.798010564302289822e+03
2.505545540829425136e+03
1.976773462350967066e+03
1.779593156012634836e+03
2.529296459536342809e+03
3.274341661167361053e+03
3.332600670109529347e+03
3.966879726036609554e+03
4.717813931415993466e+03
4.978381113263766565e+03
5.313644432218803558e+03
5.244251040675115291e+03
5.574870290321919128e+03
5.689429262187374661e+03
5.151918115155514897e+03
4.817270326140413999e+03
4.054178699171804965e+03
3.173418304939549671e+03
3.051734140669714634e+03
2.792135828497508555e+03
1.862689839605128782e+03
6.793844217796593057e+02
-5.187023265146384574e+02
-1.046668699630269884e+03
