-6.687683344863883939e+00
-1.933872245809990886e+02
-1.198308718224627683e+03
-1.768579380961042716e+03
-1.210154092391371478e+03
-2.091183555949277434e+03
-4.700090532855799211e+03
-7.832146494289296243e+03
-9.531394801247044597e+03
-1.105507094540810795e+04
-1.288642338649277008e+04
-1.541357239563699295e+04
-1.809964829507792456e+04
-1.979582992114731678e+04
-2.120924801626754197e+04
-2.045196743525566853e+04
-1.678005029138669852e+04
-1.422267663144747712e+04
-1.573883185970475824e+04
-1.623064568678560499e+04
-1.101409729263884765e+04
-5.479955425128628121e+03
-4.577006390690557055e+03
-5.981034744543396300e+03
-5.391643875431673223e+03
-3.511814137093298541e+03
-3.594882212288052415e+03
-5.242005575108861194e+03
-7.563290180590974160e+03
-7.865902348506170711e+03
-6.949051910040163420e+03
-6.760924676669657856e+03
-6.884739418935697358e+03
-6.359476387412799340e+03
-4.318205498173535489e+03
-2.385073082495424842e+03
-1.160980905179415686e+03
-3.601143692484734515e+02
-7.333284577965052904e+02
-2.735916014160861209e+02
2.239875832462444407e+02
-2.596137040663628568e+02
-4.643060367406593514e+02
-1.130116745423384970e+02
1.211106281592568394e+03
1.802048453285343840e+03
2.635008064052291957e+03
2.866179038486354330e+03
1.433333240185073691e+02
-1.340702746654573048e+02
9.817966042593742486e+02
-4.409915216359272705e+01
-3.914231072423124829e+02
7.078048463173678329e+02
-1.047587644957716293e+03
2.594234237984612719e+02
-1.530138340069464675e+03
-2.046471672986424892e+03
8.095067858803439549e+02
2.162967156750391041e+03
2.800412714383357979e+03
3.851125747544280330e+03
5.980941106096724070e+03
5.616821365513676938e+03
3.403902697125922714e+03
1.190507887792382917e+03
-2.146259043262843079e+03
-8.454379506064720999e+02
-9.729683407118363903e+02
2.431230674125191399e+03
2.451308402309079156e+03
3.316386636460265436e+03
2.046831246402196257e+03
3.253095708747945991e+03
1.476326058607580080e+03
4.377791181717385371e+03
5.106417830458587559e+03
3.105253685733323891e+03
5.444793980017442664e+03
4.460188451935235207e+03
4.371263234273360467e+03
6.711990032272131430e+03
8.707491618263364217e+03
1.080420023709336238e+04
8.914552374589487954e+03
8.104750943481002651e+03
5.874984419574288950e+03
2.061561792855442036e+03
8.766136222019068782e+02
2.143235421769903951e+03
-6.169707945135769478e+01
-1.751058177243307227e+03
-2.521586963471097533e+03
-2.966043535539707136e+03
3.518183831876737599e+02
1.858265086232285057e+03
1.288417849416999161e+03
1.545469478374230903e+02
-1.023924087388919361e+03
-1.099801937037608013e+03
3.200868531383528648e+02
1.787068948075726667e+03
2.299461246953855152e+03
1.340266831492699566e+03
5.737573405635544987e+03
1.137954633061137429e+04
1.270441794299182948e+04
8.604278464664237617e+03
4.847137546780511002e+03
3.285466686277090503e+03
2.241660175746559617e+03
1.168721527795427392e+03
2.584054339917706329e+03
2.132479388613265201e+03
9.766414466483927299e+02
-7.452313146055518018e+02
-1.722477594588913803e+02
1.736607760642835046e+03
3.814077054347875674e+03
5.174098295029106339e+03
5.092807030817603845e+03
4.545294386184195901e+03
3.988666097247821199e+03
3.135410760143523021e+03
2.126490658398953201e+03
1.135146127186533477e+03
-1.937060853480893741e+02
-1.611088630569557154e+03
-2.989239179927449641e+03
-4.457243449377233446e+03
-6.195390694725982030e+03
-7.074232888306444693e+03
-8.622417818825486393e+03
-1.012395318600164319e+04
-1.057600044899141176e+04
-1.079839420555274955e+04
-1.151392210017961406e+04
-1.336548747944904790e+04
-1.355841420129712787e+04
-1.161620906191934046e+04
-9.768463168431824670e+03
-7.814405712274498001e+03
-6.847028890141489683e+03
-5.858552344040805110e+03
-4.609248080864421354e+03
-3.347030585150340812e+03
-4.308999715715782258e+03
-5.417123410730684554e+03
-3.158576154902691997e+03
-3.654456075491160618e+02
1.825449140197220231e+03
1.563650503935255529e+03
2.164708510646130435e+03
3.808686590970881753e+03
4.483107648889413213e+03
4.531208470047405171e+03
3.581538426822313340e+03
2.955733961173558328e+03
2.959041892738653132e+03
3.271543118212120135e+03
3.024351372962184087e+03
3.717291091731297911e+03
5.030338020728227093e+03
6.816409995535696908e+03
7.674625723563363863e+03
7.331979177427000650e+03
5.288258771086323577e+03
2.948401188815126261e+03
-9.906275445553867485e+02
-5.835705216802070026e+03
-9.616817810174421538e+03
-1.120098972510908425e+04
-1.137023930606173963e+04
-1.013302133906031486e+04
-7.883021373812885031e+03
-8.453529339270300625e+03
-8.713256118198760305e+03
-7.563990596019905752e+03
-6.371786736683279742e+03
-5.596240491600788118e+03
-6.266546213334190725e+03
-6.200957315259175630e+03
-5.741500373439642317e+03
-4.186025636266153015e+03
-1.860931324840673369e+03
-2.404094313461449019e+03
-4.102386034434018256e+03
-9.913326712230458725e+03
-1.352848448679691137e+04
-1.269880492650595625e+04
-7.691500104487018689e+03
-6.297819990178257285e+03
-3.860173285275419403e+03
-4.222966464038871891e+03
-3.514421017073081202e+03
-2.850624793058788327e+03
-1.230452797986556561e+03
7.831742511126382169e+02
2.740014447010697040e+03
4.730273760275064888e+03
5.939913269296494946e+03
6.607538886211544195e+03
7.078045932473349239e+03
6.482796871704354999e+03
6.744229133669568910e+03
7.579309728206745604e+03
7.430048619171948303e+03
6.268028742674417117e+03
5.930313116349696429e+03
6.085775968509650738e+03
5.408489008211783585e+03
4.735897488609057291e+03
4.293589556434752012e+03
4.321222668701523617e+03
5.187904469589701876e+03
5.627702364904409478e+03
6.280675922157696732e+03
7.346308509986790341e+03
8.761086097872301252e+03
1.001204941461412091e+04
1.044799170383352248e+04
9.414297081958993658e+03
7.291078879578442866e+03
7.046346626500348975e+03
7.114281659991996094e+03
7.572142089488136662e+03
7.134955223920156641e+03
5.741951264803637059e+03
3.841530859175548812e+03
1.347560728612717412e+03
-2.149147374878697008e+02
-3.244903663191975056e+02
-9.592196902137351344e+02
-1.381881750391833975e+03
-1.335612949393770123e+03
-1.283087505299053419e+03
-2.322349084622101600e+03
-4.028162616960818923e+03
-6.104877095399928294e+03
-6.758001632370962398e+03
-4.158529805843540089e+03
2.004351226729663040e+03
6.681541718384215528e+03
7.042045888507159361e+03
5.660225262084727547e+03
5.143548357825317908e+03
4.516586181945713179e+03
2.853993876631353487e+03
5.782719794774752700e+02
-1.603264755020773237e+03
-2.927081074253115730e+03
-3.504311368226706236e+03
-3.609334385095548441e+03
-3.201412622359894613e+03
-3.548799486137505937e+03
-4.360145347633927486e+03
-3.972303479940273064e+03
-3.387256749019325071e+03
-3.684018859853310914e+03
-3.199861858412157744e+03
-1.228364946944506528e+03
4.179033303259064525e+01
7.410966217202089865e+02
1.069498666504755647e+03
1.706631133432338174e+02
-1.423165757529884104e+03
-3.028337386599077945e+03
-5.048979800478821744e+03
-7.155302583506021620e+03
-8.476708282722327567e+03
-9.729320795498106236e+03
-1.016896328992555027e+04
-1.016454059567761033e+04
-1.006256787152714423e+04
-9.393714331465958821e+03
-8.560512984726583454e+03
-7.471490860912753305e+03
-6.508299774594798691e+03
-5.227250717365107448e+03
-3.156488847201353110e+03
-1.596645625656575021e+03
-8.400819846823467287e+02
-1.735494466960914224e+02
3.654955404221983031e+02
2.791804390842956423e+02
1.148828453216232504e+01
-8.637156640670674790e+01
-9.435858508652921728e+02
-2.877329775316668474e+03
-3.254072145671786984e+03
-3.633168014114825382e+03
-5.502981560447506126e+03
-5.719298442605971104e+03
-5.896843346119149828e+03
-4.781667790275548214e+03
-3.179738578449129818e+03
-1.544276169621768759e+03
-6.921474145316583417e+02
3.868799627699156076e+02
2.661579726625298463e+03
4.886637665811280385e+03
6.645207103070586527e+03
7.791641713095244995e+03
8.322939177690379438e+03
8.338091147597442614e+03
7.635965107978717242e+03
7.056265440259964635e+03
5.665854575313242094e+03
3.933936063701186413e+03
1.895604862900464241e+03
3.036333990302992447e+02
-2.825911652140713954e+02
2.759739554341336998e+02
1.262328577722189493e+03
1.716429021735317974e+03
2.801128110132131496e+03
4.307539419071673365e+03
6.327221446859944081e+03
8.323503914727454685e+03
9.730171049671695073e+03
1.012519544884051356e+04
1.096934813591800958e+04
1.224809502449180582e+04
1.263928041642352036e+04
1.253489142177679787e+04
1.190461872392180521e+04
1.001332145630316154e+04
7.857831896369961214e+03
5.581554369290748582e+03
4.100661753590031367e+03
2.494094107381080448e+03
2.548444971716328837e+03
3.327634896528439185e+03
3.595322769923865962e+03
3.837433913864771057e+03
4.666795564622145321e+03
6.112494447796090753e+03
7.934198520940843082e+03
8.655464311031810212e+03
8.636433694559302239e+03
8.697291360112500115e+03
9.304210332788472442e+03
1.007576789663462478e+04
1.029745940676447572e+04
9.843289714764965538e+03
9.316082014146777510e+03
7.542834439424425909e+03
4.481774375369511290e+03
2.134665039124752639e+03
6.647326996738335083e+02
2.152886589248469136e+02
2.111295998050970582e+02
-9.221789576308665346e+02
-1.523466771534527652e+03
-1.859908004474001700e+03
-2.159087685578115725e+03
-2.307177828442219379e+03
-1.638744417616685041e+03
-1.208005703947208758e+03
-1.817157540152955335e+03
-2.244120260872791732e+03
-2.139785892589684408e+03
-3.111203470099254901e+03
-3.717424575798061596e+03
-3.063474346037630312e+03
-2.868831393632115578e+03
-4.282185857339177346e+03
-1.005625307527127188e+04
-1.388364206550224662e+04
-1.741068368979805746e+04
-1.571591579278255267e+04
-1.398670632186516195e+04
-1.583535471919117117e+04
-1.865139526995456254e+04
-1.534438981074588264e+04
-1.118816940768339555e+04
-9.724441773298054613e+03
-8.626640379016685984e+03
-6.708113346550396273e+03
-6.310415508678086553e+03
-4.494741294215816197e+03
-2.026948115154678817e+03
-2.290463103025476812e+03
2.169519514677676000e+02
3.198678016189913706e+03
1.642246549099244703e+03
3.333468943120869881e+03
1.327068520358305250e+03
3.870632794745115007e+03
6.414499043081685159e+03
6.706507951122243867e+03
6.223676900877748267e+03
6.828928751261278194e+03
7.943183329925082944e+03
6.746595344473881596e+03
8.068503511171740683e+03
1.473381437659994481e+04
1.961811979208907724e+04
2.367286322922594627e+04
2.645389907024405693e+04
2.745022227777992885e+04
2.981445114635542268e+04
3.174988042057392158e+04
3.209968814553093398e+04
3.076804545431498627e+04
3.006653805333726996e+04
3.063620714483882330e+04
3.016315067844017904e+04
2.758857349561042793e+04
2.422741482229754183e+04
2.227276183663360644e+04
2.091754618743296305e+04
1.822323798991078002e+04
1.420769367992340995e+04
1.063006615955962297e+04
9.487986016353095692e+03
1.018019861725975716e+04
1.071163033065677882e+04
9.566888280750325066e+03
6.660825150667725211e+03
5.170625649472915939e+03
4.755951615469001808e+03
2.548484021306808700e+03
2.442607140287378229e+02
-3.083190215595083373e+03
-5.999059899880256125e+03
-6.364514165446618790e+03
-3.098887708042567283e+03
1.999931840555161216e+03
1.628538875790175007e+04
1.321905289868802720e+04
7.005676046203983788e+03
4.158431953743985105e+03
2.735592313825144629e+03
-1.762516400755816676e+03
-6.672914281286479365e+01
6.496628656655490204e+02
-4.547588651455598665e+02
-1.553815047413710317e+02
4.192007641949887329e+03
5.604452322561496658e+03
9.103558381203063618e+03
1.477535172069248983e+04
1.652908979844807254e+04
1.270494903722871459e+04
1.004675210257743129e+04
6.083077730957903441e+03
-2.717453734773142969e+03
-2.033101830691953364e+04
-3.517816521557523083e+04
-4.189010916930379608e+04
-4.929421425180327788e+04
-5.595657570439997653e+04
-4.968818955177271710e+04
-3.340193120327961515e+04
-2.279598389623745607e+04
-2.132552268341107265e+04
-2.331780058531944815e+04
-2.945118726467836677e+04
-3.299766109661492374e+04
-2.990805489320902780e+04
-1.065635599881919370e+04
2.223770280799747525e+03
-2.750424493044155497e+03
-7.725260737613180027e+03
-1.556292451065231762e+04
-2.615346039539976846e+04
-3.394755305199784925e+04
-3.655283918042211735e+04
-3.064695056379245580e+04
-1.861856611606073056e+04
-1.458944365300739264e+04
-6.711333039698560242e+03
-3.844233218085375938e+03
-7.592994959175687654e+03
-9.830468062965175704e+03
-1.527158230842949706e+04
-3.328821194390927121e+04
-5.480294173586793477e+04
-6.787133489864754665e+04
-8.330256684390605369e+04
-1.014606502817195142e+05
-9.726228019115792995e+04
-7.401823563006479526e+04
-6.631363929076270142e+04
-7.114071536526290583e+04
-6.213365510562032432e+04
-2.956960140243759088e+04
-5.325486766169125985e+03
4.130204711278594004e+03
-1.360207383797477632e+04
-4.672943886741296592e+04
-5.689013193945822422e+04
-5.216149363236335194e+04
-3.946902900147400942e+04
-1.236712949002352070e+04
1.066864054918391776e+04
1.191014569058418783e+04
2.463939651082758428e+04
3.140007104958699347e+04
2.554991053817442662e+04
2.971892117683553079e+04
2.918218806192106786e+04
1.758374259913983769e+04
-3.907218722240621901e+03
-9.893694913655172058e+03
-1.030957311211432716e+04
-2.665303806031338172e+04
-3.684437929085813812e+04
-3.944685935753696685e+04
-4.733476400368188479e+04
-5.238679969972803519e+04
-4.174767621962142584e+04
-4.214580876248110872e+04
-4.347034708271977433e+04
-2.071481767998224313e+04
7.990378967618670458e+02
5.536446259375280533e+03
3.249686444916421533e+04
6.488067045751163823e+04
7.183378586193034425e+04
5.660220079267073743e+04
4.676791922916019394e+04
4.657519810676718771e+04
5.712911848919602926e+04
6.455939293291323702e+04
5.869653836657361535e+04
5.408738095218468516e+04
5.237963402496807976e+04
4.696597723119552393e+04
2.993493531829829226e+04
1.019097434149123546e+04
7.053617216068362723e+03
1.526441402697535341e+04
2.319787006866559750e+04
4.169225025301240385e+04
5.363481674559268868e+04
5.117325170115748188e+04
3.857326845851716644e+04
2.793993824001379835e+04
2.832816839327049092e+04
4.161923552427732648e+04
4.882529412997199688e+04
5.664746105595524568e+04
6.328887408755016804e+04
6.436169045305428881e+04
6.097688901793506375e+04
5.288842063345619681e+04
4.546044248069111927e+04
3.886104148117288423e+04
4.338727381111263094e+04
4.773449191873185191e+04
5.034858029597013228e+04
4.030568181710490171e+04
4.345997844596319919e+04
5.838062267704159603e+04
7.305568671893735882e+04
8.030961351824390294e+04
7.893722144846738956e+04
7.686255858895051642e+04
7.269654566336152493e+04
7.548021283580418094e+04
7.623670131583361945e+04
7.604990748961879581e+04
7.547177095641446067e+04
7.578064302775997203e+04
7.365548594810186478e+04
7.226104738773887220e+04
7.354933020659255271e+04
7.058536370090513083e+04
6.616506421669760311e+04
6.139772963465476641e+04
5.464763286575093662e+04
5.241379707835971931e+04
5.391533612511082902e+04
5.320372679733233235e+04
4.805224630338709540e+04
3.416812540054239798e+04
2.096976341869819225e+04
1.275283340334762215e+04
5.485984858143165184e+03
3.370733388699812167e+03
1.705787091453903486e+03
-7.710037188190222878e+03
-1.428795627525179225e+04
-2.422916394416639378e+04
-3.665471848032932030e+04
-4.903150818091640394e+04
-6.225068462878390710e+04
-7.316838640691913315e+04
-7.851562240511307027e+04
-8.441622405552947021e+04
-9.582192053158917406e+04
-1.012582406113993929e+05
-9.819675006388165639e+04
-1.077808974479984026e+05
-1.327170146344352688e+05
-1.684074024705854245e+05
-2.068642882988732890e+05
-2.383797344334548397e+05
-2.539726291781626642e+05
-2.463539174806969240e+05
-2.198191651104818447e+05
-1.865803576988043787e+05
-1.616591667452006950e+05
-1.395963958248351992e+05
-1.052466878804549633e+05
-7.225575094620244636e+04
-6.499128044861237868e+04
-6.814672123841266148e+04
-7.366520114067057148e+04
-7.286637536807250581e+04
-7.084462432111446105e+04
-7.201789128107432043e+04
-7.346967723833792843e+04
-7.608509259302093415e+04
-7.693804894399298064e+04
-6.642361936765915016e+04
-4.690364312083522236e+04
-3.710177946838688513e+04
-2.727895781309186350e+04
-1.801409264067055847e+04
-9.835936032701873046e+03
-4.745879321142723711e+03
-2.477566756948132479e+03
3.667536858840169771e+03
7.034047772504654858e+03
1.038397794316128602e+04
1.483389698132635021e+04
2.094109038935574063e+04
2.838120393334796972e+04
3.256657371415687521e+04
3.330794664944375108e+04
3.250563844571093432e+04
3.182155232899776820e+04
2.870667354248627089e+04
2.738945837048460089e+04
3.352166249490628979e+04
4.116041850809446623e+04
4.540193353717373247e+04
4.757344813097280712e+04
4.941098136676591821e+04
5.479097261610319401e+04
6.322167586083871720e+04
7.502343047375303286e+04
8.579631165211313055e+04
8.858538028376757575e+04
8.481728630961089220e+04
8.502022702753882913e+04
8.934644067100985558e+04
8.659207974606135394e+04
8.044957409589225426e+04
7.920711499883342185e+04
7.720764987408976594e+04
7.201122839359352656e+04
6.706644304105777701e+04
6.526904404862011870e+04
6.204219724437877449e+04
5.161146004605649068e+04
4.161059576094977820e+04
3.375299279668396775e+04
2.420676400947443835e+04
1.616104657307815251e+04
9.208026672340512960e+03
2.288963623782793547e+03
-5.314837781049170189e+03
-1.150325457249335523e+04
-2.085019261297716002e+04
-2.658752039215571858e+04
-2.293519598435292210e+04
-3.119006521089272428e+04
-4.780613928213972395e+04
-5.949962993738710065e+04
-6.356779102235106984e+04
-6.101284236797700578e+04
-6.147484115485959046e+04
-6.131560663914224278e+04
-5.531661278442556068e+04
-4.236536799515126040e+04
-3.115408524813640179e+04
-1.387622592558966790e+04
-1.351288411571221332e+03
5.526241389408984105e+03
4.541661905895676682e+03
1.378757838165893190e+03
-4.425798748692685649e+02
1.379940901539704782e+03
1.020755694602765107e+04
1.458549954398215232e+04
1.750147287777763268e+04
2.050332119994057939e+04
1.951215164173993617e+04
2.040422689628626176e+04
3.487430233864684851e+04
4.001823625964254461e+04
4.135458491331265395e+04
5.074451315338006680e+04
6.377062069337522553e+04
6.816314023997222830e+04
6.578095156597461028e+04
6.364143560882468591e+04
6.325127725115741487e+04
6.483966524894224858e+04
7.033486474333454680e+04
7.476237002788542304e+04
7.696708474212679721e+04
7.624984799878964259e+04
7.342189155882225896e+04
7.040806577532952360e+04
6.963704200300422963e+04
7.288226091258070664e+04
7.611817275644812617e+04
7.936551092515290657e+04
8.023321541676546622e+04
7.615093052421257016e+04
7.149259134574486234e+04
6.685333662331252708e+04
6.195991779014001077e+04
6.124512313967272348e+04
6.278317992811618024e+04
5.837255558861359896e+04
5.019233530820767919e+04
3.890487115674799134e+04
2.720839132573664392e+04
1.643846718881385095e+04
7.187717779045817224e+03
-4.216927564924657190e+02
-6.425741501322700969e+03
-1.157136820985286249e+04
-1.851531210295838537e+04
-2.520057709939327469e+04
-3.138697256750686938e+04
-3.854490804099053639e+04
-4.690141428530255507e+04
-5.346068285460531479e+04
-5.708740437860471138e+04
-6.215610785575440241e+04
-6.788874544822931057e+04
-6.928647757057150011e+04
-6.749063314005229040e+04
-6.657949985799114802e+04
-6.760674073664723255e+04
-7.050279092967574252e+04
-7.286440041822077183e+04
-6.997643409894006618e+04
-7.003835360161917924e+04
-7.355491937623159902e+04
-7.427455408337092376e+04
-7.310615877009762335e+04
-7.179048562179952569e+04
-7.188839587338193087e+04
-7.133565258043863287e+04
-6.961738749393828039e+04
-7.136007174366792606e+04
-7.341937857510638423e+04
-7.087666783471559756e+04
-6.485827869994022331e+04
-6.241163725391073967e+04
-5.983091207476572890e+04
-5.811900672525644040e+04
-5.556432284910997259e+04
-5.378133993497223128e+04
-4.980934260251486558e+04
-4.554390931164498033e+04
-4.149865795504127163e+04
-3.664098037323191238e+04
-3.003265956648727661e+04
-2.802925806033725530e+04
-3.111340526723522999e+04
-3.365169561616754800e+04
-3.169151182023894580e+04
-2.997569267897025929e+04
-2.904426537634578563e+04
-2.763263561105601912e+04
-2.376772857241443853e+04
-1.709238943103227939e+04
-1.258438640071302689e+04
-1.028190574393019597e+04
-9.510883142913471602e+03
-5.501143326955568227e+03
4.160773362291805029e+02
4.488251283275889364e+03
5.166976979090361056e+03
6.074767253364821045e+03
7.349047260216192626e+03
9.101190501741488333e+03
9.581171699879250809e+03
8.865603296759130899e+03
7.741679168499753359e+03
7.292981023525174351e+03
7.263215531390111209e+03
5.362894033505352127e+03
2.262674659132426314e+03
2.909590620777166350e+03
8.925592835840638145e+03
1.368565723960846299e+04
1.484189563249961611e+04
1.657449565900014204e+04
1.810826883420591912e+04
1.967756995227963853e+04
2.086538780184967982e+04
2.159711355625484794e+04
2.257253812174933773e+04
2.222827693724678829e+04
2.157905903333534297e+04
2.341585366797018287e+04
2.669385982398840133e+04
2.329036187782548950e+04
1.854361477884638953e+04
1.552794217919258699e+04
1.437386618261851072e+04
1.635590475712044645e+04
2.263037169259723305e+04
2.395848208161528237e+04
2.382091812927390492e+04
2.478279746276641163e+04
2.501378144623986736e+04
2.573771327019001183e+04
2.818767588000163960e+04
2.997733785388667457e+04
3.016939290643262575e+04
3.451544551709383086e+04
3.821809579501735425e+04
3.851710213482588733e+04
3.869306820453493128e+04
3.921253334186860593e+04
3.750146577414371859e+04
3.694866028496311628e+04
3.840388286362317012e+04
3.818398655704410339e+04
3.681231450389785459e+04
3.817620944195218181e+04
3.879137265616727382e+04
3.636682101543714816e+04
3.338712056013958500e+04
3.313815223586681532e+04
3.377639480215989170e+04
3.308061430055188248e+04
3.253009644050901261e+04
3.186546797822677036e+04
3.065703405518275758e+04
2.834927522198560837e+04
2.690922672836771017e+04
2.727781649034298607e+04
2.749975625243385002e+04
2.608075728839691510e+04
2.208428607261492652e+04
1.683138408397826061e+04
1.121970334451002054e+04
7.280177528970675667e+03
3.790534028635379400e+03
-2.544387536459222474e+02
-4.231022321460579406e+03
-7.889115516707414827e+03
-1.049189961073654922e+04
-1.068846564078464507e+04
-7.123742573542577702e+03
-8.741410157732046855e+02
-7.853093461834954496e+02
-2.765751441607661945e+03
-4.312388907977062445e+03
-6.109059094370522871e+03
-6.500063871933499286e+03
-6.647393024091925327e+03
-7.808443567335123589e+03
-9.576547543487191433e+03
-6.684956483508950441e+03
-6.763386115639929812e+03
-7.915335862953422293e+03
-4.879914018383985422e+03
-4.757961346338300245e+03
-4.805528113812685660e+03
-4.268514113477447609e+03
-5.087030875360321261e+03
-4.692076642000375614e+03
-2.954744239799866591e+03
-2.860696165057631333e+03
-4.350173548796063187e+03
-8.300322546255165435e+03
-1.268828519810518810e+04
-1.155108556365867844e+04
-9.281729426614649128e+03
-6.671725099295544169e+03
-6.832067839735716916e+03
-8.313020916682578900e+03
-6.387916967143720285e+03
-7.904150141026545498e+03
-1.024919145726988245e+04
-1.332309393703631758e+04
-1.398483583609484413e+04
-1.604949077955587018e+04
-1.791324252249837446e+04
-1.592507873652816488e+04
-1.645726705103351560e+04
-1.577461527828126236e+04
-1.710249054816004718e+04
-1.465585273901564869e+04
-1.312580680144654798e+04
-1.333466694845353231e+04
-1.011397091378102778e+04
-9.513303365804080386e+03
-6.863303643947351702e+03
-6.532283740763401511e+03
-3.639981838751999476e+03
-3.023037745390161945e+03
-2.692949032633551269e+03
-4.529328197403767263e+03
-8.682878166207086906e+03
-1.384834272549386696e+04
-1.953725624890505787e+04
-1.726774148108287045e+04
-1.063161208390944739e+04
-1.148707209936586332e+04
-1.688355979681070312e+04
-1.868706025095046425e+04
-1.447904469760207940e+04
-9.349553474005477256e+03
-7.381736728704604502e+03
-6.319383089091549664e+03
-4.306580783189809154e+03
-2.194420366709580776e+03
-5.309717102694750110e+02
-5.842201550782604045e+02
-1.673080567599848507e+02
1.333924748389646993e+03
1.146108828155482115e+03
6.323548275834114065e+02
-2.295383591329850788e+02
-1.121020548388283260e+03
-2.053481590466859871e+03
-3.905571390206472643e+03
-5.878991292216389411e+03
-4.370782786278864478e+03
-3.628174448043233042e+03
-3.606769769952424213e+03
-2.750277682647154052e+03
-1.973828958509806853e+03
-2.221136566447822133e+03
-1.170169999726549804e+03
2.204888387476281423e+03
4.104261730354998690e+03
5.312221759531025782e+03
7.771924234090285609e+03
9.720923771544168630e+03
1.029956050583873548e+04
9.811073879839814254e+03
9.478331560024811552e+03
8.786142945621200852e+03
7.254750871354144692e+03
5.417951862823108968e+03
4.269716099318328816e+03
4.175436240467811331e+03
4.510431991759433913e+03
4.932147422657899369e+03
6.653283154664982249e+03
6.548146136538299288e+03
5.140046596349928222e+03
4.125351170378051393e+03
4.351210539854441777e+03
5.447648727940892059e+03
7.073293733646665714e+03
9.838451575128488912e+03
1.183143626980119188e+04
1.273354778585776512e+04
1.334701729580035317e+04
1.356981516152166841e+04
1.211079892192291118e+04
9.562770464100312893e+03
7.912820746377185969e+03
4.999093753703147740e+03
1.451913361087125622e+03
2.487769852791189180e+02
-1.364021498976618886e+03
-2.396230725670416632e+03
-1.790639988510368994e+03
-1.599220883737810937e+03
1.192378845931693547e+02
1.901488328895122550e+03
4.705194058203731402e+03
6.995941285289021835e+03
5.989177969428532379e+03
6.005227717808456873e+03
7.107391064163412011e+03
7.502941020656007822e+03
6.213977775401284816e+03
4.310593882417588247e+03
2.492369306283836522e+03
4.255014933840153617e+02
-1.881952733564833579e+03
-4.210754138400576267e+03
-6.956645687543268650e+03
-9.201296110700963254e+03
-8.257709150698186932e+03
-5.732677252950870752e+03
-5.035071100365883467e+03
-6.625985589585396156e+03
-7.950614325187774739e+03
-9.350884312640486314e+03
-8.240461749846386738e+03
-7.481101951576799365e+03
-6.823718675802313555e+03
-5.288607974879425456e+03
-3.384502949598096620e+03
-1.944149759188215285e+03
-1.018751355919643743e+03
2.491628173704533310e+03
4.235941418363051525e+03
4.802937899501361585e+02
-5.384331760579988440e+03
-9.541134576695858414e+03
-9.613908830669370218e+03
-7.702731975446110482e+03
-7.692996847118579353e+03
-7.456109010193663380e+03
-7.361947216434598886e+03
-5.207448387798016483e+03
-2.977466573477466682e+03
-3.909029572909578292e+03
-5.842118364242040116e+03
-7.198993354276931314e+03
-5.484822652546897189e+03
-2.410753611811034261e+03
5.708625121075613151e+01
4.949383523920590960e+03
5.796364109815474876e+03
4.251498400573636900e+03
1.714765867944694037e+03
4.107358221224965291e+02
6.625658544884468881e+01
-1.391688076541860710e+03
-3.731216587086490108e+03
-5.406686376458535051e+03
-6.194516525168703993e+03
-6.987606987794101769e+03
-8.258926590981222034e+03
-9.446462089459588242e+03
-9.973562621337119708e+03
-1.017844146100572652e+04
-8.766009304576260547e+03
-6.553039360505439618e+03
-5.046577085397922929e+03
-3.245668212886662786e+03
-4.443026680682097549e+02
1.145520302872743287e+03
2.586791233972423470e+03
3.892655525076348567e+03
4.546132763520646222e+03
3.947204298349437977e+03
2.470861761541907526e+03
4.129722450724685814e+02
-1.711685692388111647e+03
-2.931540609665409193e+03
-3.534705555298066884e+03
-5.071970736126071643e+03
-8.123556174112554800e+03
-1.173450151244554036e+04
-1.520768244825632792e+04
-1.526700822174030873e+04
-1.155549082091390665e+04
-6.215195106681407196e+03
8.819389293603763917e+02
4.255950729986380793e+03
6.274875146697339915e+03
6.312934034504252850e+03
6.387121880528551628e+03
5.034607515739728115e+03
4.428718900052738718e+03
4.669190215410231758e+03
4.793865592189317795e+03
5.620457962676436182e+03
4.439390218476329210e+03
2.905548930807445231e+03
1.578957728752299772e+03
9.515215983056367577e+02
9.142546135563170537e+02
5.078952635949473802e+02
5.844073278862214238e+02
2.249794104008624913e+02
6.234757866086589502e+02
1.569639951685300616e+02
-4.553980898773202739e+02
4.605006964775250822e+02
1.414746309779402964e+03
2.160790150811766125e+03
3.203596465025076668e+03
3.700962435808077771e+03
3.841920530161873103e+03
3.893514927946076114e+03
2.531582796940606841e+03
4.551984411342068597e+02
-1.283283810184622325e+03
-2.949738189805224465e+03
-4.490227668631823690e+03
-5.181741924448459940e+03
-5.944322634445405129e+03
-6.154962147397071931e+03
-5.982549648156599687e+03
-5.851974638660087294e+03
-4.537929079546893263e+03
-2.868284468872379875e+03
-1.075052377710520886e+03
5.788649557951627145e+01
8.887399780449387663e+02
3.218443384642871479e+02
9.855304389639712781e+02
1.111816674944656143e+03
-3.714490647610045471e+03
-8.704290832588088961e+03
-1.005652063468613233e+04
-8.023040596030659799e+03
-3.928815686882627233e+03
-2.866912393042992335e+03
-5.726500146922425301e+03
-6.447926050962142654e+03
-7.924437764391960627e+03
-6.514652877367710971e+03
-2.757365016074320010e+03
2.650506171349393298e+03
8.030037575670992737e+03
7.352203769340511826e+03
8.320033359923365424e+03
9.850603199841449168e+03
1.079298730826820611e+04
1.169283140988117339e+04
1.181241905607047192e+04
1.223379910663049122e+04
1.184951289730145254e+04
1.037560651614199196e+04
8.702129222639588988e+03
7.323125303709945911e+03
6.458476016028164850e+03
5.365901212468462290e+03
3.546279894233779032e+03
2.031869372219139677e+03
1.668912324741927023e+03
2.108444176086191419e+03
2.509951127429783810e+03
2.662023164147901298e+03
3.051536588265924365e+03
3.965350207456746830e+03
4.466813636012849202e+03
4.965996822085337953e+03
5.707897690934338243e+03
5.784590987297304309e+03
5.667847064464591313e+03
5.238002355227986300e+03
4.501850474734214004e+03
3.523446924536374354e+03
1.934158858104460705e+03
2.634448901481463849e+02
-1.531541730566893648e+03
-2.427827407304000644e+03
-2.057613064248588216e+03
-1.470992411804390031e+03
-2.040458470160788465e+03
-2.458772721485993316e+03
-2.953003730497670404e+03
-3.059039528595881166e+03
-2.598016157616898909e+03
-2.350827977054489565e+03
-1.518919203325678836e+03
-8.800186491905005823e+02
-7.932506510970416684e+02
-1.341442848081027023e+03
-6.669034706145018845e+02
-3.123070844292858510e+02
-1.668665235208300999e+02
8.628900071688996150e+02
7.943215616958678993e+02
-3.239928410482451682e+02
-1.134325725163576863e+03
-1.914700093063430131e+03
-3.305838787817901903e+03
-4.733189915867823402e+03
-5.184700240819646751e+03
-5.137454114390679933e+03
-4.533187479647026521e+03
-3.935935950124617193e+03
-3.016767282267350765e+03
-1.465518712607897442e+03
-1.363465143219167715e+02
9.344359823414467883e+02
2.583716418988634814e+03
5.023407976732901261e+03
5.808773071262578014e+03
5.336282670821257852e+03
4.406820667772420165e+03
3.080342710781151709e+03
3.487596728707204079e+02
-3.277494773538049685e+03
-6.761414335546004622e+03
-8.567686166796871476e+03
-9.054436501216780016e+03
-7.010587922391400753e+03
-3.142622390853496199e+03
-2.867560145687486056e+03
-6.060981421524151301e+03
-8.187022088997090577e+03
-6.828550925886123878e+03
-6.527617828905841634e+03
