1.607311235766225946e+04
1.358321867688388738e+04
8.689192290623132067e+03
6.212930329836918645e+03
6.644126192972870740e+03
4.982327050851503373e+03
1.939140169029847129e+03
-8.475087319642095451e+01
-1.537517792868399056e+03
-1.707087146425067203e+03
-9.336149345573551273e+02
-6.094326835799098490e+02
-1.424799032917179602e+03
-3.410884823775978930e+03
-5.600839497591397958e+03
-3.962075020899042102e+03
1.813085859646607560e+03
2.271723338607782352e+03
1.681403641226065247e+03
6.618724275206113816e+03
8.271447107299967684e+03
2.908341335312657975e+03
-2.010872723526543041e+03
-3.483499274674618391e+03
-9.528755670242685483e+02
-1.990189087369061326e+03
-2.158800030912764669e+03
-3.636186961310306287e+03
-6.702642560553137628e+03
-4.647436622513334441e+03
-2.489934671376667211e+03
-5.095062980966949340e+02
4.495311731634247394e+02
1.363816733357479507e+03
2.024090156291247013e+03
2.639140968650891864e+03
3.242657067650405224e+03
3.215341706775559032e+03
2.577851794952332057e+03
2.115952531570356768e+03
5.353731502734849528e+02
-1.008331530232296700e+03
-2.904552023803536940e+03
-6.132569187438221888e+03
-8.795716817335151063e+03
-1.030961016160511281e+04
-1.145689369892564173e+04
-1.279067531340075584e+04
-1.303917228231466106e+04
-1.294170134019672150e+04
-1.305134517412459900e+04
-1.371505897546963752e+04
-1.396696075861922873e+04
-1.359472308706286458e+04
-1.275371117055147079e+04
-1.231475288021774577e+04
-1.353500081988533384e+04
-1.459774712226223892e+04
-1.527936924703258046e+04
-1.583391912646067794e+04
-1.663368000865432259e+04
-1.251181870174227879e+04
-1.056455400601966539e+04
-1.185527321016884525e+04
-1.252118636087248160e+04
-1.022741645899439754e+04
-9.141203496636120690e+03
-8.604173034797366199e+03
-8.246620778298849473e+03
-8.595282465591062646e+03
-7.854143415972307594e+03
-6.058206957759953184e+03
-3.962256007625592247e+03
-2.114657602600261725e+03
1.132759333433420181e+02
1.649615864647729040e+03
3.419029825206476289e+03
5.397565897608801606e+03
7.289237002721009048e+03
8.681051619609228510e+03
8.971008921059068598e+03
9.115077007392053929e+03
9.328188001215958138e+03
8.712415732462179221e+03
7.933679927139131905e+03
7.657014904112289514e+03
7.883596133075401667e+03
7.470601784366984248e+03
6.632083278649801287e+03
5.504210578134225216e+03
4.897133178143411897e+03
4.570034655250483411e+03
4.630074820938511039e+03
5.313479295487347372e+03
6.362528679390109573e+03
7.259562082912254482e+03
8.130688016759458151e+03
8.820994551038418649e+03
9.074795184119953774e+03
9.553582245769257497e+03
9.507768224148539957e+03
7.790542048028057252e+03
5.352880189330157918e+03
3.007106138505529998e+03
1.567715478742202095e+03
2.480849747344983598e+02
-1.431552396212282929e+03
-2.368012553163342091e+03
-3.343964508902305624e+03
-4.348107084143641259e+03
-4.532192401334476017e+03
-4.721757553764522527e+03
-4.732364371294409466e+03
-3.400609136201053843e+03
-1.131181762965573853e+03
1.019279947970711873e+03
2.427238977649567460e+03
2.439236314771748312e+03
8.947571938239681231e+02
-1.641850200052739865e+03
-2.667085563276148605e+03
1.012547436514886272e+03
2.311473927854532064e+02
-6.824093784153921661e+03
-1.178357294882489805e+04
-1.332384108972319882e+04
-9.458792270562447811e+03
-8.459714165714645787e+03
-1.161045788318251471e+04
-1.164877088681649184e+04
-8.850011386815500373e+03
-5.667713755502682943e+03
-3.590435643491997325e+03
-2.361648535070485195e+03
-1.494918119163118945e+03
-1.081810048462683199e+03
-6.367607581299470212e+02
-6.212941419389306930e+02
-8.310362516638556372e+02
7.023953537514209984e+02
2.666263586265689355e+03
2.991943263231866695e+03
1.881920035992400017e+03
1.418393930324016537e+03
6.977209547041956057e+02
-1.024588192470612512e+03
-2.597298434567952427e+03
-3.869164046723014508e+03
-4.077805127940343482e+03
-3.112793285224637202e+03
-2.814804969699001049e+03
-2.537467489529447448e+03
-1.962188664713344906e+03
-5.586536000207204324e+02
1.199428847257313919e+03
3.014195144376902590e+03
5.321896108947171342e+03
6.998845800243480880e+03
7.979414767050394403e+03
7.595037441124904944e+03
6.157928180008833806e+03
4.856190127510039929e+03
4.176059508666405236e+03
4.123605267317592734e+03
4.374038523263581737e+03
4.710590624476276389e+03
4.626309319599448827e+03
3.848261899910571174e+03
3.198584071425706952e+03
2.157513408494395208e+03
2.100210054713047157e+03
3.034574886725240503e+03
4.071554847762844474e+03
4.763389711204617925e+03
5.694205304665687436e+03
6.335845762255160480e+03
7.620653194123306093e+03
8.606600533179078411e+03
8.456730443403106619e+03
7.635358955336529107e+03
6.662436428915328179e+03
4.965681167169555920e+03
3.205899645173507906e+03
1.283977373735564925e+03
-5.281629181513478670e+02
-1.384812993366186674e+03
-2.382194003772103315e+03
-4.500287529662510678e+03
-5.286327509027874839e+03
-5.762515072399383826e+03
-8.555974404674627294e+03
-8.215844236012108013e+03
-6.837159819483442334e+03
-3.138230759494957056e+03
-2.422173271946689511e+03
-1.622060973003743811e+03
1.391874211426164038e+03
2.596285226272914315e+03
8.289958895814855850e+02
2.696778478194865784e+03
2.435344237004426759e+03
2.842281193866067497e+03
-7.176693147296813322e+02
-7.068642260157463397e+02
-3.691794218500024726e+03
-2.295900044129130492e+03
-2.768387676136840582e+03
-7.271550900628313684e+03
-7.920709519795594133e+03
-4.890132976638997206e+03
-4.250177729894835466e+03
-2.927332211653271770e+03
1.010596107116062399e+02
7.867299584278155180e+02
4.484477930067551824e+03
4.636017223257425940e+03
9.414106045950400585e+03
1.074125908849362168e+04
9.975123556065553203e+03
1.203054886470751080e+04
9.919187555157179304e+03
1.030961669781334058e+04
4.220623324471470369e+03
3.398896215361937720e+03
5.302863934305030853e+03
3.709025218684863830e+03
1.834912057314852291e+03
1.220254553500740400e+02
-2.685807531289495273e+03
-2.208996939692944579e+03
-2.699763563769397024e+03
-7.624295513194573459e+02
8.535414077637852870e+02
1.832784541169404065e+03
2.875022223879613193e+03
4.240268899001376667e+03
5.653457285410610893e+03
6.796333080225494086e+03
6.178499068550363518e+03
4.019707431082999847e+03
2.921680222389868050e+03
1.666018559312038178e+03
-3.883295286985834309e+02
-2.933077021622699704e+03
-5.337487551502149472e+03
-8.171970897512889678e+03
-1.048066420022951570e+04
-1.129607143521137550e+04
-1.186374854504852738e+04
-1.276791224828023405e+04
-1.191079845512416068e+04
-1.120938864477022253e+04
-1.100374824003478170e+04
-9.669172533975863189e+03
-8.970749320477241781e+03
-7.337334332921033820e+03
-5.737748274717052482e+03
-3.889516797569169285e+03
-3.020798019707216099e+03
-2.996684269405396662e+03
-1.856609625402822303e+03
-1.341768077184807453e+03
-3.764452216348949150e+03
-7.105666231780226553e+03
-1.016740385922060887e+04
-1.153375221074775618e+04
-1.131583104100422315e+04
-1.081495516102266265e+04
-8.974505125862951900e+03
-6.825387126892704146e+03
-5.169118452027784770e+03
-4.307590284742520453e+03
-3.370272587370744077e+03
-1.569231019982439875e+03
-1.056129035650084518e+02
1.287968701520665491e+03
1.610339370100379483e+03
1.356521264901075256e+03
9.128337543364771136e+02
6.914628343928720824e+02
2.781656184286104008e+02
1.454180213374505456e+03
2.166665351094176003e+03
9.889439374429301779e+02
-3.938485987760190028e+02
-1.388062449733093445e+03
-2.107357317974322996e+03
-2.519055990124350956e+03
-2.504236774853372026e+03
-2.943520377460447889e+03
-2.392722822901732343e+03
-6.879407390548550438e+02
4.656686257222019663e+02
2.052173142035535875e+03
3.405616191005653491e+03
4.952181331939808842e+03
7.747040933825032880e+03
1.010232689362213750e+04
1.122443567646625706e+04
1.185671636521297114e+04
1.134252401402874057e+04
9.965090180891736964e+03
7.836412630770611941e+03
5.842734443221644142e+03
2.667625109878442800e+03
-1.925907065875445596e+03
-5.035294050013747437e+03
-2.255649056329946688e+03
2.335600927362201219e+03
1.150356004563605893e+03
-4.914066836905776654e+03
-5.519556649231836673e+03
-4.259246348695093729e+03
-2.936769242736992965e+03
-2.180087207115828733e+03
1.909429114920522750e+02
5.857767161044839668e+02
1.299676346288853438e+03
2.028010099109775183e+03
1.935092850061206263e+03
1.891472377327820368e+03
2.941487762805909824e+03
4.808298746653783382e+03
6.848527344728939852e+02
-2.942995275562093411e+03
-3.816869424671967863e+03
-3.714857787476478279e+03
1.154425589110169312e+03
2.131332016074597050e+03
-3.253943307657894820e+03
-3.579054986087654925e+03
2.171926999766266817e+03
4.255968986448840042e+03
5.959847959280689793e+03
6.712492525492482855e+03
8.159423594531326671e+03
1.009727316625732965e+04
1.140783566799536129e+04
1.173481315144147993e+04
1.166124338441275904e+04
1.091977946929819336e+04
9.138709988008788059e+03
7.321623762280148185e+03
6.120689934709654153e+03
4.706357407932244314e+03
3.964029318499592591e+03
3.655840840166630187e+03
2.716222531095221257e+03
2.210221589767284968e+03
2.193491727056424224e+03
2.886022453688783116e+03
4.282582123388483524e+03
4.898410355871617867e+03
5.116780382120879949e+03
5.074670952721964568e+03
5.843398520390387603e+03
7.564210702439954730e+03
8.885142517032654723e+03
8.588623925060945112e+03
7.659600157524433598e+03
6.937210605908908292e+03
6.408317591885640468e+03
5.480891858971349393e+03
4.049043124666674430e+03
2.627774963137171653e+03
1.142331137566609868e+03
1.390447975085000394e+02
3.653135010190155754e+02
1.072652433384053438e+03
1.678698284466536279e+03
1.463295091168396766e+03
8.430817769793096659e+02
3.090061227672410951e+02
1.667896680421360998e+02
1.292641139127291353e+03
2.204721873798219804e+03
3.845284811690391507e+03
7.006150362110963215e+03
7.410501237422579834e+03
5.393853499168194503e+03
5.471891940991089541e+03
4.656498215255490322e+03
2.232239839108912747e+03
1.477156675680961825e+03
8.830843878527973629e+02
-1.760550810115421882e+03
-4.103213351959618194e+03
-5.795821532803380251e+03
-6.778329208949869098e+03
-7.333895348932951492e+03
-8.020596507788999588e+03
-7.519250174048128429e+03
-5.721576205880344787e+03
-4.040503868008559039e+03
-2.052775375045719102e+03
3.736867556870275280e+02
1.688982641641867531e+03
2.044421280343306080e+03
2.070234752207377824e+03
1.201735908626488254e+03
-1.277037301614702471e+02
1.624376901002681848e+02
-4.486489105516571954e+02
-2.659208390446725389e+03
-4.951956583053193754e+03
-6.523406655368165048e+03
-8.286370420049532186e+03
-1.020659837084945502e+04
-1.016589633533959022e+04
-9.676086670531718482e+03
-9.166928884191147517e+03
-9.638078781782352962e+03
-9.470104196156000398e+03
-7.958642487351093223e+03
-6.402372506134839568e+03
-4.792964632130774589e+03
-4.327839728303409174e+03
-5.150286819332138293e+03
-5.085925961555928552e+03
-4.817456921420018261e+03
-3.953566747944889812e+03
-3.298870733316976384e+03
-4.421003401864618354e+03
-5.911558885039704364e+03
-7.810212359988324351e+03
-8.955636313705657813e+03
-1.050146154828339786e+04
-1.309448251203980726e+04
-1.454233064869392547e+04
-1.435258902928579118e+04
-1.319289931273963703e+04
-1.382886704488756186e+04
-1.440216037571566812e+04
-1.449756054133735415e+04
-1.404669647903632176e+04
-1.092090014820662873e+04
-8.364636776874114730e+03
-7.627554871647322216e+03
-7.315106515215781656e+03
-6.565777406848337705e+03
-5.179350585090854111e+03
-5.810550318660415542e+03
-6.978024255391066617e+03
-7.538517100748879784e+03
-8.941629259264582288e+03
-1.069915958925516861e+04
-1.183903768165057045e+04
-1.213493692904587988e+04
-1.074442064449703867e+04
-1.135396397585897830e+04
-1.124971997801076213e+04
-1.027187955650775802e+04
-9.737804626428714982e+03
-9.369594175029480539e+03
-6.671742545059868462e+03
-3.244741559156303083e+03
-9.287700469932109399e+02
1.708077561608149892e+02
1.299355747544734641e+03
1.651370249205863047e+03
2.610859625170997788e+03
2.180991509684550692e+03
3.291639943635708505e+02
-1.354160614591724652e+03
-2.265931892398933542e+03
-2.035738387450375967e+03
-8.285373741481819252e+02
-7.085565750803813216e+02
-2.067839436242726151e+03
-4.114786051130910892e+03
-4.932460810882626902e+03
-4.463921536212017600e+03
-2.661422380343791701e+03
-1.730403169755150657e+03
-1.767654728532159652e+03
3.678194631020105589e+02
2.842572222143737690e+03
3.324884988922965022e+03
4.815929010368350646e+03
6.271147193616912773e+03
7.025718890046558954e+03
6.350870620669550590e+03
4.909626967277079530e+03
4.420341726236954855e+03
3.740687752877834555e+03
2.850533624194757977e+03
2.021949954124008400e+03
1.181662163752381730e+03
6.767083454010637524e+02
5.442992626669723677e+02
-1.270628217735753651e+02
8.561988021072480706e+02
3.774320276470135013e+03
5.946533737585746167e+03
6.404343927888676262e+03
7.131350508618330423e+03
7.930085332010952698e+03
6.278787435778316649e+03
2.243895427635241504e+03
1.707792422940487086e+03
2.554771160813470033e+03
1.566013776947200540e+03
2.622796200986514577e+03
2.133278810455263283e+03
-1.549554450745519944e+03
-5.633618009307082502e+03
-9.112770721457955005e+03
-1.006191165565898700e+04
-9.222790378745912676e+03
-1.007335075854797469e+04
-1.129643514270806190e+04
-9.196621868783528043e+03
-4.831064586169755444e+02
6.018292299980374082e+03
1.036472678669740162e+04
1.295136775245071840e+04
1.367845041033004964e+04
1.683297615428151039e+04
1.596215801614500015e+04
1.430035957992887597e+04
1.437080913243933355e+04
1.494673365888209628e+04
1.670522233215679080e+04
1.696216798376409861e+04
1.263554191406095015e+04
8.176201484400468871e+03
8.785345385679840547e+03
1.127727070410558372e+04
1.276820966313754798e+04
2.041439513627088672e+04
2.371182886006868284e+04
1.827974886402235279e+04
1.607657808549393849e+04
2.586474685261468039e+04
3.495965810253303061e+04
3.393468542088661343e+04
3.215709291716519147e+04
3.820625119237005129e+04
4.455637942759547877e+04
4.355094660752471827e+04
4.231550841660499282e+04
4.754745228081884125e+04
5.002525248270906013e+04
4.882247298006476194e+04
4.598054382749909564e+04
4.649384372701728716e+04
4.934786733244871721e+04
5.072413743369744770e+04
4.937614170531746640e+04
4.773265944268395833e+04
4.441628142865485279e+04
4.071371935892688634e+04
3.706768782327551162e+04
3.114903747353129802e+04
2.724267854173361775e+04
2.466844117094647663e+04
2.246027138228426338e+04
2.090923247758604339e+04
1.762929365660860640e+04
1.499155025573266721e+04
1.736110560421849732e+04
1.952101166077710513e+04
1.421150602465417069e+04
3.176689476504449431e+03
-5.794459615448985460e+03
-6.229946722133709045e+03
-3.805876883436546905e+03
-7.280937530265491660e+02
-1.415806538410892472e+03
-1.396371463848998474e+03
-3.473529437513889661e+03
-6.410789576682347615e+03
-6.077923317312355721e+03
-4.794232703117019810e+03
-8.854184851162552150e+03
-1.366904543029418710e+04
-1.811913931661169045e+04
-2.115792100073016991e+04
-2.178768109203382846e+04
-1.212778304753178600e+04
-4.672550908291880660e+03
-6.816893621771770995e+03
-1.428100778563284803e+04
-1.956423771572999976e+04
-2.225528811417118413e+04
-2.455193666704273710e+04
-2.473421063447154302e+04
-2.756288818124881436e+04
-3.459696036768400518e+04
-4.896839235151054891e+04
-5.587656088556201576e+04
-5.944303844267006207e+04
-7.240079779013073130e+04
-9.620796523520199116e+04
-1.199314176377551048e+05
-1.384529383192697424e+05
-1.571183199820382579e+05
-1.808232950669173151e+05
-2.059196096131867671e+05
-2.241560509406199562e+05
-2.306513961134506972e+05
-2.223293709902385890e+05
-2.132178184938472987e+05
-2.123316156361889734e+05
-2.130215973605061299e+05
-2.063906168195015925e+05
-1.994245416587250365e+05
-1.952391367728184850e+05
-1.880672092838733806e+05
-1.761675823533795483e+05
-1.624259678930693481e+05
-1.413889899980301852e+05
-1.107924181382440147e+05
-7.138203280689717212e+04
-3.063450659136239847e+04
5.878669697656294375e+03
4.102775171439680707e+04
7.178887446242322039e+04
9.803734006852936000e+04
1.201714371123326855e+05
1.369473943795162195e+05
1.496933419904037437e+05
1.586564196532061324e+05
1.648417735842805996e+05
1.683844444166009780e+05
1.705524369129579864e+05
1.755868431278624048e+05
1.812127454410638311e+05
1.762582381716933451e+05
1.680294054536726326e+05
1.615502973319845914e+05
1.559077820544193964e+05
1.528848003944656812e+05
1.497562165722540230e+05
1.415636915459956508e+05
1.358463489907814073e+05
1.320109165158975229e+05
1.276567705083123001e+05
1.202409425163067499e+05
1.193273622926072130e+05
1.145764732513294148e+05
1.108707088130506745e+05
1.033990950370104110e+05
9.952339394993323367e+04
9.729218276592332404e+04
9.215697578964248532e+04
8.425119234207723639e+04
7.672917364327181713e+04
7.070915690002885822e+04
6.383242425197647390e+04
5.780738858792017709e+04
5.014831343395148724e+04
4.297450036336619087e+04
3.812323750957396987e+04
3.237779258156137439e+04
2.621845367759257715e+04
2.246852568593052274e+04
2.292719397740869317e+04
2.276840830697548517e+04
1.638728456324621948e+04
9.781953622490038470e+03
6.778425698647449281e+03
4.334501672555153164e+03
1.305959443048162484e+03
-2.845388556339169099e+03
-8.483931694491204325e+03
-1.454505730924429008e+04
-2.018818829389023813e+04
-2.445957766156452271e+04
-2.756969081669084335e+04
-3.127009261610899193e+04
-3.606219137698546547e+04
-3.982739927494665608e+04
-4.044412504667649773e+04
-4.073281151017876255e+04
-4.119015703988224413e+04
-4.157073868289928942e+04
-4.110610687753101956e+04
-4.009086635174722323e+04
-3.845868888726976002e+04
-3.775936378161406901e+04
-3.742164686698532023e+04
-3.761839297338162578e+04
-3.930142140435378678e+04
-4.024145725213451806e+04
-4.039244011362264428e+04
-4.096345965223639359e+04
-4.090867903125422163e+04
-4.158897189675304980e+04
-4.378018059616141545e+04
-4.672621240875506192e+04
-4.743718148541340634e+04
-4.691535712472623709e+04
-4.696968510238563613e+04
-4.558496991861365677e+04
-4.208225913493590633e+04
-4.025173453739670367e+04
-3.930346711823770602e+04
-3.710739089353434247e+04
-3.572569097903590591e+04
-3.444651482326657424e+04
-3.322744639073005965e+04
-3.479764758211705339e+04
-3.939941039077985624e+04
-3.977103876355131797e+04
-3.492489105400721019e+04
-3.112993052498862016e+04
-3.529340505397782545e+04
-3.429151500171275256e+04
-3.447423474725805863e+04
-3.161564110089830137e+04
-2.658207526414976383e+04
-2.090181212767185934e+04
-2.327296704959153794e+04
-2.211538129988882429e+04
-1.997202330959208484e+04
-1.484696629455988841e+04
-1.063428360565086405e+04
-9.984859540280122019e+03
-4.734453028888700828e+03
-2.650090418057376610e+03
-4.773902409344908847e+03
-1.785964477034497804e+03
-2.638276598900818044e+03
-2.191750686183913331e+03
-3.497290277933342168e+03
-6.592675748781770380e+03
-5.366803970885605850e+03
-8.755634933123681549e+03
-1.104507937225893693e+04
-1.112984644823964663e+04
-1.045753061264996541e+04
-9.264088303368096604e+03
-4.510291281717520178e+03
-3.764616452360849507e+03
2.345269726638442354e+00
2.729070164759955333e+03
3.451988354626769251e+03
6.435602570339963677e+03
5.913368411735454174e+03
6.380679183139095585e+03
9.798083886458744018e+03
1.097913931539412624e+04
1.473738554087231751e+04
1.614347441599359627e+04
1.449796119204896240e+04
1.296044771739890166e+04
1.366272838469884482e+04
1.287837264425467401e+04
1.009790869028774796e+04
8.598159961391949764e+03
8.398073057480205534e+03
8.902531213698448482e+03
9.182475228504792540e+03
1.112306051209399993e+04
1.378637411327646441e+04
1.647616099198878510e+04
1.849358429994314429e+04
2.056795397484259593e+04
2.235415456401493793e+04
2.278739404943638510e+04
2.197602712235440777e+04
1.983529779567512378e+04
1.813445544680006788e+04
1.737451602459699279e+04
1.457550141110250115e+04
1.267370089083857965e+04
1.396942539609224514e+04
1.221847470423399682e+04
1.113960372586706217e+04
1.089741876373966443e+04
1.051117232694584527e+04
1.078104862977372795e+04
1.074636344761365217e+04
1.150452515714522633e+04
1.230153251716297746e+04
1.286696972369695504e+04
1.437231158142378808e+04
1.696100917955017940e+04
1.836941713745491506e+04
1.809514037570410073e+04
1.527413875412858033e+04
1.308411723863537009e+04
1.203720857806897584e+04
1.078474663696687639e+04
9.967346556828684697e+03
7.125056734514158052e+03
3.590884673345864940e+03
1.874741878654784159e+03
1.044010711664519704e+03
1.012437453057891162e+03
1.646617242501368992e+03
1.729975528176060834e+03
1.905445394624300889e+03
1.910224040456046851e+03
2.867435952062523029e+03
4.013160944296963862e+03
4.195308516209312984e+03
4.766234596930570660e+03
6.780506269810029153e+03
8.449978464102985527e+03
8.770650626275162722e+03
7.618868825145119445e+03
6.276152994941205179e+03
4.226111843026211318e+03
3.229505741071458942e+03
1.451004675099940641e+03
-7.845880015233855147e+02
-3.593527873724701294e+03
-4.214174089392109636e+03
-3.434633630712811737e+03
-3.697365149081566415e+03
-3.522790092647472648e+03
-2.557260847659016235e+03
-2.439280752202006624e+03
-2.179102895383183295e+03
-1.190047860347327969e+03
-2.190920349539396739e+03
-4.213299573538761251e+03
-6.750113073823285049e+03
-6.096333001568003056e+03
-5.111613901020313278e+03
-2.451924866698325616e+02
-2.349888656854759120e+03
-7.473417800054829058e+03
-7.466237527838864480e+03
-8.794062137641029040e+03
-9.770467736728838645e+03
-1.204399400128868001e+04
-1.379368940422545893e+04
-1.544746866612330996e+04
-1.481068418376933187e+04
-1.364987922736888140e+04
-1.332655021959592705e+04
-1.076965831913930742e+04
-6.873203409936875687e+03
-9.735777766235765739e+03
-9.074175880577919088e+03
-5.397632231990115542e+03
-1.861605876829233239e+03
9.838638159391153977e+02
6.398677306947856778e+03
6.673832994554044490e+03
1.706156410096290983e+03
4.020799903290308066e+03
4.957081234670419690e+03
7.817352832645581202e+02
6.082180522782816752e+02
1.228132042259250966e+03
2.231826622149220896e+02
-8.406048123926933613e+02
-1.561858072637302485e+03
-1.800708717488427510e+03
-1.247945795187246858e+03
-7.839410943903573070e+02
-2.623400876429138293e+02
1.137417226348850363e+03
3.378328643487040608e+03
5.925799036922200685e+03
8.135162713244975748e+03
9.155580797206794159e+03
9.449722779508190797e+03
8.691606085974857706e+03
8.434707293474326434e+03
8.345597525152532398e+03
6.458358188769367189e+03
4.091848896752137989e+03
2.435123684382954707e+03
8.677242504603144653e+02
-2.990424983921639068e+02
-7.840471386102208271e+02
6.693618071542827010e+02
1.794364421604911968e+03
1.736983418520376290e+03
2.806546812266038614e+03
4.603466865666978265e+03
6.402284850140028539e+03
7.480745735715764567e+03
7.902624600838145852e+03
8.506762326453379501e+03
9.168944432466108992e+03
9.045002708327994696e+03
8.855724830293913328e+03
7.761580286535774576e+03
6.268197413752360262e+03
4.950175762752252922e+03
4.126508891723053239e+03
2.874791833952162506e+03
9.568018118285300488e+02
-1.428526384671254618e+03
-5.806230788188989209e+03
-1.066995918270241964e+04
-7.211025523474763759e+03
-7.289414706397897135e+03
-5.054034113350800908e+03
-2.010131689521943144e+03
-8.054122386101638540e+02
-3.088935495460676975e+03
-3.467807223265966513e+03
-2.295031626331959615e+03
-7.308716064692828240e+02
1.255269959556781942e+03
2.803487856613453005e+03
2.595895728643379698e+03
7.994012537540892254e+02
-1.353168384367200133e+03
-2.939766773119306436e+03
-4.939439585185414217e+03
-6.101097663549254321e+03
-7.704834854638348588e+03
-9.769907255042870020e+03
-1.103719376217433637e+04
-1.127257752096654076e+04
-1.104628030191011749e+04
-1.053568552244298917e+04
-9.390665248983525089e+03
-7.775704310206333503e+03
-5.225709977995271402e+03
-2.912925593527461388e+03
-1.607347981207517932e+03
-5.138150556223865806e+02
6.227604001687761865e+02
1.047527278677625191e+03
1.515940102535665801e+02
-7.040297551015663657e+02
-2.302392913097760356e+03
-4.708646628611229971e+03
-6.633795885729357906e+03
-7.471725423906669675e+03
-7.895414018591208333e+03
-8.326986254267781987e+03
-9.622492982042844233e+03
-1.039588829168746088e+04
-9.059094074088166963e+03
-6.181097000388434935e+03
-3.933871189208571650e+03
-2.499370836857501672e+03
-1.351491803133972553e+03
-2.272184688787945674e+02
5.254841549163351146e+02
1.618776100317189503e+03
2.904712330482290781e+03
3.573346125761986514e+03
2.304682225884532727e+03
-2.193002905233153967e+02
-1.761358854445757970e+03
-2.154337260917816820e+03
-3.623965822190275503e+03
-5.629263319872964530e+03
-6.767260912446811744e+03
-6.303770114329548051e+03
-5.904857890582557047e+03
-6.414626801583016459e+03
-5.926799765762753850e+03
-5.245160060985303062e+03
-6.590681094984746778e+03
-8.594975766852450761e+03
-4.730821677790952890e+03
-1.295004968468572770e+03
9.029307094653045169e+02
1.848353113594866045e+03
1.728170528985206829e+03
1.762430019580539238e+03
6.842616205943737668e+02
-7.677738103466367647e+02
-8.897210174314487858e+02
-6.533475184734651293e+02
-7.658304962355739463e+02
-1.866590953583195414e+03
-4.238352019670438494e+03
-4.864554950024678874e+03
-4.024967801908040201e+03
-4.053254316870333241e+03
-3.846780009596444415e+03
-3.165926367877792472e+03
-6.872893781217829883e+02
1.606310506877369107e+03
2.727157517495988486e+03
3.605747597992100054e+03
5.144773640141780561e+03
6.164898856716056798e+03
5.487100289475414684e+03
4.688888670686807018e+03
3.975780504365936849e+03
2.544372765203051131e+03
9.934952306485811278e+02
-5.837995476606714647e+02
-1.279260249395051005e+03
-2.779903193950025525e+03
-4.740399114239594383e+03
-6.300872870639271241e+03
-6.143779588149609481e+03
-4.227032065376664832e+03
-1.991365075654048951e+03
1.615217377034169317e+02
1.529051056790317034e+03
2.544536149140101770e+03
3.784085575359063569e+03
4.919505794734453048e+03
5.533422316823876827e+03
6.611857698937837085e+03
6.878044669512254586e+03
6.481380148555726009e+03
6.546019702852650880e+03
6.124994334040574358e+03
4.863617076658785663e+03
3.491186859487148922e+03
1.827811642146661825e+03
4.416268627720756399e+02
-3.692589789933859379e+02
-9.707404939283492240e+02
-3.405925306144836213e+03
-6.782719867729192629e+03
-7.327082443127509578e+03
-6.208957933377577319e+03
-5.128225961759767415e+03
-3.769688341068407681e+03
-2.881123999687560172e+03
-1.937223907610230981e+03
3.247513237444177747e+00
2.142419228345758256e+03
4.086228550857260416e+03
5.394886783642263254e+03
7.060469723740440713e+03
5.989661883143070554e+03
5.624610993939364562e+03
8.908302048767149245e+03
1.075072568752227016e+04
9.218856719429464647e+03
4.226640629554679435e+03
7.770421559304805896e+02
8.396506848346690788e+01
-4.405563165687007654e+02
4.354497388790213677e+02
1.476947050729915190e+03
2.111848189355707291e+03
2.559174120640157071e+03
3.343075733296670478e+03
5.042869131204198311e+03
6.064434668599880752e+03
6.410575801733438311e+03
6.687188814069478212e+03
7.342165707421843763e+03
1.070551966059328515e+04
9.014140602143475917e+03
5.739767932504925739e+03
3.279259555262522554e+03
1.401375415566211814e+03
-6.817862180423627194e+01
7.664806705561355784e+02
4.636238145869947402e+03
3.907827527057503175e+03
1.379083458317338682e+03
1.010810299070319047e+03
3.934751893179874969e+03
4.230609117989849437e+03
3.334035076259659945e+03
4.616882841230503800e+03
5.160091029068540593e+03
7.091543932812579442e+03
7.959030242292406911e+03
7.701422747795923897e+03
7.087464815733324031e+03
6.227041212938624994e+03
5.489964123232434758e+03
4.004035382368803312e+03
2.432889885325021169e+03
6.321183383413774663e+02
-9.945918943648144932e+02
-2.027579417436310223e+03
-3.827063313428518086e+03
-5.621158147515288874e+03
-5.614168262491260975e+03
-4.301560970590349825e+03
-2.995460713460466650e+03
-1.333981824831744689e+03
4.300068613837273688e+02
9.791718381601332339e+02
7.203085574953005334e+02
1.056870018391618260e+03
1.968469138331712884e+03
2.142815883766662409e+03
2.514839650103527674e+03
2.034580954372116366e+03
2.252060643558214906e+03
1.268163330700960159e+03
-1.052360744655273038e+03
-4.438754821452653232e+03
-7.395470025975911994e+03
-7.555838995352743041e+03
-9.154919086004814744e+03
-1.116485579770168806e+04
-1.119824829839972517e+04
-9.764962944539043747e+03
-8.191201277011963612e+03
-6.792175249919103408e+03
-5.705837850665034239e+03
-4.377253091886954280e+03
-3.038647079622244291e+03
-1.576296537512495206e+03
-3.783813899495802957e+02
3.938090583768877764e+02
1.766531655692666391e+03
2.421173693956956413e+03
1.539400150163547551e+03
-2.941715740441109119e+02
-3.040493762186845743e+03
-5.276675916492315991e+03
-7.181749880635778027e+03
-8.563624210576128462e+03
-9.104468154150259579e+03
-8.940481856242908179e+03
-8.843711527049776123e+03
-8.317198912078301873e+03
-8.139044535652346894e+03
-8.255163481245437652e+03
-7.880391083727073237e+03
-7.805599171453929557e+03
-6.481584255633313660e+03
-3.471905818461731087e+03
-7.035013322010604497e+02
1.286418413840640824e+03
2.232865371150866395e+03
2.395935435541099650e+03
1.589731730686533183e+03
1.106367029979352537e+03
1.479048858338476862e+02
-1.056709829521321126e+03
-1.941648566021529177e+03
-2.612837504637123857e+03
-3.162032552264515743e+03
-4.107145333755673164e+03
-4.794146213772312876e+03
-5.257018619407785081e+03
-5.101603094887436782e+03
-4.257692220456925497e+03
-3.336131775705169275e+03
-2.435713265153830889e+03
-1.489165298912751723e+03
-2.013248507143608208e+02
1.657965165074452671e+03
4.135907568528352385e+03
4.683646058980179077e+03
2.316204198805796295e+03
-1.887237396333842071e+03
-3.665509163753252324e+03
-4.733551749903713244e+03
-5.680042643708262403e+03
-8.111830924388731546e+03
-7.701392443279497456e+03
-5.062944599344931703e+03
-8.101846252738662770e+03
-1.385809219841965387e+04
-1.040422248156744536e+04
-5.293841718419868812e+03
-2.510923893747696638e+03
1.828678134827431677e+03
4.630181493269264138e+03
7.304656206265935907e+03
9.332102451780539923e+03
1.069867696769786926e+04
1.154568550586726087e+04
1.229231213321007453e+04
1.345967637392713186e+04
1.414001698615635905e+04
1.369236975826677008e+04
1.185386890402931567e+04
1.022165399930652529e+04
9.071856294495546535e+03
7.014444749546211824e+03
4.359495186338830536e+03
3.362099430844936251e+03
2.652308591143028934e+03
1.913278349261857784e+03
1.012020423887979860e+03
5.945666761907464206e+02
1.752150714333505221e+03
2.898835704860728129e+03
4.063647217056236059e+03
5.535788742931936213e+03
6.866472315209650333e+03
8.466797981461313611e+03
8.986838246475661435e+03
8.257599159192826846e+03
6.765178235894454701e+03
5.233681609476692756e+03
4.482073443469169433e+03
3.015280989314057933e+03
1.387376770879676542e+03
1.803199708341900589e+02
-5.249843131697606395e+02
-6.306775676742494170e+02
4.822787122954085817e+02
2.107911788952641473e+03
3.452293521632462216e+03
4.284490275874548388e+03
4.802498735689908244e+03
5.721247183547809982e+03
7.337772113565526524e+03
7.720132148108128604e+03
