7.415521713260339993e+02
1.485161977226818635e+03
2.689852421196289924e+03
3.049666761673990095e+03
3.046772311734087452e+03
3.323195022412181061e+03
3.018007880036434926e+03
2.371241477920134912e+03
1.892831602398683344e+03
1.753721851526630644e+03
1.478902925702689345e+03
7.033168144218423095e+02
-1.931667084009928601e+02
-1.203645097077668879e+03
-1.137164144431265868e+03
-1.042692858814995816e+03
-9.221028983016954044e+02
-4.413886521171183404e+02
-2.246236376497956257e+02
3.611798285181170627e+02
1.086087943952155456e+03
1.362065865273751342e+03
1.749113825437426385e+03
1.644354111209950133e+03
1.871838408879984399e+03
6.346370350886085134e+02
-1.765164520586125263e+03
-5.291580615807120921e+03
-6.400721892925927023e+03
-6.848631543956818859e+03
-7.438374581990316074e+03
-5.327955356239675893e+03
-2.020354597814930457e+03
-1.819616927737856031e+03
-1.754830689078327623e+03
-2.785034350986379650e+03
-1.928259832426155526e+03
-7.702862959370337421e+02
1.636830560568204476e+02
7.526386251533683662e+02
1.275689012752368853e+03
2.166816943186967819e+03
2.899151577460548197e+03
3.379745901694418535e+03
3.415628725898402536e+03
3.468789070561719655e+03
3.359247882887638298e+03
3.099990741509433064e+03
2.483973371354286883e+03
1.899108330728392957e+03
1.209271638344990151e+03
7.184526723286190872e+02
-2.393798860887623334e+02
-1.046284576065942929e+03
-1.543310991265192570e+03
-1.912559048613962887e+03
-1.844021613759057800e+03
-1.757630210954192307e+03
-1.445372821573557076e+03
-1.371269910282473347e+03
-1.087278863756004512e+03
-8.033785680398869999e+02
-4.435199065067300808e+02
6.331884531872021427e+01
9.331709786275489478e+02
1.793993964490114649e+03
2.443718979647478591e+03
3.409304035306262904e+03
3.701592082040825517e+03
2.914485453981240425e+03
2.172001913232358220e+03
1.258235298874251839e+03
5.011730730573720507e+02
3.463590351011457358e+01
-1.484405765852288255e+02
-5.831277696113121465e+02
-9.014779029266181851e+02
-6.794968264190744094e+02
-3.702005917118790421e+02
-1.345462048086764923e+02
3.794898040562761707e+02
9.739026611391311690e+02
1.928701841580094651e+03
2.652878886584582233e+03
3.006444311718595600e+03
2.839255666715192547e+03
2.365359837909013095e+03
2.185773922845872676e+03
2.453407421106412585e+03
2.263224809925025511e+03
1.275158641924098902e+03
6.901294694908981455e+02
2.280561933157906935e+02
-4.515304168166517940e+01
-4.705708575577377246e+02
-5.212493140742061541e+02
-8.103049716173821935e+02
-9.117373149297303598e+02
-8.735369318061402737e+02
-1.621773731885100233e+03
-4.372185509677578921e+03
-5.346735820885279281e+03
-1.632707357320998653e+03
6.119720598575304393e+02
-8.146526270922073536e+02
6.127656459478301088e+01
3.247707244631378103e+02
1.610867052637797087e+03
-7.349892610512374347e+01
1.993650284861440696e+03
-1.636780819820172837e+03
-4.735847777313606457e+03
-2.632653968555444408e+03
-1.319275778112586750e+03
-3.955770386453175888e+03
-4.013190709182764749e+03
-4.995595262818253104e+03
-1.942006286243928344e+03
-3.209418005651154544e+03
-2.538871188258961411e+03
2.096650907817307541e+02
-3.877774318039187733e+02
-6.442160476653039041e+02
2.296314538352838099e+03
2.408794609626624606e+03
2.487204687544482113e+03
1.454510146739368793e+03
-4.543020421214207545e+02
1.885751789620568161e+03
6.575746241516404780e+02
-2.901914282793269649e+03
-3.266784331538198785e+03
-8.880954452353020088e+02
-3.512946715639254762e+03
-3.344411369178166296e+03
-5.227563202463324160e+03
-3.312504837166708057e+03
-1.069228771567414242e+03
-5.346625575803836909e+02
-1.708613614213188896e+02
1.722123718010862206e+02
9.655056700397889244e+02
1.495048050848073672e+03
2.207847759507309547e+03
2.450915567652501977e+03
2.254173823158894265e+03
2.265684375049094342e+03
1.983354010085864047e+03
1.437069920008729696e+03
1.114889587039263461e+03
6.337211872946081712e+02
3.084885931279109741e+02
-1.878452935943174111e+02
-9.523323356229764158e+02
-1.087032640827515252e+03
-1.624938452132639441e+03
-2.882952400438012319e+03
-4.074995440734672229e+03
-4.372244836675846273e+03
-3.986758524134460458e+03
-2.791580498316700869e+03
-1.144746209863535114e+03
7.206927073573965572e+02
2.064641224458746819e+03
5.600438441586189811e+02
1.053160739436489393e+03
1.830128335651926818e+03
3.017046141148533025e+03
2.876430026145807005e+03
2.584363313709128761e+03
1.824766021509246229e+03
9.973330683191687740e+02
2.622243516622192487e+02
-3.773432817732153808e+02
-1.094910125516629023e+03
-1.572188013213254862e+03
-1.597507205952406593e+03
-1.584817583046434265e+03
-1.350949071357394814e+03
-6.088014784614600785e+02
-9.479381786831761758e+01
5.406909749615309693e+02
1.178920755891623003e+03
1.949493817525731629e+03
2.675556514448522194e+03
2.658594088677018590e+03
2.467470314656472965e+03
1.931431045721686587e+03
1.458294812690298386e+03
1.081038820390309183e+03
7.875297609279765538e+02
1.309475425694855062e+02
-1.096340445494590199e+02
-5.463973392052545250e+02
-8.444489795329176332e+02
-1.023764953938460394e+03
-1.269363823414380022e+03
-9.943327650214541791e+02
-5.987394645252543341e+02
-2.285049375138670200e+02
2.944647841760992151e+02
9.972176296123409429e+02
1.853708439670653661e+03
1.959018352865175075e+03
2.114183698539114175e+03
2.531270926920260081e+03
2.491350044719684320e+03
2.008547584576108193e+03
1.420940407102889822e+03
1.317401980583772684e+03
7.317951081485477971e+02
4.111535387834646116e+01
-1.945901927389363948e+02
-7.162721031014089021e+02
-1.458962540020730785e+03
-1.930669793580354963e+03
-2.606401944659267429e+03
-3.830137424501861915e+03
-5.569846840048928243e+03
-7.781524963550749817e+03
-7.439074478570686551e+03
-6.972391845729291163e+03
-6.071505767096381533e+03
-5.374392580289209945e+03
-4.989988454938298673e+03
-5.116269503942492520e+03
-4.672132762116486447e+03
-4.126493658739253988e+03
-1.638218562825563140e+03
1.790796199767498820e+03
-6.627670008952911758e+02
-6.559828032803717178e+03
-8.057371169456378084e+03
-8.399367920152515580e+03
-8.893853681792528732e+03
-6.583780498274973070e+03
-3.705064270462100467e+03
-1.995669321563710810e+03
-1.352528247574694205e+03
-6.565269783615923416e+02
1.533685966846186659e+02
7.751589313284084710e+02
1.563923823354030219e+03
2.056680571154225163e+03
2.442492239593490922e+03
2.780386608778164373e+03
2.544463866539879291e+03
2.221884239304648418e+03
1.426709397953990674e+03
9.758490029350418808e+02
3.773876725160401975e+02
-5.346323282418036342e+02
-1.193225608226078293e+03
-1.796377365409332015e+03
-1.932972362695150423e+03
-1.970008573619830031e+03
-1.697367577669740740e+03
-1.305941714487440549e+03
-8.497949924132802835e+02
-5.628494160377074422e+02
3.679423087019047216e+02
6.676853384905433586e+02
1.268395622188847483e+03
1.812133358842674397e+03
1.777010888906089804e+03
1.669061295268401182e+03
2.045212559761649572e+03
2.142554053371948612e+03
2.126224305411364185e+03
2.221174348198768712e+03
1.425404786241707598e+03
2.429071748990900232e+02
-6.436972826465481035e+01
-1.434228426549302640e+02
-3.760147631055260717e+02
-6.610600315253246890e+02
-6.535927539050302357e+02
-7.266815584159960508e+02
-7.042995714688379394e+02
-2.603193018622392287e+02
-7.519873643498130811e+00
3.920341298053765513e+02
1.814404159161889766e+03
3.012418175333877571e+03
2.867093041242857453e+03
2.472636887099912201e+03
2.132329191322276984e+03
2.125188614971173592e+03
2.543869823063636431e+03
2.254378546800265667e+03
1.370829208433851818e+03
-4.705629702399586733e+01
-2.425029294934733116e+03
-2.305288961309747265e+03
-1.937126794137481966e+03
-2.812330149617345796e+03
-2.348870167951914482e+03
-2.304910227563616445e+03
-1.739411224914736295e+03
-9.270945137130667035e+02
-4.160379013338763912e+02
2.607536720824190866e+02
1.387317534013802742e+03
2.300552960567226819e+03
2.253414914892555316e+03
2.360922993753850278e+03
2.165104366168315210e+03
1.881009459835774123e+03
1.575849610580567060e+03
7.636996949303830888e+02
1.914836929290896137e+02
-7.168358651268787298e+02
-1.654349893330747136e+03
-2.302190003405598418e+03
-2.271321199826285010e+03
-2.260656432754972684e+03
-2.265095700832434432e+03
-2.015592629290131754e+03
-1.741316746116884133e+03
-1.453300470233660008e+03
-4.973189779678627929e+02
1.556701825072743475e+02
6.057125947861659370e+02
1.056093431780316450e+03
1.475164729509523795e+03
1.839258224341259165e+03
1.977855346622126490e+03
1.765462967378196481e+03
1.501158846620369104e+03
6.413254303972242951e+02
2.800183821990226107e+01
-7.525215142787986906e+02
-1.583239461597953778e+03
-2.307266289263694944e+03
-2.790637751874988680e+03
-2.957979985754152494e+03
-2.993537473757078715e+03
-2.937001205009927617e+03
-2.497500433819998761e+03
-2.237019149326091792e+03
-1.796800041428258510e+03
-1.096984938677180025e+03
-4.980843894466266306e+02
2.335459662909314886e+02
8.048613074895521322e+02
1.566981155951040364e+03
1.961941940648120635e+03
1.944894114006947120e+03
1.393248977069813236e+03
8.500572697950001384e+02
3.143739983226387835e+02
-2.660091762388937582e+02
-1.295347610785584720e+03
-2.295954405714467612e+03
-2.961347034976964551e+03
-4.476264733899314706e+03
-4.064670955253377542e+03
-3.476310379356611065e+03
-2.825708553177596514e+03
-1.937958031376598683e+03
-1.108205639835416150e+03
-6.826207623229710180e+02
-3.357518059117143139e+02
2.289355849704020329e+01
4.473732508447939153e+02
1.192067977814082951e+03
9.789762086371800933e+02
3.790644221920479708e+02
-2.553071602284989865e+02
-8.030487397158433396e+02
-1.351388392153176028e+03
-1.812044743682935859e+03
-2.814960587610252333e+03
-3.731354413949241462e+03
-4.622708760381696266e+03
-5.538225833397518727e+03
-5.634729550327573634e+03
-5.076279135663979105e+03
-4.358955187883994768e+03
-3.877955624607577647e+03
-3.541488079328074946e+03
-3.324986051632930867e+03
-3.228124000812450959e+03
-2.892796443814532267e+03
-2.673385333151154100e+03
-2.840478779210870925e+03
-3.152420123272634555e+03
-3.856423862028239455e+03
-4.709416616868498750e+03
-5.655402831478182634e+03
-6.587628438866799115e+03
-7.517418803078253404e+03
-8.774806176215939558e+03
-9.926620386777840395e+03
-1.085238653888701629e+04
-1.194749172509209529e+04
-1.270341491708255853e+04
-1.346621961713115888e+04
-1.336033579662795637e+04
-1.332189418193272286e+04
-1.331696578101510750e+04
-1.358234564697335009e+04
-1.272200591533026272e+04
-1.251508920010999827e+04
-1.321311566471660080e+04
-1.341113208695311914e+04
-1.394843987012455182e+04
-1.510990137525467799e+04
-1.632326480855405316e+04
-1.721885576070272873e+04
-1.829793871773326828e+04
-1.959798139932789854e+04
-2.057559587682920755e+04
-2.193902748622943545e+04
-2.304142496970020147e+04
-2.364194842438897467e+04
-2.418681815703563188e+04
-2.500872303616827048e+04
-2.608173523518818911e+04
-2.811862222549795842e+04
-3.096707681808698908e+04
-3.060802363303731545e+04
-2.863140132647143764e+04
-2.491607806591959161e+04
-2.660768791820002662e+04
-2.626979138073461945e+04
-2.537625379301801149e+04
-2.582165965512424009e+04
-2.853749227694387810e+04
-2.730166489963814820e+04
-3.037113797539054212e+04
-2.918390202810008122e+04
-3.181890572313775556e+04
-3.379675834710255003e+04
-3.325709044551986153e+04
-3.107334700440058441e+04
-3.139127153616536816e+04
-3.243691319358771580e+04
-3.487118971142174269e+04
-3.640588098376824928e+04
-3.341058556314702582e+04
-3.442117178086620697e+04
-3.834139898694719159e+04
-3.446813389754976379e+04
-3.109525718977492215e+04
-3.009370040788154438e+04
-3.141339797207215088e+04
-3.085633987941815576e+04
-2.971758700707252865e+04
-2.973827749068590492e+04
-3.021759842403468792e+04
-3.072077158659719134e+04
-3.121610105109061988e+04
-3.145990050126649294e+04
-3.176460601930206758e+04
-3.155871363530162853e+04
-3.153671547556838777e+04
-3.097428189972504333e+04
-3.067410791601625897e+04
-3.017600704408860474e+04
-2.947379112691353293e+04
-2.862223568067625092e+04
-2.719038425138573075e+04
-2.474521945091099406e+04
-2.116868056623824305e+04
-1.900889115684713761e+04
-1.884914886315010517e+04
-1.919381713715562728e+04
-1.917430937126871140e+04
-1.815109541053316570e+04
-1.689370137955881364e+04
-1.572679763854781777e+04
-1.426523489919883832e+04
-1.272093559490889857e+04
-1.171282719732213263e+04
-1.093403026150288497e+04
-9.870777041710591220e+03
-7.338420939880427795e+03
-5.392000291607697363e+03
-3.956877841329291186e+03
-2.426602069769415721e+03
-1.218742115695211396e+03
6.910032140064818122e+02
3.000891664449507061e+03
5.829029340778401092e+03
8.944397032837930965e+03
1.028616703539248374e+04
1.208683477154445063e+04
1.422677688969528754e+04
1.627627757654870584e+04
1.697060348117678222e+04
1.782835105258459589e+04
1.937726601738056706e+04
2.050984066911169430e+04
2.165535809569514458e+04
2.402027354269861098e+04
2.616871057834682142e+04
2.772481597807489743e+04
2.952272017331287861e+04
3.072040313889150275e+04
3.182796361266472377e+04
3.281932910987322975e+04
3.423429005611725006e+04
3.677574297477545042e+04
3.992964849701193452e+04
4.157696158798801480e+04
4.337826472774224385e+04
4.462020462305709225e+04
4.463549652626851457e+04
4.447476416163229442e+04
4.548180370560540177e+04
4.608954643305302307e+04
4.700262406099832879e+04
4.866461357662191585e+04
4.943133081921896519e+04
5.126254175539913558e+04
5.247902141993468103e+04
5.414258672993066284e+04
5.582108532239258784e+04
5.716523833515568549e+04
5.901480877467662503e+04
6.095060557550357771e+04
6.175632747369374556e+04
6.299874566143420816e+04
6.506273814175635925e+04
6.581228609109790705e+04
6.559933193646982545e+04
6.555591536461276701e+04
6.409316452454413957e+04
6.161511431124187948e+04
6.175290502288976131e+04
6.238572911406715866e+04
6.268491947646965855e+04
6.189384120770814479e+04
6.040893083604002459e+04
6.014279278808924573e+04
6.214901603212333430e+04
6.388323178512955928e+04
6.495919297257209837e+04
6.173572041461917979e+04
5.545082718612326426e+04
5.233270173675959813e+04
5.290449739860908448e+04
5.365446362469668384e+04
5.298398563641520741e+04
5.458249346423946554e+04
5.556252924746167264e+04
5.291889869336293486e+04
5.212347193068346678e+04
5.072938494984499994e+04
4.574742859298157418e+04
4.299858857495584380e+04
4.025961744638853270e+04
3.499167241216217371e+04
3.000823425179858532e+04
2.841084441022585816e+04
2.583824872641887850e+04
2.280632568323748274e+04
2.033106339051515170e+04
1.637073849950065778e+04
1.132274075165640534e+04
5.548620395282469872e+03
-6.150147893648063473e+02
-7.063373398148298293e+03
-1.108360597631652672e+04
-1.470162714594959652e+04
-1.929524794154525443e+04
-2.427027079206645794e+04
-3.061822397849236950e+04
-3.886945030848609895e+04
-4.751633019362342748e+04
-5.560211636783557333e+04
-6.326777696872038359e+04
-7.063021450539711805e+04
-8.097123175169809838e+04
-9.304949538803414907e+04
-1.034584956216917199e+05
-1.140516427142117609e+05
-1.251991235944748041e+05
-1.337690522331329994e+05
-1.373223640720493859e+05
-1.357468738863570616e+05
-1.407093761241193861e+05
-1.526135512452098774e+05
-1.653548158928327612e+05
-1.742765132529886323e+05
-1.830399101651198871e+05
-1.877412118230080814e+05
-1.919085299274783174e+05
-1.966647229014192417e+05
-2.003586521535819338e+05
-1.969330546064725495e+05
-1.934405352417693939e+05
-1.959187519153628964e+05
-1.979502577873126429e+05
-1.967774712834069505e+05
-1.958287051131709304e+05
-1.938382654091766162e+05
-1.961734146449361579e+05
-2.016753974235448113e+05
-2.059753432331678341e+05
-2.059423062616261304e+05
-2.024683049433607375e+05
-1.933032256372270640e+05
-1.862189600609115150e+05
-1.873362846956393332e+05
-1.840979383122959698e+05
-1.645686640051210125e+05
-1.384871671191777568e+05
-1.051690721425887168e+05
-6.468204850289102615e+04
-1.782182517643608662e+04
3.320605561002675677e+04
7.660985488211757911e+04
1.030768672066787112e+05
1.183103072045042063e+05
1.262574042778361909e+05
1.357564495542842778e+05
1.482356916555772768e+05
1.619993164932520885e+05
1.728274741934403719e+05
1.795522632475767750e+05
1.829237737587086158e+05
1.848311820328229514e+05
1.819725012528079387e+05
1.748316296264386910e+05
1.655933965426927607e+05
1.563906301096448442e+05
1.508231296450312948e+05
1.417206095268875652e+05
1.298436397545391083e+05
1.231726929310524574e+05
1.204901536255825340e+05
1.198742531772129441e+05
1.147621143747446913e+05
1.053807436648665753e+05
9.361812448020691227e+04
8.280003503254149109e+04
7.189918051954815746e+04
5.568115854450743063e+04
3.953442497486923821e+04
2.628634732993693979e+04
1.098117797709178376e+04
-5.124997591100751379e+03
-1.204013523428433109e+04
-8.211382494921501348e+03
-3.634032303754341683e+03
-5.820603491139633661e+03
-3.561805825346630172e+03
-7.224607605790612297e+02
3.609527447349956219e+03
8.972052782747849051e+03
1.541889202569019290e+04
2.922165437144749012e+04
4.748873083943416714e+04
6.011530696475326113e+04
6.645248671270660998e+04
6.751131254280803842e+04
7.338667069337572320e+04
8.337615222237247508e+04
9.222521769558791129e+04
1.062462223872657778e+05
1.235313127109681955e+05
1.360865513798145112e+05
1.442598754846031661e+05
1.523109885398441693e+05
1.606433670924200269e+05
1.671434630466244998e+05
1.676695203838090820e+05
1.649855700796669116e+05
1.600255762670495606e+05
1.526982935041911260e+05
1.410433399166662130e+05
1.316381286603115441e+05
1.189278637405355839e+05
1.059176004685528314e+05
9.240039453453199530e+04
8.612749403139643255e+04
7.952331755263457308e+04
7.171925716484749864e+04
6.590046946621457755e+04
6.148767487974288088e+04
5.542793485730286193e+04
5.085528049884753273e+04
5.007562527610547113e+04
4.808429038497083093e+04
4.388862898079378647e+04
3.622756658792186499e+04
2.511019232207162713e+04
1.492326371391469911e+04
5.322118948311612257e+03
-3.840667519901599007e+02
-4.807577001037990158e+03
-1.267337952070104620e+04
-2.246462709816495772e+04
-3.259607068211868318e+04
-4.003589714944083244e+04
-4.782888082486189523e+04
-5.503000688554771477e+04
-6.213267327182352165e+04
-6.915188234546143212e+04
-7.591411544198310003e+04
-8.181068742230001953e+04
-8.683909839318327431e+04
-9.175625746304000495e+04
-9.614475007188705786e+04
-1.005850057191645319e+05
-1.045419941721175419e+05
-1.083515480744225497e+05
-1.115644177280123695e+05
-1.142822840409196797e+05
-1.167919325066416059e+05
-1.182821979754479689e+05
-1.199838605640828318e+05
-1.213436984876588103e+05
-1.230674962023632979e+05
-1.254280608228458004e+05
-1.262921208757693530e+05
-1.278823505057041766e+05
-1.293544468039538478e+05
-1.291051558627641352e+05
-1.279552876163256587e+05
-1.263672973155269428e+05
-1.251715072084136045e+05
-1.237423153632209287e+05
-1.209890197095875192e+05
-1.169929282619938458e+05
-1.123163432309652562e+05
-1.076354390862076398e+05
-1.033272377016161918e+05
-9.886388516236194118e+04
-9.595138759626801766e+04
-9.558855820615330595e+04
-9.532926578712383343e+04
-9.172530226883142313e+04
-8.690716475395292218e+04
-8.273742209758283570e+04
-7.871054024923680117e+04
-7.593961743018115521e+04
-7.300399605132461875e+04
-7.136229592200646584e+04
-6.967841941796365427e+04
-6.468418981819247711e+04
-5.805923724830425635e+04
-4.850228335953960050e+04
-4.093390898529002880e+04
-3.797365389149064868e+04
-3.641983163911820884e+04
-2.963968760107754133e+04
-2.083433333443246738e+04
-1.357474994185168907e+04
-5.022824536782348332e+03
2.392550417153462149e+03
9.685745318115701593e+03
1.710123282293857847e+04
2.369859836657257983e+04
3.124057970510644736e+04
3.840397711077457643e+04
4.381272775473438378e+04
4.847789651925020007e+04
5.421250232633777341e+04
6.132165973443601251e+04
6.618085096898504707e+04
6.901258987766508653e+04
7.038253468523286574e+04
6.950053948931381456e+04
6.835747578770379187e+04
6.967923537976830266e+04
6.964797600737122411e+04
6.749087299385985534e+04
6.602414504159281205e+04
6.471026690587375924e+04
6.341762189805902744e+04
6.370389084709333110e+04
6.491164543729693833e+04
6.629754516913784028e+04
6.793341900729856570e+04
6.959510725892956543e+04
6.980263781380097498e+04
6.948734342978199129e+04
6.875548129172697372e+04
6.861125370154136908e+04
6.833611701627011644e+04
6.741860310330255015e+04
6.666519378859651624e+04
6.552258782379457989e+04
6.404363525997690158e+04
6.159392539869520988e+04
5.910724999969522469e+04
5.649050911646187888e+04
5.331474021350398834e+04
5.099700351462347317e+04
4.886816830379336898e+04
4.573106762646594143e+04
4.219876571746340051e+04
3.902338806029512489e+04
3.647444863847062516e+04
3.439842948097402405e+04
3.198539424676505587e+04
2.938156462733828448e+04
2.738133316166449004e+04
2.547311315903688228e+04
2.237008547183892006e+04
1.987975576403654850e+04
1.734135849385113761e+04
1.623412759538899445e+04
1.434471772361586409e+04
1.034478067121800450e+04
1.123948632003573766e+04
1.083724144655946657e+04
9.768650047991852261e+03
7.911146135607181350e+03
5.901856595756928982e+03
3.041185587095115352e+03
-7.934636269394139845e+02
-3.230843081735015858e+03
-4.937578965803493702e+03
-6.398318922404500881e+03
-7.573778915486158439e+03
-8.262734996213939667e+03
-9.328970235012331614e+03
-9.395473688788913933e+03
-9.325219908948240118e+03
-1.018913080971362615e+04
-1.095117434886458796e+04
-1.059128815844739438e+04
-1.096432010418552818e+04
-1.185027469432440012e+04
-1.193426149154384802e+04
-1.202551177478396130e+04
-1.231322428632071205e+04
-1.305943741103105094e+04
-1.377727813570900798e+04
-1.437821298765583924e+04
-1.452057255023430116e+04
-1.485672928807550670e+04
-1.447839259626932653e+04
-1.326763766975311955e+04
-1.251971764808552507e+04
-1.270101194071426653e+04
-1.215873082299135422e+04
-1.099855776161878384e+04
-1.027866326367573856e+04
-9.910978561232401262e+03
-1.065082434464657672e+04
-1.050637678488537313e+04
-1.053686239161732192e+04
-1.016665447946532913e+04
-8.516736325464054971e+03
-7.435670574101523925e+03
-6.814528696309612315e+03
-5.594919016383131748e+03
-3.790806727821744971e+03
-1.794946864070717993e+03
2.367785309618827796e+02
1.228851302830584928e+03
1.941671966597401934e+03
2.221323682276019099e+03
2.094554866815642981e+03
2.008968453173219586e+03
1.079883420266478197e+03
-1.047738555127275077e+02
-1.022670677087778699e+03
-2.088450992318772023e+03
-3.216874589929594094e+03
-4.057277054137303367e+03
-4.911288076091817857e+03
-6.392653804852761823e+03
-7.432103489482074110e+03
-7.431358806843572893e+03
-7.181144174733602085e+03
-7.720006411854167709e+03
-8.587960612683426007e+03
-8.979227170316065894e+03
-9.468628632060459495e+03
-1.025813773483948899e+04
-1.134667917452700385e+04
-1.291583395751932949e+04
-1.421406683257357690e+04
-1.470589710682422992e+04
-1.528383496198518515e+04
-1.643399681246002001e+04
-1.823359292913856189e+04
-1.995286102972496883e+04
-2.077648976671695709e+04
-2.130954213065985823e+04
-2.169801668423014780e+04
-2.207816507030373032e+04
-2.242997733442575191e+04
-2.248143243362818976e+04
-2.221450192395694103e+04
-2.214758360625203204e+04
-2.153706243157691642e+04
-2.153933363228766757e+04
-2.171204767258806532e+04
-2.196279758515476351e+04
-2.215853091293169928e+04
-2.210808782415046880e+04
-2.190873863849500776e+04
-2.181878650605819712e+04
-2.083326955719284524e+04
-1.925763910590247542e+04
-1.692898415053423741e+04
-1.470116578712711089e+04
-1.325638423050277561e+04
-1.270582319782568629e+04
-1.184467986528298752e+04
-1.111320383348529685e+04
-1.044548357380976995e+04
-9.420656911299580315e+03
-9.181362351538846269e+03
-9.530027815181312690e+03
-1.046235706074807604e+04
-1.068592390253063240e+04
-1.024613184919062951e+04
-9.192128085780641413e+03
-8.861109838326483441e+03
-9.170994429966322059e+03
-9.465256868510992717e+03
-9.535202368209165797e+03
-9.261402229332859861e+03
-9.057283819834801761e+03
-9.464578402451868897e+03
-9.231059944026676021e+03
-8.997282910763760810e+03
-8.942404843875721781e+03
-8.622742942661190682e+03
-8.041554707341936592e+03
-6.473970548211981622e+03
-4.836884410730724994e+03
-4.407742980370278019e+03
-5.628566873399587166e+03
-7.865374590760170577e+03
-6.564352553848261778e+03
-5.858322074368345056e+03
-5.387434475194401784e+03
-6.093758307245214382e+03
-6.860512434106390174e+03
-7.529151445355571013e+03
-7.984830503195827987e+03
-1.042473696493363059e+04
-9.296190432287381554e+03
-8.721190842884812810e+03
-8.306794435004525440e+03
-9.038656504392040006e+03
-9.076506446587547543e+03
-8.259520415608700205e+03
-4.681031872037572612e+03
-3.304530545822426575e+03
-3.742139161048121878e+03
-6.519529843930457901e+03
-6.325394559485544960e+03
-5.042640397995479361e+03
-4.992519973813558863e+03
-3.658986015927372137e+03
-5.654927478768590845e+03
-7.043405765249464821e+03
-7.638647071223386774e+03
-6.667784717321476819e+03
-6.442741748741133051e+03
-7.929356908755145014e+03
-7.501468632623348640e+03
-3.952146266257045681e+03
-3.418417678300790158e+03
-4.080890880388114965e+03
-4.851132837515522624e+03
-4.284937174497316846e+03
-3.791010690746511045e+03
-3.399093426665934203e+03
-3.155128688312158829e+03
-2.330900082892727823e+03
-1.936111734875202728e+03
-2.197328091805673921e+03
-2.433121907113273664e+03
-2.258132772877028401e+03
-1.762061725535535516e+03
-1.380518201173377520e+03
-2.254276910088543445e+03
-3.186184920616341515e+03
-4.166080144253981416e+03
-5.786696069688870921e+03
-6.629721331591837952e+03
-6.565937671208955180e+03
-6.890096701825050332e+03
-7.194967538177050301e+03
-5.803170455483541446e+03
-5.334441446603822442e+03
-5.940687817191180329e+03
-6.065527856214845997e+03
-7.041284976551510226e+03
-7.661355056874106594e+03
-7.034672537665464006e+03
-7.311121482596170608e+03
-8.028187283570596264e+03
-5.843337415698688346e+03
-3.728808670932909536e+03
-7.515276054745312649e+03
-9.674151165343917455e+03
-1.029174282828742253e+04
-1.026269313729638816e+04
-1.001010987780947653e+04
-9.050201237582406975e+03
-8.688049878798776263e+03
-9.122835367556246638e+03
-9.724960773802038602e+03
-9.545236053056472883e+03
-9.378560605800181293e+03
-9.141523518322906966e+03
-9.061656496180086833e+03
-8.552678755766524773e+03
-8.286324185812625728e+03
-7.517289057609696101e+03
-6.616180367838452185e+03
-5.883573909192077735e+03
-5.147899939020347119e+03
-3.583563834338975539e+03
-2.302130016082187012e+03
-2.029134550216438583e+03
-1.928294824292263684e+03
-1.583908193460436678e+03
-1.355247816619771584e+03
-1.083623357473166152e+03
-1.142238958850154631e+03
-1.252497217247012713e+03
-7.819726491476428691e+02
-7.205950243229530372e+01
7.138074901635167180e+02
1.950114015798588071e+03
3.209632307660185688e+03
5.577084303113927490e+03
7.541888149827846064e+03
8.454434220388278845e+03
8.679246878922664109e+03
7.821827609176864826e+03
6.618582396741836419e+03
6.637063688710571114e+03
7.595933631986039472e+03
8.413817732453588178e+03
9.123165430373752315e+03
9.762584481400997902e+03
9.693829004134506249e+03
8.875479007704472679e+03
8.444973383646534785e+03
8.162758873015465724e+03
8.216313973924869060e+03
8.534989673809261149e+03
9.350281901992835628e+03
1.059570383937462975e+04
1.116757620453802883e+04
1.141412057280917361e+04
1.140875433393215462e+04
1.081086155880359183e+04
9.713743372396382256e+03
7.334589455328303302e+03
3.870487489457932497e+03
2.601890262632100075e+03
2.928271749241687303e+03
3.320807205961874843e+03
4.497633733806930650e+03
8.241916689652620335e+03
7.069794273589892327e+03
5.411837094292680376e+03
6.662172337514435640e+03
7.582935834092856567e+03
7.495518282972193447e+03
7.474611814847353344e+03
7.287421074402767772e+03
7.451976841075740595e+03
7.885275540814303895e+03
8.372313072471257328e+03
9.585385760291263068e+03
1.096773695418532407e+04
1.231740916346123959e+04
1.379236458711764135e+04
1.502260418129022764e+04
1.576311041345354352e+04
1.631385704219340005e+04
1.758189202753936843e+04
1.868213618493576359e+04
1.927658390476096974e+04
1.964438700442065237e+04
1.942248674284556182e+04
1.935074700363960437e+04
1.927813086898285474e+04
1.954161096038587493e+04
1.921311962548252632e+04
1.937159341986212894e+04
1.917693915194808142e+04
1.878007575485058260e+04
1.788882817065333802e+04
1.735205063897080618e+04
1.702767263137224290e+04
1.682862590130904209e+04
1.625470397761690219e+04
1.511178743904906514e+04
1.337485142598144921e+04
1.174886958453810621e+04
1.005763514468728681e+04
7.851957566632767339e+03
5.858808635370982302e+03
4.454100286495311593e+03
3.516865841787403497e+03
2.057004665237051086e+03
6.265688330447067074e+02
-6.865176591130191355e+02
-1.798458755574692077e+03
-2.387331160748595721e+03
-2.831190722076110887e+03
-3.781154038416736967e+03
-4.944364176570941709e+03
-5.873953648514070665e+03
-6.990131287817719567e+03
-8.546906995419380110e+03
-9.824301763667015621e+03
-1.044343905139281560e+04
-1.144136277329649056e+04
-1.244702998078050405e+04
-1.220630402155595220e+04
-1.227507140023737520e+04
-1.265222194724628935e+04
-1.243962626084701333e+04
-1.240811918611592046e+04
-1.367759499425974536e+04
-1.594602822975308845e+04
-1.790919106340980579e+04
-2.016908672421373558e+04
-2.207570755261844533e+04
-2.042899313983377215e+04
-1.857684023220188465e+04
-1.746120170923547266e+04
-1.657711539999835804e+04
-1.556453065938965301e+04
-1.469633270410106888e+04
-1.378442796232169894e+04
-1.325769241633830461e+04
-1.405094095632428980e+04
-1.472306519520322581e+04
-1.388495388200879643e+04
-1.298940995969692813e+04
-1.055612949888782168e+04
-1.032292127981979138e+04
-1.349864281739379294e+04
-1.333711979933484326e+04
-1.238114425814956667e+04
-1.148053033671609046e+04
-1.024813274008016924e+04
-9.570807121563559122e+03
-8.882387054325790814e+03
-8.887630240717302513e+03
-8.596502859310348867e+03
-7.889834358770841391e+03
-6.655500257161895206e+03
-1.831462967763398865e+03
7.835417208007967815e+01
-4.286915082722670377e+03
-7.959088036254058352e+03
-5.657976167787371196e+03
-3.570468220291013495e+03
-6.320445429863041682e+03
-6.999805451116419135e+03
-4.824391395069984355e+03
-9.699977094511492623e+02
1.133642339216424034e+03
1.449727968487916087e+03
1.540412350811523083e+03
8.257693826674837965e+02
-5.017952405600156141e+01
1.847361173910641128e+02
4.706421855273791834e+02
-1.063550118029138645e+02
-1.391705430167576765e+02
8.452620865213757497e+02
2.704906605229799879e+03
3.955826972222862878e+03
3.714036403564849024e+03
2.752552452356170761e+03
1.881339972608452172e+03
1.878546158991904122e+03
2.360328234986193365e+03
2.966866273628646923e+03
3.949253143557184558e+03
4.988518247879191222e+03
5.202692820117275005e+03
5.168781725636409647e+03
5.602751136664988735e+03
6.618434692417762562e+03
7.237719664299756914e+03
6.863603024970907427e+03
7.922169867801643704e+03
7.797421143880958880e+03
6.463053432967307344e+03
5.544550564696985020e+03
4.896769569830306864e+03
5.910898909058856589e+03
5.190716020456650767e+03
2.816062831536848989e+03
1.113665639806944000e+03
1.506559520138676135e+03
3.707256015047939854e+03
5.496605782223061397e+03
