-2.722692857076350720e+03
-2.882104477855156347e+03
-2.826069124696536164e+03
-2.365597326957339646e+03
-2.247643302810156001e+03
-1.819111830090936337e+03
-1.707991267252122952e+03
-1.403244141204029347e+03
9.020678399187096375e+02
-8.902323882473498884e+01
-3.754581606265058326e+03
-4.854601779833536966e+03
-5.261054258394339740e+03
-2.667959913769005198e+03
-4.822083971494113541e+01
1.372284720818339338e+03
2.065634703103401534e+03
2.591862271536261233e+03
3.005009513213794889e+03
3.590086051341586426e+03
3.708149970191374905e+03
3.841147969221214680e+03
4.181077000787986435e+03
4.624955381213296278e+03
5.400868284282772038e+03
5.214826392990150453e+03
4.625796180372087292e+03
4.105806479668833163e+03
3.529868416929176874e+03
2.387047673102521912e+03
1.558340506048714133e+03
1.846759552300618680e+03
2.527320283807088799e+03
2.537003707740383106e+03
2.189860830526210066e+03
1.831957939481511630e+03
2.031349936215900243e+03
1.909119084719427292e+03
1.843323803939108757e+03
1.794156816449824419e+03
1.549739580834564094e+03
1.427059994861236646e+03
1.560133246531939449e+03
1.651945227420342007e+03
1.552503254572960259e+03
1.135864702149736786e+03
1.118890021346336880e+03
1.356536083466728542e+03
1.282924008673231356e+03
6.790802905200307293e+01
-3.558319673166814027e+03
-3.528646538011978919e+03
-2.253199577737466370e+03
-1.437949657538872316e+03
-4.269417949713538292e+02
5.958847878453303792e+02
1.152433539859968960e+03
1.429796975047686374e+03
1.471098964800613203e+03
1.412302992965935573e+03
1.198333063431938399e+03
1.237297590980147334e+03
1.101174194765718767e+03
7.069130207664848058e+02
4.733234109989120384e+02
8.026155852653217835e+02
1.027789340994274198e+03
6.184681046066571071e+02
3.536925818865086057e+02
8.714538304021917838e+02
4.437654124098722832e+02
-4.834270829574068102e+02
-1.403162490425335363e+03
-1.499470579619652199e+03
-5.943233154667552753e+02
-2.306992641730265916e+02
1.174107698024926663e+02
2.729968028640748798e+02
-6.889305041190384600e+02
-1.218382152309662843e+03
-1.247388741530848165e+03
-1.267946923151974715e+03
-1.471039277563341557e+03
-1.071678649554507501e+03
-3.238601404393850771e+02
6.564751962322300187e+02
1.588251788608203697e+03
2.290489332454278610e+03
1.953071840474480723e+03
1.225876660244079631e+03
3.879220436087858275e+02
-3.968545223663600154e+02
-8.744753425610548447e+02
-1.366000323263831888e+03
-1.419443360777187763e+03
-1.227719784240161289e+03
-7.468290398832330084e+02
-2.797539148883751068e+02
2.214991043641766169e+02
9.969000630070210036e+02
1.150443334692996586e+03
1.009046395469833897e+03
1.344680574844450121e+03
1.534324402867878689e+03
1.496994766375175004e+03
1.341692965863011977e+03
1.265365626358826148e+03
7.070281975453394807e+02
-1.429280987468265039e+03
-4.502598921136037461e+03
-7.771915279969576659e+03
-8.105310129556140964e+03
-8.378855031873572443e+03
-8.464643672537531529e+03
-7.935759891493122268e+03
-7.074106988519622973e+03
-2.822568754293349230e+03
5.278137499353913142e+01
1.598932493196543874e+03
2.779809452670494466e+03
2.896422829537834787e+03
2.735828050123150206e+03
2.493923318327751076e+03
2.852680802197352477e+03
3.007094159537723499e+03
2.538069575247488046e+03
1.700567791930798876e+03
1.480659566674467897e+03
9.143835666352619000e+02
2.716965064689576366e+02
-2.793715724721666902e+02
-7.088831652431653083e+02
-1.202879341148314552e+03
-1.609337361083392352e+03
-1.438281929215079799e+03
-1.300705053967096319e+03
-7.935151560716274162e+02
7.092705297162942770e+02
1.610675680100192949e+03
1.035653116949481500e+03
7.432007179870626032e+02
8.742915586709364106e+02
7.359236591917783699e+02
6.220286959867678434e+02
6.746446858167208802e+02
1.376834519605471769e+03
1.435647152875222901e+03
8.720902404703874709e+02
9.201335799504605575e+02
4.556698790217984651e+02
-5.483351330494723470e+02
-1.162951826315100107e+03
-1.300162964001328191e+03
-1.377962563322802907e+03
-6.803306416046683580e+02
9.284170793339046668e+01
5.526271658557218416e+02
1.481972527180728775e+03
1.940948122368126178e+03
1.726618409083288952e+03
1.548007405190393456e+03
1.742091973662096052e+03
2.149895034312815369e+03
2.737438489513943750e+03
2.886789606358378023e+03
2.485934814250053932e+03
2.171886757673410102e+03
1.640598146415424026e+03
9.009824071247719530e+02
-3.518926077685102314e+02
-1.183005398127038234e+03
-1.700367917447155151e+03
-2.052963340231289294e+03
-2.059792116632438137e+03
-1.677812642994564158e+03
-6.590422943606174613e+02
-3.314357871370672797e+02
4.490194822793158664e+02
3.754864475248346025e+02
-2.529969180046351994e+03
-1.401365925253143587e+03
2.468235983653726635e+03
2.586805943836808183e+03
2.212858071993071860e+02
2.497360113789068805e+02
1.155218254770743442e+03
-1.717129760788093108e+03
-8.563155262678362760e+02
-1.933427424137528305e+03
-3.729524674143279753e+03
-4.972537858550884266e+03
-3.812462713481604169e+03
-5.000290770896682261e+03
-2.226015180861192675e+03
-3.385582574177981314e+03
-2.684948831912049172e+03
-1.581951446976169109e+02
-9.303075830909064052e+02
1.563787229225926467e+03
1.608255662508349360e+03
1.350271836799350694e+03
-1.021326551264213549e+03
-1.727687782612269302e+03
-1.210796457167004746e+03
1.420325302763674017e+03
-6.972979681979851421e+02
1.913848988059017131e+02
-9.476226535032949414e+02
-2.131997211850556084e+02
-9.021799838085109968e+01
8.442745085408287196e+02
-9.248676870517737143e+02
-1.106632032900986815e+03
-1.035117252902991368e+03
-2.652427709779095949e+03
-8.445375536754453094e+01
-1.425218229737295587e+03
4.142682617823688247e+02
-6.788975013396087661e+02
1.641342017767687821e+03
2.280010506614638416e+03
2.428957598189081637e+03
2.129021777221756111e+03
1.970237649556805309e+03
1.875745942947281719e+03
1.155654605650340500e+03
9.280760814454068850e+02
9.471216284603265194e+02
5.478280293181212528e+02
1.102487729929658968e+02
-2.785285680711799046e+02
-4.798540145393354237e+02
-7.556524316593199728e+02
-5.279285385335371075e+02
1.499120110496258818e+01
3.769698093756099411e+02
9.830648428367054521e+02
1.518401080104410994e+03
1.474188083626220759e+03
1.444374781470511380e+03
1.211615210602752995e+03
1.679586682245627117e+03
1.514834738728289722e+03
1.672524859883884801e+03
1.923559924722451797e+03
2.583579558467063180e+03
2.725617913993626189e+03
2.114658624632651936e+03
1.633316928792613226e+03
6.930245147624465289e+02
5.943626130863734858e+01
-5.797726040443615148e+02
-8.571215811799658013e+02
-4.564556515971265185e+02
-1.520979937440086474e+02
5.068343487561398319e+01
4.521487870471526662e+02
7.223657716348388931e+02
9.610895974415258252e+02
1.159445553136771878e+03
1.203393944002180660e+03
1.508269864793459192e+03
2.080768788765553381e+03
2.616935262682208759e+03
2.448470864437184900e+03
2.504222834051544396e+03
2.213299650674629447e+03
2.077265520334842677e+03
1.639716355934896455e+03
6.806390686687448124e+02
-1.039548472374284103e+02
-4.372000750375042344e+02
-7.033399807667021832e+02
-5.942370893999768668e+02
-1.381283920477930849e+02
2.779989262180160381e+02
9.151716058619241494e+02
1.209468913995795674e+03
1.497927864876540752e+03
1.780457257516216259e+03
2.244033893278763571e+03
2.662576931955776672e+03
2.698169242394811590e+03
2.658850247122037672e+03
2.706590171095816459e+03
2.708366326167402349e+03
2.507147561051883258e+03
2.518815171554983408e+03
2.100228040264777519e+03
1.326352592993054486e+03
6.782837126785447026e+02
1.000280458147328773e+02
-3.554527139125123654e+02
-1.421302989241972227e+03
-3.469517364759257362e+03
-5.799041233478332288e+03
-5.920783848617856165e+03
-5.536502196843963247e+03
-4.882249445438488692e+03
-4.410055290927461101e+03
-4.334854685359203359e+03
-2.182616977074732404e+03
2.199689478131485430e+03
2.231971936538310729e+03
-1.512780188874089163e+03
-3.333428054313641951e+03
-3.788907873319515147e+03
-3.757133340640370534e+03
-4.738349288284229260e+03
-5.344699536884604640e+03
-5.896211044702233266e+03
-4.374905795935822425e+03
-3.656810441556791375e+03
-6.419775471080609350e+03
-6.429804803975542200e+03
-6.062958441837228747e+03
-5.990199011774241626e+03
-5.296487756939097380e+03
-4.664812829720839545e+03
-4.220029186105683038e+03
-3.432093265889555823e+03
3.850467335106053497e+02
3.374364810296694941e+03
4.332774116391828102e+03
4.305299474510738946e+03
3.780991071092218590e+03
3.726822787896286172e+03
3.186848818449628197e+03
2.717163075559971276e+03
2.158739669363672419e+03
1.412569406718914706e+03
6.935319878359340464e+02
4.636369809681623906e+02
3.987050287332272802e+01
2.241725373082036299e+02
7.736308184526126297e+02
9.843046081564957603e+02
1.181226908603568518e+03
1.980404639302802252e+03
2.210890084729657246e+03
2.437639481690420780e+03
3.001625841974935611e+03
3.072813707558450460e+03
3.321178494256645081e+03
3.209726852675245937e+03
2.758545112057707229e+03
3.018710997388384385e+03
2.907286654521041783e+03
2.378331174480576010e+03
1.600831151736932725e+03
6.418506073731820152e+02
-1.054731661009915378e+01
-5.333727099754738674e+02
-7.806553154882517447e+02
-6.433565577310541812e+02
-2.814494780310471356e+02
3.291436392327384510e+02
6.475421309874044482e+02
9.308497965467108770e+02
9.761099648567995928e+02
1.151408779562824748e+03
1.484827001938428566e+03
1.394410144793328072e+03
1.343135248722739334e+03
1.314049122291560025e+03
1.242338815217967067e+03
1.320443490659181862e+03
1.296566295978914013e+03
1.026571626337082307e+03
9.953345498617150611e+01
-1.274561329539661983e+03
-1.766570458218392332e+03
-1.789340205454398529e+03
-1.828034426561287319e+03
-1.669847391051270279e+03
-1.482722363034992668e+03
-1.301511951397580333e+03
-6.360730418706186811e+02
9.754606062202295647e+00
3.730908537587316687e+02
8.429492071229731209e+02
9.563991509208369735e+02
1.186548913454134890e+03
1.603489316720545730e+03
1.408201256928585963e+03
9.857820822254763016e+02
1.033322158355048941e+03
7.388323923244839762e+02
2.343428358454330294e+02
-4.380699210803524011e+02
-1.143405282524014865e+03
-1.945696552257212034e+03
-2.440881370432702170e+03
-2.816967464082129482e+03
-2.755037393130476630e+03
-2.556007976758173754e+03
-2.212713937593306127e+03
-1.660112077483318217e+03
-8.222122519671266900e+02
-2.819359742588227391e+02
2.273334675473908462e+01
7.808104594792400377e+00
8.123825147060391316e+01
7.207984051218265620e+01
3.043633729346576615e+02
4.080765737222405392e+02
3.463024787272335629e+02
-5.993642256365228604e+01
-3.967016084417641082e+02
-1.158017507876552600e+03
-1.598838377151121449e+03
-2.032244722847036883e+03
-2.172274217585907991e+03
-2.360878994743127350e+03
-2.519155391030446481e+03
-2.584083005660249910e+03
-1.693564864192036566e+03
-8.755117886250131960e+02
-3.399283290468368364e+02
1.311938362745095965e+01
1.986050075026757042e+02
3.365253097889084302e+02
6.228983257137193732e+02
3.636820106395229573e+02
7.884683673441381302e+01
6.584376397258370162e+02
7.114814512639109125e+02
3.089853287897831819e+02
-4.918473223796024030e+01
-7.710996801441590378e+02
-1.093782672793788834e+03
-1.788263261988685372e+03
-2.316735978029042599e+03
-2.740167303476460347e+03
-1.892653236000086281e+03
-8.701752275667729464e+02
-2.652799272407906983e+01
1.629757536306638883e+02
2.190192949706701313e+02
2.688108311785791216e+02
7.234952505717351414e+02
1.029892923536258877e+03
2.031889531857202655e+03
2.566691223235011876e+03
2.721903859640044175e+03
2.631577967669267764e+03
2.503722338817995478e+03
2.066310731979794127e+03
1.310099079383087656e+03
5.619985423159392468e+01
-7.648324515089171882e+02
-1.345846504122437182e+03
-1.742080827341431586e+03
-2.116754814792189791e+03
-2.803739009420381990e+03
-1.607368132729931176e+03
1.317493045299594542e+03
2.713777854924338499e+03
2.451615081409405775e+03
2.686897341781296745e+03
2.459448834985248141e+03
1.814008245831196973e+03
1.133823062120465011e+03
-2.444807285509459689e+02
-5.318344996481897624e+02
1.319571986831669847e+03
3.067649767718076873e+03
4.004238713527705386e+03
4.526444219794569108e+03
4.364068998829302473e+03
3.294987442688056944e+03
2.250219357601281445e+03
1.214298657093035899e+03
3.084476410092254355e+02
2.832050384426058898e+01
9.630451101715224240e+02
1.784260855458539254e+03
1.507023817501117037e+03
-3.516600366716008352e+02
-3.045852073367184403e+03
-4.773661701232575979e+03
-6.058173206399773335e+03
-6.947407817595154484e+03
-7.216466719576756986e+03
-6.354525063357674298e+03
-3.947665544804343881e+03
1.390089438228293830e+03
3.166668252844941435e+03
2.981003571553781512e+03
4.936992603036555010e+03
4.842535229814089689e+03
2.170531737219835577e+03
-2.106154644179243363e+00
-1.592476084753767054e+03
-2.106723699989418606e+02
1.546300697960515890e+03
2.190362264374283313e+03
1.030528810433487706e+03
2.413767928013150140e+03
3.748079885405154073e+03
6.945360923475784148e+03
5.204542680688326982e+03
4.831561086173610420e+03
5.098392226640388799e+03
3.650071634750264366e+03
6.701528183190998789e+03
5.470740693929665213e+03
4.549690945349526373e+03
6.837380293001487189e+03
6.829763820178401147e+03
5.531767721935580084e+03
1.523350763501832262e+03
5.484887114162157786e+02
1.115129192215750663e+03
-1.826723977636635709e+03
-3.142125246938964210e+03
-4.480012799834821635e+03
-1.148340333682351456e+03
-4.391067870509047566e+02
1.306679690079692136e+03
-1.019854379838914724e+02
-1.064027497694280555e+03
-3.898443182172829438e+03
-2.624202375891610245e+03
-4.296349433761541150e+03
-5.676823609163390756e+03
-3.099523850338344346e+03
-4.934279174245666013e+02
-1.059531224682320499e+03
1.141674271746824445e+02
-1.493302403753229328e+03
-3.028932470327796636e+03
-3.950678037659175970e+03
-4.093552954813792439e+03
-3.370509028982531163e+03
-3.168497692674861810e+03
-2.718465979114406309e+03
-2.480326118957530980e+03
-1.691026730366866559e+03
-3.934486774799217983e+02
1.038513866113117047e+03
2.613931330553841235e+03
3.572872440882128103e+03
3.409387655488410473e+03
2.584511389076721571e+03
1.864361196878075361e+03
1.894070680460788481e+03
1.783702959435277307e+03
1.153323447727096664e+03
-1.009997389390568173e+03
-3.962164453539705391e+03
-6.856972271252178871e+03
-9.213088266014403416e+03
-8.910470058874323513e+03
-9.188202175724154586e+03
-9.677185485887972391e+03
-9.363248936072126526e+03
-8.731280950469279560e+03
-7.899342108002306304e+03
-7.816294101395737016e+03
-7.570899783162384665e+03
-5.570185053389900531e+03
-3.566958565478567380e+03
-3.219102448200439085e+03
-2.744508918142236325e+03
-2.644986852458455360e+03
-3.171364756787436363e+03
-3.751481193177842215e+03
-4.680821282813553808e+03
-4.103151204547554698e+03
-3.749005027896941556e+03
-4.563470468466473903e+03
-5.375477649681254661e+03
-6.287942930268154669e+03
-7.266822313898218454e+03
-6.860032418713601146e+03
-6.322497736939939387e+03
-5.030097247378756947e+03
-3.334849865523606695e+03
-2.718632383947503513e+03
-2.588463464513034523e+03
-1.903252798087115934e+03
-7.558861112516067351e+02
1.606872745547071304e+02
1.655583905925522231e+03
2.641856322295382142e+03
4.280638255730346827e+03
5.605022675273720779e+03
6.726087706700054696e+03
7.744903774364911442e+03
7.698568494831180033e+03
7.170110164146666648e+03
7.258531826901567001e+03
7.971870654769679277e+03
8.614194367554178825e+03
9.579524608197392809e+03
1.050295742417726069e+04
1.146059022549342080e+04
1.227645888643225953e+04
1.275369376646801720e+04
1.297933010737170298e+04
1.290945670314151539e+04
1.284117973441523645e+04
1.277644315127203117e+04
1.284030170320837715e+04
1.233390815664767797e+04
1.189031739301737980e+04
1.208556243850676765e+04
1.189569973917144671e+04
1.102472180334533732e+04
9.944583997674591956e+03
8.449267653818424151e+03
7.457786994285922447e+03
6.627115739638345985e+03
5.991273800393112651e+03
5.613239591015669248e+03
5.522058597991784154e+03
5.561766104507531963e+03
5.312400737957685124e+03
3.879981258398740920e+03
1.210571738327683306e+03
-2.594845725963788027e+03
-3.805302154440013510e+03
-4.437784747071073980e+03
-5.294306295541373402e+03
-6.193861643001527227e+03
-8.260414859271222667e+03
-8.942899323515362994e+03
-7.835345655993824039e+03
-5.006805711262464683e+03
-5.577346014157850732e+03
-7.243058215036581714e+03
-8.162999701842738432e+03
-9.209228148620066349e+03
-9.466847713088372984e+03
-9.115891898057128856e+03
-8.669382887564892371e+03
-8.123369428111447633e+03
-7.466873527478965116e+03
-6.759888025950484007e+03
-6.417460420525191694e+03
-5.872582461784393672e+03
-4.895275600765256968e+03
-4.306619805040156280e+03
-3.846619561385270117e+03
-3.043260190910757046e+03
-2.710638423469685222e+03
-2.802884945919507572e+03
-2.632048152626562114e+03
-2.620143399861090984e+03
-2.978242253380604780e+03
-3.132458513296386172e+03
-3.112908293451559985e+03
-2.803698012858795664e+03
-2.602922323288390089e+03
-1.980707781520489334e+03
-1.392066418515059013e+03
-6.830286014907708250e+02
-2.860713534231827637e+01
6.681456199307999668e+02
9.061628548410214989e+02
1.367375339352357287e+03
2.287735145450791151e+03
2.759169585458235815e+03
2.489639998397580712e+03
2.071052023583284608e+03
2.129333772403173953e+03
1.922400970088992381e+03
1.353264287375768163e+03
1.117856971722306980e+03
1.310597487485911472e+02
-1.170259268454378571e+03
-2.135135341092644467e+03
-2.028717204412763067e+03
-1.427129382007776258e+03
-1.148447774797149805e+03
-6.456771277714323105e+02
-2.248885235959251077e+02
1.618609866120490324e+02
3.174440790199644198e+02
2.582482682896773696e+01
2.371813963599998658e+02
4.226828167265294951e+02
1.388951590004400941e+03
1.318904438100074685e+03
7.724461291967642182e+02
6.335712388934542787e+02
1.127190249265835291e+03
4.753212020525024855e+02
1.938747999503144968e+02
-2.161882552582504786e+02
-6.389862877715737568e+02
-1.119660986005187169e+03
-1.214226041969259313e+03
-1.298691250282042802e+03
-1.218114171540599045e+03
-1.323533191998745906e+03
-8.309986438940118205e+02
1.954614931766745656e+02
8.967746265392356690e+02
9.719642237618063518e+02
5.880348180982756503e+02
1.695299058823304605e+01
1.587070111347843522e+02
6.182946680791179688e+02
1.335708453930091991e+03
1.666003053696233110e+03
1.254120592389286912e+03
4.750377334563065119e+02
3.073176368118929602e+01
-9.378427036126296343e+02
-1.903693653506281862e+03
-2.367996513169102855e+03
-3.109927994579854385e+03
-3.759448632628905216e+03
-3.478457609562399739e+03
-3.046027854231484071e+03
-2.138031036500506616e+03
-1.374452219816723755e+03
-1.319237618330708074e+03
-1.271312978182770394e+03
-5.797430458136884681e+02
-2.196935865620062316e+02
3.268002074050284591e+02
7.157718639952161084e+02
1.200275613369405619e+03
1.621365046051879290e+03
1.661114138442212152e+03
1.152535432441321063e+03
8.276304077171428162e+02
3.714293242707479408e+02
-2.610711094576202527e+02
-9.920005836683736788e+02
-1.311368366335413157e+03
-8.151269623529415185e+02
-3.601634194371195008e+02
-4.733013447225268777e+01
3.834208674652346645e+02
1.010164969464625301e+03
1.966952190235605030e+03
2.075738303504862870e+03
1.636437436371886633e+03
1.721891627812575280e+03
1.843800817454928620e+03
2.253369029054079874e+03
2.206767677996196198e+03
2.310808159251390407e+03
2.496630076353546428e+03
2.375501912308102419e+03
2.179451129933060201e+03
1.559503288170667020e+03
9.934455831674038109e+02
-7.876189871198562287e+01
-6.890803025416464607e+02
-3.424918272144832940e+02
1.740479489437474001e+02
3.907644329631411324e+02
5.033729842563034254e+02
9.449361367767875208e+02
1.285896390062923047e+03
1.874267926601605950e+03
2.093834209528250085e+03
1.808464410899991208e+03
1.731577743328693714e+03
1.866258614232148602e+03
2.031094990591344867e+03
2.290271703236135636e+03
2.307740828153718667e+03
2.179830589293385401e+03
1.757535011152689776e+03
1.362889400306492917e+03
1.791676664490803148e+02
-3.879292130118519140e+02
-5.931555916100336390e+02
-5.512226804789038397e+02
-2.816935385730122903e+02
-2.472279156825367963e+01
4.610859085433769451e+02
1.143507599030754818e+03
1.764089613643182020e+03
1.708597224237802266e+03
1.737959841013473351e+03
2.056400519852288653e+03
2.297516014079375054e+03
2.555407126681878253e+03
2.382966749563201120e+03
2.450345447587540093e+03
2.549751706522903078e+03
2.788079499347496039e+03
2.623187785449653347e+03
2.136322630416752872e+03
1.522332993954492849e+03
7.581690441252916344e+02
5.087935594868057478e+02
1.072111652608604118e+02
1.332356023274435586e+01
3.710839396860838519e+02
9.494867591307765906e+02
1.613525644693213735e+03
1.871283429852328709e+03
1.812846091088887761e+03
1.769260837649521363e+03
1.922533577035259896e+03
1.784632802652216242e+03
1.242535663222096900e+03
3.122637435141625133e+02
-1.707014845856107058e+03
-4.212179090310653919e+03
-4.874148717252916867e+03
-4.278954035399086933e+03
-5.484841318313593547e+03
-6.497712556756950107e+03
-6.726540033599802882e+03
-7.169419361692711391e+03
-7.354411814517553466e+03
-3.446561711053310773e+03
-6.508443288858012465e+02
-3.777208460543760339e+03
-5.122693346793012097e+03
-5.377368193544108181e+03
-5.088099451939879145e+03
-4.659859443193362495e+03
-2.826681961541437886e+03
4.104470768044171223e+02
-1.431464175433543460e+03
-2.377395918029444147e+03
-2.458491129451299457e+03
-2.524747678319497027e+03
-2.485089902830384744e+03
-2.856548290499436462e+03
-3.241094598017107728e+03
-3.756662984539300851e+03
-4.738379349041886599e+03
-5.015242680397750519e+03
-2.831365765243737314e+03
5.671775499872969704e+02
1.642446471931123824e+03
2.064509264223917398e+03
2.348355372904774867e+03
2.643933068595619716e+03
2.851276312327258438e+03
2.598330325486950642e+03
2.788123115195871378e+03
2.824577043515566857e+03
2.695698590697023974e+03
2.879459213415533213e+03
3.163871709828526946e+03
3.573017107048802700e+03
3.669961819321874827e+03
3.084689045960757539e+03
2.407126811377869672e+03
1.749314495155904524e+03
8.972517014316437098e+02
3.999005958939154652e+02
-7.573996763179903269e+01
-7.468022863496405250e+01
-1.038803185539095040e+02
9.722840782776820845e+00
5.232183364741172227e+02
4.646351246071628793e+02
1.429865032917264784e+02
7.962669408666090476e+02
1.411576700412943637e+03
1.716006153869422860e+03
2.594447098030561392e+03
3.188921798376972220e+03
3.141540707902853683e+03
2.910355700824106407e+03
2.873399799363836792e+03
2.625667303032303607e+03
2.191113897211929270e+03
1.176775707680541018e+03
1.546992003150602102e+02
-5.899325997545222435e+02
-8.140824619219604301e+02
-1.329710404805239477e+03
-1.041666138893811421e+03
-8.887208012617539907e+02
-1.143660938762200658e+03
-1.005566123866536032e+03
-9.784046492265530333e+02
-1.010181015546660205e+03
-1.233850480168050126e+03
-1.135239023244042073e+03
-4.115261553772903085e+02
5.901559683283915092e+02
1.291778705143983871e+03
1.543343794175577841e+03
1.591909150019280332e+03
1.366396641419463322e+03
7.597511995603692867e+02
2.149288868980511893e+02
-4.101092061669172040e+02
-1.091348182656942527e+03
-2.001784756562120947e+03
-2.250485099666171664e+03
-2.296468856403446352e+03
-2.213719824149005944e+03
-2.060243712101088477e+03
-1.813035943767797335e+03
-1.214089224383556257e+03
2.266697926073369729e+02
1.141186186988786631e+03
1.023460296187709673e+03
7.104615364134359652e+02
1.153159467645910354e+03
1.621586610706064221e+03
1.972815222958729237e+03
1.894830780436651821e+03
1.462561062974187507e+03
8.769502961952067608e+02
-2.179540821095738750e+02
-9.582034438514191379e+02
-1.519818407376813639e+03
-1.768863308242587209e+03
-1.757383715450435830e+03
-1.811473315784443457e+03
-1.585142041309474962e+03
-1.082358022633233304e+03
-6.681420848223280018e+02
-1.434591445221882111e+02
1.417702009248118316e+02
-1.714448379768516588e+02
-6.051781912627648126e+02
-1.004313734570626906e+02
8.598507743289512746e+02
1.282572686209059384e+03
9.038000187837859585e+02
9.956128581676942986e+02
1.163987678508427052e+03
7.258650978258348232e+02
-9.980273885336988826e+01
-3.540605219322291077e+02
-9.009803319308891787e+02
-1.535579938954445197e+03
-3.106888538584805701e+03
-5.434924457916273241e+03
-5.092680149328012703e+03
-2.561927585580546065e+02
8.025350459645960655e+02
1.220401829590436591e+03
1.126524456326049858e+03
1.161965870546209771e+03
9.896587904255669628e+02
1.239509513909740235e+03
1.023548511330959855e+03
8.946982484679756453e+02
1.242005639502009217e+03
7.955182458989362431e+02
7.691998851397740964e+02
6.439734970902150053e+02
1.348096460886252146e+02
-4.942784902507589209e+02
-9.523297475033244837e+02
-1.485367407204672418e+03
-1.753496258025527368e+03
-1.590738973912815709e+03
-1.202047922268871616e+03
-1.045328711753105608e+03
-6.956067216267277900e+02
-3.399441228090329332e+02
-1.794104780068810214e+02
3.019895530924748073e+02
5.852752074880301052e+02
9.884693614534653534e+02
1.543577312982445619e+03
1.788516998212826138e+03
1.736334750460886198e+03
1.564077069365970146e+03
1.553668774028828011e+03
1.191106887895522732e+03
6.043747082843456155e+02
-5.725819393034917084e+02
-6.687862739124448126e+02
-1.141326912421634688e+03
-1.176248277665341448e+03
-1.227514985924970688e+03
-1.250104879814752167e+03
-1.051062280776817033e+03
-9.313642424309443868e+02
-8.840109190096908378e+02
-3.799675545942806139e+02
2.127403481742211966e+02
7.131026263750364933e+02
1.115117368970627922e+03
1.207817642792290144e+03
1.478202720506990545e+03
2.164292519998504758e+03
2.470104147438554719e+03
2.684664190258482904e+03
2.282922036802734965e+03
1.067743545114123435e+03
-2.108762321380639264e+02
-9.529218168039753891e+02
-9.763915763997251815e+02
-3.633705870666326518e+02
1.011411435702527655e+02
6.092018233487164025e+02
9.798770681804198830e+02
1.318129609278531007e+03
1.467005991325265541e+03
1.862523054224781390e+03
1.990719604445471759e+03
1.800570072559001801e+03
1.786076919659836221e+03
1.669267084613447196e+03
1.664164136293369893e+03
1.573816591573497817e+03
1.440230230205741009e+03
5.724162975409535647e+02
-2.823623286083320181e+03
-4.021887301604599088e+03
-2.294414973182491849e+03
-1.835282633255578503e+03
-6.210530133771429973e+03
-4.554189730722778222e+03
-1.896242540016936118e+03
-4.211635435972733831e+03
-4.162304695199951311e+03
-2.973187549858243074e+03
-5.552799613721839478e+02
8.453899914044706421e+00
7.960355661604686475e+02
-9.575050463303275592e+02
-2.691151765825708480e+03
-2.663928486902214900e+03
-7.308206587259988964e+02
1.130195425845817681e+03
7.315604849694716449e+01
1.647013091324900415e+03
-1.397260245043438772e+03
-1.564665885062881443e+03
-2.781210656331933933e+03
-2.358869163781239422e+03
-5.257682823051563901e+03
-3.924673654441237431e+03
-1.394876246094895123e+03
-2.799234944187493966e+03
-1.639675177921258864e+03
-1.523138622691937371e+03
7.833980804693716209e+02
-1.300086206181996431e+03
1.504765623462757276e+02
1.715029777024960140e+03
1.670528178989349499e+03
-2.430467933346915004e+02
1.553325634113973820e+03
2.674704879173163590e+03
2.883119724269594371e+03
2.939594656766248136e+03
2.898091971520113020e+03
2.136613104373818715e+03
1.305138762816592362e+03
6.496716038334513996e+02
2.521775055631263740e+02
5.556215590073062458e+02
9.710439462603715128e+02
1.225457908746428757e+03
1.467895799156223802e+03
2.025394094126105529e+03
2.198002079616187530e+03
1.994682035500702341e+03
2.001423102828089213e+03
2.108328163822997794e+03
2.634553683265162363e+03
2.745105281075883340e+03
2.063897812978485490e+03
2.039127774770498263e+03
2.137753700477298025e+03
1.833656621169327991e+03
1.122900708432283182e+03
6.643998067857725687e+01
-1.609028380551936152e+03
-2.752532947899365354e+03
-2.425407963153410492e+03
-2.390002143747339687e+03
-1.906733855430342828e+03
-5.895472642238898970e+02
2.927629928477437602e+02
8.802464725508946231e+02
1.556740594227199381e+03
2.128289274498313716e+03
2.472023670523204601e+03
2.866890902808578630e+03
3.113891398558291712e+03
2.767955395764066452e+03
2.385100831895776082e+03
2.525351511323117393e+03
2.381686927066286898e+03
2.526140322823696351e+03
2.202645688790350960e+03
1.596956795398565419e+03
7.599276799421244277e+02
1.808780880495112626e+02
-3.433161468780490821e+01
-3.529060929940138180e+02
-3.179099306118899904e+02
-1.683368241957922180e+02
9.790981408638155870e+01
2.937891409346516411e+02
5.623316567747334602e+02
4.365474492959760937e+02
4.594028248992424324e+02
3.828841901793936700e+02
3.859168266673839867e+02
5.404808599028209528e+02
2.646162171867790107e+02
3.453384621063847248e+02
7.806133692856756170e+02
7.324645932887168556e+02
6.678855080910434481e+02
2.108575656414232071e+02
-3.337033707357969092e+02
-6.537852395284228351e+02
-4.404011619181179071e+02
-1.296179119826693977e+02
7.659581766162563099e+01
2.830208867708911669e+01
3.394391407797542684e+02
1.628005060484136038e+03
2.027017754845096533e+03
2.058443775178835949e+03
2.414298986410302405e+03
2.740590672837668990e+03
2.426352450330218744e+03
1.783547896733512289e+03
-1.518235985085716209e+02
-2.494724614448221928e+03
-5.086088171564992081e+03
-5.872923667334654965e+03
-6.585242471323197606e+03
-7.668066753420815076e+03
-8.852387204603353894e+03
-9.424253980174233220e+03
-9.643671841933823089e+03
-9.187622196170490497e+03
-8.012150093482412558e+03
-7.277339558004970058e+03
-6.191808720345526126e+03
-4.179583349723144238e+03
-3.183775066862500807e+03
-1.831365713967021975e+03
1.994616349607171969e+03
3.363203102017254423e+03
4.355407795256984173e+03
4.939219601269903251e+03
4.445629715989340184e+03
3.882696063480924749e+03
3.318425631440084544e+03
3.070884878511356874e+03
3.104060487655659472e+03
2.524016074735425718e+03
1.789755425191041923e+03
8.582360191932278894e+02
-2.753340355598919231e+01
-3.405399302201315663e+02
-8.058050502836608757e+02
-2.673140100341537959e+02
2.649278977401719430e+02
6.589565914563589786e+02
3.398644873957323966e+02
-1.322783493090605873e+02
-3.364515980548135872e+02
8.233419468451332079e+01
6.780808394937230332e+02
6.868326040781417987e+02
3.866729038322870906e+02
7.876160261523862118e+02
1.305735437986855459e+03
1.975050117238615258e+03
2.391607372170546114e+03
2.569406014690990105e+03
1.833441170372437000e+03
5.007267844235910843e+02
-2.477014520792811254e+02
-6.438548460663821515e+02
-8.007219730767494639e+02
-5.053005002826215559e+02
-1.045176200882456357e+02
-1.621026959995521111e+01
-7.833422614686764973e+01
3.030455532664951193e+02
-1.630924760565530107e+02
-6.536987278470616047e+02
-6.116494625670464984e+02
-6.419997694787432465e+02
-2.237167508952113906e+02
5.342876564863864814e+02
8.720589581811099151e+02
8.745849883723319635e+02
9.139333878574055916e+02
8.691047064195148550e+02
6.071215699475803831e+02
9.212745422533005524e+01
-3.130911855225854197e+02
-6.036210856732105867e+02
-1.166971578620706168e+03
-9.913314463988880334e+02
-2.337390974825618741e+02
3.708464983641252388e+02
