9.181240208118782903e+03
8.578007899688103862e+03
7.510798099964908943e+03
7.301365793783744266e+03
6.966391980780081212e+03
7.735326588729839386e+03
9.604450458559875187e+03
1.100709258369762756e+04
1.157493467828955727e+04
1.291901263818208281e+04
1.388915214221637871e+04
1.234982472222672550e+04
9.993333020473839497e+03
8.538757911069340480e+03
8.245337343578330547e+03
9.706429937892731687e+03
1.039633049525606657e+04
1.137034931539336139e+04
1.053470899501597341e+04
1.027053996448857833e+04
1.197996206908512977e+04
1.091814551144149118e+04
1.037425593849471079e+04
1.149150055862465888e+04
1.323301277162478800e+04
1.509294151416414206e+04
1.403537524672257496e+04
1.216239310465482049e+04
9.639162709780783189e+03
7.569978174224630493e+03
9.649056323309479922e+03
1.503542749483284933e+04
1.464413273165587270e+04
1.179932704243659282e+04
9.143230731755478701e+03
8.131915303773736923e+03
9.127552592321881093e+03
9.193226720422053404e+03
8.218873534322205160e+03
9.343760266314891851e+03
7.963125413372883486e+03
5.770239092940113551e+03
5.546479712596380523e+03
1.629182819591398356e+03
-3.184593322064600216e+03
-3.858810510661986427e+03
-2.965193364802744782e+03
-1.131593257837725105e+03
3.660320933657536898e+03
6.261040366156206801e+03
1.027884996497517022e+04
1.183892082056392064e+04
1.185159524572528062e+04
1.247738078032683006e+04
1.339073556614861809e+04
1.989200424632730937e+04
2.692885468350585143e+04
2.692279860821750481e+04
2.019111563578577625e+04
1.536237240940847005e+04
1.286116108339389029e+04
1.404810379463162462e+04
1.764678797281480001e+04
1.661994763768264238e+04
1.424939320009641960e+04
1.441986214455175468e+04
1.473602546175058706e+04
1.478559782158613780e+04
1.442948805986711886e+04
1.349577644994132243e+04
1.346544089058224199e+04
1.424545095383766602e+04
1.285779721607036481e+04
1.097355368330278907e+04
1.086996051974058173e+04
1.158227143813546718e+04
1.095954714288216019e+04
7.502951870346423675e+03
4.197671757831283685e+03
3.478950369733438492e+03
2.100178213872583456e+03
1.650707043845273802e+03
3.900022137226059840e+03
4.935672026357154209e+03
1.817453548088914886e+03
-1.840929358824667588e+03
-3.447957163181206852e+03
-3.600977745810514534e+03
-3.203248523280341487e+03
-5.197021969314219859e+03
-8.383418060603034974e+03
-9.610552196247932443e+03
-1.088541088227334149e+04
-1.359504614326383853e+04
-1.561752436702801242e+04
-1.412894973338083037e+04
-1.165340312064120371e+04
-1.099974378784186410e+04
-1.107770485836471198e+04
-1.253698234550267080e+04
-1.431522138211934180e+04
-1.538537221931679778e+04
-1.608751285496772471e+04
-1.598111760930534183e+04
-1.628680912764811728e+04
-1.626620817976809667e+04
-1.891045151025791347e+04
-2.005966054002347300e+04
-1.700537235622789376e+04
-1.519843720461628982e+04
-1.238256109190713141e+04
-1.036011002301392182e+04
-1.341353710214567764e+04
-1.698006090625549768e+04
-1.886700015876910402e+04
-1.884090315566275967e+04
-1.820917863618663250e+04
-1.628605015801472837e+04
-1.363472116791156986e+04
-1.375349727473286657e+04
-1.587873670349564418e+04
-1.687380399418580055e+04
-1.721371679189025963e+04
-1.930647334413021963e+04
-2.179628605341835646e+04
-2.289737479105222519e+04
-2.186181743296379500e+04
-2.203371743733273615e+04
-2.191033072842008551e+04
-1.961080620742673273e+04
-1.813518097802190459e+04
-1.852251783114487262e+04
-1.940901720780407413e+04
-1.943677924777494263e+04
-1.914197991728942361e+04
-1.846099081720752656e+04
-1.631117775374969096e+04
-1.285774844489544012e+04
-1.025684445083303399e+04
-9.172696552918900124e+03
-8.778770066316747034e+03
-7.938302517902247018e+03
-6.170583626703507434e+03
-3.707862199411102210e+03
-1.508439972366371876e+03
-1.136745759074477746e+03
-2.008285176658178898e+03
-1.296446043966009029e+03
-3.506250255280750707e+02
-9.735101781866050885e+01
-1.481183414012703849e+02
-4.765460641899129541e+02
2.887221152753514275e+02
3.147018093863735885e+03
6.560623169162220620e+03
8.699696427675233281e+03
1.019835954329995184e+04
1.159790663937429235e+04
1.237845656299189432e+04
1.330380467284827682e+04
1.465893653976030328e+04
1.385171918078043564e+04
1.153799414183594126e+04
1.032368795108182712e+04
1.620161437180079520e+04
1.929359572591335382e+04
1.970048252408004555e+04
2.123491310107116442e+04
2.423751847488268322e+04
2.666890840748514893e+04
2.850257581719788141e+04
2.917882039371780047e+04
2.963673308973990061e+04
3.170865550779978730e+04
3.316298618374917714e+04
3.454979021511660540e+04
3.552107443480179063e+04
3.614602442098550091e+04
3.682465783767970424e+04
3.611570420004719199e+04
3.411292366820519237e+04
3.185509400579007706e+04
2.955289139713647455e+04
2.747902434659856226e+04
2.603926121780187896e+04
2.472226482919918999e+04
2.313443271326342438e+04
2.082716838135051876e+04
1.862380201669395319e+04
1.807462618960340842e+04
1.837781711563600038e+04
1.955061075901917138e+04
2.115620689488767312e+04
2.360367406228563050e+04
2.591789211994151628e+04
2.720174547463531417e+04
2.956806227828813280e+04
3.019976180075164302e+04
2.876362323302987716e+04
2.543849105467898698e+04
2.212109871566490256e+04
1.983787214361405495e+04
1.807147387790271023e+04
1.569941262789531720e+04
1.265990543744279421e+04
1.001140188226992177e+04
8.022486076001307993e+03
6.881841030794957078e+03
6.606877305045239154e+03
6.880799538705347004e+03
6.419848654368396637e+03
4.755036689255832243e+03
3.130579083569887189e+03
2.129646992634596700e+03
1.881262793545707609e+03
2.868495409480464787e+03
4.123264021619222149e+03
4.271369563590707003e+03
5.009786629026823903e+03
4.294453834350029865e+03
2.342335916894514867e+03
1.832595735114065747e+03
6.111630443992503388e+02
-1.058006034897909558e+03
-1.776928558576805244e+03
4.942268689336090688e+02
3.026158440761713791e+03
4.935492364228975021e+03
6.305259700467583571e+03
6.882460424931899070e+03
7.273988653073798559e+03
7.140791008073329067e+03
7.510580531444516964e+03
8.625155430499420618e+03
8.491408500087205539e+03
5.904124013084765465e+03
5.413177761602200917e+03
6.293242635815016911e+03
2.348379146846809817e+03
3.711280169453939834e+03
-7.840822230497380474e+01
-6.595777623846961433e+03
-5.781424986075447123e+03
-5.532699904789550601e+03
-7.769121894564571448e+03
-8.238293542278323002e+03
-6.290915558477105151e+03
-7.405351729643644831e+03
-1.396406783078238732e+04
-1.518615995882209609e+04
-1.706682941115278663e+04
-2.008409096022535959e+04
-2.082971507675077373e+04
-1.821082468705680731e+04
-1.843420533852506924e+04
-1.767791147318293952e+04
-2.016424696096869593e+04
-2.625544288452078399e+04
-2.690686654609670950e+04
-2.715805269330884039e+04
-2.427946592664528362e+04
-2.458283071100009329e+04
-2.748596827803320775e+04
-3.050055176065508931e+04
-3.273860749884651159e+04
-3.403902221812680364e+04
-3.198843224954290054e+04
-3.294912337470773491e+04
-2.977998943916503049e+04
-2.769735821719734304e+04
-2.626291717615566449e+04
-2.486475723954730347e+04
-2.275606222604934374e+04
-2.030419659607113135e+04
-1.821905105916142929e+04
-1.619576601819779353e+04
-1.481565322226183525e+04
-1.487835768307485887e+04
-1.661529965225885462e+04
-1.795688315088246236e+04
-1.746202392993635294e+04
-1.541793419436870136e+04
-1.478450491203483034e+04
-1.596471703140732279e+04
-1.688616132550950715e+04
-1.744239639331174476e+04
-1.656602315937058665e+04
-1.504204982143496818e+04
-1.242891643319141258e+04
-9.897229091414696086e+03
-7.462259176468310216e+03
-5.788021900160257246e+03
-3.237086678319363727e+03
-1.653477998341646526e+03
-3.185972774554556054e+03
-3.678169238338708965e+03
-3.381302014783814684e+03
-3.046696975072705754e+03
-2.439893682464285575e+03
-5.682584294579389734e+02
1.713569695890172397e+03
3.254532962370427413e+03
4.350685587755779125e+03
4.779649831831763549e+03
5.355431605732392200e+03
7.416631136759344372e+03
8.979176459165308188e+03
9.387310673609314108e+03
9.741374001904359829e+03
1.104303930159915581e+04
1.319653169272412924e+04
1.423395478966362498e+04
1.661756548507030675e+04
1.986073862098981044e+04
2.122379902000234870e+04
2.251275885008628393e+04
2.431680473647026520e+04
2.560944760111950018e+04
2.585848629679645819e+04
2.625189628919399183e+04
2.587366456022243437e+04
2.520308436739597892e+04
2.430545336287951795e+04
2.321737606154761670e+04
2.144611867033936869e+04
2.113113015393422756e+04
2.134698387542813725e+04
2.124819485403378712e+04
2.109792354394149152e+04
2.171584540020662098e+04
2.277636311670772193e+04
2.445943238429230405e+04
2.652417319233216404e+04
2.956305534938591154e+04
3.074753204390463361e+04
2.997984244201408728e+04
2.821681918655741538e+04
2.623401341868819873e+04
2.399491162965343756e+04
2.081128544848685124e+04
1.964427163855979961e+04
2.029516500048063608e+04
1.936895470849369667e+04
1.838735522804027278e+04
1.758218935480814616e+04
1.621899415403217427e+04
1.548829642346098262e+04
1.559500656131945834e+04
1.747027296270306397e+04
1.871612720679228005e+04
1.800115223618216987e+04
1.690518409365132175e+04
1.659054295363648635e+04
1.600065597188533866e+04
1.473555099592004262e+04
1.403553951960629820e+04
1.279788983744009602e+04
8.838556386748054138e+03
2.025057773480598826e+03
-2.929662506986649078e+03
-5.684375675500359648e+03
-8.392183200306079016e+03
-1.041149071589266168e+04
-1.058255807405203632e+04
-8.260102251897000315e+03
-9.041062557900257161e+03
-1.318485960774523846e+04
-1.632378574058007143e+04
-1.685114911218683483e+04
-1.470418598654281959e+04
-1.337573906388006253e+04
-1.313235316537609287e+04
-1.455836538975008989e+04
-1.617931522134203260e+04
-1.793757095076701444e+04
-2.053859849809842490e+04
-2.395083224353724654e+04
-2.849579626674534302e+04
-3.250527428045284250e+04
-3.491865655392273766e+04
-3.753915777947405149e+04
-4.069906650028740842e+04
-4.363493787656426139e+04
-4.615653171137509344e+04
-4.883954474950218719e+04
-5.108086545453524741e+04
-5.224151174044905201e+04
-5.155038146312737808e+04
-5.072324017050176917e+04
-4.982786732075297186e+04
-4.903222361011365865e+04
-4.955918142782596988e+04
-5.093670984374696855e+04
-5.112432807186789432e+04
-5.120646864601329435e+04
-5.143211825220227183e+04
-5.353851711780210462e+04
-5.523605461182987347e+04
-5.683339226316232089e+04
-5.872020865516820777e+04
-5.996226683934745233e+04
-6.150038556938702095e+04
-6.328939247428193630e+04
-6.417201442855283676e+04
-6.435228731380905811e+04
-6.377528887693829165e+04
-6.179613367606858083e+04
-5.984105729725448327e+04
-5.797125583416732843e+04
-5.621225242026001069e+04
-5.373687455410703114e+04
-5.112873231979360571e+04
-4.912543756497008144e+04
-4.635951036242629925e+04
-4.338295851390094322e+04
-4.240923774827356101e+04
-4.231359493517382361e+04
-4.230626203774865280e+04
-4.258513144043814827e+04
-4.225239003103678260e+04
-4.288675589210096950e+04
-4.346816293391612999e+04
-4.341797054330426181e+04
-4.218241899092318636e+04
-3.947785014990405034e+04
-3.581752951910289994e+04
-3.084553881320460277e+04
-2.677006419142286177e+04
-2.483252694693050944e+04
-2.298657689160371592e+04
-2.054899477793492770e+04
-1.783170295333515969e+04
-1.626166044445798434e+04
-1.234284354229401652e+04
-7.581374339748351304e+03
-4.848403207062594447e+03
-3.172977326115068081e+03
-1.974349644268101201e+03
-8.468581460172626976e+02
-2.230782545579647547e+02
1.464139738652342885e+03
3.984991578369929357e+03
6.230714634812947224e+03
8.556388345114381082e+03
1.125094193374209681e+04
1.444220867700539202e+04
1.732392311968599461e+04
2.083532207841517447e+04
2.595148464193158361e+04
3.017994378424618480e+04
3.328405761612976494e+04
3.671813892157551163e+04
3.982437377804199787e+04
4.337684884825959307e+04
4.566799097722613078e+04
4.834220166578143835e+04
5.196079812376270274e+04
5.401204203096996935e+04
5.745394507317711395e+04
6.088859695035334880e+04
6.085810810147936718e+04
5.829633831875344185e+04
5.579915458126617159e+04
5.705434873653361137e+04
6.113270329880437203e+04
6.671502956429379992e+04
7.282818401347810868e+04
7.571305996743310243e+04
7.788158949145086808e+04
8.163857930701790610e+04
8.440589555141402525e+04
8.708454034208419034e+04
8.879561334139725659e+04
9.006797126238948840e+04
9.161460498221355374e+04
9.283317813006388315e+04
9.283964080969485804e+04
9.364909590734439553e+04
9.361251043136185035e+04
9.276920664966051118e+04
9.264541922596981749e+04
9.315105426259657543e+04
9.317899809369753348e+04
9.087246615249852766e+04
8.866100002218916779e+04
8.813508742805845395e+04
8.721830511398473755e+04
8.809509927731017524e+04
8.876221349855297012e+04
9.036827801327691122e+04
9.274883761212606623e+04
9.378193606137689494e+04
9.408637170099890500e+04
9.280248394742977689e+04
9.262647910879142000e+04
8.973758754844791838e+04
8.347699841346249741e+04
7.642817389635382278e+04
7.477612987668179267e+04
7.950761816959251883e+04
7.783608795109827770e+04
6.776605873593251454e+04
5.896538755307932297e+04
5.601425337641465012e+04
5.671711559157416195e+04
5.565863142357920151e+04
5.234464987504899909e+04
4.925678214929273963e+04
4.544850950333420042e+04
3.639649388525049289e+04
2.426850345844460026e+04
1.677291316925190404e+04
1.089956939954775044e+04
7.788075362900605796e+03
8.276735762447715388e+03
8.608843180886560731e+03
1.082190941101310091e+04
1.006559853468013171e+04
4.980837609476501711e+03
-3.866105642197467205e+03
-1.042750604078378092e+04
-1.323968540485363155e+04
-2.109062673391827047e+04
-3.229354470996068630e+04
-4.570184838261744881e+04
-5.289341001744820096e+04
-5.600949294447293505e+04
-5.985428639662377100e+04
-6.559607437048418797e+04
-7.998898414602760749e+04
-9.830280869159672875e+04
-1.140831242406507663e+05
-1.273462835833990102e+05
-1.410505001085858967e+05
-1.583887719006274128e+05
-1.775908989285883727e+05
-1.911526988683814707e+05
-1.885420099444398948e+05
-1.908625767145931604e+05
-2.055757240395843983e+05
-2.295906550532743859e+05
-2.512946307589738863e+05
-2.701677413427980500e+05
-2.872000912868595915e+05
-2.940065491575766355e+05
-2.866470758910972509e+05
-2.686334218324582907e+05
-2.603191188797914074e+05
-2.565916702851111768e+05
-2.503385022394561674e+05
-2.408757856974133174e+05
-2.255006277364789566e+05
-2.085143569519098382e+05
-1.965911005610950524e+05
-1.786210247622075840e+05
-1.620482668675106834e+05
-1.437232115882017242e+05
-1.271806894173718028e+05
-1.202317120876083063e+05
-1.199650452842442755e+05
-1.236316762068901880e+05
-1.361336248694005772e+05
-1.469709269936734054e+05
-1.475696097290296457e+05
-1.385556156502671947e+05
-1.269220259136696404e+05
-1.165868872901992145e+05
-1.104191550261902594e+05
-1.157178224225381709e+05
-1.248820538879521628e+05
-1.353530464311904798e+05
-1.396369170203486865e+05
-1.393420046566186356e+05
-1.423836477010041708e+05
-1.434762078815346176e+05
-1.255610660537884105e+05
-1.062718244620706391e+05
-9.287405588057629939e+04
-8.273451773946310277e+04
-7.498209945056369179e+04
-6.137156930667945562e+04
-5.280588526223701047e+04
-4.965938573789477232e+04
-3.821934545662302844e+04
-2.136116682351920463e+04
6.318415054443610643e+03
3.060657984589589978e+04
6.132949950076374080e+04
1.020452163456995622e+05
1.435393300023318152e+05
1.833954624203334970e+05
2.357725676352209994e+05
2.868972556496673496e+05
3.287737577294764924e+05
3.594211927789509646e+05
3.820534796694864635e+05
3.950781474718278623e+05
4.081846570812593563e+05
4.199853012239430682e+05
4.288893027962313499e+05
4.350916550889658392e+05
4.323802476801156881e+05
4.285628240361497155e+05
4.293548378208655631e+05
4.281805110981863108e+05
4.202327722098628292e+05
4.093005043114523869e+05
4.000535578852252220e+05
3.887545286750647356e+05
3.736137591082561412e+05
3.584504744974906789e+05
3.478027268876798917e+05
3.408612211558699491e+05
3.346445712534775375e+05
3.237514038557516178e+05
3.124055107698055799e+05
3.049700868416735320e+05
2.960119076216822723e+05
2.810177937793962192e+05
2.560962607905569312e+05
2.304426755356606154e+05
2.040816343005815579e+05
1.782060841599983978e+05
1.570154764474641706e+05
1.393006475383497891e+05
1.210608616985054396e+05
9.731025420085231599e+04
7.325201155374210794e+04
5.246706578278906818e+04
3.164640251421029097e+04
1.424574742710324244e+04
-5.843707565715915280e+02
-1.598946026413811524e+04
-3.332703681570109620e+04
-5.352473462669922446e+04
-7.185342367983846634e+04
-8.799418003889874672e+04
-1.009831274451983045e+05
-1.113794311050726246e+05
-1.197543637832465902e+05
-1.279563950238490215e+05
-1.368250953563569929e+05
-1.455501632877157535e+05
-1.551463928856637212e+05
-1.650746503729369433e+05
-1.739298805484102631e+05
-1.819001340091795428e+05
-1.872474773514296103e+05
-1.897708885732194176e+05
-1.945303266431062075e+05
-1.999700116148265079e+05
-2.013561196096539206e+05
-2.015228171411528019e+05
-2.008161924543577770e+05
-2.008075173569412727e+05
-2.002440826593966631e+05
-1.992431211752270465e+05
-1.985169056975476851e+05
-1.993495109091946215e+05
-1.994261073074611486e+05
-1.986520016067938705e+05
-1.974994872298913542e+05
-1.963369844910888351e+05
-1.954247298896775756e+05
-1.930428069255625014e+05
-1.905795268218597339e+05
-1.895580345321371860e+05
-1.872313935239728307e+05
-1.840865061009385390e+05
-1.766711511967452243e+05
-1.689451933803907887e+05
-1.666824733609376126e+05
-1.661745640085040650e+05
-1.658490091710155830e+05
-1.624892032123013923e+05
-1.577993866674772289e+05
-1.547328628063324140e+05
-1.472567273213130247e+05
-1.346640361105908523e+05
-1.275517342756425642e+05
-1.233268043355492700e+05
-1.193601191017683595e+05
-1.136395415552046325e+05
-1.057907576165111241e+05
-9.794606452163044014e+04
-9.099764707196851668e+04
-8.321970202437091211e+04
-7.727625769189946004e+04
-7.215625434073018550e+04
-6.727237955735868309e+04
-6.333847365306965366e+04
-5.910709750726232596e+04
-5.329244750231428043e+04
-4.723064046844893892e+04
-3.961761298662415356e+04
-3.178330222147318273e+04
-2.589542414182113134e+04
-1.980757144067567788e+04
-1.188830423954335129e+04
-2.987944005705552627e+03
5.684303306845567022e+03
1.484832726864219694e+04
2.656916200218141967e+04
3.499090740697349975e+04
3.826388917683267209e+04
4.237054108907956106e+04
4.671657581372786808e+04
5.071566339930549293e+04
5.214850646317254723e+04
5.211611601046716532e+04
5.271871110331574164e+04
5.362263488798723120e+04
5.405132136874010030e+04
5.567326277623160422e+04
5.717828509154354106e+04
5.995609765723334567e+04
6.397055240398344904e+04
6.614398325923779339e+04
6.765777019003604073e+04
6.805226489708456211e+04
6.760259969955161796e+04
6.698894630404900818e+04
6.683767250928383146e+04
6.641625540823813935e+04
6.540565366206056206e+04
6.298374124300853873e+04
6.025626944643079332e+04
5.931229143746635964e+04
6.274887670181744033e+04
6.711125257253115706e+04
7.259568737435313233e+04
7.614444491612893762e+04
7.841693945824989351e+04
8.054575565747512155e+04
8.294133875995468406e+04
8.785727776409800572e+04
9.411527591748282430e+04
9.810397748340273392e+04
1.008580592593751498e+05
1.031961863548755355e+05
1.076420912914702931e+05
1.127925005985252210e+05
1.184632258652825258e+05
1.221410622108234238e+05
1.257635632409988611e+05
1.273803644208425103e+05
1.240599294532442582e+05
1.176950211402636196e+05
1.148936642360170226e+05
1.134036930361047125e+05
1.095598844050388725e+05
1.083029575160509994e+05
1.048558688155121927e+05
1.034316351748731104e+05
9.764207141885216697e+04
9.249544663225143449e+04
8.832790154884853109e+04
8.163243555226695025e+04
7.922436334321566392e+04
7.149819372907219804e+04
6.708088604804371425e+04
6.355043717817903962e+04
5.928826624876430287e+04
5.680388890570228978e+04
5.149258736993525235e+04
4.684058307984482235e+04
4.427435442499234341e+04
4.385826026484052272e+04
4.004009029138451297e+04
3.526575770835133153e+04
3.566196470741710073e+04
3.602218085896511184e+04
3.215104101777003234e+04
2.613597590581958866e+04
2.617372306745671449e+04
2.157997849497428251e+04
1.763852196255697345e+04
1.244152936817322370e+04
8.540950619698776791e+03
3.806449177286685426e+03
1.165483229382975310e+02
-3.175538953491944085e+03
-4.961325323550236135e+03
-5.898266295755006468e+03
-8.950522316465374388e+03
-1.387921945289117139e+04
-1.895110301053099829e+04
-2.417732722624138114e+04
-2.832538072365001062e+04
-3.204581486510646937e+04
-3.546917550001350173e+04
-3.846082777881745278e+04
-4.104734538493303262e+04
-4.344194491344299604e+04
-4.600410839055237011e+04
-4.789222573510511575e+04
-4.991875427230172500e+04
-5.262490470451304282e+04
-5.520074127268831944e+04
-5.798500207677016442e+04
-5.974078193734322849e+04
-6.229253524460436165e+04
-6.543796172953356290e+04
-6.757414565645680705e+04
-7.018658579654594359e+04
-7.161266023149313696e+04
-7.100001850938449206e+04
-7.092894389511425106e+04
-7.132408917986259621e+04
-7.022013189259373758e+04
-6.925483817380492110e+04
-6.841738529181956255e+04
-7.064608067160687642e+04
-6.993328155426845478e+04
-6.988945359874989663e+04
-6.725351223235920770e+04
-6.517796646358016005e+04
-6.360016857965603413e+04
-6.116210451600044325e+04
-5.957490471556640114e+04
-5.872759077320912911e+04
-5.959934555006623123e+04
-6.061291586369253491e+04
-5.990294858511539496e+04
-5.932962862764247984e+04
-5.801140366820711643e+04
-5.575406812779792381e+04
-5.363144955502333323e+04
-5.232942192104509741e+04
-5.039023361719676905e+04
-4.810608128283482802e+04
-4.536949089411428577e+04
-4.286301172166730248e+04
-4.005373712699221505e+04
-3.778752541387712699e+04
-3.670035509528871626e+04
-3.381034337073688948e+04
-3.042331797033061594e+04
-2.770119956797544000e+04
-2.385779044750903631e+04
-1.950493990858429606e+04
-1.721738408781681937e+04
-1.582539065589596248e+04
-1.384109591888838622e+04
-1.050737028089814521e+04
-9.910485700316616203e+03
-9.433036222011180143e+03
-5.297414983121970181e+03
1.909542702036343940e+02
4.936645059601833054e+03
1.026589832601153466e+04
1.583849722853873391e+04
1.757819231772681087e+04
1.950712194254931819e+04
2.218985053886037349e+04
2.361510353309339189e+04
2.420081882619476892e+04
2.516309076662370717e+04
2.629661110867013485e+04
2.751462979249146883e+04
2.865696131904287904e+04
2.961083257949462131e+04
2.985195914419399560e+04
2.954802164788669324e+04
2.903146496591281539e+04
2.869895919617676918e+04
2.854236399859913945e+04
2.825025822055872777e+04
2.684996900259136601e+04
2.417075263353738046e+04
1.976112208938667754e+04
1.729909797577506106e+04
1.657946125832410326e+04
1.568062434402387953e+04
1.579139486411931284e+04
1.623425343643170527e+04
1.928601341172759567e+04
1.833668938651965072e+04
1.335843150391849485e+04
1.180126829125708900e+04
1.275095516248093736e+04
1.334625689216614774e+04
1.483005922224138340e+04
1.681078638971717737e+04
1.733845654659853608e+04
1.788275791355042384e+04
1.817172580111411662e+04
1.732300060144512463e+04
1.550937670533644814e+04
1.407388358902606524e+04
1.261348742925017177e+04
1.130122560578094635e+04
1.044487302588072089e+04
9.300197505153946622e+03
8.281780928955706258e+03
8.208107421147515197e+03
8.236701094849975561e+03
7.666214813306146425e+03
6.459314403597230012e+03
5.188682017183609787e+03
5.224136130438259897e+03
5.158218668183538284e+03
4.289237942101506633e+03
2.789552519153219237e+03
9.174039003363559459e+02
-2.621508893481913560e+02
-1.397475695243960899e+03
-2.360134082596611734e+03
-2.820185657693580652e+03
-3.427510582764004539e+03
-4.262883400883918512e+03
-5.772986575848314715e+03
-7.690529965199783874e+03
-9.598355693871832045e+03
-9.670401255718990797e+03
-8.952361195979299737e+03
-8.019035644497615976e+03
-6.914428227799722663e+03
-7.588613781829109030e+03
-7.291541718179658346e+03
-5.482061539751764940e+03
-5.826196925114417354e+03
-7.329066804928278543e+03
-8.930671966125042673e+03
-9.736270193415093672e+03
-9.585995092705790739e+03
-8.910255075692813989e+03
-8.805395339195085398e+03
-9.492293919251318584e+03
-1.117901750177511894e+04
-1.250764869401512988e+04
-1.274731599626020034e+04
-1.283628165073017044e+04
-1.300561771677290017e+04
-1.318465587625639273e+04
-1.254593861477946666e+04
-1.211282194284535399e+04
-1.128049045436823508e+04
-1.175120348266938890e+04
-1.235033107473788732e+04
-1.169536864956097088e+04
-1.151471405844863511e+04
-1.201963356253544953e+04
-1.200047005740786335e+04
-1.219222373466537283e+04
-1.269300803968356740e+04
-1.367606130534358090e+04
-1.446069966731946079e+04
-1.516226551762391500e+04
-1.602114848080026786e+04
-1.607461205299659741e+04
-1.680103513040486359e+04
-1.782079105550779786e+04
-1.761592840909380902e+04
-1.741969429130655044e+04
-1.700742890458120746e+04
-1.633441018814365998e+04
-1.560985167163388724e+04
-1.449616533466562032e+04
-1.489297382495836246e+04
-1.486834015892934985e+04
-1.330012234189595074e+04
-1.040059925400706925e+04
-8.996987563728167515e+03
-9.509405983519493020e+03
-1.069875285081339644e+04
-1.074400687893807299e+04
-1.148227555720809687e+04
-1.191365473036370895e+04
-1.209521076558639288e+04
-1.182107779752489478e+04
-1.107922861248984373e+04
-1.075678463868423023e+04
-1.005091490390924264e+04
-9.630494175542171433e+03
-8.951473902695634024e+03
-7.872627519666923945e+03
-7.248811335162506111e+03
-6.640853679248682056e+03
-6.677727295586376385e+03
-6.546270796344540031e+03
-6.470286146533341707e+03
-6.748596140519836808e+03
-7.100064142696577619e+03
-7.577675256865274605e+03
-8.140672586163406777e+03
-8.834065295012007482e+03
-9.927815483268072057e+03
-1.091770519809769212e+04
-1.133642336202203478e+04
-1.158168330867394252e+04
-1.208041035337400172e+04
-1.206064836713220211e+04
-1.105938216307824223e+04
-8.692260406198174678e+03
-6.400924345395411365e+03
-6.145055861855218609e+03
-6.480591867963232289e+03
-4.468353370698287108e+03
-2.013230705861481056e+03
5.308364156143419876e+01
6.858629909458849170e+02
-1.692419141004348376e+03
-3.489991308130156085e+03
-3.120182864884202900e+03
-2.212886043916737890e+03
-2.594729515612765226e+03
-2.216949706070715365e+03
-1.661380233844761506e+03
-1.272446234888281197e+03
-1.287019663326578666e+03
-1.570350809101298637e+03
-6.468964669731935828e+02
3.847947487522934580e+02
2.308290821229950325e+03
4.241706192981660934e+03
5.185913725889859961e+03
5.085104486693366198e+03
4.702506170628327709e+03
5.020557967454536993e+03
6.217270500740531133e+03
7.410841487905352551e+03
7.247636212504472496e+03
5.789809571023862190e+03
4.383464113803333930e+03
3.421031349359747310e+03
2.961746092054187557e+03
2.719399968710498342e+03
2.478118704486257684e+03
2.908233471619113971e+03
4.106028782265263544e+03
4.146110812306474145e+03
4.516003749591150154e+03
4.323964447349161674e+03
3.863760829523083430e+03
4.503927152202641082e+03
6.407762555544558381e+03
7.116593251151434742e+03
7.114205621111418623e+03
7.376466766450322211e+03
8.544145594580068064e+03
1.087328977194629260e+04
1.221185668994158368e+04
1.101563620705158064e+04
1.007542300366749805e+04
1.056299383097538157e+04
1.115603131382452739e+04
1.151114336880964765e+04
1.092097713573455985e+04
1.003211883765614220e+04
6.623099858430504355e+03
9.373643485418257114e+03
8.992319529724552922e+03
9.563634925953461789e+03
1.222112359350776751e+04
1.015233511608637309e+04
1.211488392562172339e+04
1.173615772612893488e+04
1.385765975050193447e+04
1.407396082581079645e+04
1.267542213286786318e+04
1.535438730984691756e+04
1.308307698111674654e+04
1.206550480571938715e+04
1.226569249636119275e+04
1.035664362427384913e+04
1.140747658725309157e+04
8.762336897299250268e+03
6.640272638573033873e+03
8.427549205780740522e+03
9.886453066847801892e+03
8.572144220976491852e+03
1.078750922014376738e+04
6.936846376748740113e+03
8.093324543238736624e+03
1.013168647663991942e+04
1.207994768712501900e+04
1.398922804362132047e+04
1.617072472416467099e+04
1.586177047168281752e+04
1.495460704331650231e+04
1.334150813580298382e+04
1.207059700605364014e+04
1.290984583207996729e+04
1.034831727470588157e+04
1.230729319656784173e+04
1.185399597089653435e+04
9.074477908725313682e+03
1.069471094609698230e+04
7.219780469246129542e+03
5.883868591240273417e+03
6.753283894343997417e+03
8.162412471789718438e+03
9.337321819070939455e+03
1.072429857734600955e+04
1.163365269419729339e+04
1.215858078418009245e+04
1.208033832106515365e+04
1.139849644287579213e+04
1.072058799174169144e+04
1.019398863395008448e+04
9.690022914499213584e+03
9.372376035544117258e+03
8.407573762813952271e+03
8.312915730808703302e+03
8.914772930971890673e+03
8.425733582309083431e+03
8.119324676380198980e+03
7.389034235221292874e+03
6.451748883091272546e+03
5.634294912867562743e+03
4.773410331079146999e+03
3.745884291143833707e+03
3.433637771898591382e+03
3.266664947285611561e+03
3.565874431586372793e+03
4.523150170020157020e+03
4.654478016860010939e+03
3.479923449893115048e+03
2.415600641902475218e+03
2.679728684954604432e+03
3.172553580566296660e+03
3.369295844687972931e+03
2.428196594771037326e+03
1.798499060985809820e+03
4.475757447389646586e+02
-1.209979200047204586e+03
-2.965488120432728920e+03
-4.664182965423272435e+03
-6.519599735066779431e+03
-8.940074800893542488e+03
-8.762942861461302527e+03
-7.379645139180383012e+03
-7.387475559883137066e+03
-7.449748525602642985e+03
-8.074642631534858992e+03
-7.869061074238435140e+03
-6.607087685922018863e+03
-6.346809272536602293e+03
-6.065281700970187558e+03
-6.600495645146093921e+03
-8.425357570161588228e+03
-1.002415235854563070e+04
-1.258796156678919215e+04
-1.410342825190183976e+04
-1.398811117599959471e+04
-1.449991062607007734e+04
-1.641257575588704276e+04
-1.855671944966233059e+04
-1.992690193120197364e+04
-2.092071186299866167e+04
-2.244976751772313219e+04
-2.385775057556170577e+04
-2.481423038337768230e+04
-2.583873189574747084e+04
-2.564472893737769118e+04
-2.288584180779665985e+04
-2.017465585407953768e+04
-1.897665218299588014e+04
-1.865421242514016558e+04
-1.840870106194400068e+04
-1.968958360330941287e+04
-1.989033311835653876e+04
-2.004436754813046355e+04
-2.126409182356369638e+04
-2.344690566572572789e+04
-2.518707007839288417e+04
-2.655592494778657419e+04
-2.620166360292085665e+04
-2.531058969318911113e+04
-2.569409725211458863e+04
-2.566653381200982403e+04
-2.387831904398225743e+04
-2.220399681046016485e+04
-2.184697734236375618e+04
-2.148344673687656177e+04
-1.973797844671870553e+04
-1.636725376664014766e+04
-1.341556298641881949e+04
-1.099223772493032084e+04
-9.696681845717361284e+03
-8.061447626370912985e+03
-5.110147954334077440e+03
-3.203352449227181751e+03
-3.021549032342566079e+03
-4.548184916456815699e+03
-6.858627906550711486e+03
-6.575500660560824144e+03
-6.045480925027680314e+03
-5.690238666297565032e+03
-1.904487485879140877e+03
5.615145216796892782e+03
8.599946642571758275e+03
1.001215165848554534e+04
1.090460217882381221e+04
1.210450640174742330e+04
1.292910359986668300e+04
1.260729761277983562e+04
1.158605756307060437e+04
1.049529793978527778e+04
