-1.486551553005256709e-02
-2.377609836122246065e-02
-1.552797454583578277e-02
-1.582231573850606532e-02
-4.591038115799982861e-03
5.175307231782558075e-03
1.025274603506795036e-02
1.908231193196014905e-02
1.886470153909215741e-02
1.614963781270373905e-02
1.776194898771163086e-02
1.506722043114273359e-02
1.009127114066298535e-02
6.599840185485122968e-03
1.284006823626461383e-03
-2.349900113211652979e-03
-4.392124507814686857e-03
-1.019523002474712232e-02
-1.226019435435764943e-02
-1.130340550303621933e-02
-1.305663492898955294e-02
-1.459710615277171573e-02
-1.699859372621922993e-02
-1.373716058570981051e-02
-6.744171000964709409e-03
-2.749833612407858504e-03
3.716140029645805497e-03
7.505909188132859830e-03
1.253707817749962275e-02
1.937708086972880078e-02
1.557918571031600974e-02
1.004886590859733683e-02
6.356574203545069073e-03
3.420737589880107950e-03
3.387483983136454027e-04
-6.062022982205464774e-03
-2.246025879601940348e-03
3.541030155815013802e-03
2.554819909067692491e-03
3.661069990697116659e-03
-8.066861654485997339e-04
-8.737403079310803941e-03
-2.015699039730467837e-02
-2.595736998832205017e-02
-7.862557643663184437e-03
6.417435195601483774e-03
6.084597444232647812e-03
5.755651081461291355e-03
1.463485193762769331e-03
2.996605442725651554e-03
6.164476675735949297e-03
9.065990060226458268e-04
-1.858415739810455715e-03
-4.179075371332644298e-03
-6.214763645599793128e-03
-3.885826932829404209e-03
1.178047670352855465e-03
8.235976063143175471e-03
8.528472425351037861e-03
2.500523032168087360e-03
-6.441566801179379916e-04
-2.370047387528580640e-05
1.721102752918801486e-03
2.638892941471823565e-03
3.366452143434347545e-03
2.613146680198883114e-03
1.688524840337760589e-03
3.115061182457684510e-03
1.962309469723290834e-03
3.323958028695163987e-04
-4.319722339606239629e-04
-4.715943020824216701e-03
-6.010365984001084759e-03
-3.685404053024914084e-03
-4.387345515081354265e-03
-3.972687073936675278e-03
8.221038790138116893e-05
2.626348430330093311e-03
2.501612590500115231e-03
2.095000132034171864e-03
-1.089398835307760563e-03
-6.337409583842508638e-03
-4.838685580170692425e-03
1.021355614603340059e-03
3.028408007679976241e-03
3.292004559644734485e-03
1.626517688875232315e-03
-8.627487382329133720e-04
7.361598612636577332e-04
1.021839180975275211e-03
-2.031713871005801704e-04
1.401179141295284076e-03
1.484144117270667093e-03
5.993908449393672714e-04
-3.180206248832516749e-03
-7.611463460792710148e-03
-1.167274585016329046e-03
5.537230004644766099e-03
4.955601392596556409e-03
6.074718742362350196e-03
3.113027478654716105e-03
-2.385174641760348744e-03
-2.436346175451989567e-03
-2.787444766113212399e-03
-3.386394788055703629e-03
-1.854076589784074735e-03
4.918352674497043471e-04
1.769029286841634300e-03
4.097632670120333062e-04
9.233598665411962272e-04
1.208080952063432479e-03
-2.460724442223980596e-03
-4.605656377690433255e-03
-3.990715476463901033e-03
-1.060068258075602936e-03
1.571750955383317827e-03
6.484301680045147839e-04
2.696983257209222256e-03
7.206121131051176215e-03
6.521279187682200995e-03
2.069799085835145620e-03
-2.859785405493361216e-03
-5.436223694389893252e-03
-3.392869130632534050e-03
-5.194019932312961014e-05
-1.854165222271795654e-05
-2.049046637187653449e-03
-6.031988512138381246e-04
1.702295749642116548e-03
-9.808708305185197393e-05
-1.442121868538541636e-03
-7.481657352693435285e-04
-5.896706893215703481e-04
2.474283082507898056e-04
1.734905766326858218e-03
8.428446390643113805e-04
-7.733338728557663608e-04
2.851443329463554041e-03
4.953781695653252000e-03
7.731457670134354431e-04
1.754486531165600253e-04
-5.252385826013665927e-04
-2.485057535945481288e-03
2.377821880693386071e-04
-1.367134999957966357e-03
-1.060424132594394581e-03
5.017770430528570649e-03
2.422073247393595474e-03
-1.999619219677385012e-03
-2.495976119801320350e-03
-3.420876552453009766e-03
-1.375757771408063317e-03
-1.427216463913481934e-05
-2.020207322038422831e-03
-4.698990859552241127e-03
-3.531618181168958998e-03
7.696740540881467528e-04
1.194865642138655975e-04
9.235418121008895733e-05
2.225116409559655794e-03
2.187628812351251426e-03
4.316326796587026914e-03
2.722534678574277042e-03
-1.726734941117765917e-03
-4.585029113138086045e-04
3.076930991275298680e-03
4.312491757227727464e-03
1.446453186481351733e-03
7.149277422155710885e-04
9.960541955406744877e-04
-4.532999877168249724e-03
-4.979082331075961043e-03
-1.007501771677531176e-03
-1.953113408326273212e-03
-2.988322394967226747e-03
-2.289090416557173005e-03
-2.694585428183747023e-05
2.491858576176370077e-03
3.441897098370616959e-03
3.585379760949739501e-03
1.969799470672407675e-03
5.243655670784758095e-04
-1.664526489372013555e-03
-2.383019009400184733e-03
6.935984892507220979e-04
4.313852772005700108e-04
7.934209180841450874e-05
2.396323023151115256e-03
2.685134469365933318e-03
2.400550550765502642e-03
-1.895741893272250922e-04
-3.375636328711216667e-03
-5.029798430607061548e-03
-5.230555653753546537e-03
-4.693414951223287340e-04
1.124343241237167265e-03
-7.254595818542169559e-04
2.913081633541659329e-03
5.272101990390094979e-03
4.724396429829142395e-03
3.582171903360569822e-03
-9.103744190884980984e-04
-4.068195361694034243e-03
-3.671110543959689790e-03
-1.742166699404573173e-03
4.514679976489770403e-04
2.086195108701070604e-03
2.418576273612498082e-03
-7.775993625448320663e-04
-3.027266454958383712e-03
-1.863903625750147966e-03
-1.225882024296693100e-03
9.426954114629417208e-05
-9.687289666798513726e-04
-5.553930771304942983e-03
-6.161837605604138755e-03
-3.898131668409830948e-03
-8.875074947597599070e-04
2.428637872286017272e-03
1.143023709790729836e-03
2.579650393234661152e-06
2.444542882196326043e-03
1.934449999383576740e-03
9.068215212619834846e-04
2.563852468417874512e-03
1.723338692123460364e-03
-3.131127553148309100e-04
1.444694012303353921e-03
2.906396101537007427e-03
1.994426608162609346e-03
5.901856896471893710e-03
9.318049358421651857e-03
4.736638219961336084e-03
6.057841258989156950e-04
-2.694583814871637575e-03
-4.263647240805476871e-03
-1.407962804867436929e-04
1.885954864995806769e-03
4.105364506591933568e-03
2.891055134035243855e-03
-4.504369526113506314e-03
-3.497976782815459020e-03
-1.856124159701702395e-03
-1.517669467627271243e-03
4.603309175300643666e-03
3.616838310452181581e-03
-1.866921461784634955e-03
-1.228876053856130593e-02
-2.184179583547497805e-02
-1.105933642369409838e-02
-5.282873127125584361e-04
1.391969593690546981e-04
3.453572033313697959e-03
2.067811102500234123e-03
5.523384449533396724e-04
8.390272251505540187e-04
-3.244168297244163493e-04
3.663576173076027887e-03
6.704560771080296869e-03
5.761304781859534659e-03
2.679460361413134924e-03
-2.741187719524538872e-03
-3.852050258937978790e-03
3.913228107731304820e-04
2.990112902993557597e-03
2.531424349928645956e-03
5.588393763432873869e-03
6.105382953303416585e-03
-2.231980884168202248e-04
-8.580565737984525987e-04
-3.660832076595332439e-04
-9.972490368194552191e-04
9.536777806939629237e-04
-5.087204982079067926e-03
-7.767046545366500764e-03
-9.681000263447036040e-04
9.180037319551571018e-04
2.187612060863621671e-03
4.312232520228966720e-03
3.310809951499659939e-03
1.875651980938243708e-03
2.505060673523210979e-04
6.412408433059868431e-04
3.277429128033286987e-04
-1.155330620994439667e-03
3.756352621507487314e-04
2.130815828851617862e-03
2.487659050917850802e-03
1.097553808357090276e-03
2.235001580538129419e-04
8.332225869004141177e-04
-1.868622288725499576e-03
-4.192888056490355446e-03
-4.461510739914431069e-03
-6.356783813814950723e-03
-4.395094013273047155e-03
8.636388097612947073e-04
2.670739389829648695e-03
3.097672557618746415e-03
1.880237556460937539e-03
-3.338151914365435503e-03
-6.034403089769527564e-03
-2.350005924398479700e-03
1.884941544002634772e-04
-1.468047508355754512e-03
8.670463656336427263e-04
1.692489890579836802e-03
-6.281549129039195982e-03
-4.540859185103289855e-03
4.359553642033961104e-03
1.243619174101405012e-03
-1.752751079165775210e-04
1.642195343640655801e-03
-1.521106916749174988e-03
6.344291540563507317e-04
1.227307832686709479e-03
-7.279329933971358550e-04
2.314443463093591481e-03
3.213138422204323517e-03
5.238856144265719231e-03
7.880529878020807802e-03
5.815030855207892029e-03
1.315969057730029691e-03
-3.645422831499817509e-03
-4.933421308418966915e-04
3.976797585304383750e-03
6.408037478921022089e-04
4.211011031196122472e-04
2.132873215018645224e-03
2.003903738085774378e-03
2.274018548237170985e-03
1.765703156063054384e-05
-3.259560459757037017e-03
-5.545045006813247197e-03
-3.427198804531063521e-03
-7.637692348285551186e-04
-4.946422421793794134e-03
-6.950136513312141912e-03
-3.172360296217275905e-03
-1.294188425175704258e-04
2.465553859065867156e-07
-2.094165311504870338e-03
-2.954284722741929402e-03
-2.338988624124740782e-03
1.004309438374261421e-05
1.202461075063471869e-03
3.841762523085017443e-04
4.373513397270432576e-03
4.148234422096986479e-03
-1.711267063103061878e-03
-1.563143153304418333e-03
-2.779035238753022573e-03
-3.038926358101477244e-03
1.007347225912372810e-03
-1.043961248802885997e-03
-1.165018963753466225e-03
2.677389798415995715e-03
4.111351349876227017e-03
6.458458362541587283e-03
5.103236962428659915e-03
2.893790686601237054e-03
2.728077664878354822e-03
-2.269973588227963517e-03
-4.235015362994564922e-03
-3.201297809124854440e-04
1.735280223188722997e-03
2.831679242057725567e-03
2.390814486250054331e-03
3.248739390509965130e-04
-5.590854349123792946e-04
-1.279848889730122790e-03
-1.877337988773361338e-03
-7.095432064821963376e-04
1.499409923814079158e-04
-2.299425190240538507e-03
-3.927693775774095467e-03
-1.552672982529608621e-03
1.794192597324635726e-03
4.249394371057826046e-03
3.589040497409416546e-03
1.361848174365047062e-03
9.243716091997855101e-05
-1.083987676662154925e-03
-1.086414352699805949e-03
-3.043492584626837465e-03
-5.051908517209506046e-03
-1.716618752680310056e-03
1.205929912001430654e-03
1.449821559763505088e-03
-5.147607587399733679e-04
-2.901162788605699504e-03
-2.874206730819560494e-03
-5.733767260019817166e-03
-4.676143791110235273e-03
7.791174562633159349e-04
-1.292523623589048954e-03
5.883553142635182445e-04
5.947240546631018566e-03
3.882096839813129006e-03
3.712965139552326654e-03
1.868831892444381250e-03
-9.813870017585616268e-04
2.369825447906307846e-03
-1.079196746339716197e-04
-3.172989002785829918e-03
1.233084433557176014e-03
2.314272831944129069e-03
2.551695377878717558e-03
4.014277311939298300e-03
1.650145354177343484e-03
1.909538594882386094e-04
1.602989641269593555e-04
4.211171535014322548e-04
2.056821965060047844e-03
1.435193989856309305e-04
-2.364263774754584834e-03
-4.292217583189143651e-04
2.075080433683675106e-04
-6.712873716505813075e-04
-1.451797228207014597e-05
-7.203102354590910743e-04
-2.544363999644320886e-03
-2.952760031578111673e-03
-2.025428458497390786e-03
-1.534674631090230616e-03
-9.871944559193335852e-04
-4.163883162316107879e-04
-1.466777583586071883e-03
-3.925341463360393075e-04
8.266873783559834741e-04
-2.800932559902506746e-04
1.055882041844419163e-03
9.656245651319741725e-05
-2.346713867491806525e-03
-3.119314115014714534e-03
-5.860458209695849040e-03
-2.016925853007666813e-03
4.723840393961084225e-03
5.881558426277322740e-03
6.516570938648470757e-03
3.545850187234781629e-03
2.327401545016413720e-03
2.699651191499263022e-03
-2.249329154678054651e-03
-9.236426736106633601e-05
2.435201187506586332e-03
-1.586509256793840368e-03
2.666736252866530078e-04
2.140708878693326281e-03
2.135645857962398426e-03
4.175041762249846571e-03
3.055121112762975225e-03
-4.185031042557058219e-03
-1.559818117351149426e-02
-1.495061591684592774e-02
-2.808534692713285288e-03
8.152461023010350956e-04
9.965902139462746480e-04
4.971418179901790531e-03
6.916799949085662008e-03
5.868650858245949564e-03
2.557879030630115947e-03
8.667302887636556914e-04
1.545397331631006297e-03
-1.638435178332009468e-03
-6.128119453599359043e-03
-1.174614567329617569e-03
5.456162022826253552e-03
1.737767909629792204e-04
-3.626606660660904990e-03
-5.207483913549782861e-04
2.143630991499337812e-04
2.704525162737328112e-03
1.842422504406543904e-03
-3.478710658166003777e-03
-3.245249095056807441e-03
-2.193372235612091759e-03
-4.666442907230516435e-06
3.654490766243136905e-03
2.694199510221923291e-03
1.703754267150862011e-03
1.320370265474111299e-04
-2.797553331439288273e-03
-2.961992858318281997e-03
-2.419770477580327622e-03
-9.347944113509520751e-04
8.880450659777853681e-04
1.379642816234313363e-03
5.857091650578865336e-04
1.014515161015937955e-04
3.617764230499980957e-03
4.190261045565870333e-03
4.666632139885566115e-04
2.430397717149852382e-05
-1.945993225102675243e-03
-3.408856852156767932e-03
-9.861988975059896457e-04
-2.664481334570617207e-04
2.777516794273591615e-03
4.325390770786361090e-03
4.685180011157920993e-04
9.983126704271386154e-04
1.401626565416771129e-03
-2.198913122921685240e-03
-2.401214287249977750e-03
-2.847338197312113735e-03
-3.563796434592448985e-03
4.143416874976258140e-04
2.465561821388147397e-03
1.997623096670805495e-03
3.825599184397950742e-03
1.014843970396420852e-03
-4.770988337315213400e-03
-4.753079187426772351e-03
-5.589275833022800365e-03
-5.082832378700371211e-03
1.632272543994786433e-03
1.934261622273690312e-03
1.196392082796319395e-03
5.148547868690925462e-03
1.654499294872348791e-03
-7.401113603860335179e-04
9.984139910977486536e-04
-2.658596900589648912e-03
-1.555018048558989537e-03
3.575398661483328213e-03
4.653618691076739228e-03
4.237215305607666682e-03
-2.585849865586155576e-03
-8.298116593229610746e-03
-3.804126241438364215e-03
-2.561207913870047585e-03
-5.224958341995503130e-03
-3.343302478423491181e-03
3.540092384778858407e-04
5.185412940827537759e-03
7.601895757824011016e-03
5.675385469568030965e-03
3.689038989750299900e-03
2.992404693186387354e-03
4.232068482297669972e-03
2.516347952718249719e-03
-8.152704106568126920e-04
7.427402466017319618e-04
-1.182375727943154589e-03
-4.008439405928314325e-03
1.497544002847944061e-03
3.965695159013220977e-03
-5.076623985497373537e-04
-3.420335092175818669e-03
-3.453022888159239332e-03
-2.581757747733900467e-03
-2.239887219205852556e-03
-2.123711431928779550e-03
-2.312613397831168871e-03
-2.765479881555016426e-03
-3.459743117151404829e-03
-3.338493426619065264e-03
1.435911505737363231e-03
5.055335161594211313e-03
2.959790914008295169e-03
1.635844715108639418e-03
7.964738212820302466e-04
-6.061993314719887199e-04
-1.501558210518954542e-03
-1.683835051495409562e-03
1.901170683924881992e-03
3.398288791239848557e-03
1.025692425813927661e-03
1.705411692018191441e-03
1.828384441902259532e-03
-3.297754581821662860e-04
-1.911599478183602027e-03
-3.253980504347383802e-03
-3.125661145474743861e-03
-3.209052411753166283e-03
-3.330646084524836389e-03
-1.621480560475659170e-03
-1.553733389688321609e-05
2.167761849951826622e-03
3.060130784596544300e-03
5.854430050068233507e-04
-1.847048194785645085e-03
-3.200198978381195089e-03
-1.179247426686537252e-03
2.706418030654926012e-03
2.302075493338356493e-03
3.008268841608590684e-03
7.108621007942276908e-03
6.842533070642130635e-03
3.513077900547458086e-03
7.796260950805693462e-04
-1.224677481543001625e-03
-9.110093333257790384e-04
-8.625488448985516032e-04
-2.696191486318331651e-03
-2.544459628066730785e-03
2.378596526702756678e-05
1.765846516455932443e-03
2.391427374941076239e-03
2.595308764162225848e-03
5.721920804583442103e-04
-2.186325317194426354e-03
-3.468728082497874333e-03
-4.760703926265812992e-03
-3.720154823441860527e-03
-9.242812679666052270e-05
1.415511351334129263e-03
1.780340089103804677e-03
2.435957414510857809e-03
1.014947350539844315e-03
-1.298616873062302625e-03
-2.484681252621097087e-03
-4.090461600615923413e-03
-5.606099642583950264e-03
-4.908535737530798047e-03
-2.524352613794459809e-03
7.624389000922019918e-04
2.862359199984669533e-03
4.014329070677569340e-03
6.336946866035805988e-03
5.644504684335836971e-03
1.428229739127875918e-03
-1.157062126082389255e-03
-2.051229895739595677e-03
-2.082120298898425780e-03
-2.003070869199006197e-03
-4.241339756037056964e-03
-6.113261817121387956e-03
-3.078664340986205904e-03
2.235456427026891798e-04
-4.467650650050070289e-04
1.880482709598022700e-04
1.457491575868985305e-03
7.674365891530817102e-04
8.765029740886457138e-04
1.211442013676536974e-03
3.789073091463591916e-03
8.270569068837718696e-03
9.655083793662847316e-03
5.816799821801567003e-03
-1.582678881867144753e-03
-2.539759153132840550e-03
1.653024408464111826e-03
1.856645152098995808e-03
2.736548409507773283e-03
3.546050350484534000e-03
1.798288874663273333e-03
1.074794411047847028e-03
9.710941944782529832e-04
-6.853052402206079308e-06
-4.290576192510285429e-03
-4.677555538490843837e-03
-1.039578032813931897e-03
-2.175534029193321173e-03
-1.626123011728568355e-03
-4.807558869405516300e-03
-8.594139275247381082e-03
-1.483698407296217461e-04
-3.934311219389453884e-03
-1.736867552430482534e-02
-1.118870576169229275e-02
9.388929684092228029e-04
5.070836601852465875e-03
4.890418563665218342e-03
1.928723225662561146e-03
1.350159712837713851e-03
3.846149072209538358e-03
5.982333634070450927e-03
3.282400217262962383e-03
1.052298470514435045e-04
2.771194373010360708e-03
1.354344701889061142e-03
-2.754346118851683234e-03
3.504507261920657168e-04
2.217700801031538809e-03
-5.284526764414001826e-04
7.142351225981071437e-04
6.607119083690069471e-03
9.225304058026245410e-03
4.919565019297745569e-03
1.063706858558956551e-03
-5.214031811595126655e-04
-4.146298711952895594e-03
-4.239510794677263383e-03
-1.672859500447714150e-03
-3.328350227796472976e-03
-2.794040564512245781e-03
7.458724585531151469e-04
-3.321299461656988675e-04
-2.329633122383874527e-03
-1.710112840811678272e-03
-1.278784423892584052e-03
-4.474100510661426617e-04
7.098678095007737981e-04
-5.139607953684462811e-04
-2.533039147031085174e-03
-1.396045228077538248e-03
2.594637649429579456e-03
6.181012429630235519e-03
5.221277208743256050e-03
-1.680060434345140730e-04
-3.010882108088678080e-03
-1.973217167579194211e-03
6.099927742179583223e-05
2.379464096855105071e-03
1.027114486740528503e-03
-8.698542442930544101e-04
2.219193515263099062e-03
2.129731007242368756e-03
-1.927974639779558158e-03
-1.154580374735832311e-03
-1.739645849775083367e-03
-6.158797503084854734e-03
-5.934002846739572408e-03
-5.329829505606275934e-03
-3.915202056632268758e-03
2.677320317089723362e-03
4.101708055198492395e-03
2.649031947486782217e-03
3.178156600314955421e-03
-1.235523961777338850e-03
-2.134777508205109534e-03
2.759765776256431057e-03
2.413634643469859866e-03
-1.350511066806978772e-04
7.867852793259159905e-05
2.184771681597441097e-03
2.860600144256237633e-03
-5.510272197263390605e-04
-4.171632476530732180e-03
-3.846607186379662723e-03
-1.478721453645187936e-03
-1.919128656950605440e-03
-4.972969909537983384e-04
3.648945625688933617e-03
1.977927485752560121e-03
1.098384025347213903e-03
3.792073403750365144e-03
3.465563286163061626e-03
2.860552030694421544e-03
2.040716137544403962e-03
1.692824707615123506e-03
1.051849002719538453e-03
-4.683755730965844986e-04
1.956571415832050048e-03
1.551610194864118690e-03
-2.149270569597050515e-03
-2.750278406007601768e-03
-2.164696157130103441e-03
2.009821380799886592e-03
3.239268219028056117e-03
-3.071192259444690490e-03
-6.342966804472527018e-03
-5.694045669914774704e-03
-4.547487752842241035e-03
-3.808861199647020027e-03
-1.676893662067097807e-03
3.705400765444612828e-03
3.795021214061083947e-03
-4.180391997590521681e-04
-1.301430140848677678e-03
-2.096916945287488794e-03
-2.602993804116786238e-03
-3.088041135406213830e-04
4.352056048003314845e-03
7.866841028853984591e-03
4.446341622276280339e-03
3.404100015102686644e-04
1.511404681629325512e-03
1.449563874131901261e-03
-1.790680578630634298e-03
-5.178783226486226646e-03
-4.450692555488939585e-03
6.255890569364378406e-04
-1.246014949361243414e-03
-6.392398083414374023e-03
-6.583744436045441389e-04
6.060318305110980186e-03
5.725587302133881146e-03
4.722550008488568193e-03
7.134970949907667743e-04
-4.595330225680176704e-03
-6.308859812824644392e-03
-6.716986024998323167e-03
-5.979220950698419662e-03
-3.036600968979429657e-03
3.434850709637991308e-03
9.491670177321626795e-03
8.927825557932554668e-03
4.915751228575848675e-03
2.614724830071793113e-03
2.316921566168380405e-03
-9.787027198329497257e-05
-1.531427584443463595e-03
1.360130333543752923e-03
-6.382939925979008548e-04
-3.391737727637113894e-03
1.501462838472811105e-05
3.948639615748099525e-03
7.113157842833337137e-03
3.357876311688477201e-03
-3.309430313270858830e-03
-3.756178051791251183e-03
-4.804717186710060622e-03
-2.866189232483720966e-03
8.105051719299312223e-05
-1.872895688767910183e-03
-4.792826956303604261e-05
-1.569552050024726865e-03
-5.891633600228032494e-03
-2.582841532199015109e-03
-1.515976221590247062e-03
-3.946557414388667320e-03
-5.235962823514358523e-03
-5.755473871160824567e-03
-2.538533966674402353e-03
6.993777828778417055e-04
4.697374792496765948e-03
8.958768714019828272e-03
7.650965534532533710e-03
5.919337284324679462e-03
4.293596060259211034e-03
2.778030913864249808e-04
-2.577447334305924161e-03
-2.684580298112438593e-03
1.083312900942460947e-03
2.921943026767032797e-03
1.688535475969199506e-03
2.687124559803814785e-03
2.193463533162222801e-03
2.947320827675887264e-03
2.993740069316425372e-03
-2.874873196862096948e-03
-3.826625422509659803e-03
-3.448814245254342142e-03
-5.453202051058970296e-03
-2.295485222590440324e-03
-1.114519759018753678e-03
-2.456317793673988580e-04
1.666773866734064160e-03
8.657925334918303503e-06
1.735007326939174517e-03
2.171966052403838648e-03
1.674983297502744776e-03
5.841928181326283553e-03
8.091370504671737199e-03
7.729722149329119885e-03
2.501739337294141621e-03
1.044577472219513584e-03
7.932881565882678523e-03
7.002415117394251987e-03
1.831599596972666123e-03
-2.057759265634003659e-03
-4.984605724902133571e-03
-7.039496325760954791e-03
-1.297640976283885236e-02
-9.621264137139862865e-03
-2.087701947085835938e-03
-4.712330621038471768e-04
5.039779832673931849e-03
4.673360461455264292e-03
-1.347035226173680161e-03
-8.506539081534198257e-03
-1.225741965450991011e-02
-4.347538120289903656e-03
-1.230666381190765636e-02
-1.718752688399891732e-02
1.291892300489623328e-02
2.933995799595815260e-02
2.193391349624089492e-02
1.823428441664624172e-02
1.116354276576818870e-02
3.384373955191272414e-03
-2.927002440271137419e-03
-1.011865682386519152e-02
-1.532343901580251674e-02
-1.964212386190016674e-02
-1.786481747546206020e-02
-1.360332082804410758e-02
-1.239342012420066239e-02
-9.255005988905275552e-03
-4.902421483660296397e-03
-1.806852105472595352e-03
1.101814889401369398e-03
7.881236158831874533e-03
1.635729336008683032e-02
1.888479058509838493e-02
1.805228812005239825e-02
1.430500806486458693e-02
3.806639918460359533e-03
-9.514103091158594011e-03
-2.239946699792565860e-02
-2.788214293238286054e-02
-2.251885322568356745e-02
-1.939671456543487493e-02
-2.010703205480874819e-02
-1.261715216615412992e-02
4.445114663202882378e-03
2.325882040245860760e-02
2.944817868369893621e-02
2.073164826549525955e-02
9.464291543635226789e-03
-3.787151266389845831e-03
-1.557248296180274716e-02
-1.479850790467257017e-02
-1.574297723123628361e-03
1.806802726071944296e-02
3.642466738542100846e-02
4.677460346397569607e-02
5.248193779016685490e-02
6.375285006683095723e-02
6.785188822539486853e-02
5.456697785552717256e-02
4.506303572963619303e-02
2.673585331547473007e-02
-4.774202749638911669e-03
-1.157579062506962006e-02
-3.912690420878101386e-03
1.190915810543143960e-03
-8.976484553701969543e-03
-4.705564540836483511e-02
-7.060336186346054255e-02
-6.422994482587154885e-02
-2.700360381195915024e-02
-6.348377962149404086e-04
-7.790663393250107926e-02
-1.584308836721213254e-01
-1.357471176118547340e-01
-1.102942268096609030e-01
-1.189929758059757176e-01
-1.432617189148418790e-01
-1.571911462875347221e-01
-9.952725023940392490e-02
-3.224835833272793328e-02
3.503564314381613434e-03
5.972167082724020443e-02
1.245023900859094229e-01
1.859790215707213812e-01
2.017568713650472190e-01
1.272686551560646973e-01
6.315756461613714068e-02
7.955286347387856283e-02
1.141354208870721532e-01
1.155469957609610993e-01
1.017782242633909484e-01
1.154738401886349214e-01
1.364900671273077404e-01
1.318010283506846625e-01
1.202305040507838929e-01
8.572943954078379725e-02
2.790664093879634267e-02
5.718406362003909151e-03
1.448542180455513438e-02
-2.233314763338713118e-03
-5.981053810972945806e-02
-1.136892869355361768e-01
-1.193860989750197971e-01
-1.098361773018759341e-01
-1.199756750473879585e-01
-1.312934763868865429e-01
-1.534120294225874703e-01
-1.959244858392262534e-01
-2.117006328959641914e-01
-1.821840729286669791e-01
-1.443155732475999709e-01
-1.005305936119602755e-01
-3.793075297688708325e-02
-6.434217924342565918e-03
-1.499802020776233070e-02
4.173208762637389824e-02
1.507144892712271311e-01
1.276376621849128479e-01
2.486992273557792673e-03
-1.994163133976546362e-02
5.009880705264532948e-03
-3.133557579878819277e-02
-1.713943181309704814e-02
8.180582809464453931e-02
1.709861987244865045e-01
2.092594501172209964e-01
2.020967754450976039e-01
1.825862804076904267e-01
1.430028923766971660e-01
6.030598125762829526e-02
-5.172495475392042616e-03
-1.677047866453657693e-02
-1.356304841270464245e-02
-1.407145441754777300e-02
-1.499797854621046783e-02
-3.330619631840917028e-02
-5.198876866378176337e-02
-2.578224850607205645e-02
-2.090860820316613623e-03
-3.067998288019540068e-02
-5.043267583600116732e-02
-4.046227534470151627e-02
-3.862037368695952350e-02
-4.449260164246598287e-02
-4.836293855720985579e-02
-4.381195805835174512e-02
-3.805490041626473363e-02
-3.947782178911280609e-02
-3.488143211335022892e-02
-2.806397317977536027e-02
-2.224578567270853874e-02
-1.224057769481750116e-02
-6.534684578506110876e-03
-2.346059194970244541e-03
3.007280628102570151e-03
4.930375599261888238e-03
7.803033776867571158e-03
9.591155009313326665e-03
8.391641177538185573e-03
8.672530532108032458e-03
7.035709037481983896e-03
3.143230158209171787e-03
2.185840835430385553e-03
2.318357324283120812e-03
4.096944729930959359e-03
8.491947955526400749e-03
8.389367806205676875e-03
7.458955685088470081e-03
1.216381729732295483e-02
1.651529013902466522e-02
1.964137652631328321e-02
2.247952675291821703e-02
2.144435926194487169e-02
1.881098503075490092e-02
1.998054804144813387e-02
2.268290861910400233e-02
1.896019462312846168e-02
1.266641515718743005e-02
9.644804844341369268e-03
4.398639551729153878e-03
-3.179911081044270362e-03
-9.256548326751410510e-03
-1.135505639793917346e-02
-1.103115241627817406e-02
-1.353869647595274360e-02
-1.584861442079209259e-02
-1.487902527387139143e-02
-1.292174379051463408e-02
-1.523717824235965891e-02
-2.026383180394357095e-02
-1.878110900209377029e-02
-1.763886875262526965e-02
-1.712368846199697342e-02
-8.352316304195452068e-03
-2.070661956328547718e-03
2.153189248551231044e-03
1.046756701862109479e-02
2.063623150640442327e-02
3.670729827929685579e-02
3.792685545031413558e-02
7.659092007830820351e-03
-1.917173807654686674e-02
-2.039533454767748083e-02
-1.448585460997499699e-02
-3.929818564618808158e-03
9.081038299875819966e-03
7.147343210122142354e-03
7.667028746343504571e-03
1.711807000743971116e-02
1.297490034254571850e-02
1.102052342235668690e-02
1.502153463636684075e-02
6.917295138227141926e-03
-7.774730804178419698e-03
-2.590476297081674081e-02
-3.140689635810715169e-02
-2.594123185891917399e-02
-3.169799892498659927e-02
-3.284867687546385445e-02
-2.740929856994036781e-02
-1.539487940876474621e-02
1.009980447153952833e-02
1.601151200285923573e-02
8.872568978142389082e-03
1.826073953556640872e-02
2.710265731251770491e-02
2.232511565324489175e-02
7.863954977877634159e-03
-3.048711508222394788e-04
5.304523893583894603e-03
8.689801155867519014e-03
9.940408407761414447e-03
9.271287917435233270e-03
4.233797774939493733e-03
4.851921334301989228e-03
4.715435396571405514e-03
3.218843624370820115e-04
-5.516645081443812774e-04
-1.017221861711203488e-03
-1.519298173240402798e-03
-3.330102553458690051e-03
-8.377650017439638649e-03
-8.817457666166848146e-03
-6.631778973887327185e-03
-5.936787093064987801e-03
-1.793050035404738845e-03
-2.567113270343471558e-04
-3.774814174959374279e-03
-4.169295034741314805e-03
-5.576769161519674889e-03
-8.826085136798661815e-03
-4.683424361717947529e-03
3.060818485834274592e-03
6.670462100140999058e-03
7.737987265530452650e-03
6.825772641652243407e-03
5.376466581737363894e-03
5.909622736213485800e-03
2.326763785342260762e-03
-9.382670813467080227e-04
2.483501192018972709e-03
-7.859856202567920037e-04
-5.414506503075983135e-03
-3.299336566964488748e-03
-1.465475693560556580e-03
8.848498409716833157e-03
5.673253023238440315e-03
-2.033347597632713388e-02
-1.950491442845465537e-02
-1.599114324185485318e-03
-8.112324633133614731e-04
1.108650651866835771e-03
5.175543700141408722e-03
5.316067917656520925e-03
6.016657282588802960e-03
3.800744114204736811e-03
3.162030881787705056e-03
1.928588312885082170e-03
-2.706731984050987812e-03
-4.389121960849911956e-03
-2.082027422853223973e-03
1.815338702988457051e-03
1.256313435807305395e-03
-7.446392392066853404e-04
1.979055167970850734e-03
4.476648445755380262e-03
5.439325233200607325e-03
5.286696639750868183e-03
3.247334469082426706e-03
-1.833451276636190999e-03
-6.466504321735629980e-03
-2.713655590248205494e-03
-1.443004530515716545e-03
-5.014112875934900390e-03
6.966347063988277905e-04
3.953697897058136915e-03
-4.091634861356440410e-04
8.905567714463654772e-04
2.173061057663279536e-03
3.863953880511854667e-04
5.718623271103093469e-04
-1.546105403153725773e-03
-4.598473152863644109e-03
-1.841532830690408278e-03
4.068099998803642592e-03
4.940971325666222887e-03
2.846421013874281519e-03
2.483942533119215708e-03
-3.652305107474420318e-04
-2.579354329015013866e-03
-2.057556239203475919e-03
-3.361205748322171945e-03
4.287441445660836051e-04
4.777216986396038562e-03
-1.995672759046861373e-03
-6.173727971063766237e-03
-1.006503970370571611e-03
1.137925146412007435e-03
7.384615407130751610e-04
1.689175522635087126e-03
-2.564914242082007821e-03
-1.077598265911968237e-02
-9.609112104228519427e-03
3.783059417817887351e-04
3.492491534823337004e-03
2.962080475183238642e-04
8.751747557820806298e-04
3.540796198193790073e-03
3.812594378354838224e-03
3.295442457458373905e-04
-2.475149938976558238e-03
-6.594910343481578952e-04
9.311625835500401309e-04
2.316442654029024668e-03
4.232139827966411791e-03
2.549449231547646581e-03
9.327552452971374841e-04
-2.084798734587249114e-04
-2.326653126200015857e-03
-1.981709137091309343e-04
4.649562584812554815e-04
-2.638819771688072531e-03
-9.305977883745598835e-04
1.373266763472349300e-03
2.081832271799513058e-03
4.940073504788332348e-03
5.058221393376638453e-03
2.966060527463396709e-03
1.675942918174575576e-03
-4.126788689640749396e-04
-1.165539628111496350e-03
-7.658566285278637145e-05
-4.746188210395356228e-04
-2.075168086563331654e-03
-7.539321117011161481e-04
2.259426664524127708e-03
1.135262559617625623e-03
-2.926754833322621572e-03
-5.218558027533382569e-03
-3.401277353811500790e-03
-4.741061436988576808e-04
-3.139607887138768684e-03
-6.127243956227468834e-03
-2.375243382709513358e-03
1.168016693631143861e-03
1.491865275413790286e-03
2.591513514090006826e-03
4.587394620538104255e-03
5.112295592689719559e-03
1.921924086013314078e-03
-1.709036360746844872e-03
-1.749767067565075008e-03
1.549850938780290019e-06
6.058295768923148460e-04
-6.680014721787634179e-04
1.754041335294403156e-03
6.358400409121857215e-03
2.176481282293652505e-03
-3.898244408248810119e-03
-3.643857611879264182e-03
-3.765836409516466147e-03
-2.813027890348088721e-03
-5.841609312492873369e-04
-6.291192153437158733e-04
-2.453445129419973498e-04
-4.151670822458042743e-04
7.881494926700752333e-04
1.668167210781645307e-03
-2.215847263883376911e-03
-2.709503472059136830e-03
-1.131367059485763630e-03
-2.093880864596907743e-03
7.395971764511172133e-04
2.515634778450853357e-03
-7.513577978890773144e-04
-2.080184486558274252e-03
2.204122679312748938e-04
1.810845682199763423e-03
1.675015664467821878e-04
-2.550446139761535077e-05
1.424403104936816699e-03
2.387121156232766602e-03
5.553880102999767324e-03
5.676457657961994988e-03
5.006447780137518629e-03
8.147740091408306809e-03
6.022810649829563392e-03
1.649399070531107825e-03
-1.113509458634374342e-03
-5.189727372546392055e-03
-5.811087725115623298e-03
-6.686980065662683111e-03
-7.810338170407306324e-03
-3.519548590225212836e-03
2.390524146324394215e-03
8.963390694926588395e-03
9.799602977703754034e-03
3.521057989362351773e-03
-2.800974873351715511e-03
-1.481326917217915332e-02
-2.024209167747489241e-02
-7.274506418650949872e-03
-1.833636564818369083e-04
-2.123444886798016469e-03
2.447758067052233956e-03
4.547354987921475508e-03
3.188614507689995284e-03
5.377603020064567960e-03
4.090487770650266114e-03
5.138972753992723189e-04
-1.277368212835779137e-04
5.245703002521515113e-04
3.557154940154265508e-03
5.678742445177838681e-03
4.674759106074844774e-03
2.680396730475604738e-03
-1.473001799843100647e-03
-1.690870133114786905e-03
-1.121119466172826318e-06
-4.111233048893766368e-03
-2.721731631044280435e-03
9.076160892198229142e-04
-4.618488887938966732e-03
-6.112724210612636641e-03
-9.447789581490083355e-04
1.288371702461550260e-03
-1.210214865652568003e-04
-2.388852057523794224e-03
-1.112899147591125612e-03
-1.670420813428804066e-03
-2.348633249489709852e-03
4.937559696202535077e-03
7.609290252354451028e-03
5.043656867430306064e-03
5.582395421235192105e-03
2.457914048579121474e-03
2.905545045302492814e-04
1.977977038638870327e-04
-1.919647452023119693e-03
9.408057605464662616e-04
2.899678504578997226e-03
8.901365470198724632e-04
-1.570444975019341140e-03
-5.830300704082615193e-03
-1.090243853249603422e-03
7.257203622173750285e-03
6.223995863000087586e-03
4.607652894115766076e-03
2.774526623508376689e-03
7.128923475904672775e-04
-3.992895337468030728e-03
-1.762862543357467116e-02
-1.756790984696932068e-02
-3.595442117909495010e-03
-1.206199045002370133e-03
-2.257218391235508471e-03
-8.244228513446639301e-04
-1.470818996496723718e-03
-1.584720161806839160e-03
-4.759247385133792349e-03
-2.669066251697519918e-03
4.523044616556160663e-03
4.383877465342686693e-03
4.784856912994042873e-03
4.504423278486952703e-03
1.957750372022630438e-03
7.076584411253464789e-03
7.055457462609731993e-03
-2.626914454522616751e-04
-1.708293419119422596e-03
-1.859186328430458912e-03
1.305700796324012723e-03
7.161522520147370514e-03
4.958453822233758329e-03
1.423723856391299674e-03
9.191625094025458135e-04
-1.725230255629422917e-03
-3.672668315311112316e-03
-2.247428732488718217e-03
-4.706523059528783270e-04
-1.131050777393533642e-03
-1.702098794054176124e-03
-2.278804428957345498e-03
-3.232275462613071280e-03
-2.874189361170877144e-04
7.444978473497738947e-04
-1.501777543817244855e-03
-1.759803892403929938e-03
-2.972425319320259364e-03
-9.509907458317534267e-04
1.842668024422717101e-03
8.918051745125343778e-04
5.343717059802723969e-03
8.070491980819393535e-03
2.880595166653268993e-03
-1.445607268037280100e-03
-3.656659086057176614e-03
-3.765566458231656751e-03
-2.217366517198311217e-03
-5.384293634075832053e-04
-3.220483523637074352e-03
-6.462916939672482160e-03
-3.693800873042263387e-04
2.698212671946615283e-04
-3.359891032351626419e-03
2.374772917033900459e-03
3.596486954618230251e-03
3.546379333484285870e-03
3.296113787980514426e-03
-3.937934461139692109e-03
-4.533096185747304170e-03
-4.226556256044342215e-03
-2.100987494856946993e-03
7.088820914337027115e-03
8.757566215290340725e-03
8.572987947546286888e-03
5.498803553878682526e-03
-1.157491585617888893e-03
-1.310071875142674366e-03
-4.798408689265645961e-03
-3.655937307746200647e-03
1.840392314403508376e-03
-4.073712550426040850e-03
-6.432360988525701213e-03
-3.102152780908281563e-03
7.945413067478734751e-04
6.428896492303533793e-03
3.026303875176191652e-03
-9.894643677704610153e-04
-7.623879580370186444e-04
-2.945445529837485612e-03
-4.295741322688184064e-04
1.098010864055504188e-03
-4.004940801879361759e-03
-5.232130161064324839e-03
-1.962262443677714567e-03
-1.172133638707298971e-03
-1.690452884309389661e-03
9.455338523436149873e-04
2.657950445703294220e-03
1.337069519613413252e-03
2.738299929069494976e-03
5.875653786903922877e-03
5.676947253558276701e-03
1.855949028816971996e-03
3.365504369292849837e-04
4.205649033981767593e-03
6.976390399482931826e-03
5.992563344103652052e-03
1.639580064991020669e-03
-5.237702929501529894e-03
-6.190251357035523455e-03
-8.575585902759069474e-04
1.310216510777130559e-03
-1.518419132933319373e-04
-1.708354908081823748e-03
-3.549124945551799908e-03
-4.382777101520238423e-03
-3.962845815233768942e-03
-2.517452037526890767e-03
3.214918966494873269e-04
-1.082731780256291189e-03
-5.904946127088455538e-03
-4.707732835485936573e-03
-4.097168129118322144e-04
1.350997163617325683e-03
2.877640754617385391e-03
3.070604696669635824e-03
1.713019800582308867e-03
2.430707019406934117e-04
-2.178028171713285339e-03
-3.399748032969532232e-03
-2.486263816472445917e-03
-6.814693265192921581e-04
2.448134224799876444e-03
5.285108907630987028e-03
4.232756860742553466e-03
-2.822349351449435998e-04
-2.722704748614913385e-03
-6.632963253927201064e-04
1.481121810165923454e-03
-1.151168630378173320e-04
-4.129250815167621012e-03
-6.431335107265507937e-03
-2.707673013125569059e-03
6.318745465811775180e-03
1.119658186112656301e-02
7.716861279593153523e-03
4.727935631307276371e-03
4.117716840955984968e-03
-1.397140642717890197e-04
-2.685931184797888706e-03
1.237294798478843052e-03
3.391365102911311769e-03
1.545572065516799933e-03
1.717937096959986591e-03
4.628973277700138044e-04
-4.199563330685332323e-03
-2.366443275748209181e-03
2.648970680430615988e-03
4.036645363232233843e-04
-1.186089607978424530e-03
-8.002108865277957105e-04
-4.252745794936041955e-03
-6.284543551228763229e-03
-1.263920892749581179e-02
-1.645787045779998140e-02
-1.073808322499849189e-03
9.558972670760897128e-03
4.883677690940436272e-03
4.402628934715544992e-03
2.279875274919358329e-03
-8.785888281149900180e-04
3.301722547113838165e-04
-4.467478606998824889e-03
-5.260529404870488597e-03
1.139907798529303778e-03
1.896054334880106600e-03
2.553705962720905463e-03
3.395338598887145953e-03
6.194068715896901495e-04
-3.838830972175635457e-04
-3.542754427669921134e-03
-5.687515062280867721e-03
8.273009745118700686e-04
5.008123646249552745e-03
2.899104475665645764e-03
2.828457400827356048e-03
2.949040143503783504e-03
3.529857578446587681e-04
-1.979805045234535581e-03
-2.090339427227420194e-03
-9.542900252146462340e-04
-6.326100909032430792e-05
1.025337771109434849e-03
1.067394706120701128e-03
3.516266188673097858e-04
2.561387136852641671e-03
5.812260425657806394e-03
4.024959264887484171e-03
-3.689444489831523164e-04
8.732671935898914583e-04
7.969419463260445568e-04
-5.231094560209400939e-03
-3.760038693012518300e-03
1.833385168876225380e-03
3.140022681545429593e-03
4.617581147601134382e-03
2.835431788985521683e-03
3.326057289537869043e-04
-3.369087746977954094e-04
-1.790634746849898264e-03
4.456819945787376361e-04
1.520342141119930459e-03
1.948956706594430922e-03
-1.029102859108375857e-03
-1.704558462549654249e-02
-1.906888465064072308e-02
5.901752862942251637e-04
6.140844602063516566e-03
-1.010121288950703317e-03
-2.823442416924951820e-03
-4.364242391616126628e-03
-4.091568609887944255e-03
-1.248976934158520886e-04
2.319349284456723864e-03
4.472487992193287416e-03
4.707308500215860378e-03
1.682058580087922306e-03
4.474113259320282093e-04
4.799101887920597352e-04
1.095537470208770518e-03
2.812831640580065566e-03
3.470294752790497542e-03
4.404811669053960467e-03
4.434848118794125493e-03
3.312991408400164321e-03
1.278885600040352479e-03
-3.739290149913592105e-03
-3.805755076928354821e-03
1.103350081861728888e-03
4.467288241096329347e-04
-3.741014788413435203e-03
-4.680058941168687217e-03
-4.946645164208664843e-04
3.176826377498645840e-03
3.421120891776947143e-03
4.066297195187818132e-03
1.753232514846480086e-03
-1.655553526565318404e-03
-2.044425292880631094e-03
-3.284246009187168167e-03
-3.177604907353491059e-03
-2.448213621064538638e-04
1.677893067661468405e-03
1.621697168172051007e-03
1.707840988948708264e-03
1.358006698274802707e-03
-8.988850092939285660e-04
-4.659197754625424553e-04
9.020265811893410108e-04
6.081197544624913518e-04
-5.718278350077524077e-04
-3.822858758394117630e-03
-6.241352836049875847e-05
3.826770126474944404e-03
-1.290710587366130377e-03
-5.912284538598716263e-04
-3.408742838948536054e-04
-4.271540315223499099e-03
-2.471365216794780151e-03
-3.140336057872310759e-03
-2.182769564750494835e-03
-5.268412033404622045e-04
-4.039724333414432093e-03
4.811753092652471735e-04
5.190767399840818218e-03
1.972628914123603344e-03
2.314449807335996394e-04
-1.068038747240175005e-03
1.185705873680064986e-04
2.870067511913031513e-03
-6.235480289844016035e-04
-4.575851311841001509e-03
-1.584005915238145346e-03
2.347082152060905435e-03
2.811367318134858247e-03
5.770377098072564971e-03
6.742390862779436451e-03
3.134697095432031943e-04
-1.881816741576121605e-03
1.897505210148406340e-03
2.765608831511879445e-03
-1.408255247789112112e-04
-1.195452843537959378e-03
3.622371126138022868e-03
4.719308453032425993e-03
-1.583041482677483361e-03
-4.326808602704989778e-03
-4.050522010370702537e-03
-3.436541923573371848e-03
-2.104352719501641732e-03
-5.482475378770588353e-03
-5.855044873319966911e-03
1.006051005886256320e-03
1.726752982241807439e-03
1.117834637275969142e-04
2.858146259175760925e-03
2.964113434067907477e-03
4.272105932536619972e-03
3.827962445054300996e-03
-2.805462071438247999e-03
-2.495173743323636853e-03
9.602773099479318441e-04
-9.719155527530626759e-04
-1.425310049379320239e-03
-2.058882788308187550e-03
-2.615060711361546272e-03
7.512209657903535414e-04
1.838521487714697917e-03
1.400174322322890886e-04
2.782077935003629521e-04
3.093860833103141954e-04
-1.490110498684147147e-03
-1.886868591613405713e-03
-2.447143290284137154e-05
1.547825501255310982e-03
3.317879521251676945e-03
4.077242472833967311e-03
1.975162174314807305e-03
-6.447965616197684838e-04
-1.830028956522529839e-03
-9.850954134944446983e-04
-7.103417499258379755e-04
-1.236644327672987986e-03
-1.273503069995165961e-03
-3.678606776817808927e-03
-2.284266096779121250e-03
2.706998205633586504e-03
5.712499582297510996e-04
-5.755917011467034938e-04
1.140683380606003503e-03
-3.529413499931199211e-03
-4.962844608429902056e-03
-1.595557357568585036e-03
-1.206781137178725930e-03
1.578310584728327259e-03
6.678965654155554627e-03
6.781151035863055600e-03
2.159085879756673151e-03
-4.558746441601672569e-04
4.967815101323506000e-04
2.385839975699621199e-03
4.190441069380454985e-03
6.616464438178272164e-04
-2.539940243190055413e-03
4.534912679444744275e-04
5.389237065089199068e-04
2.600270928780325230e-03
4.574782249386817080e-03
-9.623629493648838251e-04
-1.297102618073570687e-03
-3.492589949399220635e-03
-7.749598961989873948e-03
5.030402894397141751e-05
3.842390611719121753e-03
3.096644558780162291e-03
6.496743844717585946e-03
3.608188198606607309e-03
-4.983415321706863993e-03
-1.832629509315105223e-02
-2.177782608379399965e-02
-3.015833635980429660e-03
8.550080633597578750e-03
4.581165827215100128e-03
4.555354627891621683e-03
4.293403456885110797e-03
1.693876733049767781e-04
-1.734489790846414047e-03
-1.667396642581125054e-03
7.132480751473772385e-04
1.460760620519772250e-03
-2.668987963003134102e-03
-3.825203432691860316e-03
-2.042915700154568619e-03
-9.530581325998907114e-04
4.604232494994369915e-03
8.141193543179877506e-03
3.524188808218811902e-03
-1.325134298246232779e-04
-1.394503550940089402e-04
5.016195933254201768e-04
1.151082099174086147e-03
2.319810217336170169e-03
3.460118929851581024e-03
1.881320907957455442e-03
2.181606129125892375e-04
-1.051406895657988269e-03
-3.115729986564756346e-03
-2.084054687052475357e-03
-7.091168165610281906e-04
-3.167593903029561082e-03
-4.164906909945422300e-03
1.908551800301480986e-04
2.047041348926452280e-03
5.867840486379113235e-04
3.936401146035723407e-03
5.001718635554972849e-03
2.883945538785439178e-03
2.944267264750143227e-03
-5.818429935143237114e-04
-1.279128100402282661e-03
2.473750644943095277e-03
3.665610882729661638e-03
3.599720241833119332e-03
3.350868091690064297e-03
5.066012964284375385e-03
-6.968252292879784093e-03
-2.582962116250228646e-02
-1.487283053008183267e-02
3.298462332916674098e-03
3.740722303717825339e-03
1.878253723340255182e-03
-1.833393130858335020e-03
-3.355725351096912226e-04
2.828725495588559156e-03
-9.364682250138123038e-05
3.975663997902996287e-03
3.303459708465124149e-03
-4.590481680664518227e-03
-7.369117862037507030e-03
-1.010867287155933249e-02
-5.270299910556820906e-03
3.793281578190633302e-03
4.790232497649620468e-03
5.273917482124681685e-03
6.402740448544033160e-03
3.497112047940539696e-03
-8.488342908903323547e-04
-3.135105747576800604e-04
1.907677207123702721e-03
1.977544277216343872e-04
-2.483705396840400065e-04
-3.735930351476297005e-03
-5.702459668151403996e-03
2.970712003799920800e-03
7.495238365670943599e-03
6.579377940100160013e-03
5.690869347560630759e-03
2.868197499077903851e-03
2.519897156685866214e-03
-1.021135508387293472e-03
-2.854704162082897026e-03
2.515032198851178957e-03
2.785681772970087598e-03
1.803858390876167568e-03
1.671586635930961831e-03
-1.202113894632518987e-03
-1.093103191687386450e-03
-1.147894396268066969e-03
-2.847837333948867455e-03
-5.567776789122279649e-03
-7.979508526099968885e-03
-5.697503796056624728e-03
-4.167018830987493858e-03
-1.417826947926896768e-03
5.308798313239482952e-03
5.277017834951909861e-03
2.145677463139063256e-04
2.626178590834538258e-04
-4.044305947235351780e-04
-8.184795048294420464e-03
-9.047803021977392224e-03
-1.087765067557862602e-03
1.175237198499480074e-03
3.242680616863072730e-03
5.175236410910290762e-03
2.343304815416951455e-03
2.840961956112729708e-03
2.629418003171744237e-03
1.600026195692027522e-03
-2.208726628905621856e-03
-1.076034320973313398e-02
-6.631209614123599085e-03
7.192393644720324053e-04
6.346729183198903702e-04
6.656940161463404358e-03
8.853947266753784892e-03
3.351040142321036041e-03
2.889517939148036549e-03
3.223401198686504619e-03
-2.579416468556598317e-04
-1.038718704102966142e-03
6.733794596513488755e-04
-5.680889663537735772e-03
-8.665714329105981759e-03
1.876627081506241062e-03
4.603719356559531940e-03
1.285097179731407944e-03
2.571028205501549313e-03
-9.905535467363458407e-05
-1.508546338224365548e-03
-5.181869124405763440e-04
-2.578749062149311168e-04
1.264135954803524654e-03
-4.452109154086759729e-04
-4.359471700871949849e-04
2.690356897268667002e-03
2.382991277626357769e-03
-4.496978163807025019e-06
-1.963148409387887369e-03
-1.741216612197406775e-03
-2.238680535292630804e-03
-2.354168043153335738e-03
3.087191830521885294e-04
8.812754614487916614e-04
2.942147232276818864e-03
3.834123917718625964e-03
-2.090041364312368523e-04
-7.735702924250622550e-04
-1.361000279123379805e-03
-3.506613316390134582e-03
-4.172748420257920907e-03
-4.994052147374979968e-03
-1.489175151752416540e-03
1.331979724169989662e-03
8.898286615966492698e-04
2.423304940728905621e-03
1.111885354270610200e-03
2.558591960194626968e-04
1.382447821370845660e-03
-2.094665955769503801e-03
-2.550453712604214621e-03
1.890872748047457566e-03
2.739173293478355461e-03
2.444980282338239403e-03
2.690971514942052008e-03
2.351469990663233108e-04
-3.322378732763593039e-04
1.096832707841722794e-03
-6.676693085788212075e-04
-4.401283783151235026e-06
5.078218112424518925e-04
-5.869593449884748584e-03
-7.079345296233347656e-03
-7.399603523080119840e-04
1.935851474701275835e-03
1.274417718033744569e-03
1.310387253115914393e-03
2.083138807199651742e-03
4.556876282712884856e-04
-2.810314359869039904e-03
-2.118497119189255689e-03
8.547301243143035857e-04
2.291560220544191628e-03
1.930367189068806508e-03
1.926058055553906984e-03
3.677605665039232474e-03
2.681615885378025709e-03
-3.731671272652996307e-04
-8.272934815679505510e-04
-2.298974882411233562e-03
-4.999908523298766255e-03
-2.669694414590400005e-03
1.745312346853102395e-03
3.168925486990636572e-03
4.912531952356796218e-03
5.486229221507674635e-03
3.774432192079930394e-03
5.082903209918911841e-03
4.830104904628717416e-03
9.249489875768414663e-04
5.562036557779482344e-04
2.233446097911013107e-03
-1.228607126996591244e-03
-1.425200949509480494e-02
-2.192886670147117106e-02
-9.773756833324808227e-03
2.110979420873835156e-03
3.566331267017051974e-03
2.539760539532353971e-03
-2.559364057230771074e-03
-3.821696936959125598e-03
-7.534677411549826160e-04
-5.082928602315649408e-04
8.845425402232543572e-04
2.614553582527028713e-03
5.618893047982503192e-03
5.469216320223460430e-03
3.023759902022261133e-04
7.203885734927604166e-04
-1.307893029056755125e-03
-4.305614712576280242e-03
2.181099150214198430e-03
4.175061868061514907e-03
1.441254524831928670e-03
6.181244684496881719e-04
-1.780210478339122170e-03
-5.181143162496259537e-04
1.330879497638143023e-03
-5.504438541518423154e-04
-8.266210589093461367e-05
1.733760121363335386e-03
-3.861910865876519005e-05
-2.769677656165289107e-03
-1.206225868573509779e-03
2.293295606683439479e-03
4.956692252462454110e-03
5.037624563329687680e-03
1.417578250302401702e-03
-5.633250486323075905e-05
-1.244200868077534545e-03
-3.329927302546937477e-03
-9.393655856872187241e-04
4.791888909585595544e-04
4.981573008561442995e-04
2.985230963864625876e-03
4.173608827556538579e-03
2.734605858256531578e-03
1.456760574980059744e-03
2.642387518860791519e-03
-2.163421009555158755e-04
-6.167410148757977197e-03
-6.515297169561951908e-03
-4.599851690619373608e-03
-5.886216633662431225e-04
-3.649678169126335282e-03
-1.564149412932181946e-02
-9.879569478575154703e-03
3.427068636193074044e-03
4.773071898091131452e-04
-2.987517240538240665e-03
1.672870660146067172e-05
2.053915678364119125e-03
1.688960014732144958e-03
-5.786261050472868948e-04
3.465819603679256948e-04
4.594249800299197474e-03
6.827688824031075306e-03
4.392272120470995175e-03
2.210278760650631006e-03
4.526820615703700673e-03
3.541292501938456214e-03
-7.966856539783623422e-04
-2.160827296945840080e-04
1.985201586181547552e-03
9.833722882132429205e-04
-6.213958500803293261e-04
-2.368089105875256783e-03
-5.937669451730034909e-03
-6.566082051511934470e-03
-3.159538677182323601e-03
-2.578506405469694653e-03
-4.530558609016119287e-03
-2.680369919799605993e-03
5.048907568015520084e-03
1.109528133505420337e-02
1.040195955560823012e-02
1.070274174920747036e-02
1.214417252389580516e-02
1.029374242697833446e-02
9.770965883150144540e-03
8.828788629393232584e-03
5.183509662603372550e-03
4.024016159463151936e-03
1.010147733577194083e-03
-6.191691810472762722e-03
-8.048128399194050958e-03
-1.020378466678031198e-02
-1.904113687047638212e-02
-2.271922543217695656e-02
-2.241879635503477020e-02
-2.262316401749412537e-02
-1.891074048456769380e-02
-1.307658423988404019e-02
-5.797081783160955293e-03
-3.925954417459564909e-03
-2.152940047142093936e-03
9.742250039466545525e-03
1.210812049549181077e-02
9.692591546973064465e-03
1.673709442977251716e-02
1.532504138076863816e-02
9.276588741595653484e-03
3.799542417156303361e-03
