-2.586048105266073455e-02
-2.973077008796787268e-02
-1.077971098430914425e-02
-1.202130687565868862e-02
-3.478510106236350208e-03
6.563375378310045381e-03
1.295855388635052362e-02
1.978809449303199630e-02
1.998450714665160263e-02
2.236336058020436252e-02
2.309000333762747936e-02
1.854844373866775670e-02
1.137509224347020738e-02
1.949348005334798194e-03
-1.388461863240508277e-03
-1.013094432724032361e-03
-7.039528003831127013e-03
-1.821280412491593087e-02
-2.411205772063505434e-02
-2.282082145067395457e-02
-1.827216548383202646e-02
-1.165624989291416322e-02
-7.990359399674192009e-03
-3.713934032466997305e-03
3.865342442742316568e-04
1.168175958199181705e-03
6.779529169305687809e-03
8.507828777093042957e-03
6.939700440771864355e-03
1.098488360765296525e-02
9.702558923498015922e-03
7.490767168406314673e-03
6.380521038759587663e-03
5.921276449739195594e-04
-2.328020840391280852e-04
1.769186695399148704e-03
-2.082676969589682299e-04
-4.403194152420034958e-03
-7.683293194430467279e-03
-9.555904531289637766e-03
-1.087826128288891907e-02
-6.799585711580609891e-03
-2.868826017163085725e-03
-2.369808560222503961e-03
1.491515045043152916e-03
5.328863272166957030e-03
9.770584414894862083e-03
1.018705477034914132e-02
2.119900169756785968e-03
1.960759954485376873e-03
5.132778555755843422e-03
-1.968060740028953690e-03
-4.758064901703338949e-03
3.816887762768126149e-04
2.141049404503945867e-03
3.576344322336500771e-03
3.934302155054869750e-03
-1.403917929789295872e-03
-3.544344335487750481e-03
-1.703957023299935633e-03
-3.707382971020839642e-03
-4.731780192454002054e-03
-1.227316837067906089e-03
3.300573585072868197e-04
-2.915072564209013166e-03
-5.614543701661873186e-03
-4.995785970560167807e-03
-2.788929072468496802e-03
1.118821601490816559e-04
2.174283346926336995e-03
2.438773510008636868e-03
-3.971308471662071812e-04
-2.150410866613970424e-03
2.170835794645416175e-03
5.515560296430251086e-03
5.117180192948322937e-03
3.831178370295377882e-03
2.806150351444569938e-03
3.451251376034203573e-03
1.775947185444511252e-03
5.211852798602694715e-04
2.035887146248397620e-03
2.662899624802489949e-03
3.820386912331418146e-03
2.990750072231238704e-03
2.827912244918899531e-03
2.656994568208117472e-03
-2.672046917441086612e-03
-5.420788150889284743e-03
-4.049893283531516563e-03
1.045545804628873233e-03
1.712228531881409893e-03
-1.878048150544540593e-03
1.763080455770977802e-03
-1.112460779790355736e-02
-2.010348635939270337e-02
-1.844995886897841291e-03
-1.025624407013068541e-02
-1.882511244950742582e-02
5.701967941502141500e-03
9.777142619055118750e-03
5.419363263234518342e-03
1.027955506549612340e-02
6.773546894616714990e-03
4.827808661070258703e-03
-6.616505550290844966e-06
-1.672347799509088517e-03
1.776072792496570605e-03
-3.317862910380712637e-03
-1.430511375333649339e-03
4.039723969127242270e-03
2.073286528417464438e-03
2.614104043194260141e-03
3.095206675651933359e-03
1.047629979524466537e-03
6.067092190383503725e-04
1.328599176126558186e-03
-1.024839115538092593e-03
-4.458276675845791390e-03
-3.437740773705909563e-03
-1.682618605357056891e-03
1.948085352941931331e-03
5.022322659368892023e-03
1.960272210466971424e-03
1.303279855396263440e-03
2.327296532111328056e-03
-6.070796118415506832e-04
-3.147346478311279557e-03
-4.632158481122998148e-03
-5.076841330356512451e-03
-3.197042853833330627e-03
-2.613190453129318833e-03
-3.981476738944314878e-03
-8.172079317128595581e-04
4.575848738161044857e-03
5.838668671693847227e-03
5.902249546389119750e-03
3.824998048964030773e-03
3.207830448205940084e-04
-2.102498886198816974e-03
-4.479874479886888049e-03
-1.934554672564286603e-03
2.610953203985482210e-03
4.939183610921319377e-03
3.332988716649414561e-03
-4.174449441588764902e-03
-3.519862687101842341e-03
2.001282637606336713e-03
-1.282963923566161511e-03
-3.470250329355525735e-03
-3.307778398708159737e-03
-2.483432551483165818e-03
1.122571080518269511e-03
2.124430080593486814e-03
3.004706195820477238e-03
1.130489986592422271e-03
-2.959370037362471419e-03
-6.485333461903675708e-04
1.802507827088088189e-03
1.817341266793132712e-04
-2.793294103733974520e-03
-2.947559193488746062e-03
1.866797371410373278e-03
1.311695532616579188e-03
-2.715345992982008336e-03
-8.898463849124063282e-04
-1.366185322583667473e-04
-1.993165428530675656e-03
-1.481200568605336651e-03
4.787834912250427252e-04
6.169372563229584289e-04
-2.235860955024557804e-03
-2.222451331834557082e-03
7.030929385149398050e-07
-1.089385584730403643e-03
-3.080726163663118859e-04
4.854085299695837762e-03
8.093788635005691456e-03
4.995806950567546756e-03
-3.656123337192720198e-04
4.622888777293357628e-04
4.836898552809663562e-03
4.624523053925233378e-03
2.429007404734128111e-03
2.504938509354000774e-03
9.163845157465220007e-04
-3.537192252906385705e-03
-5.355054466123910020e-03
-3.492924565667407562e-03
-1.173242309772898210e-03
-7.359338276998895600e-04
-3.156829499107078902e-03
-5.057421726646423900e-03
-3.657897768523989904e-03
-7.638210001575241985e-04
1.761558015219440165e-03
3.527176305365829767e-03
3.396150198175712943e-03
-2.900147779112270847e-05
-3.104309960964098634e-03
-2.630731468283620082e-03
-8.408776504740534655e-05
2.615748023167132480e-03
2.500801438009537907e-03
2.457377343074438388e-03
1.755980710819047153e-03
-3.969763517561449712e-03
-3.965839765525418746e-03
-1.825741475356887399e-03
-6.281777088671457870e-03
-3.547640889718214809e-03
1.055774528278589268e-03
-2.461334816293820975e-04
1.102450973871997629e-03
4.634874638309677232e-04
9.979627348348720124e-04
5.060672731692467466e-03
3.861208666290926166e-03
5.489051254911567765e-04
-3.193890026122409367e-03
-5.118545367160603522e-03
-3.078997867719852118e-03
-8.571370883269602238e-04
3.089241044289616628e-03
6.485809442505227271e-03
7.184571346161797850e-03
4.751910122084661639e-03
1.790766972755242735e-03
3.201342371846064173e-03
1.335065142200621150e-03
2.988065200626248939e-06
3.129906855138692070e-03
-1.370095287509357895e-03
-5.212230694949335046e-03
-3.377139186274324446e-03
-3.345711172865331335e-03
-2.654595525898586984e-04
2.231326245310905326e-03
-8.116594535059491050e-04
-3.972813871050332943e-03
-4.439896990883636027e-03
-3.718797649798387221e-03
-3.030552886084978553e-03
1.993482529855305878e-03
7.870029196902184401e-03
5.219799420092065094e-03
-2.657330687413241195e-03
-5.447470461356161871e-03
-2.333219618365695545e-03
-3.926068260800556070e-03
-6.528572143765050059e-03
-3.444308367877656814e-03
-3.035581891753173344e-03
1.815566057319758435e-04
7.369020966372567469e-03
8.621331892448486078e-03
7.552057733639501620e-03
3.397212964548361469e-03
-1.701777471684744235e-04
8.140750456836071125e-04
-1.190610425498461701e-03
-6.620731532898031617e-04
3.191508643375829627e-03
3.257304608147828899e-03
7.360295341699052722e-04
-2.430400055829074098e-03
-9.689268829586941689e-04
-1.407918836678114351e-03
-6.124254913308823517e-03
-3.151030351260825091e-03
-2.634703083618111525e-04
-1.368582526746534543e-03
-1.786017426529264585e-03
-4.590310756316401224e-03
-3.258629253206533297e-03
-1.032200019033572289e-03
-6.764145655665296632e-04
4.722474966222491716e-03
4.768993941544600983e-03
1.180987827310815436e-03
3.052583039188841180e-03
1.284310513553735874e-03
6.791844180523917503e-06
5.137063947669077632e-03
5.539453290648780823e-03
1.209921934923218357e-03
-2.747668281756851126e-05
-1.321905930286974363e-03
-3.738384674354917371e-03
-2.654773004967224577e-03
-1.182397878779058598e-03
-2.294190290267664710e-03
-5.245549846141279830e-03
-7.248728501721275058e-03
-1.048765863959896360e-03
6.224880151296523396e-03
6.126595020180935353e-03
5.290689041259587222e-03
2.806375256040918018e-04
-8.025732334559668862e-03
-6.888381782530645162e-03
-6.225032604876307054e-05
3.983161945477916265e-03
4.184520257938152341e-03
1.950950509898667033e-03
1.515400065345374157e-03
1.722145030503328391e-03
-1.192194620771502497e-03
-3.359635123377717036e-03
-1.459971786734560973e-03
6.809554870115311614e-04
5.419968341844917659e-04
-2.420648397680550019e-03
-3.732437437219714334e-03
1.459221831533525759e-03
5.097538608620948326e-03
6.146193442030436008e-03
5.666530608395684010e-03
1.744262389394292314e-03
5.598471438225111410e-03
-5.531845049881325494e-04
-2.155054981684748766e-02
-1.509538557134138675e-02
3.700740649535281136e-03
5.912736131663476162e-03
7.033475521312958917e-03
1.634121656437833876e-03
-3.823576571729352200e-03
4.830357837784713098e-04
-2.511552124503949046e-03
-4.998355580940824425e-03
-3.244796414326930065e-04
1.460379767997672983e-03
-3.160975322792382021e-04
-1.763730510954018491e-03
2.652564055412804604e-03
5.240910158961144261e-03
2.948078091135506937e-03
2.152408311939025144e-03
-2.195906100252341658e-03
-4.030490710596280890e-03
-2.049124467611144074e-03
-4.082348262410159974e-03
2.895948742583408578e-04
8.666733739961685057e-03
9.123509559278059761e-03
5.722998605073200719e-03
2.358648590274855118e-03
1.607584973438008487e-04
-1.791031576165852662e-03
-3.592824374298297322e-03
-3.591772560815669965e-03
-5.129905559611285838e-03
-6.074877767970289152e-03
-4.549541226566790331e-03
-2.187063440900800185e-03
2.101128652048303656e-03
3.437798408784075322e-03
3.866938104742347060e-03
4.420270833848740505e-03
-9.081943188066924971e-04
-5.638587712337061108e-04
3.523592930397136808e-03
2.561228533060489875e-04
-3.754832799587175815e-04
-2.277180190601390750e-03
-6.066060105355626855e-03
-2.917993188672622466e-03
-1.933350489891121071e-03
-1.823951316930827265e-04
3.755605917158367016e-03
2.138963371264680259e-03
-1.893550590997840431e-03
-9.263001478948266337e-03
-9.378122980251788615e-03
1.112500446903135366e-03
3.618427124713659120e-03
1.207394293814518810e-03
1.885263395568139745e-03
2.815615709809561433e-03
3.106119042210358974e-03
2.111246924181598707e-04
-1.203357879104789132e-03
7.806416581799767700e-04
2.593844148523681732e-03
4.911050343844178961e-03
5.529751990390446154e-03
3.164257457977625622e-03
2.775389657290314909e-05
1.096271618363078631e-04
2.216848508000569991e-03
2.622073779626353973e-05
-3.190813193954050546e-03
-3.073508057967176601e-03
-1.343165419391379161e-03
5.479556230886738991e-04
2.132055109187514820e-03
3.695101068141657362e-03
4.622339501569254494e-03
4.109932551546915079e-03
-1.619692465717168873e-03
-8.450633269178112889e-03
-5.857175160262514252e-03
-1.729870280729891479e-03
-2.127409281470925805e-03
-1.403697919860592402e-03
-1.555067583394853081e-03
-1.901676912374539999e-03
-2.094533540865894591e-03
-2.752612375166151384e-03
-1.125447160332183200e-03
-1.807751213681161109e-03
-4.305665798364453727e-03
-3.248682503611793459e-03
-1.058845010438084523e-03
3.066120531276506057e-04
3.049438758402342898e-03
5.199433168901901846e-03
2.485858478366973282e-03
1.486933811071226852e-03
3.784134527891916139e-03
1.858134902949751428e-03
2.133312344785907345e-03
6.241262730664682429e-03
5.840779489524727114e-03
2.297147786840927301e-03
5.607883091729941706e-05
5.593677009678344088e-04
-1.386953411320896844e-05
-2.028979680017490000e-03
-2.118521655895308498e-03
-2.295070301164502807e-03
-1.978136533725154481e-03
-3.118534554905967593e-03
-4.512980241763532574e-03
-1.224997243388427056e-03
-1.449492760057851867e-04
-1.306971193845818825e-03
2.295237419202572496e-04
1.962984049872504647e-03
2.365642361775870811e-03
-1.397150265493799252e-03
-4.951731400909817511e-03
-2.827791232759684862e-03
1.879671965080908060e-03
4.941263887843667935e-03
2.425536515607338347e-03
2.560764948657818087e-04
6.288197099208508089e-04
-1.031000853799647968e-03
7.177352305668599280e-04
1.581024819661617110e-03
-2.665819656532281492e-03
-3.440078390884585176e-03
-5.401077177155148520e-05
3.690111282796053327e-03
3.449889035764221699e-03
2.066925866148934966e-03
3.288405773056704909e-03
-2.992545401789908845e-04
-3.576084106016241999e-03
-1.088489125967477327e-03
5.596522123395766411e-05
4.102850286631925126e-04
-6.799336781682085171e-04
-2.777859725091835676e-03
-1.034291531830432240e-03
2.505921173621875162e-04
-1.949776934187385288e-03
-3.483074848729367234e-03
-1.620963829768821800e-03
-5.173754817226010848e-04
-1.573516658760964245e-03
5.333194841937724865e-05
-7.255011190051365065e-05
-1.386820377600821250e-03
2.177994290129320245e-03
8.926323226560433505e-04
-4.016587597679551966e-03
-3.130072045411524170e-03
-3.933804598131555516e-03
-3.640300742378939098e-03
2.086830294722369361e-03
4.887079305676039938e-03
7.642994045539173303e-03
7.823650234525041450e-03
2.162198200783095169e-03
9.952443444892690883e-04
6.262181735212407792e-04
-7.995755836500791818e-04
1.832052540389639966e-03
2.325465846131530376e-03
1.044782137887811588e-03
-2.252918196451970869e-04
1.644889334097333639e-04
4.241429180310709625e-03
5.239579420399232204e-03
3.639291597135396045e-03
-1.218575427336916674e-03
-6.163861738190815412e-03
-3.332178746538635907e-03
-2.221607247838756037e-03
-1.714973493036273762e-03
2.647287208052126646e-03
3.998639133815867254e-03
4.440151401355897989e-03
1.694645203935747245e-03
-2.613322340656965698e-03
-1.040094387506673539e-02
-2.352049861968373914e-02
-1.821121334118501467e-02
-1.813603897209053149e-03
2.782489834723419044e-04
-2.132081478013842131e-03
-1.527891555273722156e-03
1.699343914370151937e-03
5.285327105347027363e-03
6.466835502220824594e-03
9.557559515815633455e-03
8.395900860074962183e-03
3.325622599298903772e-03
1.182899996040644771e-03
2.858050250553713844e-04
1.628728355860461401e-03
3.762832846296410797e-03
5.684813031471004120e-03
4.578008055598575821e-03
9.036607579548200332e-04
2.491233807639098969e-04
-3.779701183104430817e-03
-5.970603709976760216e-03
-1.291928236193371198e-03
-1.451519333148518394e-03
-3.118529222467812060e-03
-3.167135744931355492e-03
-2.077035449784156614e-03
1.815352006307792291e-03
2.925731353378587668e-03
4.823350618406682319e-03
4.256565287518883182e-03
-1.859175401395516888e-03
-3.263384265822945503e-03
-2.293137984407354023e-03
9.896385770047297359e-04
5.463667769253896002e-03
4.015561969624924579e-03
7.308284117282695235e-04
-3.866694176756593684e-03
-3.596248886194607086e-03
1.756180598235556993e-03
-6.035192403741850269e-04
-1.343380643502826250e-03
7.149252531047268914e-04
-3.399584363505855390e-03
-3.123324605676404669e-03
-9.203778368148549322e-04
-1.653308708953548246e-03
7.733024414026259475e-04
-9.240629490287971884e-04
-6.105427680973871986e-03
-5.670867606641690449e-03
-4.738030311458658189e-03
-4.515922732545279115e-03
-1.149275418107325404e-03
1.046605791727827760e-03
2.394216710575725222e-03
4.497462255682178368e-03
3.233182076307684807e-03
1.381901966113013424e-03
4.041933353131632600e-04
-4.996794558700824035e-04
2.709708703238225373e-03
3.350648071113880317e-03
-1.465125502944080978e-03
-9.379091180554936661e-04
4.074362007627412366e-03
7.342763970014935110e-03
6.805488754471358814e-03
2.502011990662910811e-03
6.890442786173190878e-04
-1.226141738300754987e-04
-3.225880522336101869e-03
-1.219516904250810213e-03
4.293902533360519427e-03
3.973096375408897291e-03
-8.469241740641762512e-04
-2.121940144379054830e-03
5.821809414105910425e-04
-2.687489435911874134e-04
-3.535962353577549316e-03
-2.671454337094538237e-03
-1.507885584500244687e-03
-5.247805500111201067e-03
-9.841861381847824553e-03
-7.110713565840244728e-03
1.116860508778106352e-03
3.762522566309794980e-03
5.140309487230308640e-04
-1.467846522218413993e-03
4.949846338057455877e-04
3.082203235026501672e-03
5.588242414722162203e-04
-1.825830933482828437e-03
7.576656336336977339e-04
3.509587595195201928e-03
5.973726215374300375e-03
5.194980664493694528e-03
2.512704678606978814e-04
-1.021692155039380465e-03
-1.928593888891292100e-05
-2.368086515752134726e-03
-5.343374172219202134e-03
-3.904671313732766512e-03
-1.132348982015507358e-03
-2.538631547666823311e-03
-2.820000155655756971e-03
6.912322114530353775e-04
3.003404905206584919e-03
1.325939309217322041e-03
-2.293541327056503910e-03
-8.916478020949148700e-04
6.409987537609164671e-04
-1.445676360728499928e-03
1.522172869717939615e-03
2.860225907664738602e-03
4.625224203080513172e-04
2.566582096073927004e-03
3.684919971449504648e-03
2.868673856214198035e-03
1.004847766928718350e-03
-6.268070464771715623e-04
2.288105571580089162e-03
7.569635615929143531e-04
-3.634698142631634810e-03
-8.003671143208211094e-04
2.436822253015745020e-03
1.243017149742161719e-03
-4.558098123426730002e-04
3.871614389259057281e-04
2.365059321691395829e-03
7.805961697378985872e-04
-3.516825756928510221e-03
-3.992681032308125454e-03
4.939759023387581965e-04
1.798975672063073345e-03
5.666912961702984903e-04
1.338643926900177960e-03
-2.009191737507634839e-03
-4.335390713099442073e-03
5.087246630217207542e-04
2.127838358182621969e-03
-1.617556505182881233e-03
-4.018144021619709030e-03
-2.664727915260748248e-03
-6.823566358540905825e-04
-1.520102388121794424e-03
-9.864594205900218717e-04
1.687970812419170357e-03
4.200392878896255962e-03
5.239825940731704379e-03
1.202166405210619571e-03
-3.010481982443030755e-03
-3.093030619875684721e-03
-2.147556232718166036e-03
-9.282623865124693934e-05
8.298942134263308278e-04
-7.206977360146529397e-04
-1.314404564256917152e-03
-1.401538175860799797e-03
-9.915036765632372073e-04
1.220812430268983142e-03
1.542298950361241415e-03
-1.814961653039046151e-03
-3.997735479613380785e-03
-2.492350852762444374e-03
-3.375037864588388732e-05
7.028691251839659041e-04
2.068160477067077559e-03
6.204701743317826527e-03
5.854635770449721777e-03
9.533451443204368683e-04
-4.488605655000821814e-04
-1.444342516590867240e-03
-1.550695099269827214e-04
3.865151213570977573e-03
1.407956164722463021e-03
-5.093183430813544819e-04
-5.814993560754224810e-05
-2.963541287153217962e-03
-9.702711458303790032e-04
2.312795089999771393e-03
2.269250369431636324e-03
4.752890538978606604e-03
3.480397709009425914e-03
-2.258896066968375110e-03
-3.680541899939638716e-03
-2.557982165549383541e-03
-1.760089770599672018e-03
6.118974036963473195e-04
1.640930618800166569e-03
-7.065232499741550074e-04
-1.746456383191677571e-03
-1.783892127855221015e-03
-1.737780330138753541e-03
1.583558601672052125e-03
5.441117025443043161e-03
6.312172338265924394e-03
3.780045024869016675e-03
2.766332194037524582e-03
1.074487353324617015e-03
-1.380152990127318270e-02
-2.486256769822393908e-02
-1.355496174071853938e-02
-2.674695053839827932e-03
-3.434800175306040957e-03
-4.956961934504209438e-04
6.324865901253215114e-03
6.471658237466633087e-03
4.205082786210368254e-03
5.689339329369861968e-03
3.027370358426848679e-03
-1.474843666670981645e-03
-5.726210038367089911e-04
1.842460416461009099e-03
4.643249002066391663e-03
4.601260340588578419e-03
2.929471875053290576e-03
3.593447628177980167e-03
2.695826715034699977e-03
3.212006812643773777e-03
4.382443110772155093e-03
1.879934325142579733e-03
-1.973061414238368345e-03
-4.199461874815378810e-03
-1.672091539602447692e-03
-2.171321656616734437e-03
-5.076112967971739900e-03
-1.387181076118090047e-03
-2.929771261685652707e-04
-1.185731635348990631e-03
4.623455628445556501e-04
-2.022721771484845086e-03
-4.069956102411005465e-03
-7.976483880558087091e-04
3.961249354266713207e-03
2.761354256475102593e-03
-8.671186804388829198e-04
1.750217682272736663e-03
4.211488010919240115e-04
-4.044710782601412466e-03
-1.783633200829871359e-03
6.438434925444200263e-05
-1.182994484306718790e-03
-2.959880288213244306e-03
-2.686358800710449135e-03
8.591335352402811217e-04
4.319010704467132929e-03
5.303355775680422719e-03
2.798822938204700416e-03
3.513879610909380075e-03
4.432580722793471976e-03
-4.358502164092007769e-04
-2.650997417292709057e-03
-6.577005305826560608e-03
-7.996803508154966267e-03
-5.272534605027360839e-04
-5.916153257670209772e-04
-2.358785365552289789e-03
-2.384649244038567536e-03
-7.609833966038700298e-03
-2.482207114862256155e-03
6.471479089516657575e-03
5.770397742886271622e-03
2.736663937913055237e-03
-7.519404174061728721e-04
-1.986400440924729544e-04
3.445116048104749154e-03
3.342045047150808083e-03
2.172035631543309513e-03
-2.837329047784180672e-04
-8.853331183371180744e-05
3.779711286183807389e-03
1.959084927725457479e-03
-4.924818901272979502e-04
1.167881118668639973e-03
2.746823195271452453e-05
-4.599141309470909135e-04
9.457890472912547277e-04
-7.961373861447399196e-04
-1.022925183436985269e-03
-1.213614052901418067e-03
-3.306663732183345687e-03
-6.609113082346686121e-04
-1.973840897189833854e-03
-9.078825514613865846e-03
-6.358077494671251183e-03
1.208621156488374126e-03
3.128183269231984455e-03
2.622889453300629448e-03
1.921122121552752172e-03
2.748709572115851010e-03
2.308222313117456841e-03
-1.266648586599962607e-03
-1.473048447739409373e-03
1.447724475746636806e-03
3.494097827607927330e-03
3.895185336491766969e-03
1.545688632055392323e-03
-1.137589089420892830e-05
8.023566091527774280e-04
3.311929403027014888e-05
-1.281508161897798549e-03
-1.456874970082698562e-03
-2.566440288928340582e-03
-4.369824938710147391e-03
-4.202685279978779151e-03
-7.601389311225734049e-04
2.246007015386378754e-03
2.184551414484125695e-03
2.520217430173074622e-03
1.814473072312545315e-03
-2.754341891811765055e-03
-4.505587552688193956e-03
2.413683041687461769e-04
4.847498204889418363e-03
4.921977361456096947e-03
2.559196510349447725e-03
-1.147610645965160565e-03
-4.019186469611016853e-03
-2.386424936760297207e-03
-2.505713848332754862e-04
-2.566258281935557446e-05
5.598640674686421962e-04
-1.799585343776196125e-03
-5.253083035835236225e-03
-4.939710452248871966e-03
-1.200760358809155066e-03
4.413078296670713135e-03
4.649739738897570689e-03
9.013930031911072168e-04
9.318161052553541532e-04
8.945945625059742749e-05
-1.660605417151760511e-03
-1.082058558614163932e-03
7.985729617886489374e-04
4.254881992238402841e-03
3.300607667372361474e-03
-9.034077448041670771e-05
2.621930621761029453e-04
8.419407943642963528e-04
1.808331786232272040e-03
4.995969331450038050e-04
-1.959207143981127937e-03
-2.391737223212657567e-04
-4.730981935634269268e-04
8.825633370300326255e-05
3.857375042181113330e-03
4.861748138064920545e-03
5.963098331390589459e-03
3.527592213675621868e-03
-7.188673125725519213e-04
1.073279360529999201e-03
-4.559088019087460981e-04
-4.349231402150654201e-03
-1.489650328450299209e-03
4.384998504001527122e-04
-1.098397106133774817e-03
-4.596631001618363107e-04
-1.318490506853431041e-03
-4.312146053319534759e-03
-2.249114383203497554e-03
1.669642921408741668e-03
2.056212031608659670e-03
3.485684119960820102e-03
4.199266416353261873e-03
1.680046476348996849e-03
2.735004246942866410e-03
7.279504067884450674e-03
8.544805131587566299e-03
4.510531831726845298e-03
-5.166282536328687097e-04
-3.363020534190942767e-03
-6.733023724128052966e-03
-8.008832374852350999e-03
-4.185180640457412948e-03
-1.012401520159726502e-03
-1.231919780617343274e-03
-5.422267284491875949e-03
-9.553587249029181494e-03
-6.259346787905478542e-03
-3.781323049672599430e-03
-4.152899259933636941e-03
3.558587298963385506e-03
8.068592291208407513e-03
2.144312466681748582e-03
2.149818696499630928e-03
9.526927741042160933e-03
1.417340775169977085e-02
1.553658506241716551e-02
1.635082530415422203e-02
1.540011675257862631e-02
1.148862619337079859e-02
6.400986052086925053e-03
7.938222207579461202e-04
-4.989281003670386185e-04
-4.267237820462982173e-04
-6.943135523791879246e-03
-1.174666316464568865e-02
-1.408353335491136123e-02
-1.551113549587907099e-02
-1.371316516699721232e-02
-1.438311258723850954e-02
-9.653741056959437572e-03
-8.658612761674381111e-03
-2.071710341625938520e-02
-2.805655022810567625e-02
-3.828509653962557102e-02
-4.046697844557189255e-02
-1.607572182193543406e-02
3.088857130194094195e-03
1.030990959782195071e-02
1.706174654611263344e-02
2.106852701519493914e-02
2.949647544441869745e-02
3.638634300674104677e-02
3.790184018892528428e-02
3.068377552323838311e-02
7.965995018540311667e-03
-1.269874691164295764e-02
-2.435710017242451175e-02
-3.469237591754033290e-02
-4.369402238488383911e-02
-5.096222443142887221e-02
-4.128136562610064397e-02
-7.799434081512543297e-03
1.878742578650385159e-02
2.591328724938241762e-02
2.984568875728690895e-02
2.199775441021032188e-02
1.046747064079752570e-02
2.897640437746374503e-02
5.635844332351287733e-02
5.804261864045812125e-02
4.071565489905629165e-02
1.376955928290658770e-02
-5.483622508445694897e-03
6.836668864621614494e-03
3.460410855332384655e-02
4.668675521601824141e-02
5.221650391175327449e-02
4.725900097583009274e-02
1.315853659558917366e-02
-1.249256467155066691e-02
-2.422207157805502525e-02
-4.245250267173578118e-02
-3.499503310986459143e-02
-2.157857974912244167e-02
-4.483830592160998468e-02
-8.479259684441625700e-02
-1.029720559218536696e-01
-9.625382822588604559e-02
-1.092492193002654599e-01
-1.135647616686954048e-01
-8.387943819176398030e-02
-1.028978494952600825e-01
-1.370476298237236212e-01
-8.789619043188023895e-02
4.026552092516044040e-02
1.956547374448016352e-01
2.641828525314495191e-01
2.035704497527372758e-01
1.247027255056415013e-01
9.947905310637771004e-02
1.042449823786465724e-01
9.885639785445260452e-02
5.374317296825487783e-02
-2.527941071994107766e-02
-3.513233163557932803e-02
3.970377360914514181e-02
1.937247711716592186e-02
-8.998468953117282065e-02
-1.305770732541835788e-01
-1.080740135117058409e-01
-7.093919469652197607e-02
-5.364444646062754146e-02
-1.963606088186709009e-02
7.008199064562234404e-02
6.388142528990578550e-02
-7.369531374702990856e-02
-1.817853002806955054e-01
-1.960754858137445655e-01
-1.552890281268689554e-01
-1.152382778275103381e-01
-6.546631290239339485e-02
3.315329313429442228e-03
7.896807384849993672e-02
1.995450675318528599e-01
2.690254013882758533e-01
2.151443132894150512e-01
1.668565438280923408e-01
1.464108454876438536e-01
9.552453119347273369e-02
4.150857139653358480e-02
2.442049408996323223e-02
4.096661755131118798e-02
2.742368833352929955e-02
-1.326774053903577964e-02
-3.112930291605776542e-02
-4.751972163502072438e-02
-6.601532968113922595e-02
-8.582244460430046851e-02
-1.085983260072535261e-01
-1.073668322653839324e-01
-1.107026193690101162e-01
-1.425106265191580512e-01
-1.659085687736521764e-01
-1.529632125504978846e-01
-1.101385202782304701e-01
-5.624754053450076868e-02
-3.910011334356438065e-03
1.976638712996678718e-02
3.436410642893237416e-02
8.939533755201505005e-02
1.231944364150511506e-01
8.874257368959978520e-02
5.541031301058869929e-02
5.554635968722309441e-02
5.997524601037110270e-02
4.903223078717010297e-02
3.564121817887935806e-02
3.865203563769881862e-02
4.262154573811709896e-02
4.014803645789217362e-02
4.015847755781027512e-02
3.752896972709518497e-02
2.862381665555499902e-02
1.418571062958205904e-02
-1.722151998837326975e-03
-1.299199687666718721e-02
-2.032033862970912194e-02
-2.928747512210234591e-02
-3.850605031497204150e-02
-3.981616589093921882e-02
-3.775025990452338803e-02
-3.467791115495366672e-02
-2.620617601132783567e-02
-1.793180902570143398e-02
-9.033869320406380174e-03
-4.241478859723984084e-04
3.931472344924856997e-03
9.917794801389918577e-03
1.515446577049978615e-02
1.703533497429214963e-02
1.624854638050556715e-02
1.154835959157973595e-02
5.933357109908879955e-03
-2.100453556186295326e-03
-8.419056088929347675e-03
-8.939345350667614321e-03
-1.094726721965201023e-02
-1.310313678001953815e-02
-1.482365561873627731e-02
-1.897241292779330846e-02
-2.030460641189139534e-02
-1.718660912476106459e-02
-1.151783064842316039e-02
-7.881109082929695087e-03
-5.685438536898230859e-03
-4.674434664831172200e-04
3.380459552319020101e-03
8.331647898701239480e-03
1.587882352492418075e-02
1.823257557525992736e-02
1.562291109554989933e-02
1.121738646682372310e-02
9.940058616295776445e-03
1.099574915840429747e-02
7.234879666644510043e-03
4.297188800599205383e-03
4.724219170901519486e-03
3.728408144862561946e-03
2.573293807445644135e-03
-2.068887347650434638e-03
-8.619033953784599814e-03
-6.716194715614985655e-03
-6.132439878645687620e-04
1.422234363531550217e-05
-1.057761720463199460e-03
-9.590727009850762413e-04
1.000777107476726957e-06
2.687815766962813654e-03
-1.086185613528772419e-03
-1.130781838838607750e-02
-1.479622965588099637e-02
-9.816387774253025611e-03
-2.305929595120562170e-03
3.228351845906707058e-03
4.257256197242998037e-03
1.205763492070905177e-03
-1.222847291352848961e-03
1.250740789246917789e-03
-1.660473139316236916e-03
-8.898891326111105921e-03
-5.323004850043760311e-03
4.938903954346859481e-04
1.764311386568774348e-03
3.220418745634387632e-03
3.391599052810898365e-03
4.851751455132963069e-03
2.950352931260521658e-03
4.587769002538590220e-04
3.991349914698088912e-03
1.243790873546159279e-03
-1.976641240053212453e-03
1.336863989577682639e-04
-1.167675515354116332e-03
1.789102185755326582e-03
6.179130469181308080e-03
8.111859489666280523e-03
9.632704885649979315e-03
6.114092358147490622e-04
-5.964650291048092905e-03
-1.495482606075723589e-04
1.377488577361344994e-03
-5.741820033796923720e-04
2.381861309876515923e-04
-3.649665607169711606e-05
3.537349813756922160e-04
5.678522364832867125e-04
-5.032983914785513387e-03
-8.706011559480607287e-03
-2.868611461316771753e-03
-9.308160268843193152e-04
-1.753275244735031171e-03
-1.974813659760865907e-03
-1.619346434708742594e-02
-2.134927821791205924e-02
-4.560390862571268855e-03
3.990150194368618022e-03
7.033128503289519905e-03
1.078677561953828370e-02
7.032684274753182863e-03
3.587014506120633599e-03
1.082640820025801767e-03
4.047840042701682933e-03
1.034844615049638344e-02
9.789177936123822157e-03
1.004408671631552320e-02
7.482834279276714441e-03
4.638634709232519054e-03
7.957313224939113055e-03
2.855838924175307329e-03
-1.304613754150503154e-03
1.356216660210798940e-03
-1.705531604106286627e-03
-4.554818267348391229e-03
-1.519588006299833587e-02
-3.005756914015729475e-02
-2.157301955157130829e-02
-3.983707879023233069e-03
1.051123784385035384e-03
2.389879550295922681e-03
1.580222690952297598e-03
-2.961929476392244093e-03
-3.619069852140281447e-03
-1.411315448565102389e-03
-5.706037413893421013e-04
1.941491459585113072e-03
2.650694414374960006e-03
-8.746319816033220175e-04
1.979792990200673376e-03
9.674337423093154129e-03
1.496460886813224742e-02
2.079444773497266669e-02
1.503261460850139307e-02
-6.059507167541915672e-03
-1.754079906244916665e-02
-1.359043839918271795e-02
-3.522425525997777921e-03
9.223730599230633292e-03
1.129037698022094909e-02
4.111993243836446245e-03
2.132827127275241028e-03
-2.741718595844015163e-04
-5.313024316015576946e-03
-6.169227444729634413e-03
-4.789821443763686917e-03
-4.433538919650262949e-03
-9.481739944256132799e-03
-1.459513886446532453e-02
-8.040797002594702800e-03
3.492849950503110375e-03
7.139926246858973799e-03
2.047431238427233850e-03
-2.031701558445969495e-03
-7.604087388545266750e-04
-2.290417955679050974e-03
-2.304793950343303477e-03
5.365336465462717912e-03
9.938289734878471768e-03
8.777987821825809778e-03
6.066944194459090653e-03
3.474483890291175416e-03
4.569498103475501567e-03
5.427476586648143780e-03
3.616130014389526415e-03
1.395643186654094321e-03
-1.813200600586649912e-03
-4.555955032202198794e-03
-8.714577281523383859e-03
-1.165195303386196667e-02
-6.290391039270447349e-03
-1.106733809664531320e-03
-1.210218670693783815e-03
1.042446840293635198e-04
1.213574127725878301e-03
1.838855616521940838e-03
5.195523196010179943e-03
7.165957767235792836e-03
6.519105339836558065e-03
5.517860396803104563e-03
3.762368859997399125e-03
9.361265224335244082e-04
-2.620573377089503893e-03
-3.376875337199430373e-03
-1.081998147328329255e-03
-2.622491316325446429e-04
1.599348118249757644e-04
-1.796076635416078444e-03
-6.447433165329987358e-03
-5.088466386423170194e-03
-2.462027710372483372e-03
-5.573021601828023232e-03
-7.190178359217216063e-03
-4.667859466496900034e-03
-7.607670291503491021e-04
1.190741895479515561e-03
2.076126136846971441e-03
7.288012178673982690e-03
1.077968504443717855e-02
7.275399850562988199e-03
1.988779287040451284e-03
-2.761572524220066126e-03
-7.292898134984023006e-03
-1.058716957667181491e-02
-7.369207256479702942e-03
2.123656608173360872e-03
1.026275794561938570e-02
1.833006130087547203e-02
2.161253741500599249e-02
1.024917007788681000e-02
-4.330802653495705382e-03
-8.578712453398021007e-03
-6.785317774086275025e-03
-6.374859106253895520e-03
-7.929828090229844306e-03
-8.457818971276650014e-03
-5.016882145396378383e-03
-5.077677449251433855e-04
-2.245087872788337907e-03
-3.342821013745228206e-03
1.948147648435525877e-03
3.782772739642637611e-04
-5.606639207490406868e-03
-2.738973442596630802e-03
3.337728321310889229e-03
3.409492337220776121e-03
-9.665030225543883285e-04
-1.123242279470888913e-03
3.295567436359190215e-03
8.890464353584013463e-03
1.555978227953011203e-02
1.550287640147502907e-02
1.396966649228857833e-02
1.395422682545160303e-02
-5.575925615090551648e-04
-1.884945121081223196e-02
-2.229185913358480015e-02
-1.523398794973111238e-02
-5.179298385024429588e-03
-1.431736715767291217e-03
-2.507155172336746930e-03
-2.580489444369223756e-03
-6.415695878696396799e-03
-5.718652140185983765e-03
6.685983480014233600e-03
1.632029821308135509e-02
1.458843665264324130e-02
1.045377180698934746e-02
7.575978448717960931e-03
3.151352329095947384e-04
-5.719220382065928927e-03
-7.090514605970230609e-03
-1.108025073528740197e-02
-1.096855781760300991e-02
-5.038867088452629595e-03
-5.317153925847040337e-03
-4.507096166999729515e-03
4.156761147883074846e-03
9.505480851720295166e-03
1.239768575789832426e-02
1.505058528499290428e-02
9.443945400498952175e-03
9.846089822619630543e-04
-3.826326354455070883e-03
-8.199056885883676885e-03
-1.050405182634376287e-02
-1.182874452544257181e-02
-1.622476605825221366e-02
-2.043189387641439203e-02
-1.815772205394912756e-02
-8.402807977167060793e-03
1.543553484840184953e-03
7.029553418463991774e-03
1.040757391665188443e-02
1.370664624766148622e-02
1.671545365361253380e-02
2.030104361700812293e-02
2.865956384268986828e-02
3.121035758403685814e-02
1.196279680796175776e-02
-1.221296695070851930e-02
-1.993054093287612363e-02
-1.533943136759445894e-02
-5.331476978248283517e-03
-9.399669644828521778e-04
-2.184653384097947400e-03
9.111152852229558591e-03
1.283041692177543797e-02
-1.180095946612740553e-02
-2.186291404316901069e-02
-3.786173599284485200e-03
2.436891093322882465e-03
-2.416786968567076130e-03
-5.431256421607627040e-03
-1.334189845938090618e-02
-1.554303669495529609e-02
-1.093601688959871740e-02
-8.126406525702175448e-03
-1.693883605676947375e-03
3.647407422990482997e-03
3.922134535796803489e-03
6.001821887709399977e-03
9.430560137743503393e-03
1.503059274931296992e-02
1.975944101465811759e-02
1.281117018310806883e-02
3.967542264382813502e-03
7.963225283398633544e-03
1.199820898920226329e-02
6.240482650809792663e-03
-2.271440093252566697e-03
-1.088101574135655683e-02
-1.106670497730085495e-02
-2.307507177558353311e-03
-2.174830755531564387e-03
-6.528763153215772462e-03
-5.728636992655349036e-03
-4.700018955314842241e-03
-1.159734528532918108e-03
-1.837278898942410008e-03
-7.921956578561461723e-03
-3.431304236826234876e-03
1.735505636658560974e-03
-4.271090117389362076e-03
-7.519366884272108212e-03
-4.908545540039123932e-03
-4.107476416077501108e-03
-2.327870305428862436e-03
7.028402555415239625e-04
1.510775001013910535e-03
8.173281736181687782e-03
1.577343260250668039e-02
9.727329404454837514e-03
3.262483015496808747e-03
1.065335367357542543e-03
-5.659567027747268789e-03
-5.851011992043540777e-03
-1.496506611406286588e-03
2.223261621171881757e-04
4.883314178676411918e-03
8.034128748258239847e-03
4.967094279140787765e-03
-3.024550593617341462e-03
-6.753549160099753083e-03
-2.217424990994475240e-03
-2.590360961435072499e-04
1.284397884210182559e-03
3.684090598623401824e-03
2.394761414816454648e-03
1.688568107531564482e-03
-1.653523464598772924e-04
-8.187184674510873499e-04
9.514772405611090621e-04
-9.498487524323069890e-05
-2.002021858453027076e-03
-4.348570865137539251e-03
-4.160918930100222096e-03
-1.549905384300244047e-03
1.836430274406190919e-03
5.060584542326614088e-03
2.414518347800771302e-03
2.940958996584727529e-03
3.693812659532672710e-03
1.659446352602081832e-03
4.549192845718468860e-03
-1.186644955323024227e-02
-2.282672892283204788e-02
4.314972964676228040e-03
1.156664421491346469e-02
1.093912374968183292e-03
1.302089405303427996e-02
3.456832264806807518e-03
-2.849022519002055928e-02
-2.880500281023947590e-02
-4.714634043994150002e-03
6.691661781662069063e-03
5.459048115431921165e-03
6.766917217460635334e-03
6.555659391765241914e-03
5.898549732808650026e-03
7.914644747625366322e-03
6.652812370177117393e-03
5.965293494633537238e-03
-9.936608962008144029e-05
-8.721283803470980533e-03
-1.812777308730357476e-03
6.297544356220161413e-03
6.865716638054785229e-03
1.018912290527143431e-02
5.615524761458781655e-03
-4.446032816563876347e-03
-5.881352581204753877e-03
-6.008013993095931427e-03
-7.575551028880894884e-03
-8.524088508968356154e-03
-1.021671297445385200e-02
-4.538737378663782775e-03
5.548874535561417777e-03
1.111661050170014049e-02
1.426305659049048949e-02
9.779777662329883561e-03
6.229260281071630732e-05
-4.014908844127185877e-03
-6.471164577185688736e-03
-7.597883521405878263e-03
-4.924047512375190859e-03
2.065264588253580861e-04
8.222982620731787359e-03
9.494431766779623527e-03
3.170958319075892640e-03
-8.548062407780080470e-04
-3.539506685176154518e-03
-3.417443456966197564e-03
-9.349209193073176622e-04
-1.057385949984726179e-03
-1.758681468386223473e-04
-1.533486732577708702e-03
-6.303506421682210370e-03
-3.334006728766923146e-03
1.827409773116059778e-03
-2.135664088705913934e-03
-6.775460507532214682e-03
-5.924938259784047825e-03
-4.003505785497104077e-03
-8.673657164662922602e-04
4.024890720569053795e-03
4.476108211017174564e-03
-4.530728704197790066e-04
5.358338326330336918e-05
4.070706201839848978e-03
1.637943999437417586e-03
1.653057383562380953e-03
5.540470673418443869e-03
4.127719248844498139e-03
5.709329558268672142e-05
-4.427539219204462174e-03
-4.648239061596844135e-03
4.821185456224169521e-04
3.381752237067238258e-03
5.680499052253513460e-03
7.526648062298304902e-03
6.349081172963295071e-03
2.187564485635421115e-03
-3.723013345063900473e-03
-3.249068327686017131e-03
1.530876812192051486e-03
3.603800601455759648e-03
3.464452483389459780e-03
1.198831895751649099e-03
6.880632050584771855e-04
-2.486253914228548343e-04
-1.054608420110908149e-03
1.976086156653005400e-03
1.331757089348061971e-03
1.162687392241636662e-03
-6.004948178209533471e-03
-2.410298140835457834e-02
-2.059184098868855825e-02
-3.910419909887906387e-03
1.273999660717390356e-05
2.790431712492434744e-03
3.498841431086408688e-03
1.840573149030371239e-03
2.514697131193918342e-03
2.115426942493863881e-03
5.817809909122789377e-03
6.604412431750640057e-03
2.788647186555860604e-03
6.245296782878684413e-04
-3.255075735932911468e-03
-1.621196108971404695e-03
1.188831982018924514e-03
-7.081032417025437961e-04
1.799181628737342963e-03
2.870315460936713296e-03
1.430798225137338946e-03
1.367637332006394271e-03
-1.656280535414366697e-03
-2.175398680629474918e-03
2.266709731481790068e-03
6.400651067761502395e-03
5.842364599109610944e-03
2.870295985025909935e-03
1.912488424284428286e-03
-1.355032745056515336e-03
-1.354933602784421992e-03
2.732898651904751199e-03
7.015710379032690739e-04
5.405689627769225906e-04
-3.187310597633417853e-04
-7.555175105125559211e-03
-4.467180125843633540e-03
3.486443379822187251e-03
2.040409944591585478e-03
-6.892346046061622765e-04
-1.308399357541551074e-03
-1.881661765996602270e-03
-5.897209736966774977e-04
3.507310942502981071e-03
6.447300382855382372e-03
1.375455225653617356e-03
-4.804610701233756782e-03
-6.332146719379363672e-03
-1.182334400791345760e-02
-1.456707388953271468e-02
-6.697860164000524023e-03
-3.954511136638100863e-04
2.055850893768708474e-03
3.204154461772236191e-03
1.455351360513603689e-03
2.778278018395990805e-03
2.275278519794412743e-03
-3.472628469100914536e-03
-2.974044258884436798e-03
3.400435155615125649e-03
6.937806420810905574e-03
5.621441161179081825e-03
5.452515867501656240e-03
7.444128866513069140e-03
4.834927121977488154e-03
3.973287217903167558e-03
5.168780384645296072e-03
9.447499839647652883e-04
-1.983605660659194716e-03
-2.929672367738916927e-03
-2.262555530305274815e-03
1.876447964843986878e-03
4.606819919322470425e-03
5.769989116204066008e-03
1.748121790637815901e-03
-3.051478207700404881e-03
-1.633516252395677279e-03
-2.153662887231965178e-03
-3.556974898384246842e-03
-6.892646667123314592e-03
-1.178691023868552387e-02
-8.108158363429939647e-03
-4.479357734136026926e-03
-2.925772897545120786e-03
2.080824782468506436e-03
5.227128535446010603e-03
5.504901714042053328e-03
-1.074747806840260214e-03
-5.962700631645294694e-03
-1.111511997174304423e-03
1.208377810746969188e-03
3.122282723886303426e-03
4.349489492757259261e-03
7.419670531549793936e-04
8.131314288210679878e-04
2.020794392026131628e-04
-1.022346995654929095e-03
1.516990297774989740e-04
-1.860330748332358853e-03
-2.166592183889979369e-03
-1.441657221691387087e-03
-1.838043217846536959e-03
-1.974741656254242101e-05
2.536987112410883215e-03
6.718736722854095483e-03
7.589696728486238289e-03
7.652143297430269789e-03
1.120300774628481440e-02
4.727629198338446047e-03
-3.958919438924905082e-03
-2.676990034911607970e-04
5.801559132454125328e-03
6.673419848849176592e-03
-2.471644664468534286e-03
-1.371023015847042288e-02
-9.350670103347554635e-03
-4.493644436225328626e-04
-1.709933884085181651e-03
-3.986084511905238666e-03
-2.316861506504112010e-03
-4.686629833165767596e-03
-9.038515430165872111e-03
-5.705177288928385201e-03
4.732888830397525247e-04
1.761749792111801018e-03
-1.992271354497161221e-04
-1.660843187551993422e-03
6.080955962029603850e-04
2.524442765594529185e-03
1.450502210548546477e-03
1.351266854042963792e-03
1.927745755683193344e-03
3.981629712779329033e-03
5.336084366405077772e-03
1.780945081283388364e-03
-2.643570772193938601e-04
9.664085688908487974e-04
-2.859850419635438529e-04
-9.828658231184653985e-04
1.371197069419889973e-03
1.545184338118872321e-03
-6.593082557936297099e-04
-1.173884389078269641e-03
1.555705387874851053e-03
5.435009510166948811e-03
4.016120092225453596e-03
-4.113854085830866408e-04
-1.342195807600891347e-03
-1.403090062879007189e-03
-1.808164319522796747e-04
5.816588566878136586e-05
-2.297316170242589758e-03
1.924388288489116677e-04
1.984031358986384271e-03
5.022483078049623517e-05
9.660030304737795333e-04
1.206778823209019762e-03
3.730378080721638155e-04
-1.111627771219637212e-03
-2.811813490317658683e-03
-2.671255890180875177e-03
-5.475646166304696388e-03
-5.823074906713509094e-03
-1.159070295912769223e-03
7.791917560257937683e-04
1.917035084187030921e-03
1.511800358051432463e-03
-7.875261842272007502e-04
-2.992106718614094465e-03
-6.681232042373167097e-03
-5.096402170275281598e-03
2.600720839290342461e-03
8.297212948796572549e-03
7.308204190055668688e-03
1.323841374475885277e-03
-8.063605113760440469e-04
-7.325313963872447749e-05
5.547911612067832820e-05
1.487260673615884658e-03
6.054551363894796487e-04
-5.000438568909320539e-04
-1.105281586242110037e-03
-8.964398089918296491e-04
4.589017095160326590e-03
5.711479402827840737e-03
4.106051755755363124e-03
6.299921034610455120e-03
8.232682493287406429e-04
-4.196973741454976085e-03
-2.814974245516030718e-03
-3.921184250873353642e-03
2.282423257747049402e-03
6.780396613460079776e-03
-1.066255446109391292e-03
-1.385108486832249122e-03
1.544258135757713406e-03
-2.020941985528008217e-03
-2.560283980905186073e-03
-3.008963872053813625e-03
-4.426621031523087467e-03
-5.313234484471533216e-03
-6.791562128766366613e-03
-4.941110817354187230e-03
-6.646099221727602788e-04
5.112680512248880989e-03
5.419698132432881205e-03
-6.147727537681370747e-04
-7.852361106843988494e-04
-2.130292436625849835e-03
-6.612210076109665755e-03
-2.488197300359780168e-03
3.807002061314799461e-03
6.382386096790475249e-03
5.175353162677238592e-03
1.497201618601584107e-03
2.475125631130058700e-03
4.349337360754774139e-03
9.829429252781807843e-04
-1.812645959469210344e-03
-1.871189035590716454e-04
1.312265031149412761e-04
-2.530731375699600376e-03
-4.102815622515042226e-03
-3.072979133010990665e-03
1.790409705896873691e-03
3.819492898773872887e-03
2.892345515228977263e-03
6.439831600121873230e-03
3.399858518152616693e-03
-3.643562958705992560e-03
-1.056807987202277276e-03
3.412482669898874322e-03
5.391941198602320275e-03
4.683680451502096088e-03
1.719300758329829698e-03
-2.736383493693063645e-03
-8.268695266516959061e-03
-5.655700094289636479e-03
-2.644893931727767579e-03
-4.560551181831768754e-03
-4.733636866989139602e-03
-8.539443549392004840e-03
-5.843324598350866685e-03
2.195777138270025523e-03
1.079720370957998636e-03
2.249618730850892062e-03
5.058544076414833550e-03
2.980584901663951500e-03
-2.915232262979921391e-04
-3.176224246876674547e-03
1.620598146632519390e-04
4.536923544445375933e-03
7.420558023322748956e-03
8.627741074611845751e-03
3.740676097696734020e-03
8.679372165725073723e-04
-2.406729378703953426e-03
-5.810023442904353047e-03
-2.834154488982975825e-03
-2.355996872520189033e-04
9.931813015496794225e-04
-1.256027379163566918e-03
-1.227582328352642017e-03
3.638286494188798081e-03
3.063362982715010091e-03
5.466300454971591109e-03
6.098386202667415747e-03
1.489732025340407846e-03
-4.900042986273367733e-04
-8.204948160737961238e-03
-6.419638459381351615e-03
-5.472899053544378820e-03
-2.207061151964506349e-02
-1.197435500655776898e-02
1.213877921737174619e-02
1.093975988078074377e-02
7.363143365592555306e-03
4.980129451732584304e-03
-1.983468796013493352e-03
-2.005377757316810419e-03
7.607242201362277717e-04
-3.852791399220917442e-04
-2.775788366631162882e-03
1.194734608137287303e-03
5.357706526991610346e-03
4.420466303198721837e-03
5.133794358051327854e-03
2.623464863172242714e-03
-1.039353350123313610e-03
-3.166859190723541294e-03
-6.896905374146854173e-03
-3.214181965727332287e-03
2.379155369185064015e-03
1.941789717911781210e-03
3.838986427266721530e-04
-1.549483758052512625e-03
6.599727323534567303e-04
3.279208223288106357e-03
1.827443630249658661e-04
-2.072328670260657757e-03
-2.841985435676188700e-03
-3.384363192650050034e-03
-2.563399192169840864e-03
-8.604030542263134710e-04
5.264110493225154308e-04
-4.819594714781233729e-04
-8.490627284054888492e-04
1.211899959430546951e-03
4.202330341669151953e-03
4.589645295616488589e-03
1.840579161085461549e-03
3.417691216991599647e-03
4.174697786809494077e-03
-6.530102422743651585e-04
-1.016210140024167204e-03
8.215793626652186186e-04
-9.171063596553227738e-04
-3.302412083202992902e-03
-5.632762508342702493e-03
-6.636785777818680204e-03
-4.925427360614232503e-03
-1.854655461887334562e-03
-3.137271051724281937e-04
1.810328999827133566e-03
5.674350081182920509e-03
4.393025192406424181e-03
2.230901101980480462e-03
4.185452950551067641e-03
2.730476593303375089e-03
-6.767223705551099694e-04
-1.108327502251736391e-03
1.812311202708537147e-05
1.582581729806061509e-03
2.556533119366798720e-03
2.589224761741970929e-03
1.382264695316903031e-03
-2.167901864241464274e-04
-1.692241360081815204e-03
-2.346541914474786859e-03
-1.470753825515281558e-03
-3.328159046991703736e-03
-5.803356080340243972e-03
-4.514763883234173929e-03
-2.273235119352531516e-03
2.888481751649875189e-04
1.147320065550076285e-03
-1.412272359794647641e-04
-2.866010055390791345e-03
-5.569212514432953301e-03
-9.659966098528305605e-04
5.204881217738011392e-03
6.666161691893552309e-03
6.743689292555867312e-03
2.485180356701528585e-03
-4.774272073952097787e-04
-3.568652534062509993e-04
-3.058609697916518308e-03
-2.686639545040397144e-03
-2.385829818869880225e-03
-2.420239116516854569e-03
5.112041543241057501e-03
8.367783962086872140e-03
2.435063929347468237e-03
-1.018212150203075565e-03
-1.281609566374605595e-03
-1.521335199142268934e-04
3.907817948129162916e-03
3.325626290652347605e-03
-2.572401026933421406e-03
-2.998276017936385256e-03
-2.327926959864652298e-03
-3.242677586589110417e-03
1.498593088178096222e-03
4.254424262568483155e-03
3.819407585067068067e-03
4.245641876162312492e-03
-5.586130651412541661e-04
-5.321816217660636089e-03
-3.977781347560265836e-03
-7.324863192803364020e-04
-1.786344526458647549e-03
-4.903375044643323508e-03
-1.357457009151893284e-03
-2.258727612186345215e-04
-2.428717210742802057e-03
2.388247164987258690e-03
2.763451683958378750e-03
-1.454366784182786103e-03
-1.945510270812054326e-03
-2.384243988809692412e-03
5.428063288921431816e-05
3.050976377179914420e-03
4.379519038658545235e-03
4.953349560319893034e-03
1.977301380699603237e-03
1.579727214971372471e-03
2.345223336163064411e-03
5.664739380396625022e-04
-8.830318221858534126e-04
-3.951672357195917633e-03
-3.642056936360700634e-03
-2.503375685258656200e-03
-6.086905960058875374e-03
-4.581839818732738601e-03
9.086789714391186028e-04
4.240305536847440403e-03
5.103306401129880342e-03
3.351177455405069446e-03
2.450463153912421817e-03
1.879533056591654937e-04
-1.194682951168497126e-03
1.841282138033813404e-04
-5.146820295787998345e-04
3.654797296786792184e-03
6.821325916540302466e-03
7.625911556454741200e-04
-2.063607059041918344e-03
-1.683386152439072039e-03
-2.788454805886967508e-03
-4.236451596041791029e-03
-4.517503318369004740e-03
-1.750524552873171770e-03
-3.738482325180210453e-03
-3.280068409310713060e-03
4.473218498045543334e-03
5.277981382138446052e-03
5.258674812529412317e-03
4.196556465393439656e-03
-2.912663515304027111e-03
-2.645494773960300333e-03
-1.701263651230761325e-03
-3.664006873036669467e-03
2.489740155933880227e-04
2.404181397926096180e-03
1.041317814336253965e-03
-9.622384558107333671e-04
-1.680237131343771152e-03
-1.915312973137350393e-04
-1.164010448824300253e-03
6.171817494217260230e-04
9.390167523466022093e-04
-6.309609811459627668e-03
-5.649354874165195620e-03
3.057856082495829901e-03
8.083307256344313477e-03
6.452591628709737626e-03
-1.532982553210350584e-03
-3.739552335606824169e-03
1.764303483213472868e-04
-1.795464170283243323e-03
-4.749835199691305153e-03
-3.954215131009746961e-03
-5.666551008422151137e-04
2.728089281439061240e-03
1.188670946482277063e-03
1.016560921389898092e-03
2.303188521292886311e-03
1.382284472901464415e-03
3.996508543898130705e-03
4.380361211771904850e-03
2.922210654098803071e-03
4.947846585391973279e-03
3.688069905546098592e-03
5.939661724723911684e-03
8.541227170592947948e-03
6.480337917270097628e-03
9.526053364736896539e-03
-5.535166016973885189e-03
-3.100333231274350967e-02
-2.551337753627114929e-02
-1.299302366898600833e-02
-1.095300044860888188e-02
-3.941313492676573257e-03
-1.393079276444055339e-03
8.893693267344191314e-04
7.772821339298257096e-03
8.986794165645907786e-03
9.991915488677661356e-03
1.279442173362115888e-02
1.366774051228045357e-02
1.432917951011228840e-02
1.435195362284092876e-02
1.187355046269847683e-02
9.699183280652601963e-03
9.271501231706292742e-03
2.492155930790769351e-03
-6.327006405453324163e-03
-8.949843586313024901e-03
-1.338538558868985866e-02
-2.081961048377974771e-02
-2.662688933179301748e-02
-2.636744956867627040e-02
-2.132075845448578449e-02
-1.862953826099794305e-02
-1.281595713374959408e-02
-6.396558454831838096e-03
-6.919049584336613417e-04
9.840045936561146733e-03
1.439412406910632776e-02
1.770329297789297041e-02
2.044070857416230638e-02
1.459238488052155142e-02
1.344663576621939541e-02
3.716139066723502839e-03
