1.795650812446615910e-02
2.312088433374468247e-02
1.162838951845168202e-02
5.813751832921871046e-03
-4.188139791329114660e-03
-4.294499843458567112e-03
-7.150591416459313628e-03
-1.467501176670681952e-02
-1.504090737800468057e-02
-1.649778459542623754e-02
-1.507446174502334764e-02
-1.094548911230195341e-02
-5.168513038339524711e-03
1.265525458830489645e-03
6.705948968120016215e-03
1.578211590277197110e-02
1.663138856636660334e-02
1.429077551024293680e-02
1.776022707978493903e-02
1.563639327513381000e-02
1.307540227450875239e-02
7.600811202432362391e-03
-2.040087321542847359e-03
-4.235395767138703561e-03
-4.656021452922420693e-03
-2.688828279021831125e-03
-1.238946926369209525e-04
-5.652806626565112097e-03
-1.184613972942308475e-02
-1.441485336400919262e-02
-1.291011557984796804e-02
-8.371486394037636752e-03
-4.790485390417566040e-03
-1.332411830854164907e-03
1.577896868367297195e-03
4.597331129112263055e-03
7.187787089358651724e-03
7.753936033229835018e-03
9.181552491709245312e-03
9.010502820384687361e-03
3.083088808380119675e-03
-8.063935172169119613e-04
1.655086804352845237e-03
-4.683541783742094277e-04
-4.221654664132273513e-03
-1.041890826147218304e-03
-1.743604623578446690e-04
-3.632712921453212090e-03
-8.185720521137749769e-03
-1.020060566908359383e-02
-6.994142178473909330e-03
-6.038017577477314789e-03
-3.512654353948342894e-03
6.258474992145571843e-04
3.813597711712332465e-03
1.038107276131278352e-02
7.830322254532612672e-03
1.459233723667614649e-03
1.366111092862689908e-03
-4.234195540757951931e-04
1.406857830152089938e-03
8.280445216725129155e-04
-2.742077979912365543e-03
1.586738100115023123e-03
4.731992464697175674e-03
5.424275204080218973e-03
4.202672740553047015e-03
2.356720695299271365e-03
2.885457582964906509e-03
7.837923686292734343e-04
1.432691124692795845e-03
-3.544832773195191831e-04
5.950592057981173673e-04
9.915670164719772237e-03
5.506267547512326728e-03
-1.806700265274479959e-03
-8.590182816808240862e-03
-1.974347202941647422e-02
-1.100207178476042200e-02
3.243094416968538441e-04
1.078753457935744233e-03
-4.916179308290636414e-04
-3.546887942530556077e-03
4.737261034950018129e-03
-2.810215130370870371e-03
-1.857957184345494783e-02
-7.661422530156444984e-04
1.058124144766976055e-02
3.201737727848672031e-03
2.451750114934028810e-03
-1.661139882892946965e-03
-1.401021293952390764e-03
9.738153055430269142e-04
-1.224097749999395000e-03
3.061702198773491937e-03
4.280626523025382602e-03
-5.710340737220580753e-04
-1.852956511109646797e-03
-1.325542946297201218e-04
3.829125492206403845e-05
1.035875635521823655e-03
3.490428597379912311e-03
-1.658790890692178046e-03
-4.438484070971289094e-03
2.163495908007920677e-03
5.617709748197091332e-03
6.678127231201752036e-03
4.666365649883440908e-03
1.234090901950668853e-03
1.133254052918871747e-03
-1.529284656880730911e-03
-3.322814244279102911e-03
-3.404400892806790438e-03
-7.155657202172514353e-04
4.822784074594023765e-03
3.184435039374393719e-03
1.651681874950479152e-03
2.010398590621328366e-03
-3.118028474558549694e-04
-7.238670458268572829e-05
-1.787988241329058854e-03
-1.510904620855081084e-03
-1.339528381716115788e-04
-2.544886681603923152e-03
-2.474718652793189829e-04
-8.694074314508704656e-04
-1.073350740109415202e-03
2.601308551818997273e-03
-2.202978054594560611e-03
-3.963311272159466582e-03
-3.327311785106057754e-03
-8.040002472931006292e-04
5.139046018744570545e-03
-9.717023596679268474e-03
-1.818865093367784402e-02
6.516119220007258409e-04
7.521573691074916190e-03
2.666758740244268636e-03
-2.603473502926430564e-04
-2.381657224278480034e-03
8.609491233021211850e-04
-9.485802311933297544e-04
-2.243839780962562924e-03
1.962196843185101420e-03
5.306241537163869978e-04
2.442879912195987922e-05
3.140236430272514475e-03
5.970717691836558046e-03
5.161589529635352350e-03
-2.677956853115226791e-04
-1.245695696356569635e-03
-1.461359602432255305e-03
-3.432177729370032050e-03
-5.053953639459278198e-04
3.278928711748362035e-03
4.862773282627776139e-03
5.833697774882102595e-03
7.240392302716651234e-03
4.351727300771028421e-03
-3.149965519301633175e-03
-4.302530080317153692e-03
-2.500187387383734101e-03
-3.351446656081008210e-03
-2.466711421488794291e-03
-2.990563606192794648e-04
3.133041664229401554e-03
3.845501284674099698e-03
1.526166987903461534e-03
3.110231701870191934e-03
2.443096977355753690e-03
-2.377028703596201914e-03
-1.254753465907851090e-03
2.163551497335343583e-03
5.182781605052072700e-04
8.547833342573984711e-04
3.156240914562696235e-03
1.706452902568990262e-03
-6.178667629220074798e-04
-1.187638854410549491e-02
-2.537492191979022482e-02
-1.713125659458633251e-02
-3.318965857001279513e-03
-1.092078252379365686e-03
1.590090909009918936e-03
3.363772839623814601e-03
5.199107163170088239e-03
1.026596132640220441e-02
8.121122243419589756e-03
3.273639795560627855e-03
3.269601162630731382e-03
1.223097846909572449e-03
-2.471571731004971496e-03
-1.368778361636748290e-03
2.329063266809386790e-03
2.599941541921818762e-03
1.581579600392206983e-04
1.108117102565231524e-03
3.084838092056366339e-03
1.532679693315102711e-03
1.969806428948280702e-03
1.834550676904960365e-03
-2.285901282563850695e-03
-2.344731466692756127e-03
-9.452118480801116173e-04
5.882527029386810501e-04
4.556104523785488129e-03
5.494090029516664371e-03
5.404566451386907423e-03
-6.471295449340917511e-04
-1.064148203307858399e-02
-8.253585619627964304e-03
-3.137206728690031081e-03
-3.707179190204773489e-03
-1.675225595651438351e-03
2.467809798431471174e-03
5.617331018448328515e-03
4.196686391994407239e-03
3.487419918421705723e-03
4.758570409885260442e-03
3.651973409099461537e-04
-1.303046881204743919e-03
-3.666810815011895268e-04
-4.172559522502207463e-03
-5.072301574377052411e-03
-2.541259082769131640e-05
1.994917963876764559e-03
-8.293944364090293647e-03
-1.487072118426913982e-02
-2.773143220787607430e-03
5.187290415408326444e-03
2.017890489874874654e-03
1.686085632531153684e-03
1.451662782980153200e-03
2.094060214885961908e-03
3.807203587219241871e-03
1.060156372240268589e-03
6.570044377415759380e-04
3.337092014139365730e-03
6.876953453100044349e-04
-2.093481863227346276e-03
-1.450532881560828713e-03
-4.193629118465107448e-03
-4.615359742158974335e-03
6.022227433485142752e-04
2.041385185781145837e-03
2.208554462936342631e-03
4.779919269736152346e-03
4.519180273650194764e-03
2.773404321536909224e-03
1.456065646808464087e-03
-3.701714545963246446e-04
1.066229272434075949e-04
2.330306380521875165e-03
1.920427555510946212e-03
-3.804997500613096291e-04
-1.006865679759689960e-03
8.347817633793701763e-04
1.446222030712794983e-03
-1.485406346790060523e-03
-3.239325523059541790e-03
-2.777610348858940235e-03
-2.497994984033645276e-03
-3.421122254737406481e-03
-5.516880723939673881e-03
-2.792921043929327048e-03
1.693452443181326511e-03
4.348203434313979016e-03
7.471723684735359118e-03
3.414489819511859568e-03
2.430402834140232490e-03
7.019973901017641238e-03
2.246068596301216674e-03
1.559324675227020300e-03
-4.494866634271765457e-03
-2.001696649029915953e-02
-9.426718779395701353e-03
6.394699954291284232e-03
3.440794110315698040e-03
3.224852494918434200e-03
1.251528314275080584e-03
-4.555091752319045430e-03
-3.141722038101876259e-03
4.100325173234170215e-04
6.929734708794211152e-04
-1.434648116280870305e-03
9.304939162095869415e-04
4.994838304483237811e-03
3.837068770176007941e-03
1.796470501568850570e-03
-1.507662673257664137e-03
-6.948354569298082102e-03
-9.628656105630278156e-03
-5.959094831599708215e-03
-1.764319569247991171e-04
2.241992777558911732e-03
5.896159795664023158e-03
6.687088003556181277e-03
1.600288952173487683e-03
1.716929933620327817e-03
3.047446631329595469e-03
1.187685480317879176e-03
2.525996053785507702e-03
5.641946984726568413e-04
-5.394410075477159769e-03
-4.647701480272897583e-03
7.235196202084212373e-05
2.467927780008598478e-03
2.791529726138845292e-03
3.630650242595112424e-03
6.744456324950900625e-03
2.932585674744621861e-03
-5.818559171049404732e-03
-2.837786298841338956e-03
2.726751392096204377e-03
6.389151213083321852e-04
6.895089407616967602e-04
1.352279478827815356e-03
7.906852213098722933e-04
6.645517014267426307e-04
-2.063603948729880039e-03
-2.512947541521803711e-03
-9.561575492204736930e-04
-4.280119113913937942e-03
-7.769126709037738575e-03
-3.291042951765021495e-03
1.355313871224025132e-03
1.634174402572862589e-04
3.499721904446981627e-03
4.885477857543653324e-03
-9.087856006186085123e-04
-9.813397070991475627e-05
-1.221247186682672696e-04
-3.589248438335853469e-03
-3.510197810849189064e-04
1.559104465352436665e-03
2.416188325385311246e-03
1.271150846339553098e-03
-7.219622803595942585e-03
-8.440099286263241796e-03
-2.370619725147236987e-03
-1.222087042150545814e-03
-9.481039532152144966e-04
-9.532204524569174841e-04
-2.699605224621319261e-03
-6.591775781649775851e-05
5.384923611766815818e-03
7.295810002904992014e-03
6.081572816761985668e-03
4.350695233743780317e-03
3.158557810252095657e-03
2.426983704359417324e-03
2.753471274204263202e-04
-1.908762831719091647e-03
-1.425994857157755779e-04
2.906957004573540275e-03
1.181768971368395149e-03
-2.283129902942359832e-03
-6.543178030881320910e-04
1.113402073421249864e-03
-1.487939409930121720e-03
-1.843489462697449604e-03
-6.237290920312216777e-04
-2.210833824905253202e-03
-3.417632204758716367e-03
-2.703878305482677186e-03
4.178017136807513033e-04
3.138396459895140961e-03
1.370349498332329701e-03
-5.675774905841837270e-04
-1.207808987112509455e-03
-1.689612624523357566e-03
-3.259195380026515786e-04
8.919025743754215464e-04
1.609779086547514582e-03
9.718131628234647542e-04
-1.285656264631216718e-03
-6.666018380867666081e-04
1.467190001615836749e-03
3.098973932495075172e-03
2.182577366074435303e-03
-2.362565238822463172e-03
-1.800457914075528042e-03
7.238770732543062074e-04
-3.575082040718704710e-03
-5.342444877424102137e-03
-2.628677697774592934e-04
2.292904148087549290e-03
2.086647388791938382e-05
-6.753530242976598687e-05
1.761665427483583403e-03
-3.903810842889171833e-04
-1.723967462090469482e-03
4.946155751370300219e-06
2.177284054516908599e-03
5.518243269196379530e-03
3.507440932436447188e-03
-2.522378336518637642e-03
-3.938576568098152778e-03
-2.521244285132183665e-03
-1.483628589499129272e-03
-3.481872919445867971e-03
-4.599138765639011403e-03
-1.211177423624805504e-03
-9.613108611524852007e-04
-1.744112930455829057e-03
1.086991581887474878e-03
4.539596034210190145e-03
7.765984319180414819e-03
6.316835343350066072e-03
1.215529238075097095e-03
-1.440946523967966911e-03
-2.259134040849279136e-03
-1.925842661906786201e-03
-9.801999311765700537e-04
6.902734525834088291e-04
1.649822206932669358e-03
5.736854710361592898e-04
2.280397907283671782e-03
3.236083890015834311e-03
-2.202449439577026133e-04
-5.044768751431995659e-04
5.603346495721522576e-04
-1.168622789876567602e-03
-1.422994409241543773e-03
-2.004677092426836865e-03
-2.796155920175352836e-03
2.276370589307959852e-03
5.937923153188438830e-03
7.261716467993439665e-04
-1.897765815462439587e-03
4.291383071536689509e-04
-2.171512524324483578e-03
-4.143099447770528902e-03
-1.728292748062060843e-03
-1.098708199543564504e-03
-1.065349946146295149e-03
5.815544101332498130e-05
1.319859486774631503e-03
5.182930187682758530e-04
-3.969931787094860103e-03
-5.482110625279936443e-03
-6.196920567283044834e-04
2.796541828353628356e-03
3.833839261553706555e-04
-1.121370626737784506e-03
1.742192841962460085e-03
3.697232962070371668e-03
3.633396148267944038e-03
1.100468321195412127e-03
-2.267835080239607656e-03
-9.071557986706519500e-04
-1.636333169047307417e-03
-5.125185855547591957e-03
-1.471300391483362693e-03
1.760235285479658761e-03
4.598385201823012160e-04
1.903982612929211319e-03
3.567968826028767443e-03
3.815087735028343304e-03
1.199671821643724006e-03
-4.505777136589815719e-03
-4.846361569262959239e-03
-2.108597453204571776e-03
-2.984086359194518690e-03
-4.253583087842435599e-03
-3.271775222345270438e-03
2.218016215991781490e-03
9.568285783027312419e-03
1.078644670619078455e-02
6.748420743615122369e-03
2.272789655400767397e-03
-4.007493958474019438e-04
2.362138754521178998e-04
2.691690879442459449e-03
4.374438096117414833e-03
4.255791551067165945e-03
2.891721821231396997e-03
5.379655298071870035e-04
-1.486398661758550187e-03
-4.008033535753604930e-03
-8.987320786642903625e-03
-7.856909553533089619e-03
-3.433927116986084261e-03
-4.663412074925275645e-03
1.332312445906578581e-03
5.706299473902720631e-03
-2.021486403872202030e-03
1.628929082888360986e-03
1.929635008622483010e-03
-1.608965472794836662e-02
-1.737680462471758239e-02
-4.243668326769644249e-03
-9.222880266970964139e-04
8.088906360076487164e-04
2.850154229994014427e-03
1.478990087627968155e-03
3.678061017738275089e-03
6.764037896246456044e-03
3.614570134151816501e-03
1.701115657066079936e-03
3.578304131963579854e-03
1.406827536384494363e-04
-3.327154766330721672e-03
-2.938982780373058847e-03
-2.253718918335119361e-03
2.258476971355089825e-03
5.229170237117665779e-03
6.116726270888547985e-03
8.871489346418924560e-03
6.144227066582014576e-03
2.455899449015193619e-03
1.078760238367743518e-03
-2.094693796072450483e-03
-6.144012464867073349e-04
3.030209755577777716e-03
3.216142479381448992e-03
1.410275089638193683e-03
-3.384496677132244231e-03
-5.761907703916502484e-03
-4.662081131557727597e-03
-4.394609594274656236e-03
-7.761281070623738928e-04
2.159093088466431071e-04
-4.676811018337430868e-03
-1.764204267259395506e-03
2.965931167161347040e-03
6.822873543799527459e-04
2.371374000067154493e-03
2.202355071851228550e-03
-5.254062456822361504e-03
-6.798817798758413980e-03
-4.338493414972806675e-03
-3.094681177559171961e-03
9.842432236538639721e-04
4.357278581800863582e-03
3.147748563830209644e-03
1.079378064669360719e-04
-1.719599048956951814e-03
-1.956731311449333519e-03
-1.199149665055133083e-04
1.765219773011900747e-03
2.811156301047616291e-04
-1.731326883464077765e-03
-2.521683518127327758e-03
-5.530957419852566316e-04
4.022171778931382669e-03
5.872873322781252056e-03
6.742857679797047317e-03
4.416184469289998436e-03
-1.583259995816963667e-03
-2.608370401933045053e-03
-3.281077251077778225e-03
-4.143798993807479639e-03
-9.193795234015994132e-04
3.013748242928199596e-04
9.425506969575245773e-04
1.026389569650318400e-03
-3.246396714469523934e-04
1.055013427486204466e-03
-1.033437650623853410e-04
-4.218154399668590758e-03
-4.364418501030993720e-03
-1.669407509136964281e-03
-1.788115743869803272e-03
-3.153531656018877891e-03
-2.353028301279973527e-04
1.884408011276943965e-03
3.194374741513798539e-03
5.391815923867311969e-03
1.036380318048727919e-03
6.347570975252523132e-04
6.603546560993421057e-03
3.345258971520645441e-03
-8.819763965264325930e-04
1.193352631831970379e-03
1.144093735058535413e-03
-2.299385430204882821e-04
-2.190178641416321188e-04
-7.678952248065611629e-04
-1.633041651414113629e-03
-1.332758809562646705e-05
2.756027700736703124e-04
-3.684361474091945102e-03
-5.911328374998229065e-03
-5.240034686601403521e-03
-1.183794464316847723e-03
3.078124453868141212e-03
2.785876264787944673e-03
4.431545574070177088e-03
4.656432039016261855e-03
-8.261936054207799380e-06
-2.547004345146581736e-03
-5.110163703916349720e-03
-4.836423314270235120e-03
8.352770517356509117e-05
1.961412857731386402e-03
1.714115138107038822e-03
2.196618511627741700e-04
-1.990917340957082046e-03
-1.888030126481987604e-03
-1.091538345993582279e-03
-4.000819369918855498e-04
-6.327169022725197918e-04
-1.435566421142376930e-03
-1.530814625269435103e-04
2.655028455497676718e-03
2.174875758804653818e-03
-1.074714910824500292e-04
3.424677743328349063e-03
5.185076027554527504e-03
3.299026875458074240e-04
-2.429500089498662623e-03
-3.826014460643701980e-03
-1.199542654558143637e-03
3.488419751086753971e-03
3.078111075277078969e-03
4.510278640495990823e-03
2.054487878853008404e-03
-4.840769695132044782e-03
-3.935892134888095348e-03
-2.675431630982932820e-03
-1.952418355724203167e-03
3.230706373616762492e-04
-2.075711058457499307e-03
-4.070033166411017589e-03
-3.590592405608001702e-03
6.767997436801819530e-05
4.559248975689390512e-03
2.967675784937430072e-03
8.280449195362494467e-04
1.296946790037459924e-04
-1.104481949506527913e-03
-2.259765287752749964e-03
-1.991959973054830899e-03
3.910589755709229474e-03
7.302545364165543770e-03
5.315190963533729385e-03
4.539676575935599860e-03
1.921573456065416973e-03
1.066336499655735383e-03
1.247974533471315085e-03
-2.915741439602615500e-03
-4.298971650368716736e-03
-3.841455088676482086e-03
-4.306470171256426317e-03
-3.304179327790122273e-03
-2.111786344780139379e-03
1.841937118555308887e-03
6.737577843982997874e-03
5.946513893033473185e-03
-1.670367510720622282e-04
-4.250627877577769879e-03
-2.851901605125598503e-03
-1.161225463815729417e-03
1.611173958353622404e-03
2.830190419088579601e-03
-2.887004237873763961e-03
-5.174485654516208961e-03
-2.696468239611138264e-03
-3.423097833211808088e-03
-5.311772023613246969e-03
-5.577858457876290477e-03
-2.349225449411011368e-03
-1.163083468634274267e-03
-2.797410546503566967e-03
1.439186783403464780e-03
5.303821994794966251e-03
4.951773663870317685e-03
3.537814395190300859e-03
3.452210295345448880e-04
-6.329254160661201443e-04
-1.545876534173921523e-03
3.424775515451905354e-04
6.483769255816435213e-03
4.173825644262833118e-03
1.597408544259544799e-03
4.474366834650866237e-03
2.317336618801628563e-03
2.034933268480617133e-03
2.606607757435035200e-03
-8.662485903906838418e-04
2.444055030036825448e-04
3.570564456546088724e-03
3.870755511961098110e-03
-1.359204950200833956e-03
-6.936099066377852257e-03
-2.111084302473737514e-03
4.328186736931441576e-03
5.484495254910247246e-03
5.570092045498499511e-03
3.495981680398769012e-03
-2.137466359730120884e-03
-1.607201391991698591e-02
-2.665946932512813436e-02
-1.423637120053394302e-02
3.051510051233310462e-03
4.521055788491469551e-03
2.249234449009747047e-03
4.341560601035036361e-03
4.858259838590762991e-03
2.786108580431871651e-03
5.881131299988223878e-04
-1.272857046261085742e-03
-1.833119617062230113e-03
-1.524047280230455322e-03
-1.115151909834554258e-03
1.054982478054359869e-03
3.318839567258623398e-03
3.687109059446462122e-03
3.146955507365737856e-03
2.705790394373867782e-03
2.507291865175521103e-03
1.802765831269483867e-04
-1.046126250676410706e-03
1.452915624372146369e-03
1.530341705335704940e-03
3.982560440295865528e-04
-1.876325923146541065e-04
-8.716775002895794672e-04
2.664136808656156034e-03
1.553986915423587883e-03
-6.343306657379910000e-03
-6.735510126214961334e-03
-4.329943904666187608e-03
-4.554942410476318058e-03
-8.858543711965407826e-04
3.056654998419627584e-03
5.480324759248711604e-03
5.913696877176676317e-03
2.166024160388521809e-03
-8.657899842480583277e-04
-3.360859752150292031e-03
-2.479596935594851302e-03
2.780029493889164642e-03
1.586802260820321725e-03
6.525965559079070256e-04
4.573212119737351221e-03
1.896022299330850282e-03
-5.111062582677259941e-04
1.208999390101148748e-03
-6.682710763606657957e-05
-1.443890790827637074e-03
-3.650093584760611982e-03
-5.971100230428156609e-03
-5.586597560536682612e-03
-4.767266845521906868e-03
-1.491422639330032118e-03
3.674654740090868652e-03
7.735168683334537124e-03
5.768527317070161649e-03
-1.800747053910457373e-03
-1.470179183627006456e-03
2.241204728932161706e-03
-8.723245625409715466e-04
-9.782238456380156280e-04
1.253552670790560909e-03
-2.408275212237933097e-04
-1.457080251389321172e-03
-3.040500107919083192e-03
-5.268664328088202599e-03
-5.923887043771985245e-03
-3.779572231086962206e-03
2.302096890295418012e-04
4.069576248522125067e-04
-1.244011910773922805e-03
8.252454408649254622e-04
3.856151624041751803e-03
5.898527967844286249e-03
5.483592056024632656e-03
1.909939913223891511e-03
1.840960688443463416e-04
3.599509350051310940e-04
-1.515980169832015960e-03
-2.568228548099906697e-03
7.502482104150441297e-04
2.853760705218092580e-03
4.973853424033482240e-04
2.937154123091809403e-04
2.029050865377797323e-04
-9.879895060637786542e-04
3.390944361757679704e-03
4.021533618341815129e-03
7.274462999820209140e-05
8.565970083410061201e-04
-3.888054062468416019e-03
-9.037753083985711547e-03
-2.353052900137990195e-03
3.122340389882790907e-03
3.789669344496753023e-03
5.285137981263187540e-03
4.407324516991269030e-03
-9.711071790190756842e-05
-5.369133190256688767e-03
-4.478827858152335979e-03
6.249183217086250403e-04
1.885276957208738020e-03
1.771040408829784463e-03
7.392958446969369107e-04
-2.144454839698459701e-03
-1.980697808591025746e-03
8.611764962880222437e-05
-6.582725285202876498e-04
-3.699778395160643711e-03
-5.319442544722589698e-03
-4.426761576038319886e-03
-3.670686539744605608e-03
-2.775673563655881287e-03
7.815960674198688032e-04
3.996854350113389007e-03
3.630260721908157556e-03
2.273006448515086340e-03
1.010929887868643445e-03
-1.116411416838640957e-03
-2.392666302054864517e-03
-5.819396725369616269e-04
3.021593010104359125e-03
4.168542741534666043e-03
3.293111472683961458e-03
1.371365497655446840e-03
-1.622235509767079543e-03
-4.955642494557344849e-04
1.068756687516066563e-03
-1.826338388503923960e-03
-2.371049835758652462e-03
-2.281068563176973183e-03
-2.150648976390746696e-03
3.756829770136183282e-03
7.166676563871579066e-03
5.403468599726342185e-03
4.767759687594117814e-03
1.965846453619320318e-03
-2.391510682813796727e-03
-4.833159337447164028e-03
-5.443430554322998063e-03
-1.692958210446681181e-03
2.238721574692780717e-03
2.924633416166270115e-03
2.855682187819696873e-03
-1.282554739561534015e-04
-9.522150765869398775e-04
1.818996539603305856e-03
-1.654168385644676914e-03
-5.501032983767904262e-03
-4.187265525795988257e-03
-3.683542476851497677e-03
-1.154142231327183899e-03
3.673404851243062055e-03
5.511451853130891997e-03
4.923418853190119834e-03
4.731472964064764239e-03
5.332991665325425429e-03
2.942752491442004147e-03
-8.367549468075909797e-04
-1.223342845984098405e-03
-5.653230514532200024e-04
-5.207295328864150561e-05
1.672182765861964047e-03
3.383668537309106328e-03
1.242989358544122460e-03
-4.465237800093216011e-03
-7.706746743996933935e-03
-1.040409649555866511e-02
-1.294027818917112271e-02
-9.338158724975124253e-03
-5.557184147284651224e-03
-4.264034985365061994e-03
1.228135644916742613e-04
4.052321825649430991e-03
6.366291838922497059e-03
8.965731764426833686e-03
9.581818966524114842e-03
6.987325093515796628e-03
1.072567000167726475e-03
-8.602206227393867236e-04
5.138431043276197457e-03
8.747805419140134917e-03
5.239641386863561762e-03
-4.956067167579540937e-04
-3.187012946773488085e-03
-4.231357335839281558e-03
-8.803937978299168632e-03
-1.093800302075215690e-02
-9.390725868134112281e-03
-1.178947870234548119e-02
-1.345717851807392423e-02
-8.051771809065605412e-03
1.104475530984199913e-03
6.578374013144134766e-03
1.063181536322650549e-02
1.745772995609120096e-02
1.728874450666584642e-02
1.676586039862195190e-02
2.278963609106707255e-02
2.229574199709668039e-02
1.982512725767806780e-02
1.564590700682270616e-02
6.730220008894297057e-03
-1.640175613909470795e-03
-1.749295680389374025e-02
-2.434912025818627632e-02
-1.642146328632354546e-02
-1.661210604510825889e-02
-1.398313834545463104e-02
-9.665681732710783292e-03
-1.527687222322655566e-02
-1.530819288610674178e-02
-1.025891322132201251e-02
-5.285179317559791923e-03
-6.215380765752820044e-03
-1.802354368499774206e-02
-2.153079799605337949e-02
-1.533466331355357558e-02
-1.682074814060461124e-02
-1.983240741073849164e-02
-9.509548065663913155e-03
6.972154036441953126e-03
1.873194191054168567e-02
3.188964458095398802e-02
4.513797577841904135e-02
5.530133920111494905e-02
5.827708962125887487e-02
4.413477293235174709e-02
2.848072290960997413e-02
1.501811360833706609e-02
-6.881276600067800543e-03
-1.753326892171037238e-02
-1.445872915611798662e-02
-1.301395736835869038e-02
-1.513269402885009454e-02
-2.225616235605777649e-02
-2.486737934981338161e-02
-2.362528683560016080e-02
-3.020092183923784798e-02
-3.544568433597631435e-02
-3.290345958804624660e-02
-2.784701056172245864e-02
-2.306363277336857115e-02
-1.372899171241960536e-02
-2.311613685996143260e-03
1.329927969855724005e-03
1.896360010101350718e-02
5.437644331943850690e-02
6.608522523532144033e-02
5.373265520121876804e-02
4.223846897968309283e-02
2.807336546389335372e-02
5.852533459176578745e-03
-1.872255481657194437e-02
-3.830378572088376232e-02
-4.952656331455823624e-02
-4.847855889817783565e-02
-4.883508022433269424e-02
-6.454827788522027321e-02
-5.588971436598139803e-02
-6.112774539825415777e-03
2.823564782456115807e-02
2.034518299010288495e-02
4.131681331812457614e-03
9.186200090064173401e-03
3.529816922428325593e-02
7.717280587343997023e-02
1.150103583091874604e-01
1.017792990665480346e-01
2.924585596566550358e-02
-4.288157096814947111e-02
-5.508929157200207621e-02
-2.424414604415773764e-02
-9.051818257746360383e-03
-1.115548966026740649e-03
4.300876077723417984e-02
9.686585178007310615e-02
9.722154448242935343e-02
5.414847391215966282e-02
1.891303669939174703e-02
-8.026596709133896126e-03
-2.211568624666701566e-02
-4.544731063661124754e-02
-1.292732126729434217e-01
-2.086801259738925995e-01
-2.303499850456308951e-01
-2.214802661712019227e-01
-1.622586177761075887e-01
-5.687197892843245256e-02
4.587495186117386547e-02
9.728649271634758067e-02
9.185955121917110944e-02
7.612965838679339181e-02
4.390356367972467894e-02
2.885560968154866554e-02
6.945995783110407717e-02
7.632083451354318426e-02
4.964373952550654723e-02
6.561630881402834292e-02
1.116662366875871559e-01
1.507701268935162653e-01
1.363377153429989608e-01
8.252447927974011777e-02
3.839364386655881589e-02
-1.789002932559977457e-02
-6.901330750917238077e-02
-8.603416565255922466e-02
-9.810249762893871739e-02
-8.937508407145210165e-02
-5.060919061369970745e-02
-2.545945073339777459e-02
-1.172043632632729579e-02
1.053721121323009449e-02
2.754818322366818159e-02
2.566184296992063754e-02
-4.948005876410568361e-03
-5.044899589119005573e-02
-8.269799387566145743e-02
-8.845724852361731838e-02
-4.967136953565055857e-02
4.795406962599829161e-03
2.476448824981099250e-02
3.296448371553384327e-02
4.484401477612556114e-02
4.060608249023253680e-02
3.866207056422529126e-02
5.762619809699339596e-02
6.583671491845946577e-02
4.193948251356326845e-02
2.014260704351059778e-02
4.142580311396428698e-04
-4.356988302013650727e-02
-7.893325144283125372e-02
-8.066836661088493121e-02
-6.806193648442744604e-02
-6.560980784116193787e-02
-6.018494444464470017e-02
-3.244103620791351922e-02
-2.244801261940057580e-02
-1.378912317508803470e-02
2.981816932671944170e-02
3.901487268507597417e-02
7.996355783490600652e-03
2.201755356151839649e-02
8.350152579666544894e-02
1.005135580174936205e-01
4.849985074240908273e-02
2.504429393053309374e-02
3.791394947640948365e-02
2.339124225351256817e-02
5.295204806382209674e-03
-5.864118489096099320e-03
-1.362913493730699872e-02
-1.060709213525235992e-02
-1.383009049118485122e-02
-5.231494215296675181e-03
1.427339080931292782e-02
1.172173168160908600e-02
-1.766827783818696257e-03
-5.485280516902448292e-03
-2.158902194064833083e-03
-8.928791744630567434e-03
-2.627146560308161322e-02
-3.376921609060835883e-02
-3.117695177219095490e-02
-2.745939411299615912e-02
-1.715375022215008191e-02
-2.268602278725395834e-03
3.087979385873368442e-04
-2.239970111007494411e-03
3.856070307903505280e-03
7.280092097096200164e-03
1.234940819216706620e-02
1.871101537832898370e-02
1.602299328612720453e-02
1.330459578440591241e-02
4.239913427028838173e-03
-7.883035504197380069e-03
-1.142926250749657507e-02
-1.265528080767905524e-02
-1.280779281282153938e-02
-2.803690478381597878e-02
-4.291834945206019630e-02
-2.298877941706853681e-02
-3.935085578422686109e-03
-9.131463905857090113e-03
-9.685416316889806573e-03
4.324719090317827308e-03
1.653482428182761338e-02
1.853940122732790352e-02
2.516976627394085231e-02
3.055607457092827592e-02
2.365264773882783458e-02
1.763002756091488696e-02
1.038641257273154560e-02
2.870333686389311360e-03
1.424943123110771273e-03
6.304168686970209635e-03
8.485983990674158053e-03
-8.721997205401709960e-03
-1.341958720222976784e-02
4.715247185985024791e-03
8.791767628036205318e-03
1.095811446196574487e-02
1.287710269586919871e-02
4.840826719318582459e-03
6.195303266787441192e-03
8.052716158030104321e-03
7.536715829628377536e-04
-1.770428833346805730e-02
-3.509253898456302090e-02
-2.854491860180528168e-02
-1.737848649083356331e-02
-7.477185188747844519e-03
4.752070624928377007e-03
6.684175929831098067e-03
1.076926896450154138e-02
1.155695277958117967e-02
2.030734884413899939e-03
-8.898446645868587305e-04
2.226709292679720197e-03
7.864412968428623196e-03
9.156789376165907698e-03
9.159861858671974281e-04
-8.725371754749891920e-03
-1.719608817501319317e-02
-2.141727148768103606e-02
-1.726375408761139998e-02
-9.525417496992991465e-03
-1.140239283113213611e-02
-1.380026401976014103e-02
3.038183566198712337e-03
1.520411294700882605e-02
8.967138180522075952e-03
6.397334828037838129e-03
7.946828861489474774e-03
6.871909418604519801e-03
6.927778003265700965e-03
8.589769039470698114e-03
9.214632981745289608e-03
8.436385547233781965e-03
4.289183214014283957e-03
-3.064839820504052046e-03
-2.949297051063047050e-03
-3.312249288804011704e-04
1.297146664992980276e-03
7.956815562895319660e-03
5.716178554838914974e-03
1.244030436128652859e-03
3.637473214431633482e-03
-6.036766786817576150e-05
-2.696142947235445359e-03
-1.480046386803177648e-03
-1.164762235917356573e-03
-9.973380339837541360e-04
-1.568902683196122345e-03
-1.857279813250547291e-03
-5.747633895374266305e-03
-2.053495917751467937e-03
3.850415248727580026e-03
8.060004149750146047e-04
2.997204283999058919e-03
-1.052209996320689102e-02
-2.523491898287992530e-02
-5.916486762753400686e-03
2.949810404833917016e-03
-1.164231619152938935e-03
6.231157349701794620e-03
4.620083801372877434e-03
2.525762761645976295e-03
1.990853725408597234e-03
-3.155643196099644845e-03
-2.104283728688556739e-03
-4.055429089624984777e-04
6.843007190876477077e-04
-6.099334158526348824e-04
-1.395125971481629180e-03
3.769441397793644923e-03
2.718367571515192989e-03
4.862399659671580595e-04
1.988200168302966912e-03
1.046017626952562996e-03
3.507679315909149626e-03
7.113506021510755326e-03
6.107301269141696652e-03
1.661861221441224452e-03
-5.294385585371575191e-04
6.930302274744126485e-04
-1.509768487454925907e-03
-2.996259220846010565e-03
-4.099174219943424284e-03
-6.885449102938617782e-03
-4.676413791240374360e-03
-3.577588617677734950e-03
-3.371763683689650310e-03
1.504971794350778427e-03
4.865366156027382295e-03
5.894101460681747638e-03
4.163258846517766884e-03
-1.968061103380189399e-04
-1.651329736033793801e-03
6.475677687859958441e-04
2.509509171396393217e-03
1.628947221151829002e-03
2.996828982529928936e-03
2.776407757237052409e-03
-2.906460916772053704e-03
-3.113237301038194842e-03
-1.861799787310397785e-03
-3.682619135938835098e-03
-5.270218932113103841e-04
4.949603894450001380e-04
-2.374938520473881924e-03
-7.470593493711340238e-04
2.657169922643758293e-03
2.445448969899840369e-03
-3.318583274783842765e-03
-6.259751188521656649e-03
-1.070425981790090048e-03
2.001379779805420936e-03
1.657361761415276739e-03
1.084023025136211836e-03
-1.553673348800455522e-03
-6.360849400227820303e-04
2.647676263246063685e-03
1.466598962943000024e-03
4.457794393829127462e-04
-5.187864692302168864e-04
-4.088874216603544283e-03
-3.349125339327497630e-03
-1.155441499926906620e-03
-2.125047526389098242e-03
-2.595428480523504335e-04
2.418028303212695854e-03
4.765184883351585021e-03
8.120150132241599206e-03
7.253119242697849377e-03
5.160950901919006580e-03
9.104031074305873796e-04
-6.098021167623404216e-03
-3.634243052978866195e-03
2.657489892042736845e-03
2.451676932486770381e-03
1.459775564774738656e-03
1.375055807603466659e-04
-2.773208483587869498e-03
-5.252095275514616357e-03
-6.686147788642130690e-03
-5.469701651286679525e-03
-4.328740287490766628e-03
-5.721256494102881958e-03
-2.395556519043991455e-03
7.109489286558110660e-03
8.341619309512739860e-03
2.115740789143661944e-03
1.996865543553914130e-03
1.333600291917612151e-03
-2.214763431349535319e-03
-1.809051595418001684e-03
-1.639447027516074311e-03
1.647745197766499079e-04
3.040229781826124002e-03
2.010679099257615173e-03
1.838977591258378081e-03
2.462983120059243115e-03
2.719798960967292553e-03
4.040737932810411354e-03
2.515658995122133177e-03
-6.311479599947905639e-04
-5.199967132782066809e-04
-3.013919821783608605e-04
-2.706858067725545144e-03
-2.842171492945934179e-03
-3.003302272824626184e-04
1.611865522819945626e-03
1.467817508821300148e-03
-1.389919483135341506e-03
-1.598016686624497557e-03
-1.521434745509013141e-03
-5.091515572177901863e-03
-4.520651492830332630e-03
-3.800470006551111887e-03
-3.860869469759161537e-03
1.299227291711944768e-03
7.397434641816122642e-04
-5.156352414737015027e-03
-4.911458340834970980e-03
-7.470431268223464306e-04
2.433894933500713176e-03
3.319357722002293232e-03
3.049902502461578589e-03
1.475537734149267059e-03
-3.810088193845738175e-04
2.997283308424230925e-04
3.146647051434440720e-03
8.014824279844137700e-03
9.116419976891715696e-03
5.504226123035920945e-03
3.051463535708105398e-03
-4.585420481918826017e-04
-5.461181296431665954e-04
3.155685103511405697e-03
2.315224263809369156e-03
8.508762644124927450e-04
4.585340724855977356e-04
1.366019476306201078e-03
1.980218662641617961e-03
-3.225539721835957250e-03
-4.865512756549563236e-03
-2.838578734436373934e-04
1.532495223740183753e-03
5.453801678695272383e-04
-3.546550117375237661e-04
-2.389563025689602285e-03
-1.243199797266432774e-02
-2.019628516382284897e-02
-1.213001028557455716e-02
-3.887289020960743927e-03
-9.676434569705584174e-04
2.539175118939336097e-03
2.725766825675634761e-03
4.275253738031881828e-03
6.699976305394070991e-03
6.401253651453477946e-03
5.233403159808886797e-03
1.037597462107538344e-03
-1.428126570168552177e-03
-1.203765781690300141e-04
1.543695484617581834e-03
4.028365255795262473e-03
3.598700402968854715e-03
-6.183459549339263839e-04
-3.892287564614761979e-03
-1.739685733339607502e-03
3.544236431388069885e-03
4.363409869855957614e-03
3.199648639578080850e-03
3.986871897840413466e-03
4.620765595165170388e-03
2.898631279566105980e-03
4.090168629714626292e-05
1.568293946701172868e-03
2.090119374232042582e-03
-2.778981019138219467e-03
-5.080390344462657783e-03
-5.041117441937775778e-03
-4.107680929374734127e-03
-2.676511645967310799e-03
-3.900293258725991141e-03
-3.949876170775392693e-03
-3.380793690114078289e-03
-4.233882032526171436e-03
-4.055620790030603669e-03
-2.522276413522772393e-03
3.368713556422322890e-03
9.507624939599076605e-03
8.131746411551342077e-03
4.208002709290712719e-03
1.069079384172669060e-03
-2.564741126433653200e-03
-2.771596469788410299e-03
-1.235338588002172231e-03
-2.615213925379802212e-03
-3.680960012990714455e-03
-1.256140655856937977e-03
3.625262882218211434e-03
4.572708959353727516e-03
-2.270426481020488066e-03
-5.072131363182906180e-03
8.879437791723001185e-04
3.587655449846565738e-03
-3.539442869737182513e-05
-3.751434702203134720e-03
-2.408000414650944207e-03
2.419700766237938006e-03
3.993238054240818950e-03
3.377425142262374062e-03
2.977959691203962197e-03
1.725885998750517538e-03
1.344229060482407556e-04
-1.032541002210296717e-03
-3.495651804836397841e-04
6.941448141937088187e-04
4.257431249938871138e-04
-1.337168293885055738e-03
-4.122853291299928731e-03
-3.381944913065103569e-03
-2.351777344213262701e-03
-3.679177938657692427e-03
9.725953128957263993e-04
5.968085999613582590e-03
3.067068012075553282e-03
7.402649271541796288e-04
1.725299159215589731e-03
3.435851737833608196e-03
6.452992587523896130e-03
5.369385976615234819e-03
-4.687891256154528815e-04
-4.981017477798150780e-03
-7.814578342254912754e-03
-5.630364370070370730e-03
1.519626678824936199e-03
2.967464432428641892e-03
9.995111925895476816e-05
-1.368218029824727795e-03
-2.314128489354992223e-03
5.758235584140629750e-04
1.272860023169836282e-03
-5.598968058222005516e-03
-8.829412305717120046e-03
-6.517269852476310042e-03
-5.408186163229074077e-03
-2.435111711359644587e-03
3.197359476148508954e-03
3.774923678356109473e-03
7.338819845901631191e-04
2.659466850566686615e-03
4.080140916504417826e-03
9.566218219931420111e-04
2.012023011616917000e-03
5.555662252548583882e-03
6.110964531119808703e-03
5.052707065783179283e-03
2.037534486850375252e-03
2.354031167430662135e-03
7.396588813780909794e-03
5.285041079787587866e-03
-1.578531700288461756e-03
-1.586536571538070713e-03
-3.486191889844511799e-04
-2.062701940586361520e-03
-4.167274975439511607e-03
-7.280928929458358248e-03
-5.447681466007926049e-03
-1.333530502972386051e-04
8.400590279720786344e-04
1.307722174698698310e-04
-1.359323453770845290e-03
-3.021210007723481011e-03
-3.099843927740942359e-03
-9.033342858521126997e-04
3.493622615577492672e-03
3.067145188351169151e-03
1.800083177406362886e-03
2.630525122310314531e-03
-1.966123316121914412e-03
-3.141695082386999471e-03
-1.155129132364930613e-03
-3.130852703456851304e-03
-1.855269673763779896e-03
-1.676805535068436352e-03
-1.282266600852797860e-03
2.286726642314146525e-03
-3.316611550866965991e-05
1.002709635290484997e-03
5.892668650234422073e-03
2.951711302807288016e-03
-1.351060025033445542e-04
-4.680321087848150936e-04
-1.467890378514629486e-03
-1.457321108423475847e-03
-5.330590122616491681e-04
1.249490485166440679e-03
6.993780982795886345e-04
-3.161965114842357500e-05
2.142964169355304760e-03
-8.794103763345905637e-05
-4.500736284118922806e-03
-2.203560491876515454e-03
2.249383605109186047e-03
2.053003160872258082e-03
-2.895812137540773904e-04
-1.778741157904641535e-03
-2.475710694987904355e-03
3.448134336521693159e-04
5.038595351817524645e-03
5.271604957228025190e-03
3.380216345849994600e-03
2.596713807231453616e-03
6.751491424513136538e-04
-1.959823229376467333e-03
-3.113700849926852050e-03
-5.436129974115938134e-04
2.373352414162228832e-03
2.437410095010159993e-03
3.878820263689691013e-03
1.429544493678550554e-03
-4.318898653442803173e-03
-2.826756220364097776e-03
-2.957180641079712978e-03
-5.588978992941742371e-03
-3.418429606343117381e-03
-3.886276901414877343e-03
-1.906775035613155313e-03
1.799410029168679610e-03
-3.400994040552191987e-04
1.482956686993001450e-03
3.804267206195185991e-03
2.325888838552803064e-03
-3.593544281600413455e-05
-5.425333794636937046e-03
-5.000845313509380205e-03
-2.219054750356424383e-03
-2.221173300684808546e-03
8.261943030835538441e-04
1.158196016458949446e-03
4.439840905716784143e-03
9.909197086678618940e-03
6.061475822659149332e-03
1.656454081463833855e-03
-6.409822381506141481e-04
-9.168260559761429174e-04
-1.583490442057554088e-03
-5.349691510522077038e-03
1.008656249088487385e-03
8.398179296488976139e-03
8.940007903367184691e-03
1.041328340441714621e-02
5.765259364888353916e-03
-2.790245160424451292e-03
-1.574435512956172400e-02
-2.295886572350161817e-02
-6.728528352808346887e-03
5.863126942436402977e-03
4.222532082350148597e-03
2.634798287966005036e-03
-2.124306804868495487e-03
-8.929800581402660715e-04
2.456208346047861462e-03
-2.165273307578692661e-03
-4.337215644333729768e-03
-5.696218614718634790e-03
-6.945677542949680802e-03
-3.850423734909262739e-03
1.886332702886924341e-03
9.190092445978034416e-03
9.716632345333129500e-03
3.565733600478842615e-03
2.097169770075374905e-04
6.204077577530116077e-04
1.962653977982682652e-03
2.661058518488056742e-03
3.388617720450576385e-03
2.635312257215114556e-03
1.710690417353995284e-03
3.137226759473917687e-03
1.984475046739523144e-03
3.545613798857489250e-04
-4.098066569443958819e-04
-4.693777443807993499e-03
-5.988200406984855485e-03
-3.663238476008686979e-03
-4.365179938065124124e-03
-3.950521496920440800e-03
1.043759649176114997e-04
2.648514007346323453e-03
2.523778167516342336e-03
2.117165709050415883e-03
-1.067233258291528037e-03
-6.315244006826295844e-03
-4.816520003154451009e-03
1.043521191619569115e-03
3.050573584696211586e-03
3.314170136660960289e-03
1.648683265891468745e-03
-8.405831612166812794e-04
7.583254382798993668e-04
1.044004757991491041e-03
-1.810058100843597872e-04
1.423344718311501857e-03
1.506309694286902656e-03
6.215564219556010987e-04
-3.158040671816290945e-03
-7.589297883776478272e-03
-1.145109008000106277e-03
5.559395581660997107e-03
4.977766969612786550e-03
6.096884319378577735e-03
3.135193055670953185e-03
-2.363009064744123807e-03
-2.414180598435772870e-03
-2.765279189096980089e-03
-3.364229211039476090e-03
-1.831911012767846328e-03
5.140008444659327535e-04
1.791194863857871813e-03
4.319288440282659410e-04
9.455254435574261514e-04
1.230246529079668041e-03
-2.438558865207756960e-03
-4.583490800674200512e-03
-3.968549899447666555e-03
-1.037902681059374964e-03
1.593916532399546884e-03
6.705957450207383113e-04
2.719148834225450229e-03
7.228286708067408958e-03
6.543444764698434606e-03
2.091964662851371424e-03
-2.837619828477141049e-03
-5.414058117373670917e-03
-3.370703553616306945e-03
-2.977462230690646220e-05
3.623924793514840797e-06
-2.026881060171423308e-03
-5.810332741976072246e-04
1.724461326658352327e-03
-7.592150603562088421e-05
-1.419956291522306291e-03
-7.260001582531046055e-04
-5.675051123053358702e-04
2.695938852670223319e-04
1.757071343343097032e-03
8.650102160805417384e-04
-7.511682958395360030e-04
2.873608906479782447e-03
4.975947272669483008e-03
7.953113440296640663e-04
1.976142301327877269e-04
-5.030730055851228991e-04
-2.462891958929265893e-03
2.599477650855736271e-04
-1.344969422941740987e-03
-1.038258555578164006e-03
5.039936007544798188e-03
2.444238824409830819e-03
-1.977453642661156606e-03
-2.473810542785088041e-03
-3.398710975436785263e-03
-1.353592194391832308e-03
7.893412377099692388e-06
-1.998041745022191389e-03
-4.676825282536017057e-03
-3.509452604152729291e-03
7.918396311043786285e-04
1.416521412300935159e-04
1.145197582263160355e-04
2.247281986575884200e-03
2.209794389367478965e-03
4.338492373603266596e-03
2.744700255590512387e-03
-1.704569364101537077e-03
-4.363373342975797103e-04
3.099096568291530556e-03
4.334657334243959340e-03
1.468618763497576453e-03
7.370933192317966759e-04
1.018219772556911568e-03
-4.510834300152020450e-03
-4.956916754059731769e-03
-9.853361946612921446e-04
-1.930947831310041770e-03
-2.966156817950994437e-03
-2.266924839540940696e-03
-4.780277265607817084e-06
2.514024153192601519e-03
3.464062675386846233e-03
3.607545337965967040e-03
1.991965047688636949e-03
5.465311440947011800e-04
-1.642360912355776258e-03
-2.360853432383950255e-03
7.157640662669550579e-04
4.535508542168064944e-04
1.015076688246452190e-04
2.418488600167349734e-03
2.707300046382159122e-03
2.422716127781739288e-03
-1.674086123109963878e-04
-3.353470751694989996e-03
-5.007632853590827937e-03
-5.208390076737316396e-03
-4.471759181060914372e-04
1.146508818253396539e-03
-7.032940048379906096e-04
2.935247210557891638e-03
5.294267567406325120e-03
4.746562006845370801e-03
3.604337480376803866e-03
-8.882088420722709932e-04
-4.046029784677804102e-03
-3.648944966943461383e-03
-1.720001122388333924e-03
4.736335746652051756e-04
2.108360685717297275e-03
2.440741850628723019e-03
-7.554337855286010579e-04
-3.005100877942150535e-03
-1.841738048733928233e-03
-1.203716447280464476e-03
1.164351181625413758e-04
-9.465633896636226410e-04
-5.531765194288709372e-03
-6.139672028587905145e-03
-3.875966091393595603e-03
-8.653419177435310670e-04
2.450803449302243944e-03
1.165189286806967133e-03
2.474522740946713322e-05
2.466708459212545342e-03
1.956615576399808615e-03
9.289870982782166614e-04
2.586018045434101183e-03
1.745504269139691155e-03
-2.909471782986024495e-04
1.466859589319577557e-03
2.928561678553230196e-03
2.016592185178833416e-03
5.924022473488124718e-03
9.340214935437881130e-03
4.758803796977566225e-03
6.279497029151457277e-04
-2.672418237855407868e-03
-4.241481663789246730e-03
-1.186307034705131453e-04
1.908120442012043198e-03
4.127530083608162842e-03
2.913220711051481802e-03
-4.482203949097268367e-03
-3.475811205799230613e-03
-1.833958582685472904e-03
-1.495503890611041319e-03
4.625474752316881613e-03
3.639003887468413457e-03
-1.844755884768398309e-03
-1.226659496154507492e-02
-2.181963025845874357e-02
-1.103717084667786390e-02
-5.061217356963236330e-04
1.613625363852846223e-04
3.475737610329930703e-03
2.089976679516463397e-03
5.745040219695645009e-04
8.611928021667837260e-04
-3.022512527081849072e-04
3.685741750092262799e-03
6.726726348096533949e-03
5.783470358875770871e-03
2.701625938429356825e-03
-2.719022142508304828e-03
-3.829884681921742577e-03
4.134883877893589968e-04
3.012278480009788605e-03
2.553589926944873061e-03
5.610559340449107479e-03
6.127548530319645859e-03
-2.010325114005901651e-04
-8.358909967822278787e-04
-3.439176306433059218e-04
-9.750834598032365706e-04
9.758433577101984857e-04
-5.065039405062836050e-03
-7.744880968350265418e-03
-9.459344493284730293e-04
9.401693089713890859e-04
2.209777637879861787e-03
4.334398097245193392e-03
3.332975528515894417e-03
1.897817557954477319e-03
2.726716443685451132e-04
6.634064203222190441e-04
3.499084898195643149e-04
-1.133165043978207574e-03
3.978008391669782219e-04
2.152981405867848436e-03
2.509824627934077474e-03
1.119719385373318466e-03
2.456657350700550634e-04
8.553881639166553176e-04
-1.846456711709271387e-03
-4.170722479474127040e-03
-4.439345162898200928e-03
-6.334618236798721450e-03
-4.372928436256818749e-03
8.858043867775248483e-04
2.692904966845883173e-03
3.119838134634976556e-03
1.902403133477167680e-03
-3.315986337349210999e-03
-6.012237512753308699e-03
-2.327840347382244789e-03
2.106597314164973588e-04
-1.445881931339520901e-03
8.892119426498711326e-04
1.714655467596065642e-03
-6.259383552022967576e-03
-4.518693608087053643e-03
4.381719219050191245e-03
1.265784751117639273e-03
-1.531095309003456994e-04
1.664360920656908060e-03
-1.498941339732937691e-03
6.565947310725764275e-04
1.249473409702941571e-03
-7.057674163809096171e-04
2.336609040109827260e-03
3.235303999220559296e-03
5.261021721281945035e-03
7.902695455037037076e-03
5.837196432224129108e-03
1.338134634746271758e-03
-3.623257254483593873e-03
-4.711765538256669299e-04
3.998963162320621698e-03
6.629693249083366867e-04
4.432666801358475924e-04
2.155038792034883605e-03
2.026069315102007988e-03
2.296184125253408065e-03
3.982260857685857068e-05
-3.237394882740803840e-03
-5.522879429797017924e-03
-3.405033227514824706e-03
-7.416036578123237849e-04
-4.924256844777560524e-03
-6.927970936295907434e-03
-3.150194719201040560e-03
-1.072532655013401764e-04
2.241213240213108990e-05
-2.071999734488638896e-03
-2.932119145725698393e-03
-2.316823047108508473e-03
3.220867139996749686e-05
1.224626652079701793e-03
4.063418293247321022e-04
4.395678974286660115e-03
4.170399999113210548e-03
-1.689101486086834556e-03
-1.540977576288194480e-03
-2.756869661736795034e-03
-3.016760781085245802e-03
1.029512802928609456e-03
-1.021795671786658024e-03
-1.142853386737234999e-03
2.699555375432231060e-03
4.133516926892465831e-03
6.480623939557818292e-03
5.125402539444890056e-03
2.915956263617465894e-03
2.750243241894578024e-03
-2.247808011211726003e-03
-4.212849785978333914e-03
-2.979642038962510746e-04
1.757445800204953572e-03
2.853844819073953539e-03
2.412980063266284905e-03
3.470395160672311535e-04
-5.369198578961438409e-04
-1.257683312713891999e-03
-1.855172411757133799e-03
-6.873776294659584988e-04
1.721065693976394121e-04
-2.277259613224305763e-03
-3.905528198757864892e-03
-1.530507405513377179e-03
1.816358174340862615e-03
4.271559948074061391e-03
3.611206074425646687e-03
1.384013751381277203e-03
1.146027379362110773e-04
-1.061822099645914376e-03
-1.064248775683568002e-03
-3.021327007610610793e-03
-5.029742940193280241e-03
-1.694453175664081216e-03
1.228095489017664915e-03
1.471987136779736964e-03
-4.925951817237419258e-04
-2.878997211589471965e-03
-2.852041153803321679e-03
-5.711601683003580086e-03
-4.653978214094008602e-03
8.012830332795519307e-04
-1.270358046572816644e-03
6.105208912797483855e-04
5.969406123647253044e-03
3.904262416829367387e-03
3.735130716568552025e-03
1.890997469460609657e-03
-9.592214247423436289e-04
2.391991024922540589e-03
-8.575409761774258999e-05
-3.150823425769597608e-03
1.255250010573402903e-03
2.336438408960361379e-03
2.573860954894945097e-03
4.036442888955536247e-03
1.672310931193571239e-03
2.131194365044623536e-04
1.824645411432126172e-04
4.432827305176675458e-04
2.078987542076277985e-03
1.656849760018674141e-04
-2.342098197738353826e-03
-4.070561813026826519e-04
2.296736203846009043e-04
-6.491217946343469380e-04
7.647604734156634044e-06
-6.981446584428586564e-04
-2.522198422628082071e-03
-2.930594454561882400e-03
-2.003262881481160645e-03
-1.512509054073994837e-03
-9.650288789031040947e-04
-3.942227392153783158e-04
-1.444612006569843477e-03
-3.703685693198091665e-04
8.488529553722101457e-04
-2.579276789740172268e-04
1.078047618860657544e-03
1.187280335294316105e-04
-2.324548290475582889e-03
-3.097148537998483091e-03
-5.838292632679618899e-03
-1.994760275991436672e-03
4.746005970977315233e-03
5.903724003293548545e-03
6.538736515664713041e-03
3.568015764251011336e-03
2.349567122032644728e-03
2.721816768515487525e-03
-2.227163577661814102e-03
-7.019869034484218519e-05
2.457366764522816473e-03
-1.564343679777611528e-03
2.888392023028828778e-04
2.162874455709551218e-03
2.157811434978623363e-03
4.197207339266084518e-03
3.077286689779203631e-03
-4.162865465540830680e-03
-1.557601559649526499e-02
-1.492845033982970020e-02
-2.786369115697050376e-03
8.374116793172638271e-04
1.018755790962501753e-03
4.993583756918015468e-03
6.938965526101892149e-03
5.890816435262184909e-03
2.580044607646341751e-03
8.888958657798836640e-04
1.567562908647238172e-03
-1.616269601315779543e-03
-6.018452056858731788e-03
-8.430559537205481718e-04
6.084889033976565928e-03
1.224941913818018658e-03
-2.120569067965184795e-03
1.357175673960001267e-03
2.466616529055372896e-03
5.120684920437033362e-03
4.247574571254730640e-03
-1.334243427312215057e-03
-1.746895803464834857e-03
-1.515774670525721216e-03
-4.470203888058744447e-04
1.988969472241943186e-03
-1.806888022399710976e-04
-2.367463834365595050e-03
-4.726428892040491353e-03
-8.194662878387010824e-03
-8.353867575456119451e-03
-7.154896251007915840e-03
-4.669590816448240117e-03
-1.218858067770381935e-03
1.088378151935034304e-03
2.281281549904603211e-03
3.831533772495566027e-03
8.873177788958417148e-03
1.069800417054641781e-02
7.370197611030708876e-03
6.533589852323462045e-03
3.478832586025363931e-03
-1.030457320692883955e-04
-9.052816933834026370e-05
-2.389651624353828635e-03
-2.464036836882049081e-03
-3.604689064452264603e-03
-9.964580577262443367e-03
-1.069585954765459035e-02
-1.072418188704792226e-02
-1.349347692697288291e-02
-1.132769271059274295e-02
-8.738188289562036706e-03
-5.030368855662483915e-03
3.611547304044819811e-03
1.043333795155870769e-02
1.472410637830718488e-02
1.988279233469723503e-02
1.982213956100589702e-02
1.484456682304650943e-02
1.400276445846621379e-02
1.111880873643469533e-02
7.287592382476680390e-03
9.443988749353430384e-03
3.929064135034246279e-03
-2.675860569859225737e-03
-3.414392434364530490e-03
-1.176283345965933001e-02
-1.594136834847673448e-02
-1.513458903198679553e-02
-1.740399045571092151e-02
-1.165618726237036343e-02
-2.821826902336361815e-03
7.518490622562608305e-03
1.182470987851591201e-02
