-2.584924235157206804e-04
-4.057338017762480466e-03
-6.127180133126859662e-03
-3.742814659049300066e-03
-2.552653460271938398e-03
-5.037580277341670515e-04
2.781358234277339224e-04
-6.450102312113840074e-03
-7.782500717610073282e-03
-1.209905455010926124e-03
1.570583951815649913e-03
4.548346984589747392e-03
9.826315173995663760e-03
1.158874407753229113e-02
8.816326059293066314e-03
3.419440565407075045e-03
1.299038753030736914e-03
3.449007283551382055e-03
4.492781651860561568e-03
4.175929430220461785e-03
1.240047058345740113e-03
-5.453198554039532381e-03
-7.393830084683554980e-03
-3.736613127134302392e-03
-2.905019616605069958e-03
-1.778269764790466165e-04
4.149413792293235592e-03
-7.065632853945200869e-04
-5.978602110613648844e-03
-3.713782184058556698e-03
-1.848746410519681903e-03
1.092322096539096116e-03
5.202044134654831842e-03
3.649627409678097342e-03
1.668486864377450316e-03
2.065829458188340930e-03
3.505866906666274129e-04
1.440889037967551948e-03
4.015819314989921632e-03
6.649257142893447072e-04
-2.340113178657013231e-03
-4.617090605260215121e-03
-7.936402011803714643e-03
-4.105915272734223138e-03
1.571308363831859707e-04
2.084728148014160817e-04
1.120951760315439102e-03
-2.214344456971952934e-03
-4.999512861694920506e-03
-2.316104024268012332e-03
-2.223911505141597678e-03
-1.832027111351166096e-03
3.210826840604977077e-03
4.929894966865079088e-03
-4.858113092378001357e-04
-2.682288060278262536e-03
2.063901934211194878e-03
5.435403926556375137e-03
7.345704060715494907e-03
5.030065644463956390e-03
-1.441851170247792279e-03
-3.672141010109129973e-03
-5.737033492096710492e-03
-3.640151356430864314e-03
3.935554154202106775e-03
4.050579236508999349e-03
3.064745020723140447e-03
1.939991646483128817e-03
-2.960438731476497127e-03
-1.134910264361990674e-03
1.618505418837026268e-04
-2.451216887767312773e-03
6.602789545015035890e-05
2.180187459998541959e-03
1.576631397631023590e-03
-2.276353984355336557e-04
-2.969983506684409531e-03
-6.129858245664821783e-04
5.287511144504482112e-03
5.233751392893207580e-03
-2.224851996529862014e-03
-7.133261021126132209e-03
-5.693732740543445102e-03
-2.504039710300650333e-03
1.775436465861207061e-03
3.870610285732654140e-03
2.853725307411920237e-03
1.426005296833158034e-03
-2.419452922663563928e-03
-5.933920128431856809e-03
-5.507407523793128416e-03
-9.963063458964067573e-04
4.198941830254624037e-03
2.871136832301847928e-03
-1.876245344862913960e-03
-4.517966696856084985e-03
-2.701085460343703032e-03
4.375545396290775151e-03
6.152154363749395144e-03
2.109823552887429236e-03
1.021339600647832918e-03
-9.344905839773898345e-04
-2.413563416614841230e-03
1.728421044238504086e-03
6.443772178812263995e-03
6.179628035602008698e-03
3.667995586775673039e-03
2.782862814627352650e-03
-1.471846183865367988e-03
-4.173156171217917362e-03
7.560693288100032061e-05
-7.380866426776615166e-04
-1.629964898271391970e-03
1.575779733159101163e-03
-3.304963092964218092e-03
-7.462691783690273729e-03
-6.599477263519922324e-03
-4.448724383601228294e-03
2.026459510013795505e-03
2.455214300424035526e-04
-6.954630289537680130e-03
-6.195628629890355052e-03
-3.484002844497204304e-03
1.430884973595381937e-03
6.636684960805572589e-03
8.279021677848462379e-03
9.546784064443623180e-03
4.588106780510550070e-03
-1.565272598128508242e-03
-3.203707163381578965e-04
8.794292504651383610e-04
5.407316804999433117e-04
1.782263034333730163e-03
1.239180303334300919e-03
-1.534412323238341664e-03
-2.547808652357015560e-03
-3.540559694321202076e-03
-3.274636075677925771e-03
2.236724183158152537e-03
2.488026720425117085e-03
-2.194939266719102017e-03
-3.830030414699039324e-03
-6.366657527127236350e-03
-2.796322874111507525e-03
3.269672241972032198e-03
3.221225894030032167e-03
5.468786964153544115e-03
2.693870803750966943e-03
-5.423309600082777161e-03
-6.989639504268503438e-03
-5.792999108301681056e-03
-6.082715769628978860e-04
6.916222734663996820e-03
9.098021220012929289e-03
7.253573125638030500e-03
2.448407779311524268e-03
-2.226883027651459929e-03
-1.556265581822194842e-04
7.112553769907301732e-03
6.783078025604576296e-03
-8.713887459972938449e-04
-4.726373643060955039e-03
-5.119458937938142426e-03
5.172964661385767281e-04
5.941258768971289898e-03
5.770730223936211545e-03
4.381109706247643919e-03
-1.448386913470505084e-02
-3.182115418665911605e-02
-1.592250303469414097e-02
1.573371111232142478e-03
5.729038975574631161e-03
9.552885864984369396e-03
6.171616956465341385e-03
1.327164722243269999e-03
-1.728787934985352779e-04
-2.348361016893184966e-03
2.339411615062185435e-04
5.365291288260381174e-03
3.981625330278210084e-03
-2.181267479689922954e-03
-3.820945387716901190e-03
-2.471171804390099973e-03
-1.367153101476382710e-03
2.411282745203436554e-03
4.932354616012759804e-03
6.777886256979399025e-03
6.585729106727252272e-03
-5.830991341447204056e-04
-3.782596795677521748e-03
-2.087946185187343788e-04
1.795755794547901655e-03
3.948153658557297489e-03
3.933533456057634707e-03
-5.612760326630385991e-04
-2.278229777452633192e-03
-2.730473699268358249e-03
-3.672633170772121938e-03
1.780733880828807084e-03
4.847488090381975832e-03
-2.526930164203546741e-03
-7.034797128966095367e-03
-4.333890210487928267e-03
-4.610048201537328980e-04
2.324400543796434435e-03
2.640155021904901003e-03
4.071658252432028974e-03
3.739656399865884384e-03
-3.924106130464894218e-03
-9.840773705146733247e-03
-6.900012123743971305e-03
-7.967210287013627018e-04
3.110445755486232478e-03
2.430724503615820480e-03
-2.973958942885735705e-03
-4.503626385392737845e-03
-2.071692986001455808e-03
-2.448656864419374631e-03
3.775704840693173449e-03
7.606099812559307012e-03
-3.476561507085302975e-03
-5.550186262438954604e-03
1.382878321529879039e-03
1.572229212688327745e-03
4.869987770441854512e-03
7.232573615540613225e-03
4.801527832503062893e-03
3.274984662947482382e-03
2.764292256657628426e-04
1.407473124581258735e-03
2.373325977489953043e-03
-1.218434507567879663e-03
6.167559643365694462e-04
1.204310409716736335e-03
-2.377739353087647469e-03
-2.730550100621698464e-03
-5.451319031014625373e-03
-5.911998551072309219e-03
1.274537662945707294e-03
3.245439332631159732e-03
-1.815388455910235156e-03
-4.502209952688460311e-03
-3.910817339215896284e-03
-2.861994140306693430e-03
-1.248440248105911867e-03
3.213071236369854748e-03
7.242978238081713808e-03
3.673432141513824876e-03
-2.896827224916210045e-03
-3.180498363445083843e-03
-1.533312887713764909e-03
-2.414337003413584426e-03
8.790115183380106331e-05
2.804998464316208698e-03
4.748113053958852889e-04
-1.319476533378113035e-04
-8.025646348308897561e-04
-2.249548451868780326e-03
4.424063877312651126e-03
7.989485529234270286e-03
7.550046931077614891e-04
-2.655984282097418898e-03
-2.444654715570304931e-03
-2.973286663080491020e-03
1.432482341605462780e-03
5.177262653167536734e-03
4.515079292546701241e-03
3.102250411461401815e-03
-9.307531784857793087e-04
-3.978202525245619695e-03
-1.440470880164167362e-03
1.550974225504978292e-03
1.595223750904407444e-03
-1.023940229747714219e-03
-4.307192586125491510e-03
-4.224530902611895594e-03
-2.950421196105908802e-03
-2.927101326029196791e-03
-7.196114862100420548e-04
1.419811509696911403e-03
-1.244402494668747779e-04
-1.244336486611092750e-03
-1.880066318120055370e-03
-2.966558810621520211e-03
4.119997014114652425e-05
2.559908466157039680e-03
1.766267322341523232e-03
2.196710259166497013e-03
-1.192924927753420466e-03
-4.193607515426375429e-03
9.839697252256019138e-04
3.511337296558118565e-03
3.111820678878718816e-03
5.455999811774371253e-03
3.027606160455855160e-03
-1.888400887749452006e-03
-2.390916233847226614e-03
1.330208889904389315e-04
3.529798453452481517e-03
4.373397175897107865e-03
1.726523725943668666e-03
-1.851596011186048022e-03
-5.135945694108008316e-03
-6.048143480276009683e-03
-1.872243765479183293e-03
4.356394287114792423e-03
5.545383537395005315e-03
1.117974529591259395e-03
-3.862913496820702137e-03
-5.606612946091786044e-03
-4.205623059750108854e-03
-1.093282399759102665e-03
3.721554156880229041e-03
4.726287588693155010e-03
3.537726956353230267e-04
-1.960782698672922358e-03
-2.723910624544938729e-03
-1.085135949769309299e-03
5.204794046378409360e-03
4.825060190875370136e-03
-3.171391051294808212e-03
-5.067883249278483729e-03
-2.172472948953672964e-03
-2.327220224318329606e-03
-2.471449156954190441e-04
4.748585456502344218e-03
4.817056028026400760e-03
1.661930184343252083e-03
-2.154633092347609576e-03
-5.351791133969151584e-03
-3.199233870001660669e-03
1.132560179226463218e-03
3.660671171943118488e-03
2.603197804462872855e-03
-1.459181367392473365e-03
-1.987413697244998223e-03
-2.782602384969909155e-03
-3.947630140212993709e-03
2.823504267650893754e-03
6.143903933732110766e-03
4.772419065113142492e-04
-2.229343736353877128e-03
-4.058398505369689192e-03
-6.460988009416793708e-03
-1.314519251318898305e-03
5.419093257279615841e-03
5.856517270509053845e-03
3.853171842369593637e-03
-6.038896158579034430e-04
-4.645300557456765421e-03
-5.429025531993275470e-04
3.584363792954703767e-03
2.658263441024056803e-03
3.251919737877170639e-03
9.426457844600648166e-04
-2.893169004555517110e-03
-1.390133484711344406e-03
-1.309072343828156313e-04
1.360075309088363714e-03
4.636017414615126175e-03
3.946056579603851762e-03
5.784317227137945362e-04
-1.816219664981689498e-03
-7.643637680754721475e-04
1.779570428855073699e-03
2.725047007065928110e-04
-2.491495380146775858e-03
-1.509628920085668517e-03
3.113147407190823730e-03
4.957953398040437602e-03
3.139511268169144220e-03
2.589971191909654774e-03
-8.889832075803134892e-03
-2.684122616439054212e-02
-2.295439326319697118e-02
-4.799666571766506712e-03
2.975397849347144116e-03
1.049532842543719410e-03
3.406631933658334482e-03
1.103349166159068619e-02
8.535872284418714179e-03
4.040694141756923422e-04
-2.068821646938205465e-03
-2.383187881404922291e-03
3.308699611688992442e-03
8.395397576795665673e-03
6.471145989501745494e-03
5.782327069969409906e-03
1.400487032090580800e-03
-3.766887447130622471e-03
-1.432100837960785565e-03
1.688574166939048934e-03
3.930823825765259079e-03
5.840811009498163113e-03
4.469513230709936009e-03
-2.741615333406373671e-04
-1.616917743884247437e-03
1.669000069597762143e-03
1.405854511734395962e-03
1.943357341865855226e-03
-1.062512087924147829e-03
-1.182628096993387258e-02
-1.262119275903174007e-02
-7.572652613694741755e-03
-3.969741583837303744e-03
2.941402640826375984e-03
4.374667572512680111e-03
2.881645571018732251e-03
2.384326869658269260e-04
-5.484958688886410437e-03
-3.250605937093848860e-03
1.541777478079428727e-03
2.521320126175853257e-03
4.173544321647619515e-03
2.332261235185921489e-03
-1.156693463438984324e-03
-1.588225457489219217e-03
-5.625616725370182055e-04
3.741539650152616962e-03
7.900486447439456980e-03
3.826528485065754537e-03
-1.988487706511248097e-03
-2.638583626326553456e-03
-3.677716421026358019e-03
-3.047745037379007583e-03
-2.029578723264204368e-03
-2.586573013013834365e-03
2.908974460637704998e-03
3.019248468820207899e-03
-3.090300384981088059e-03
-1.813721524126204153e-03
-1.741051009868074860e-03
8.359503040693920788e-04
6.049277589185988666e-03
-1.351016209537232748e-04
-4.918805069601909358e-03
-2.804673095986981533e-03
-1.775287017705908313e-03
1.046482974838043459e-03
3.588073749452771761e-03
2.481247391016205318e-03
-1.343335414712355357e-03
-2.738803746564987505e-03
-2.183967829760523078e-03
-3.249430429994526730e-03
1.366764172112668214e-03
7.935752172077495392e-03
9.536492456537346701e-03
6.468338998612433756e-03
-2.035748830085247485e-03
-4.725112825436467504e-03
-1.337425001329085004e-03
5.872434022336580446e-04
3.183079780913870144e-03
-1.229112921358226562e-03
-7.463555362835088552e-03
-5.836623849881087366e-03
-3.481034769513812518e-03
6.292116222138864970e-04
3.978079370177580246e-03
1.594858541536318605e-03
-1.876696581059187708e-03
-4.580856174746712230e-03
-3.449607939008776485e-03
1.191609101960906889e-04
1.662466134413293460e-03
3.061414434800083240e-03
4.947724913228998198e-03
3.027032224595410225e-03
-2.620744097136208737e-03
-1.313188145964857027e-03
2.031771466312929167e-03
-8.895141278810014644e-04
1.916957674172346804e-03
2.745531775341122742e-03
-3.336059788705210676e-03
-1.643293686810401184e-03
1.479556357920555750e-04
1.342165964611323091e-03
5.786892088021315141e-03
3.218111494172512868e-03
-1.101098082133844872e-03
-5.212842234108212500e-03
-7.718740432089967081e-03
-2.345761280401009296e-03
1.169923607785734515e-03
3.448882226212663521e-03
5.408219303431914711e-03
-1.503563259055137446e-03
-6.960032330429430023e-03
-3.740194640288089113e-03
6.870167864118367296e-04
1.831257211341525640e-03
1.767307509823228852e-03
2.261987555272355465e-03
-1.921315992487463787e-03
-5.736707687900939080e-03
-1.463989133043505425e-03
3.361994583497611867e-03
5.228712877503077956e-03
4.150928504134212584e-03
4.403151693812639399e-04
-6.647290534580058965e-04
-7.410664752243668798e-04
-8.162453845283278555e-04
3.862537997481445295e-04
1.151770112783560363e-03
2.439699762962866531e-03
8.977142275428121249e-05
-5.444533213239071030e-03
-4.305977596215768491e-03
-5.210410019731423264e-04
7.992013710660392581e-04
3.948275836434957976e-03
3.375242862503759905e-03
1.738708144582323703e-04
1.612330433593502392e-03
-1.668328647968305323e-04
-8.748536558340241128e-04
3.824081871699562367e-03
2.250211133197246426e-04
-2.623480722960316695e-03
-4.609058435775512975e-04
-4.976495104467813790e-03
-1.732279834547019361e-03
5.993391038085687204e-03
2.745756795552544219e-03
1.516017007342671105e-03
1.125174287624168242e-03
-4.185640046965199111e-03
-4.567326421570893670e-03
-1.911507035956931232e-03
-6.425642891060029003e-04
-1.586757325865144222e-04
-1.300731036813621662e-03
-3.263895902766664105e-03
-4.020145148429722648e-03
-2.452749277103995294e-03
1.762153111822266100e-03
6.695490139248984861e-03
5.064057705231463785e-03
-8.319138563859010925e-04
-2.768447448807555625e-03
-4.332681150269132760e-03
-3.117563426679255140e-03
2.296517248765900330e-03
4.110336800199508242e-03
4.455363111016772543e-03
1.690751214187481439e-03
-4.704526473588981073e-03
-4.285198214827007357e-03
-7.451424216752020957e-04
-5.249719360253790037e-04
1.130784168038085746e-03
1.346558082541898533e-03
-4.031604233387017224e-04
1.890451169186742981e-03
6.206837472457016423e-04
-2.509277213635626412e-03
2.463941759856084612e-03
4.139873887075370268e-03
1.719818850909808020e-03
9.844909882076896979e-04
-3.292667479491999047e-03
-1.134651572869839866e-03
5.221695705872519445e-03
6.047037219780254658e-03
7.167970008045933782e-03
4.412361912691700923e-03
-1.906244517793692281e-04
-1.756869346950931405e-03
-2.774281664824233828e-03
-4.721408737423250356e-04
1.490914410964676437e-03
4.078998562030661072e-03
4.396460603408028009e-03
-1.403121443653455782e-03
-7.824146064500899986e-03
-2.160987936301085252e-02
-2.433941192447692040e-02
-4.178986743868810284e-03
3.856141551728583822e-03
1.084613610837875891e-04
1.636384579157325889e-03
1.960198090845115954e-03
4.132963294744457054e-03
5.585758935237157378e-03
3.284090505908754485e-03
6.951611098655626321e-04
-2.363133851361105646e-03
-2.146054823641093366e-03
-1.106410507003272644e-03
-1.502027058832811415e-03
6.383916563056988951e-04
4.839947254395678827e-03
5.926343953879199301e-03
2.419847052465466577e-03
2.142873151774139697e-03
5.827914183347449213e-03
9.612346565972009621e-03
9.971146503413486420e-03
1.174367923842289290e-03
-5.792233540069068390e-03
-5.023926625627589404e-03
-3.644316128120341901e-03
1.922915274746029289e-04
2.258006319741193060e-03
1.527336613326974075e-03
1.280382941952868834e-03
-3.926080853537367715e-03
-7.276321773157708520e-03
-3.811281913923326038e-03
-1.474941105974875372e-03
4.459046668604457753e-04
2.212951262371674627e-03
-1.153018352028066431e-03
-5.057450937549008707e-03
-4.027856207937252284e-03
-1.393820614529342602e-03
1.814326634829243863e-03
3.479381684304199383e-03
-1.452337503427464805e-03
-6.907542151183860592e-03
-6.384388422226216185e-03
-1.812264343417769544e-03
3.299537621996950429e-03
6.177631813590190278e-03
7.250189124822361414e-03
4.388581758114070558e-03
-9.062251958452142639e-04
-4.062499520923369342e-03
-5.966837514934228946e-03
9.726992516121259289e-06
9.309851296577709504e-03
6.298885565129530573e-03
-7.928058634267936547e-05
-2.323325150502453165e-03
-4.965434034065626528e-03
-6.990663416870189885e-04
7.422869343574522473e-03
4.712620728789983920e-03
-4.375465235048535580e-03
-6.404001250033796062e-03
-3.660083137815052946e-03
-7.901558479757109840e-04
3.730821587065316549e-03
5.097375785492147364e-03
3.404771116706610968e-03
1.153626962579720836e-03
-4.102587917929881832e-03
-4.307253268336938209e-03
4.029187255194510969e-05
-3.053509969568852329e-04
5.866014850180941180e-04
2.681233049038904762e-03
7.683140782829487843e-04
-3.613193770271440602e-03
-9.495330552887927891e-03
-6.219627720492419340e-03
5.773563507064653072e-03
7.592903955195033118e-03
9.108766299939530806e-04
-1.988234521301904603e-03
-2.186921882198266786e-03
-1.269823919338333544e-03
2.032978272267733488e-03
5.749415844403740414e-03
5.448036992385327411e-03
-6.706842306264926799e-04
-7.572779436205120604e-03
-8.196884498834414515e-03
-2.591888277231225047e-03
2.520683622698831425e-03
3.818178652433735706e-03
2.353134520894884733e-03
-3.921348563650999095e-04
-3.143564113212678549e-03
-5.670747160997990401e-03
-1.598198093795430950e-03
1.034948918764610169e-02
1.172790367696351956e-02
6.964170982765999218e-04
-2.556801764377181381e-03
-4.930631596941200886e-04
-1.994199688830867231e-03
-1.144789449792114368e-03
1.807087233217798995e-03
4.379386128572610760e-03
3.622479108887328905e-03
-2.731919501128310043e-03
-5.162573256872694284e-03
-1.215228426964399654e-03
1.274996753766423439e-03
1.096488064769442694e-03
-8.292270402711845881e-04
-3.491465200339939103e-03
-5.004080239510929479e-03
-5.074843663176129352e-03
-2.070297280776860985e-03
3.006367044805086097e-03
3.941293851846212719e-03
-7.411734961928896463e-04
-4.885681629963200753e-03
-4.757818742838487366e-03
-1.285784099738231448e-03
1.562532173490367195e-03
1.936551394526865935e-03
4.985859718357545795e-03
5.460149534187964775e-03
-2.007245303453482777e-03
-4.018192645719725377e-03
1.364537331711719701e-04
2.349352674579528386e-03
4.683383113986188707e-03
3.658609213746954331e-03
2.127573795685649104e-03
1.898954120010017555e-03
-2.930228318892235534e-03
-2.674171202339940302e-03
2.310854742991417729e-03
1.608280121493818550e-05
-3.198130625543076522e-03
-2.120305981610530119e-03
-1.355863044364243953e-03
-4.694212481296685898e-04
2.887727812355850212e-03
4.537227859531074367e-03
2.717289248828152863e-03
2.102557555075436260e-03
-1.330713663142079738e-03
-5.904437846031771776e-03
-2.294298929224019516e-03
5.866045098091094345e-04
-8.394855335366655348e-04
4.003380160249885478e-04
5.093437027465639493e-04
1.551764860472098513e-05
1.730069374950953247e-04
1.183089808919582592e-03
5.704568093499260556e-03
4.519255237015269190e-03
-2.913396825997306532e-03
-5.763439782645343908e-03
-5.384387435280647491e-03
-3.984256780550105709e-03
-4.010304532541034400e-04
2.785453803906204426e-03
4.260799900479189488e-03
2.832597066027949233e-03
-3.857508201945804207e-03
-1.010182637077848382e-02
-7.790082344715149910e-03
-2.502882938941560897e-03
2.219004125420230740e-03
6.840914333932667998e-03
4.496263423651690461e-03
-5.158823996297909071e-04
-3.655047087470370600e-03
-4.101592169490583285e-03
3.583827932047799116e-03
7.834302077992535626e-03
3.705294828765249172e-03
3.883082066956694469e-04
-2.470321896569655472e-03
-1.292475806556745831e-03
1.670073488431343114e-03
3.050172048837269598e-03
5.767933842199031262e-03
1.591717169824808167e-03
-4.513533511123272307e-03
-1.304096070271126839e-03
5.801872036092352650e-03
7.454242628741180460e-03
2.284810258472497711e-03
2.563144381480637283e-03
3.598624915305669286e-03
-5.057329229106358182e-03
-1.031060663833976467e-02
-6.186799935971355746e-03
6.205317136965723609e-03
1.234781422421386832e-02
4.575734778933122568e-03
6.470216670812672976e-04
-1.420061139160318404e-02
-2.966109853446024028e-02
-1.185874839306927560e-02
3.374292187453597006e-03
5.093463052724339982e-03
1.169675860340074931e-02
5.612243122311333203e-03
-7.353289895395239339e-04
1.146064045420684815e-03
-2.302435781955855347e-03
-1.497806239438594783e-03
1.058298193901919095e-03
-1.501527468266349421e-03
-4.577774330800930651e-03
-6.022547822858251645e-03
-3.309575293932378367e-03
-5.425606115030816876e-05
3.868297799954189403e-03
6.521371094248911392e-03
2.206884511681561807e-03
-9.292842261919566057e-04
-1.183820899925134337e-03
6.922367380090254643e-04
8.837190566763282115e-03
1.262643351673191881e-02
7.881692694597552257e-03
7.801392660752549339e-04
-6.534993114997662660e-03
-6.193075754309333887e-03
-1.412428048888054056e-03
-8.908143411572749283e-04
1.216448184129258897e-03
1.083286658632477695e-03
-3.174461674529244909e-03
-2.615746828461441766e-03
-1.591705038145251831e-03
2.173232100252799320e-03
7.697111492304021738e-03
1.206423585919997070e-03
-7.072036951545492868e-03
-7.331689343341806116e-03
-4.566432957147518838e-03
1.033441221312824147e-03
4.001146015464789735e-03
4.811305178538932865e-03
5.256723431331529126e-03
1.593611066227135686e-04
-4.446411218858112128e-03
-3.887230968338569251e-03
-1.224126298197530114e-03
9.208602134366695047e-04
4.011648823529494201e-03
6.093637014585673653e-03
-3.652298892907791545e-03
-1.280357738610873354e-02
-5.616338016896474904e-03
2.556363505469682901e-03
4.716597494226781352e-03
5.116448093634207162e-03
1.102881061511150557e-03
-4.275047348371386127e-03
-4.663423295776560236e-03
1.005423432637823217e-03
4.967454262103193803e-03
4.277801757769811655e-03
1.589238377258503062e-03
-5.034639463827194142e-03
-7.933709263953472521e-03
-3.604227105973337088e-03
-1.106211274886532330e-03
2.059875058700197555e-03
5.013565969217852886e-03
-1.326248116005285054e-04
-3.796562969773087642e-03
-1.208455732710067305e-03
-7.886494160633506466e-04
3.699452322371026350e-03
1.039756953003065885e-02
3.849557187032326237e-03
-3.835215307219918667e-03
-1.153929455221782297e-03
3.274368161451293572e-04
9.292077866170434571e-04
3.515808923379282799e-03
5.514199739010385883e-03
7.250754181066620778e-03
2.501859055565163956e-03
-4.320231846225972873e-03
-2.554769462732531683e-03
-3.260675391655148405e-04
-2.623644854409970788e-03
-7.918047927800215451e-04
4.327049675692466735e-03
6.226056398296426000e-03
4.663244889683277120e-03
6.729688697627860157e-04
7.756455518296255514e-04
6.203573355049347982e-03
5.992086492864643829e-03
2.362347038998196917e-03
6.256668046319891667e-04
-7.838981557245723380e-04
2.068530669008177263e-03
3.544414147108032424e-03
2.462363174834282433e-03
4.115510299741683906e-03
-1.021065405184558034e-03
-8.106803278353055114e-03
-6.793186972892005342e-03
-4.859635424674380033e-03
-2.648341792718260194e-03
6.193334810763527053e-04
2.019492518857478151e-03
5.623568910218756933e-03
8.101260211285769147e-03
7.688902397072504280e-03
1.258415774407425566e-02
1.673531250747388455e-02
1.055904201718946799e-02
4.693244395309209907e-03
1.648296842454681803e-03
-5.862259766859535814e-03
-8.797054390382487085e-03
-6.684213924595804913e-03
-7.861915743587723215e-03
-1.019602331022152752e-02
-1.608127399155354076e-02
-2.395934367288837796e-02
-2.480878852472421028e-02
-1.853924329020326112e-02
-1.106833818431993827e-02
-6.852598900676630175e-03
-4.498025156318830389e-03
-4.212862705753027577e-03
-4.993583600700661311e-03
-2.383962205762685423e-03
-4.695663611357257447e-04
-4.346511894063836805e-04
-2.521318039159961555e-03
-1.116050835445608208e-02
-1.985336338211571641e-02
-2.184125665175343928e-02
-1.854500027755012076e-02
-1.389337042966492727e-02
-7.240220380975556126e-03
1.441407507109064611e-03
4.019774284253806521e-03
6.116624770591658385e-03
1.468945606863863995e-02
2.245662226213764739e-02
2.914967086064939802e-02
3.574807709886970025e-02
3.785764418592577757e-02
3.367161483505695663e-02
3.196757563015947823e-02
3.261131307630061454e-02
2.016834192604856010e-02
1.941632180266568159e-03
-1.853398292305678471e-02
-4.380997817516328607e-02
-5.067568240594417378e-02
-3.600307549882871688e-02
-1.703536794472713251e-02
-4.978912155347510297e-03
1.232571874153543835e-02
5.342475916261359842e-02
8.770065134393904838e-02
9.951439864272372537e-02
1.105603571895731330e-01
1.212465798136302814e-01
1.152444251884503640e-01
8.313790398371972978e-02
5.002398953432016238e-02
-1.985618916399391892e-03
-1.092595609124875494e-01
-2.071660724709263601e-01
-2.264378228917137137e-01
-1.519613095936885316e-01
-6.382309666558308447e-02
-3.884026737740400165e-02
2.061011001309745461e-02
9.063052949675566572e-02
5.106854439566133053e-02
-1.846750187747406638e-02
-8.387351923624161709e-02
-1.540516374835262658e-01
-1.666897966172484202e-01
-1.577367458860207960e-01
-1.604207243221323909e-01
-1.531768754917274544e-01
-1.245738459561828715e-01
-7.116600208106545200e-02
-4.231147015715056720e-02
-2.815602160490367559e-02
6.189131977595760392e-02
1.973390679688558913e-01
2.126576514306812715e-01
9.755948939992747926e-02
9.895081652766456182e-02
2.551577236941566240e-01
3.074972953104282425e-01
2.568333640814942087e-01
2.734359473805869634e-01
2.898325988024277322e-01
2.136076981777680905e-01
9.948145460544374763e-02
1.242350869278733942e-02
-3.148447337046583749e-02
-4.587575470743921607e-02
-4.455671536396578480e-02
-6.176399789721458145e-02
-1.026288785199878095e-01
-1.275989766778389267e-01
-1.568867384475413629e-01
-1.665832525658383911e-01
-1.219045448437032636e-01
-1.102726282252377704e-01
-1.270425179631259893e-01
-1.213959298206432058e-01
-1.358209804896305106e-01
-1.625003066870237267e-01
-2.077564180498611413e-01
-2.824896021621872144e-01
-2.953390453734478505e-01
-1.915005762489924157e-01
-8.435835052607258688e-02
-7.673562067657449526e-02
2.185590075533932336e-02
2.593531938009276394e-01
3.138628343846203150e-01
2.163692869192930246e-01
1.892811188003608036e-01
1.557436975190493178e-01
1.212424094825550885e-01
1.365866512847629388e-01
1.360232613625163567e-01
1.209102507635863022e-01
9.153298813450125304e-02
5.442070186100108481e-02
3.456966114284748537e-02
1.196329646338309405e-02
-4.666758544382165232e-03
-6.317518800496873047e-03
-1.021656236288298082e-02
-1.088301438889044577e-02
-2.582734653330486223e-03
-2.659058858630044403e-03
-1.704330729292991009e-02
-3.643860768098664688e-02
-6.640113532828820220e-02
-7.898554043259561896e-02
-5.918789573818891009e-02
-5.431876531268058778e-02
-5.400391231378281337e-02
-4.328725882596713009e-02
-4.543176810133620763e-02
-2.849429649096387601e-02
-1.043828736828513598e-02
-3.572075295188507915e-02
-4.296310564273001648e-02
-8.860995781609839334e-03
8.724508848824329144e-03
1.010891611026326110e-02
1.819483720121090747e-02
2.143375447802767578e-02
2.075320665136737644e-02
1.751922987134075724e-02
5.719349427262805305e-03
-1.145354569816326568e-04
1.547058143460454047e-03
-2.963141617141131900e-03
-6.984003903465195798e-03
-3.684639163137462710e-03
2.883314659389334469e-03
8.729095559903990442e-03
1.015050938778671273e-02
1.317945520358582319e-02
2.087706603490920368e-02
2.158576689415674446e-02
1.679060650954324746e-02
1.682445070361821005e-02
1.659644211799527966e-02
1.565669512154141407e-02
1.825501484187635678e-02
1.791748704781720783e-02
1.422912346333369410e-02
8.751243120685498617e-03
-2.228320954645002586e-03
-1.224468544488305222e-02
-1.441860399643558194e-02
-1.530760969143035721e-02
-1.686650930116807140e-02
-1.480354230897850364e-02
-1.540021573938979427e-02
-1.788793584985874652e-02
-1.572472324610028546e-02
-1.047960798008007802e-02
-3.611491475587883838e-03
-5.524058826663922304e-03
-1.003505100612468552e-02
-1.721035419067668470e-03
2.326369241464493372e-03
7.012724293853298809e-04
4.257457993622904523e-03
5.286848455466367988e-03
6.933091348421074711e-03
2.225154338356725471e-03
-1.024717056847357192e-02
-1.006195851676545787e-02
-1.646706742937358069e-03
2.003227768769016114e-03
-1.024571856971820058e-03
-3.798138432392730076e-03
3.946069782778915437e-03
1.074938637881319055e-02
5.523973896914474713e-03
1.814087543405393146e-04
3.594833577577455017e-03
2.945856389945686587e-03
-5.069455030928355851e-03
-4.250030150014797586e-03
-2.115492975546703382e-03
-3.862479009530295649e-03
2.927231435034742795e-03
7.651540145804274981e-03
6.855135551601825028e-03
6.391309857199365708e-03
2.309102395644885435e-05
-3.372968837100144904e-03
8.768079665252409820e-04
1.405420973413315554e-03
2.807369262840970223e-04
3.463094791410800503e-03
2.695779297193536417e-03
-3.512048099119008827e-03
-5.327901449212037698e-03
-2.200475600174507662e-03
6.194662791913985861e-03
9.367899115381687555e-03
-2.617896134340335062e-03
-6.911340543626638688e-03
-2.927222534780669991e-03
-5.264926039957800591e-03
-5.009500487919271022e-03
-5.394784898913118978e-03
-1.000262758353730966e-03
6.605454977986856616e-03
1.350872495493633243e-03
3.429242146251152562e-03
1.007797096215228873e-02
2.261577246884965888e-03
-1.253645404033946120e-03
-7.148733234934422770e-05
-1.889114675772507511e-03
-9.069121882918818218e-04
-4.150599636723551096e-03
-5.684799249568071866e-03
4.742136210149216699e-03
1.079094319830553247e-02
3.272495581190065523e-03
-3.950646052431837016e-03
-5.794886239136365184e-03
-5.176331358496573734e-03
-6.944389545987156341e-04
2.382209588028378743e-03
1.082044540062524754e-03
1.469511394752067031e-04
1.270164844734767871e-03
2.749856326473372383e-03
1.777188166392744710e-03
1.259261728145401305e-04
-6.806696212193481636e-04
-1.197223720324117708e-03
1.117137533912745430e-03
1.234395771653492299e-03
-4.081778130878065645e-03
-5.748273066701058663e-03
-1.278976528854889163e-03
2.353717052499311284e-03
3.981760953937419820e-04
-4.648831274408096043e-03
-5.506114765249197664e-03
-2.266271810518735285e-03
9.179896850648287809e-04
4.535776571767776398e-03
4.585574109287313821e-03
-1.419920496313412973e-03
-7.616645042325002023e-03
-1.024671499871287854e-02
-5.488137762097266940e-03
2.696876294834134064e-03
6.420871170286566836e-03
9.266764773171934713e-03
8.387233178880047074e-03
3.060024904377927745e-03
-2.878453423927752170e-04
-1.326817199734377358e-03
5.487373183039243735e-03
1.064923255427343944e-02
4.413283636859818837e-03
2.872976170556742950e-04
-5.964756248574901425e-04
8.277189654924524452e-04
3.188735438708322541e-03
2.489669979524651404e-03
6.683029015979070550e-03
7.055311548870355290e-03
8.253451773187270909e-04
-4.867219133792003403e-03
-9.475206661526233004e-03
-6.605374732739004683e-03
-1.482686352195373633e-02
-2.525405412441324507e-02
-8.244939218366633543e-03
2.042874649276089569e-03
-2.720148892860786965e-03
1.906035412053909157e-03
4.543372761341105126e-03
3.636682249965309324e-03
1.615083393478411976e-03
-1.491880437892791371e-04
-2.303266502737238552e-03
-9.883067010340600492e-03
-2.047241953243049591e-03
1.138027063048871988e-02
7.253303179735018542e-03
5.049529532761277452e-03
3.811247702661238034e-03
-2.017104956044904300e-03
-3.644802937436982361e-04
9.955228614206279580e-04
2.039951645745292658e-03
4.108636024601763047e-03
1.259990537058101661e-03
1.846231572550677486e-03
1.991555942506695841e-03
-6.455243632343797165e-04
4.326383572904501235e-03
5.986874986401747277e-03
-6.538125469632836192e-04
-3.662292649746505882e-03
-4.510258922149069406e-03
-3.679467618238996089e-03
1.268386009804015708e-03
4.060649360593104364e-03
2.964213088199196041e-03
-3.575474272899501643e-04
-4.381255399742049056e-03
-4.620143436085783969e-03
-2.484353560396837784e-03
-3.276197151905212591e-03
-6.458400655673655118e-04
7.804889683328440457e-03
7.063553494604435726e-03
-1.738515435006295464e-03
-6.048240306041617262e-03
-6.088926091259929882e-03
-1.193785768602978296e-03
2.009344043009113345e-03
-7.248415091863169655e-04
-2.468980662175460257e-03
-5.607578733775239570e-03
-6.297562429811405689e-03
-5.029026583787562371e-03
-5.202212267342435845e-03
6.754767187649138478e-03
1.762635517129348614e-02
9.684914301740780995e-03
-9.172581168055911653e-05
-2.693302392045587249e-03
-2.140825868129270573e-03
3.480065494208298919e-04
3.511957327790588522e-03
4.444624050353705030e-03
8.231271779267789910e-04
-1.763751697822270271e-03
-7.544066019563803582e-04
3.130419354045924692e-03
4.966932441656440878e-03
-1.871734504368849751e-03
-8.168794510967894787e-03
-8.612594025558332686e-03
-6.765273111079512375e-03
-1.572539416770501542e-03
4.126923147317424975e-03
6.704729718731978864e-03
3.179309724897565973e-03
-2.866918945496515266e-03
-3.697696505764718183e-03
-1.346900853691887197e-03
1.098528766973113366e-03
2.131037757163694712e-03
2.480213022905885297e-03
1.909563529754856274e-03
-2.640527374129987451e-04
6.425799544164491946e-04
-9.753386310650263987e-05
-1.623804538447946562e-03
2.334966320805360255e-04
-3.277134248828108849e-03
-5.668788491587696890e-03
-4.313894935224974261e-03
-2.855064702523256621e-03
7.695430743933124804e-03
1.351433336945241301e-02
9.014816400907496585e-03
9.428265358007507230e-03
4.357279450078843479e-03
-6.265555008268887220e-03
-6.402079870285322730e-03
-4.388694744845385298e-03
-5.012986758616289236e-03
-2.408717307537525988e-04
1.379015748077097592e-03
-3.891253884205827379e-03
-2.948710734381168510e-03
4.993331977380269324e-04
8.206849933005006805e-04
4.122443246638414494e-03
3.865149981434774611e-03
-4.908882280478037109e-04
-2.471032704080109929e-03
-5.231849001695143379e-03
-4.362561375261002003e-03
1.297546281724761040e-03
5.726464341852610142e-03
7.028983216223414973e-03
2.272195439464567458e-04
-7.860590113215822766e-03
-6.789547682490789521e-03
-4.978721613270472787e-03
-3.266878265957648669e-03
2.342522498667555693e-03
1.578952962350543441e-03
-1.434162162788375989e-03
2.037983717307792313e-03
3.582631880631733084e-03
3.890580210571480211e-03
5.187418153469485448e-03
2.212590313487445160e-03
-1.247786763882037780e-03
-3.301574867240977644e-03
-4.766994898651102409e-03
-4.031669219337858517e-03
3.422150385371760433e-04
6.648109495120510699e-03
5.824160878791323666e-03
-4.147551533465831486e-04
-4.230529149531114287e-03
-4.014230088590731681e-03
1.175401530427686980e-03
3.679465002796220106e-03
3.747540137316057989e-03
3.442605147890904875e-03
-2.005716965181577726e-03
-1.522917687424906212e-03
1.644424957100043116e-03
1.329743660945704835e-03
5.194448931354787510e-03
1.085447070648450107e-04
-7.306043499716926605e-03
-3.351292394982911035e-03
-3.750765774295925208e-03
-3.158501375536341364e-03
3.118073544869457564e-03
3.631838294612636884e-03
2.957158062862563341e-03
-2.932085007673689123e-04
-5.652568551075068566e-03
-4.024028694689409102e-03
-1.171737844776582840e-03
-1.346783233890857471e-03
2.265963575472900577e-04
1.956836908510780921e-03
-8.997955139551828832e-04
-5.680697991614753160e-03
-6.958699609041805317e-03
-3.412382868358007290e-03
3.381957233159160487e-03
7.317045751164044480e-03
5.781291689444921326e-03
3.083514677082297220e-03
6.923128851286145490e-04
8.333380288489815628e-06
1.960321691828445338e-03
3.625680701694972141e-03
3.352541208768000831e-03
-1.060820493651714637e-03
-7.482644852541589509e-03
-7.297399672805635409e-03
-2.025231142375136153e-03
1.819379792739910049e-03
3.940783599557259528e-03
2.739389399805595374e-03
1.653917911065349005e-03
1.666093369604376186e-03
-1.124261341649088241e-03
1.660352395099637390e-03
5.232760332944937608e-03
-6.002544776883095247e-04
-3.243425816208842134e-03
-2.169500234039844783e-03
-3.897406600822155877e-03
-2.722482709637795168e-03
8.762413238627667794e-05
3.146322166027123481e-03
5.940899640085021798e-03
4.270822681762708427e-03
-1.287344531790430213e-03
-4.116184512752246207e-03
-1.476637577107398590e-03
1.975134444932863907e-03
8.557659055120316743e-03
1.024636359555064491e-02
2.098796829653310457e-04
-9.075714280489574626e-03
-2.423672954648570937e-02
-2.932529022771803232e-02
-2.244046341895538331e-03
1.414120205657359158e-02
7.687146284922972105e-03
4.549406576146767210e-03
3.224609383660503349e-04
5.351470060167102735e-05
2.752984088487566219e-03
1.592051465839977847e-03
5.815360002362332005e-03
6.665945586223318529e-03
6.240143528487375251e-04
-1.062264608073031861e-03
1.073334161089871619e-04
-1.854568457545255713e-04
1.707196543277804922e-03
5.802948152102652135e-03
3.612092461000058347e-03
4.318460372611095067e-04
2.609876431283162409e-04
-2.131441460521832452e-03
1.676624895211200781e-03
2.545816352376284626e-03
-5.823446448859636443e-03
-6.510640589613251282e-03
-8.105477488556441651e-03
-9.535575250567706468e-03
1.131083996687889514e-03
6.005561588186161641e-03
5.491214087645968078e-03
6.513063282375653601e-03
-7.029887910975882474e-04
-6.651466901995035062e-03
-5.952997278511590329e-03
-5.293263335901825760e-03
-2.236292925060098368e-03
9.059990181885793289e-04
2.238805162458342747e-03
3.270337164448483373e-03
3.325011095199940925e-03
6.003392176895574334e-03
7.997268199066445704e-03
4.687208840666494750e-03
1.472187304962958984e-03
-1.327251836205545991e-03
-4.565750220278302039e-03
-3.340969208705925429e-03
2.113089063020902585e-03
3.576177638901984097e-03
-2.610149915036515393e-04
1.310752167935314840e-03
1.182573879229058180e-03
-7.374040293474683899e-03
-4.267941353400016638e-03
3.918112938866611696e-03
6.516225707279552689e-04
-1.153502886341980973e-03
-2.277448792751313005e-03
-4.672539840596917453e-03
-2.861700944612202702e-03
-2.854202962608401103e-03
9.562595715514331284e-04
4.695582610809736351e-03
-4.666869684425097899e-04
-2.665789526898552572e-03
-2.648574316605612280e-03
-2.498211603059412051e-03
3.440393573358678601e-03
5.976252916375224440e-03
3.945444731294068912e-03
2.719876888034830978e-03
-3.266959687003785604e-06
-2.097782698904554315e-03
-2.230903758666418542e-03
-1.089772068843861087e-03
1.138184990715148358e-03
1.138878700657932784e-03
-1.287500242245796789e-03
-2.478500382895090868e-03
-1.284394624614026200e-03
1.670058025516950621e-03
6.186886112773849235e-03
7.316003963252979726e-03
1.645734375448741583e-03
-3.796993188887349147e-03
-4.755345930356406729e-03
-2.658512227331120102e-03
7.823806556757190687e-04
1.055483444276049832e-03
-7.166283980292245670e-04
-1.632699978222158918e-03
-3.070843857097692049e-03
-2.322101966672574479e-03
-1.229520807515054829e-04
6.867939573647070372e-04
2.981681090530827975e-03
3.765289654522738748e-03
8.694994393570246432e-04
-6.481363597662601886e-04
-2.000742744383767532e-03
-2.655562485639460270e-03
1.911498778686839808e-03
3.079914366546096863e-03
-3.026450010580391571e-03
-2.948591303822526138e-03
1.543023999858534646e-03
-4.249290264909419510e-05
-3.567977057780463094e-04
1.740151256906556469e-03
1.726166447539952045e-03
2.770314721003038372e-03
-8.334429771196621940e-04
-5.741216208040388243e-03
-2.164192152271086477e-03
9.614068505618932059e-04
1.884845772418719057e-03
4.268221066498726658e-03
2.511527689183722621e-03
-3.370555401483805633e-04
-2.114345114783987983e-03
-3.194238930430695449e-03
8.098001054313982636e-04
3.891941569044652001e-03
-5.022740527446451679e-04
-5.772895931221008400e-03
-5.840006022669869470e-03
-2.583091294767752340e-03
1.588674139468876541e-03
4.818672276833754244e-03
5.235620774228274231e-03
4.604201913869170049e-03
1.236619631980171753e-03
-3.497230397056623301e-03
-2.192909339438327970e-03
-6.398040400203350297e-04
-1.444996992236181280e-03
6.878830477320978156e-04
8.067013979466653665e-05
-1.814198004646342711e-03
-1.981261565573458946e-03
-2.524230707756065697e-03
2.408375609022085292e-03
5.675844187700836846e-03
6.094440825714095636e-04
-1.001144314707816483e-03
8.820171294556381804e-04
5.446859702953665621e-04
1.740041317021421381e-03
3.999472834176413284e-03
5.077398376323984455e-03
4.456526801386884520e-03
-3.257011565537979380e-04
-6.549161606319659802e-03
-7.698373562750766667e-03
-5.560485829881015030e-03
-2.438919579415053593e-03
2.701526825509912699e-03
3.344540893344514695e-03
-1.223655581856209461e-04
-9.389434081066107057e-04
-4.445387039164681560e-04
1.639933348711016111e-03
2.772661781983944227e-03
-3.310315886878355891e-04
-3.568873111159694481e-03
-4.817682370391046173e-03
-2.527144188713508193e-03
2.270257909802083848e-03
6.652862701759442061e-03
6.912177472428742211e-03
1.066514853931056035e-03
-2.049969666819771285e-03
-3.210127882883977418e-03
-5.514042160812700211e-03
-1.283547174692668000e-03
2.239859375623409407e-03
-1.080844147168351366e-04
-2.443730676696652566e-03
-4.012213762955556089e-03
-4.019602958419738262e-03
-3.106752320806893588e-03
1.149234968441764562e-03
4.377929141281600156e-03
4.198393346700479982e-04
-1.429931195455445836e-03
7.079722698605062190e-05
2.527080923198191630e-03
5.559271837219088505e-03
6.429269931835154654e-03
7.382436972135139781e-03
3.244425630524134206e-03
-1.348428914483692370e-03
-1.329907179371095849e-03
-2.308636487420542491e-03
2.210383762667971538e-03
5.343319157361691406e-03
4.180063640266659490e-03
2.730856659252713439e-03
-5.049266322488142264e-03
-4.118183842889093678e-03
8.298764573543878764e-04
3.470080343806660177e-03
1.018473106959697644e-02
-2.927134739701529485e-04
-7.021022406502002225e-03
-6.632979645691589390e-03
-2.626995639270246138e-02
-1.988464591777897028e-02
4.436667202878815351e-03
6.047489732306914403e-03
9.765212926699889245e-03
4.111263346426619579e-03
-5.939438549544745656e-03
2.392184756033359071e-03
2.520220037944295374e-03
1.555126015121909792e-03
3.333676569496729549e-03
-6.925696227038378831e-03
-6.815514358499624031e-03
1.426632712515697862e-03
2.541247982102495633e-03
7.734495369789894104e-03
1.121915637853646876e-02
3.203628723657080905e-03
-1.723329561957843981e-03
-1.602165680262709457e-03
-5.820095535513670690e-03
-2.632593335125623345e-03
4.675324223111755433e-03
3.485484164970839138e-03
3.643392824969504673e-03
2.908627472577687053e-04
-5.748056907280125680e-03
-5.274839935039497135e-04
3.099990208358148827e-03
1.492690001451379457e-03
2.093990257468938531e-03
-2.756124206960047828e-04
-1.930541606665673888e-03
-1.051297251834980686e-03
-1.480716283243388356e-03
8.884552716217138536e-04
4.397891255567052890e-03
3.069095704783725721e-03
3.548006966493657491e-04
-1.982212316037902568e-03
-4.819151000807209151e-03
-2.053093286969711641e-03
2.532665698300473351e-03
3.552002302407394549e-03
3.615318966885385302e-03
-2.652476482453100005e-03
-8.120808661485704946e-03
-4.562931359209729774e-03
-2.096496321718083373e-03
5.618244720856306173e-04
4.016872123850779783e-03
3.118722718403130808e-03
-7.603640817000029096e-04
-8.675567320628723572e-03
-9.507259534405057208e-03
1.059423368569051890e-03
5.912170248339413715e-03
1.433023888081071638e-03
-3.169699098224956161e-03
-2.903331389881975977e-03
1.051953436061383592e-04
2.678280389175318171e-03
4.756330898830242460e-03
5.149588728266129775e-03
5.355788187124027426e-03
2.015332685077847637e-03
-4.117602865813247207e-03
-2.486777468759109998e-03
1.049948051169476409e-03
2.493476159147741539e-03
5.825182914638069205e-03
2.903218298868107290e-03
-2.171503452681619595e-03
-2.926502365253077446e-03
-4.772903591480431688e-03
-2.004559468591450740e-03
4.511509469523746624e-03
2.826688956141343995e-03
-3.143846554639771664e-03
-5.084222040144758398e-03
-3.871934471668482536e-03
-2.108348106327379858e-04
3.640753736478171462e-03
3.924136039234567795e-03
4.205140983908139431e-03
4.043843635333350256e-03
-1.807555590369136359e-03
-4.880413824581362504e-03
-8.124671975443650742e-04
-1.041082375992120608e-04
-9.951154216793344377e-04
6.049359064644060533e-04
-2.549204102182088538e-03
-5.533170789669826506e-03
-2.211861631047528330e-03
1.200157170141979372e-03
4.181481975099445546e-03
5.007857870643810626e-03
2.229808564802814117e-03
3.579145180422196653e-04
-2.446023263842272543e-03
-2.361993061199569449e-03
2.636215439964136216e-03
4.905546694227707651e-03
3.801773995749659421e-03
-2.326660328773077265e-03
-6.032018464874415974e-03
3.402593316577942010e-04
1.777204809940792496e-03
-1.227262459211422374e-03
1.849873874655013706e-03
2.332649152093560843e-03
-2.670529520761692494e-03
-7.467166334745091796e-03
-6.330340411331462219e-03
2.050165534533542923e-03
5.597395967679773786e-03
2.025538218767844944e-04
-1.681370446781478090e-03
4.074618074233469535e-04
-2.728870276039010653e-03
-3.904652190080285055e-03
6.697870651499353897e-04
3.227889801084375329e-03
4.106130214264611632e-03
4.054595318299301335e-04
-2.529981103540067302e-03
4.189501406959558923e-03
6.090273126683863267e-03
1.064957925037816585e-03
4.664375790645744414e-04
7.931952886360883487e-04
-1.383125381206647651e-03
-5.073227247356203694e-03
-3.972569910785063267e-03
3.466995286532635352e-03
6.836550102538918594e-03
4.114273656229796954e-03
-9.173173377362426857e-04
-5.611507229338793569e-03
-5.922364023291580744e-03
-1.126637365029906036e-03
2.539683156348173168e-03
1.879166206439960869e-03
4.048702531494570954e-03
3.820875379661838912e-03
-3.613350850865578931e-03
-6.208545750139259078e-03
-5.239234978084681554e-03
-2.102536697248422529e-03
4.994246262621689081e-03
4.263497478050188617e-03
-1.593456800124912111e-03
-3.454462926409270634e-03
-3.113589074755809556e-03
4.859357262803748321e-05
5.739913150865327308e-03
7.008336863156283854e-03
9.695150473116226136e-04
-1.417517477682797263e-03
6.926912133429575028e-05
-1.683989107777249901e-03
1.542463062211033844e-03
4.510704396855440799e-03
1.834102265468568783e-03
-3.037391655068902296e-04
-5.734380863974388419e-03
-5.777486759988755168e-03
8.628837590962531393e-04
1.888401135062431346e-03
2.513822071589462415e-03
-2.200369467309307983e-04
-6.969415915307677380e-03
-6.639146964160223298e-03
-4.100658984865557244e-03
-1.746129579702119551e-03
1.684094365248296147e-03
1.364960549110828337e-03
-4.268728943737948203e-04
-1.662864644201781338e-03
-3.893897102312992610e-03
-3.005526207269055769e-03
3.141204346252163965e-03
7.002278391217855655e-03
6.229277487335397809e-03
3.206413841037975346e-03
-7.732372811699928569e-04
8.351446288013346896e-04
3.927306691563024060e-03
4.565664521486116970e-03
6.963056348035746509e-03
4.647316438050222258e-03
9.379071413540203709e-04
2.311690336969743917e-04
-2.012455506112780824e-03
4.657545547148537221e-04
3.475722597764971736e-03
8.109927357673425230e-04
-1.478354679270586476e-03
-2.572356991627503670e-03
-2.901209127587888684e-03
-8.704813820914415919e-04
5.520050767644123918e-03
7.335305431742891085e-04
-2.068409805438085891e-02
-2.435606399124060073e-02
-9.835336049830374280e-03
-1.239762330035517951e-03
6.034949861806160679e-03
7.802419585311816917e-03
5.029441588424442798e-03
5.326453449348393654e-03
9.093098915181297912e-04
-1.918872018115084588e-03
-7.033160569107502549e-04
-9.217327116026924382e-04
2.877985025273551486e-03
4.343749040122880760e-03
-9.782399042308487225e-04
-1.852934309499081836e-03
2.679842302128103339e-03
3.653553616469583636e-03
2.720299365198160582e-03
5.727458763718769157e-03
7.963732874620071955e-03
5.818649839158833090e-03
1.200513054331952840e-03
-3.557175246387032832e-03
-4.122867238818523662e-03
-2.954942960661516380e-03
-3.333343866075704105e-03
-2.350995952391557366e-03
-1.810251016985235184e-03
-3.954806540406557124e-03
-5.116770779855414272e-03
-1.608266918890141617e-03
2.810960384103374909e-03
1.287592094203933446e-03
-2.421583022208703782e-03
-3.811347178416090581e-03
-5.518839095306227530e-03
-3.196209213493675198e-03
4.807666749010269108e-03
8.852767127270698422e-03
7.162737198207715615e-03
3.168623345819362915e-03
-1.887547552364233616e-03
-2.597792389298219772e-03
-1.050574834034253852e-03
-2.493877363130658168e-03
-6.290492074452552155e-04
4.901485022170321698e-03
3.739467639991788522e-03
-2.284857638648237540e-03
-2.454982912062515440e-03
6.168092204856133378e-04
3.706373020669636795e-03
6.267836670009440878e-03
-2.317648094819623784e-03
-9.619365661213951160e-03
-2.325403536636648939e-03
6.103246361674295869e-04
1.933779444134083730e-03
7.079259723576470514e-03
4.117331295702146912e-03
6.558724259261794693e-04
-5.377162216765664013e-03
-1.094728787269680370e-02
-3.818173358425921548e-03
2.908146055357768191e-04
9.296081191045949552e-04
3.473527423713113332e-03
-1.439836328957551414e-03
-6.665958081691293093e-03
-6.641632602652069485e-03
5.613927913035871844e-05
7.645855196280560394e-03
4.076259731611319749e-03
-4.103948086115603746e-04
-1.210377238405342670e-03
-3.795341433372918100e-03
-3.016229812463922574e-03
5.156321969545798415e-04
4.486880633786076086e-03
6.423164811150322562e-03
3.613052314532962453e-03
1.167862696421144691e-03
6.144436076979256168e-04
3.780001701311413520e-04
1.106445035946738379e-03
2.847203935380822684e-03
2.944374858541335283e-03
-3.428617333877667173e-05
-2.094482029286617343e-03
-4.897918190052853032e-03
-5.779422574042630475e-03
2.086863242565697128e-03
6.434901713974748930e-03
2.524609490435570768e-03
3.985007546050506290e-04
-2.267730335682636121e-03
-3.840695226921846204e-03
-6.105465180351647920e-04
3.477684361878625031e-04
1.624006166294529466e-04
8.351185840431012445e-04
-2.529613708842974335e-03
-5.813605182635793109e-03
-3.156042968951408220e-03
1.085696062402733515e-03
2.321095028693506788e-03
9.913606368129191781e-04
-1.819031121085978734e-03
-2.310665513790480154e-03
-8.355193877612567595e-04
-1.084752667699723444e-03
2.859868954606128305e-03
6.916044050804355178e-03
9.001111928142911060e-04
-4.828629086582721108e-03
-5.760465041543001881e-03
-5.764085671640895199e-03
6.874322835928497522e-06
5.714027033999250459e-03
6.129093713333194117e-03
3.765125791925106897e-03
-1.365170010257885438e-03
-3.056229412861693334e-03
-1.032528002490233719e-03
5.692161440600057793e-04
3.308445128271550201e-03
2.866003659955619880e-03
-7.885875773643626898e-04
-1.950277395208018264e-03
-1.183903276445576972e-03
1.348658102884719382e-03
4.365180328394654106e-03
2.920334109867606456e-03
-1.190216034926759852e-03
-1.268313498410245229e-03
-1.090122564950778226e-03
-4.499052873806019641e-03
-3.252741425646336285e-03
2.810880595614007743e-03
5.533270292808426666e-03
2.864572975088786749e-03
-2.349408831464944083e-03
-4.827400276181801307e-03
-3.248699923147150594e-03
-9.185839211872900739e-06
1.957633951195026246e-03
1.719044298348883226e-03
9.648264667054659485e-04
-1.374674224326012835e-03
-2.586612651614953688e-03
2.376084608627731750e-04
3.942367060331209219e-03
4.898434168384225955e-03
9.631557265783239176e-04
-1.932148571747333574e-03
-3.463378908083634793e-03
-7.137865486187682310e-03
-4.925821595037305385e-03
-1.244562996248807464e-03
-9.943747597711647280e-04
-9.951753047517043933e-06
-4.632485047764109930e-03
-8.307635763938786208e-03
-3.470970326876482784e-03
1.230781415025979748e-03
6.301931224907936224e-03
1.080244484137094993e-02
9.456141328728712159e-03
5.340102089085343486e-03
-2.322590817607368121e-04
-2.584858615828426222e-03
5.500825151338127779e-03
1.226810070137494824e-02
6.472112432957171334e-03
2.679712768390819181e-04
-4.060909589780318033e-03
-8.084684991747559044e-03
-2.369445999036678008e-03
2.919783516976035237e-04
-5.158016597271559110e-03
-6.571534499854890521e-03
-8.183017273389341442e-03
-8.080488653706937793e-03
-4.587147735046865141e-03
8.040007773256257692e-05
6.556753460040191071e-03
8.046185349421721561e-03
1.054861378941606906e-02
7.098632013757561615e-03
