-5.526423181224832809e-02
-5.551196094584757990e-02
-7.306563054254639270e-03
3.079943723093368953e-03
2.283849365422898139e-02
3.375725291099070796e-02
4.018733552683854959e-02
5.473380357438129007e-02
5.381467396526255775e-02
4.721592458979310264e-02
3.381969137736619280e-02
1.850429370070660537e-02
3.890404845533000470e-03
-1.599259418151793496e-02
-2.919572812670772483e-02
-3.490318121221261394e-02
-3.861473849211596865e-02
-5.052084458274545137e-02
-5.631893068819795317e-02
-4.306825679951684083e-02
-3.688845997787747882e-02
-3.094964162776353209e-02
-1.528469096136616384e-02
-7.499711243121131134e-04
1.147180423045542942e-02
1.209508405965345132e-02
1.678067595959592540e-02
3.122067860473271700e-02
3.018260553205105723e-02
2.325953145506431258e-02
2.209870840613950560e-02
1.391590331803544377e-02
2.457090649599051949e-03
1.951487176975970133e-03
1.402173843448509868e-03
-7.903505731662135297e-03
-9.046616744444350294e-03
-8.034044776818247482e-03
-1.348389926314043710e-02
-1.438341081771593415e-02
-1.091673513307186635e-02
-2.420064646732886411e-03
5.382229599120304242e-03
9.584741988282645744e-03
1.315798020560826967e-02
8.484024405466552426e-03
5.478456885970251627e-03
4.694310553209895577e-03
1.306964132732483727e-03
8.703218670324771797e-03
1.247358976241019768e-02
4.176792934003403616e-03
-1.682419724175127085e-03
-7.172767006795375058e-03
-1.261899570770925148e-02
-1.357503920629483940e-02
-8.975682110100097894e-03
-4.680927542267964564e-03
-4.530452418530093311e-03
2.476879800564269363e-03
1.074715348611310871e-02
6.978239420670685582e-03
-1.186573010751396963e-03
-3.773690483437629455e-03
-4.201586780500105728e-03
-7.281087790319889716e-03
-8.526449298941840213e-03
-5.535402994491218573e-03
1.956925382902339593e-03
6.953298964219780526e-03
-6.413311031975195160e-04
-1.518729500608573171e-03
7.757255236140360097e-03
7.533792687649853818e-03
8.348942638079866543e-03
6.948468347574380914e-03
3.119300172057180550e-04
2.543842293239029998e-03
-7.555190375542139309e-04
-4.412913587716057323e-03
-3.496731501032288025e-03
-8.448188276212775447e-03
1.702363624280396615e-03
1.290019032987870136e-02
1.000475164220160536e-02
1.060720400925008015e-02
-7.017054136353703502e-03
-2.755751693705851477e-02
-1.317329194062105517e-02
2.687022872826384367e-03
1.981530633374423665e-03
2.298014397082311067e-05
-3.525399086926218634e-03
-4.441522724163827693e-03
-2.599395776078255050e-03
-8.132173855477834541e-04
3.781276309104454787e-03
5.606413839425676733e-03
2.111097492247912284e-03
-1.128881163054770188e-03
-1.555609927585610650e-03
6.071006475468351208e-04
3.140103402482438862e-03
2.177748571201362435e-03
-1.102409374851934156e-03
-2.152629605692521833e-03
-1.483618145553546562e-03
-1.916839703095871063e-03
-2.606145246545189895e-03
-1.115668037759647404e-04
2.820373830932737264e-03
8.355658674262785111e-04
-2.645661773630570736e-03
-2.084410692764251862e-03
4.004494651658544770e-03
7.687993115098329042e-03
3.348646599776951890e-03
2.723172948266753580e-03
6.368202545064535931e-03
5.108330712794684723e-03
1.962253732875126212e-03
2.483946756924018586e-05
1.755559785232205065e-03
2.138294450929034782e-03
-2.035429565395258881e-03
-1.230574829320765610e-03
-5.072939018317680323e-04
-4.859387704848101494e-03
-7.804307055108749940e-03
-6.232631508228787809e-03
-3.200618148916510217e-04
-1.835910464571916369e-03
-8.132323498891556868e-03
-7.541455009044965158e-03
-6.402429172880652782e-03
1.078012302199567608e-03
1.114692723233141197e-02
9.223460345773072666e-03
4.363026140357764357e-03
-2.111129367899597722e-03
-5.965544159951941157e-03
-1.392320922772988234e-04
2.862800780184729301e-03
4.183108467380114263e-03
4.028466853472888361e-03
-2.602354773541442137e-03
-5.906076422211373189e-03
-4.065580647316571934e-03
1.754610289344920833e-04
1.744126188651053577e-04
-6.118662490735190737e-03
-6.390793914423595519e-03
-3.455242777639805276e-03
-1.222186828732520865e-03
3.858594469202413814e-03
4.030329365269889885e-03
1.657016851618766697e-03
3.299980184055585110e-03
3.499054925683021695e-03
2.642442261677268125e-04
-3.274693524196322595e-03
-1.304000676527355658e-03
7.945051362108837556e-03
1.496753114587093779e-02
1.079805869772436713e-02
6.684396248726505322e-04
-2.844432845672145629e-03
-2.387621620712016002e-03
-4.885051519796246473e-03
-4.524054896540395318e-03
-2.703568042889312271e-03
-3.919226471699124685e-03
-4.464966472566563038e-03
-2.182695799376685626e-03
4.861541212517491925e-03
8.541170595507234509e-03
5.416380231890016023e-03
6.445546391964834636e-03
-3.648765953704582099e-04
-1.254996337130975803e-02
-4.246367703360118435e-03
-8.653563816934038396e-04
-1.767951366488223347e-02
-1.470584222968035829e-02
5.225644004107849253e-03
8.880453606245716780e-03
2.095323790345994877e-03
6.214985915630778790e-05
1.474798770169915511e-03
3.822261697784097513e-04
-3.571032878172021238e-03
-3.267066068542756000e-03
1.021085861898321078e-03
7.137656955879364195e-04
1.248428725275163922e-03
8.258319011918141897e-03
9.796783312517801448e-03
6.533873383795458026e-03
4.776904475549223483e-03
-5.196970338548563724e-04
-3.463854395223311261e-03
-5.870356289729224304e-04
1.691472194463220771e-03
1.504957045019631161e-03
1.270349236123121100e-04
-1.400547723588501216e-03
-6.728232246254065539e-03
-5.768223247168040649e-03
2.619345438854561552e-03
-3.544795285909479142e-03
-8.657089699688511747e-03
-7.677246775044553259e-04
-2.219370584421330363e-03
-5.082336330784803860e-03
-1.786032959009534443e-03
1.731110096655313424e-03
8.109503245823200882e-03
5.626933782107255456e-03
-2.276689044901602545e-03
-2.975116432561251555e-04
1.875982078010004052e-03
-3.902030357066215696e-04
1.886109971293697561e-03
4.859839379402429091e-03
3.878698893156706448e-03
5.235774112687857640e-03
3.921622020870665914e-03
-2.672481512787819140e-03
-3.361790462415583606e-03
-3.189433971797303417e-03
-5.115309490362438330e-03
-2.955884945104363896e-03
-2.605185493712370778e-03
-4.110145853188176303e-03
-2.898129339315134740e-03
1.312518550860986531e-03
4.608847825098309238e-03
2.181262932309848464e-03
1.583776048497918636e-03
4.686856630820198689e-03
1.939137313427092071e-03
-5.869260215466037649e-03
-6.090463235548260537e-03
2.653131018511358224e-03
3.143096380827476929e-03
-3.539354756987815077e-03
-3.804106711622426158e-03
-1.471478887072373044e-03
-1.990757355310183736e-03
-4.111092163261334358e-03
-1.776725211384876449e-04
6.618633536427455041e-03
3.784118281330935921e-03
-8.757776489264463247e-04
6.014825231063703663e-04
5.441105073674743289e-03
7.232767012309417563e-03
1.837154809610783059e-03
-5.267033924877537795e-04
9.238300643625612296e-05
-1.566466388917020416e-03
-1.188434814462862969e-03
1.949439134890362411e-03
8.280238919584546192e-03
1.026160241128606064e-02
4.647000454581833202e-03
-3.349179476268355788e-03
-6.666703671126452541e-03
-5.870474036641046842e-04
-1.145739289449203280e-02
-3.089848569571199133e-02
-1.867137865311991121e-02
-2.799109163512703956e-03
-2.090177075866133608e-03
3.048646352800010902e-03
7.310218189812156715e-03
1.039704788620468036e-02
9.751120876036275045e-03
5.890567260589505902e-03
4.637891824642657868e-03
-4.523915729407544661e-03
-6.582238155032248128e-03
4.999191679381780051e-03
8.355945140387992937e-03
5.703825308187909261e-03
3.421352217454225533e-03
2.771401439977904529e-03
3.168936499503174301e-03
-1.999146528293335549e-03
-5.371293499090918841e-03
-3.776526068649049654e-03
-3.313628286238145485e-03
-3.134399835324500495e-03
-1.882815509014999127e-03
2.846199146162545386e-03
7.637867556146943175e-03
6.200767511537104600e-03
4.222252327219715856e-03
6.213836888187975784e-03
4.405836330818915444e-03
-3.641820090489600228e-03
-6.960439150511412050e-03
-2.622591278570397290e-03
1.307509610699705534e-03
7.677788416034521781e-04
-3.232444935197675926e-03
-6.075861170569561188e-03
-6.972720012904803921e-03
-6.290313238851704541e-03
-2.133138022216636218e-03
-8.983310272004858300e-04
-2.673602012801811444e-03
-3.220897603580964849e-04
-1.786987939349022800e-04
-3.145896132394341606e-03
6.839313264188817600e-05
3.258724945748120612e-03
-7.205150126008556030e-04
-4.170843226911356491e-03
-2.931128009900418451e-03
-9.134635744105449456e-04
-1.233372819651662239e-03
-1.832675533389247456e-03
1.487049764800646044e-03
6.432220240281397855e-03
9.289178309227003744e-03
8.750771480259943863e-03
4.282421492296570494e-03
-2.864722916844924952e-04
-1.621543623917302834e-03
6.252307488269305330e-04
2.978048533016391507e-03
1.921308444726938913e-03
1.604852250891285756e-04
1.957736227389357195e-04
4.258105885627550338e-03
4.606958518102190897e-03
-2.336026341666043275e-03
-2.251929206376662891e-04
2.720984328540032495e-03
-3.083775764699257880e-03
-2.313402073564418005e-03
-8.617363628459715754e-04
-7.770876914000565466e-05
2.434161903991574963e-03
-3.100959835905250754e-03
-4.499944335439647058e-03
-7.640997825694250236e-04
1.328855849478122273e-03
2.649954345276628841e-03
-1.451538076829424814e-03
3.141512281235470626e-03
5.614360330963409987e-04
-2.607649913345618659e-02
-2.938506422255711750e-02
-5.599316117257769482e-03
7.056989614006757387e-03
1.095660129157273975e-02
1.066708676864983225e-02
6.596634395811691240e-03
3.505443335920696655e-03
4.538223933826658987e-04
1.077296446430992156e-03
4.244782117375955205e-03
3.334913674000658350e-03
-8.008874988212366132e-04
-2.405155583050414339e-03
-2.056021611042357228e-03
-1.993086228385620128e-03
-2.104949906673109043e-03
-1.623477481458607914e-03
3.863680846264176336e-03
3.940677444751528209e-03
-4.018350584085607531e-03
-5.310027893487551240e-05
7.097703269154084782e-03
5.488287463584326856e-03
6.757789362831626012e-03
7.405152609392706350e-03
1.686904684343850172e-03
-5.083136399361368879e-03
-5.810684591135209347e-03
4.468345141858949369e-04
4.247552044315728963e-03
5.269135933053207925e-03
5.738221398114120610e-03
2.866017535433907065e-04
-7.590962490936053672e-03
-9.134598757829027679e-03
-7.813428160512687209e-03
-7.835884071078203644e-03
-3.653530689560211334e-03
-2.454440704291623292e-03
-5.424153095105148717e-03
-3.561534439462951153e-03
-3.269502329527476572e-03
4.106879516009766078e-03
1.422420261307063075e-02
8.486878549670874572e-03
4.585065917980717630e-03
1.551663322827111832e-03
-5.446664269045341060e-03
-2.165763277975875627e-03
-1.042274379781078320e-04
2.027345154024002595e-03
1.926880673898799783e-03
-9.677440166426964918e-03
-1.240695579295110831e-02
-6.979648138518405702e-03
-1.331517600623081162e-03
2.028448459516414473e-03
-1.922974290051201410e-03
3.194261360970992569e-03
9.483184608490256851e-03
2.711708584911077646e-03
-1.241823250477436941e-03
3.739461406527522062e-03
1.064157308384678161e-02
7.456387735556300848e-03
-2.939248089726684190e-03
-6.646437079000182095e-03
-4.929889625359049066e-03
7.952486039366432353e-04
5.806429509491999041e-03
7.332193279144332519e-03
6.304781705916437037e-03
1.609722608610392614e-03
-1.200336217020318364e-04
-2.839056382305012692e-03
-4.176884975210661856e-03
1.958735784263665371e-05
-2.213110889955286018e-03
-4.023470788570119271e-03
-5.108097583722995098e-03
-8.772604460873039203e-03
-5.261365405448097457e-03
-2.711512243473629402e-03
2.458577011775040129e-04
1.808484248833099484e-03
-3.287134444728966043e-03
-4.993048884754517410e-04
1.510311342283058959e-03
1.090880024195036184e-03
6.116949639671715767e-03
5.924760271630741607e-03
5.431045590965917491e-03
2.687727678400985993e-03
-6.626990645593648990e-04
2.823900082420781853e-03
-5.278672073842511627e-04
-3.064275532508937971e-03
-1.698038043596136054e-03
-5.464658976421393234e-03
-4.305099661802523972e-03
-5.476335402232186504e-04
3.976161616396545542e-03
6.526772427928791490e-03
3.514725618363672126e-03
4.970696550322381557e-03
3.855435086481981237e-03
7.689753872669231492e-04
-8.225971363642644966e-04
-7.076408787333681935e-03
-4.455064382121176614e-03
3.780090628022170457e-04
-1.511248073819426024e-03
-1.475699265165903579e-03
-6.647610549829630587e-03
-7.940865560526999892e-03
-3.781693178364379290e-03
-6.326997650067493761e-03
-3.172011948793316237e-03
1.639846454404965403e-03
1.466078224055736637e-03
2.071344860578122789e-03
-9.533788568689916193e-04
2.081635543628018552e-03
1.055992355413165433e-02
9.397419338164262823e-03
4.770563431461283602e-03
1.128585503175859360e-03
-1.734080778870037516e-03
-5.641365073031077461e-04
4.465153207322320253e-03
9.405851273151633052e-03
4.835780267143653145e-03
-4.195315758652947563e-03
-6.731902841540564342e-03
-4.750223678121115282e-03
-1.635398027419944283e-03
-2.109562592738560647e-03
-1.834491389913050141e-03
2.752275800155636401e-03
7.622845213852326310e-04
-3.152704097816021005e-03
-2.234815382251445579e-04
3.779630654450537568e-03
7.021723795813984703e-03
8.015449839333044918e-03
3.665441356801343864e-03
-3.937682049238302312e-03
-8.381933913246443144e-03
-6.199976357435237062e-03
-4.165324223583303544e-03
-5.017161186620356338e-03
-4.136255395564167499e-03
-4.321977410899448431e-03
-1.029483048835295143e-02
-1.103181473687087077e-02
-3.321372255143259988e-04
3.605754328098261744e-03
2.568050793476552799e-03
8.854535951071065836e-03
7.003185173442293826e-03
-1.480039480753210946e-03
-2.941057097188186711e-03
-2.362871612531492003e-03
-1.307021970518476572e-03
1.056506365305745748e-03
4.873009793482445742e-03
5.501639672543411595e-03
2.312787234779287333e-03
6.727204706873884596e-03
1.322840464179241178e-02
1.470515548542897580e-02
1.143874190105420401e-02
1.603755726470849734e-03
-3.791075144445144735e-03
-3.099605639643497959e-03
-3.783275352251582509e-03
-4.361566882474293173e-03
-5.608491674500459996e-04
2.057494131005855893e-03
-1.495976354026668301e-02
-2.892888961522538382e-02
-1.231887938007765644e-02
2.650358812876154636e-03
4.493010460429575081e-03
3.813130894960687668e-03
-6.960909480476695690e-04
3.711895907200053139e-03
5.785196119786096235e-03
-1.535687702678786674e-03
9.081654486936877307e-04
4.874841833585444144e-03
2.456058194679518062e-04
-5.435601702155357269e-03
-3.014882432738820017e-03
3.752931864720119443e-03
7.330966539824921050e-04
-3.311318598437519318e-03
-3.740703750388600386e-03
-5.634896016796099583e-03
-1.657203485288486150e-03
1.967103265308423662e-03
3.120552864383171771e-03
5.659633136327999088e-03
5.378321781129450328e-03
6.593534503412004644e-03
5.577727811279910644e-03
1.914721475890870852e-03
-1.084000049709685914e-03
-7.447347280844457060e-03
-3.491747499357187885e-03
6.159328582508793309e-03
3.703372226714618781e-03
1.518199874182222511e-04
-8.477226860837751591e-04
-3.314898865216503844e-04
2.722885879476769598e-03
-2.977549708976817049e-04
-1.956286467264657745e-03
1.077089037659640232e-04
-3.235771266795685937e-03
-5.111509220386482692e-03
-3.113352558711833854e-04
5.045083782684683243e-03
5.694132618885168994e-03
3.992987549831407759e-03
3.110487176104780602e-04
-6.950089838500560224e-03
-8.583969667686468935e-03
-4.930722347497570879e-03
-2.723012213623251924e-05
7.074759341621509635e-03
5.592867035506881787e-03
-6.307540828103485025e-04
-3.942320456037695479e-03
-9.704125560353396573e-03
-9.488461573150582667e-03
-3.138722021424367528e-03
6.252783712451126128e-04
9.656180287808145473e-04
-6.113971924583166268e-03
-1.004832652693296059e-02
-1.213705068689055130e-03
8.950169082835902207e-03
1.267662643374745969e-02
1.054508428832795150e-02
7.189271338458367785e-03
2.786740957170107287e-03
-2.492343841906416273e-03
-1.804330794889191184e-03
2.057449990155622681e-03
4.909485346376228805e-03
4.683508251327458266e-03
6.952378861836537192e-04
-9.705907497850340977e-04
-3.868892616991674409e-03
-7.009860220252266648e-03
-4.071474341343255150e-03
-3.186020185038974505e-03
-4.098907360992326901e-03
-2.333967144315132920e-03
-8.460025751984057195e-04
1.273121297507715617e-03
2.994429656845543943e-03
4.897618593070775066e-03
6.245555690533156554e-03
3.622152770043191982e-03
-1.163559624845213972e-03
-7.887479854535186727e-03
-8.748229167430345357e-03
-1.625449662392602522e-03
1.429258750746107299e-03
5.416555461810208111e-03
1.003686761908464779e-02
3.658833379261112323e-03
-1.314391810015516724e-03
-2.496322448969118431e-05
-2.532244877076561020e-03
-2.851022282165455429e-03
-1.884873187687405782e-03
-5.876167977588612340e-03
-5.126775348525325002e-03
2.645451239295763270e-04
1.898494602056681989e-03
3.574279893418395773e-03
4.756531155834789991e-03
2.039290725749156978e-03
-1.417169927777928184e-04
-1.222514367413256135e-03
-2.005845977059668005e-03
-5.537154048428949730e-04
1.427051206896213630e-03
2.614544732670072945e-03
3.630739619122595220e-03
5.724479419268959811e-04
-6.272738007422314424e-03
-7.538458444305421065e-03
-6.090018767858752270e-03
-6.401488171398739269e-03
-2.418330429019474245e-03
-2.766774835303934584e-03
-5.083574817559394741e-03
3.612997454332217417e-03
6.882215643809816777e-03
3.928129987369227000e-03
9.047366463867058742e-03
1.088146640129577548e-02
7.421185896388744763e-03
2.881146255684600456e-03
-3.032806708207525914e-03
-1.539721079242766834e-03
1.678792389412728757e-03
1.381753720609041076e-03
1.847636490685615560e-03
-2.960426124184115191e-03
-7.155300007424730824e-03
-3.380039612833537002e-03
-2.060418618813152688e-03
-3.361151206246016081e-03
-7.643916115981681672e-04
-9.065130118143500211e-04
-6.181498620961949075e-03
-4.339883202980732158e-03
4.124830521966586609e-03
4.779176115921574854e-03
2.253052341749920209e-03
3.971044679331809518e-03
2.972389680489770630e-03
9.789332331017658361e-05
-2.984765026160262225e-03
-5.615997647891601656e-03
-7.351895404687817329e-04
5.446888863784456712e-03
3.593872709157102524e-03
-9.441326168604927864e-04
-2.321021742898581128e-03
-5.971578653255336282e-04
-2.246931306719911702e-04
-4.906893129689618264e-03
-7.000660101461084889e-03
2.001930627315008876e-04
4.879708757110630228e-03
-1.546565930483354175e-03
-5.787165462586351533e-03
1.542737667126961934e-03
9.396991228453268827e-03
6.607048223703698708e-03
1.031566876321466167e-03
-4.383966289427011103e-04
-4.585202289212305174e-03
-3.868550903247522463e-03
4.480684065593368813e-03
5.199505559208627420e-03
1.679456688734745412e-03
-4.016798567239308936e-04
-1.683664955264628981e-03
-1.005284997721141767e-03
-1.231137463784694988e-04
7.345044755850705168e-03
7.484955027153452831e-03
-1.874412433530196981e-03
-1.537335923039938454e-03
-1.607167073013890737e-02
-2.852625128911355848e-02
-3.551092032001967966e-03
1.089046018937826418e-02
8.359895072025827142e-03
1.202451795189062728e-02
2.966162974185040414e-03
-2.529372999321692888e-03
1.095241577832834151e-03
-9.075200907695150443e-04
1.558470588703270545e-03
1.764013829309665250e-03
-1.297041423216655810e-03
-2.605510956470134983e-03
-5.103781306583559697e-03
-2.188975584760151881e-03
-1.859512962652832245e-03
-2.003117980023458658e-03
2.742647857681511717e-03
-1.387558094410278530e-03
-3.223286707142311407e-03
3.665073095649971045e-03
5.962794346075669417e-03
4.268630683665845978e-03
-9.706898177031092739e-04
-3.791202294995111698e-03
-1.461114753829566163e-03
-2.091838643862904343e-03
-1.792935771181269943e-03
1.124987431585214217e-03
4.213937965504871430e-03
5.799944956304629688e-03
1.569101706837948678e-03
-3.958619385097293490e-03
-4.646754274951370167e-03
-2.983173407407900589e-04
2.021855911351194950e-03
9.174348555483949992e-04
1.207246535152840805e-03
-2.410632040450531605e-03
-7.521180141778129741e-04
7.624826973186417216e-03
4.338781342381664574e-03
1.996179244533377757e-03
4.333075131005316438e-03
-9.902220054395518244e-05
3.505001305841734202e-04
-1.718079950406967604e-04
-3.576650361499597412e-03
2.870304177807703194e-03
7.156000086685624859e-03
3.061489375714778003e-03
-4.415057968650987555e-03
-1.238137000078008351e-02
-1.405709591494527268e-02
-1.106198075275811703e-02
-6.571862009465486917e-03
-1.577822925260518368e-03
-5.557126049182617303e-04
-4.006588911657179598e-03
-4.051548373950244336e-03
2.127726908093180002e-03
5.090225812624973693e-03
4.446349875029925736e-03
3.985002478386279884e-03
3.471301192011118364e-03
3.793870607773731918e-03
7.880197046313336872e-04
1.625606806424548158e-03
6.097465257451363009e-03
4.108423556175519638e-03
4.828768832110094146e-03
3.646925885282645014e-03
-2.351104357873336562e-03
-2.300958399092982269e-03
-3.747937164723757868e-03
-3.379423993022230739e-03
2.622517188108384545e-04
-1.302575128566992166e-03
-1.566218980868939971e-03
-3.229998232809812644e-03
-2.388316672199881398e-03
5.978380778048085313e-03
6.131032338798948766e-03
2.386642763181541851e-03
4.706067102577821647e-03
1.970160094822703822e-03
-5.579087657411977222e-03
-2.697871804227985979e-03
4.692286398807533378e-03
7.773986548232563821e-04
-1.164560755962783939e-03
2.811313733419474204e-03
-2.128939053621720177e-03
-5.249008478971472179e-03
-4.228242673690995462e-03
-5.987916360735640389e-03
-1.183034641274409351e-03
4.022195996528553580e-04
-6.509449127079357938e-03
-6.292199583400047078e-03
-2.619796799828740322e-03
1.272175854099347192e-03
9.530670855402248801e-03
1.077163808872370725e-02
3.128518359186663322e-03
-3.709229450765781557e-03
-5.049828289558858790e-03
1.750102622986561334e-03
4.195314596108295005e-03
-1.238595330760289054e-03
1.779813820780710206e-03
4.214064689633997482e-03
-1.505440562343266821e-03
-2.102126873246791885e-03
-2.326130191119753741e-03
-4.474968469478417255e-03
-3.355560334584177257e-03
-2.406012132795371395e-03
2.073121960652392630e-05
1.477898633367052007e-03
1.827404556935468367e-03
4.275512409908148632e-03
3.372969008179891627e-03
1.053829206520167120e-03
-2.232633956924091542e-03
-4.978774965709088264e-03
-1.022488944373645472e-03
-5.795146829266267568e-04
-9.985240603641015039e-04
6.629645368544686938e-03
8.151782405203221449e-03
4.049225007224993220e-03
1.161772941672294546e-03
-5.056731373835290921e-03
-6.256150357169693380e-03
-2.063423722507336938e-03
-2.410163298640152860e-03
-2.452175446899721237e-03
1.123270873316936451e-05
-7.074971772053921439e-04
-7.802572329065809780e-04
3.618039837436752733e-03
6.043086240637316961e-03
4.983072383268962423e-03
4.946894598549621616e-03
3.234981938211470807e-03
-1.493015172678624318e-03
-2.985530493192545091e-03
8.723426017441976736e-04
3.590242000835778928e-03
1.264597977544637368e-03
-1.360980910270781843e-03
-1.988913506323184473e-03
-2.245250972971806706e-03
-1.483476337216449274e-03
-9.864226088120817311e-04
3.840962445080184904e-04
4.041891617383421009e-03
4.303315173277358872e-03
2.916238894062305343e-03
6.603608931083367051e-03
1.031115254335492060e-02
1.026034254131736115e-02
1.023740794847790257e-02
7.045173094774743669e-03
1.460065432175525809e-03
5.705246355881182568e-04
-2.708252860625864379e-03
-7.825375287674104022e-03
-4.971549010631971452e-03
-5.314525125777354309e-03
-1.047274349790564343e-02
-1.265269936159026977e-02
-1.508452633701378234e-02
-1.001793582436894328e-02
-5.583625066823341178e-03
-8.072802202080796991e-03
2.520110671460803944e-03
1.285482644134697781e-02
1.329136168727946404e-02
1.734618695342722561e-02
1.764655860218361863e-02
2.192871890058428752e-02
2.690671911485599185e-02
1.646255039230077460e-02
8.430986514612919674e-03
6.036145028454843655e-04
-1.385899296210568905e-02
-1.988900352294530396e-02
-2.508545302931526264e-02
-3.557658997223861475e-02
-4.384755020168584760e-02
-4.776740952901369075e-02
-4.792779069541815151e-02
-4.408043271046086647e-02
-3.203454561991222332e-02
-1.840629096151109867e-02
-8.611623346885428909e-03
1.553011906863506139e-03
1.321441649552222708e-02
3.110238565970104008e-02
4.811031636160756353e-02
5.574966219941732831e-02
5.583891295544112648e-02
3.919823159418213410e-02
1.852575807518852882e-02
1.540366194745076620e-02
1.101692558403782538e-02
-2.867318300790834291e-03
-1.053412303672645288e-02
-1.679533768643091951e-02
-1.749351108508226393e-02
-7.226320178222831944e-03
-1.051622404625426714e-02
-2.378373495694117989e-02
-2.620534259039558611e-02
-2.793212201455110705e-02
-2.665452289423459256e-02
-1.948606479853564818e-02
-1.518312614066809514e-02
1.639468817460843419e-03
2.777478575907068106e-02
4.248905670336099172e-02
4.755033908478594612e-02
5.911451581649863202e-02
1.005365722980038345e-01
1.475887880068424696e-01
1.475903176506614123e-01
1.042510855483494009e-01
4.822907936435759380e-02
1.031518618936599907e-02
-4.827541685911818960e-03
-2.289247487078884327e-02
-3.230009323732149079e-02
-2.156459662851627213e-02
3.894017308812094979e-04
6.833174658994628850e-03
-6.142469766163069500e-02
-1.616677968494577566e-01
-2.074525723427387836e-01
-2.316623851513475163e-01
-2.563096871396803866e-01
-2.524446472463162117e-01
-2.137846415639615971e-01
-1.452170432726945237e-01
-1.032944739640592885e-01
-1.243631048701964725e-01
-1.383099607574611034e-01
-7.504411330805654812e-02
5.506113123927024178e-02
1.825248403488065052e-01
2.363292854248570385e-01
2.362099546749475421e-01
2.666863072786363476e-01
2.966310921599327743e-01
2.459079872789226573e-01
1.909682177951272097e-01
1.918879340693231128e-01
1.894954651001484747e-01
1.776714978598676609e-01
1.652702245067288744e-01
1.465231069501926886e-01
1.325571605571612688e-01
9.944433410475018997e-02
4.652534551270726126e-02
-6.924334264034263942e-03
-7.774927161966323219e-02
-1.927816931156529079e-01
-3.406928277842371511e-01
-4.024212374472272424e-01
-3.046441962652841617e-01
-1.789643860906267592e-01
-1.340300568741928933e-01
-1.108882623073440682e-01
-6.482878842365946692e-02
-3.738365740300782919e-02
-1.731567198496325455e-02
2.981356586746936391e-02
2.237432191404365930e-02
-8.242414949618818987e-02
-1.748773739344922640e-01
-1.827105285214994101e-01
-1.414374016003509260e-01
-9.033012309746882296e-02
2.013986461044700842e-03
1.574165634872375097e-01
2.789854790695935893e-01
3.233969999321421596e-01
3.364586143632373738e-01
2.748664760683304231e-01
1.717674350092609770e-01
1.250936916356047979e-01
5.883862393748138381e-02
-5.508110420461550388e-02
-1.349128320300991557e-01
-1.772668511619007736e-01
-1.785906897532971993e-01
-1.686543498529598228e-01
-1.458617049618661787e-01
-8.539563116270363144e-03
1.378430515480710550e-01
1.233032963248451575e-01
4.751924755975471537e-02
3.469586432502475698e-02
5.396481843348024249e-02
5.158435580005109322e-02
3.477886578108577154e-02
1.860211160685349904e-02
-2.180353539942853774e-02
-7.131941999688815037e-02
-1.100763677375184296e-01
-1.453079759343858524e-01
-1.331591011246324452e-01
-7.197350848719893945e-02
-4.576601694620130098e-03
6.744040930670325285e-02
1.081598681226968450e-01
9.918403521168975279e-02
7.252845757195960918e-02
3.834118989105430447e-02
3.089198387500880633e-02
4.069743869576617629e-02
1.952718349727692454e-02
2.943278826868749379e-03
-1.092115585943482549e-02
-4.731319281250453285e-02
-6.709484077631944210e-02
-6.804912889951880706e-02
-5.241108490938155284e-02
-3.417710254509626067e-02
-2.255590424157922005e-02
2.492438130215244435e-02
4.938344978289211512e-02
1.465650668093580918e-02
-1.030171993089487939e-02
-2.546986152392352945e-02
-1.899122678205605874e-02
9.788948805347476648e-03
1.735059422446753180e-02
1.768978095221485428e-02
8.912922120131481357e-03
-1.474646574406321582e-03
-9.980040533203804812e-03
-3.181079693030013783e-02
-2.842779436772142898e-02
-2.379663478855767456e-02
-1.815139796958410018e-02
3.835965873166621853e-02
6.688415355117899308e-02
4.212176027591114924e-02
3.117770581607569313e-02
2.699601984842437893e-02
1.636381582425084150e-02
3.662382494426570483e-03
-3.545911839825230741e-03
-5.583116688295678212e-03
-1.581092818878529482e-02
-1.618880962504367846e-02
-9.817569967096770669e-03
-1.157931564123611777e-02
-1.009848547806104294e-02
-1.174716980927261074e-02
-1.080423808083720572e-02
8.929099574037641226e-04
6.008097101790021294e-03
5.429367461099908303e-03
1.413007902858034407e-03
-9.778844232862987651e-03
-1.552748571898805545e-02
-1.403322451539921675e-02
-9.018810582321143063e-03
-1.629657737215484906e-03
-1.795342116130811249e-03
8.160369855888300770e-04
1.339906197762626844e-02
1.174259885808229091e-02
-1.313507002485622601e-03
-3.781371580932944929e-03
-9.797383788500860311e-04
2.131873619049096493e-04
8.517368964224736501e-04
4.398549978901298424e-03
1.074849273026963654e-02
1.269230085387601688e-02
1.391951173263738205e-02
1.442408785211778989e-02
6.077742477517027349e-03
-2.062137960802208538e-03
1.437363030546883478e-03
6.605415495146080285e-05
-1.943481152383971094e-02
-2.524190074358247798e-02
-7.419523578258886004e-03
-1.660299297143285084e-03
-4.851172208794042769e-03
-1.018196144013797707e-03
-1.138634534551410428e-03
3.998338754745375291e-04
3.912134195197749728e-03
-1.181065298125249336e-03
-7.764100140476384339e-04
8.220053477011332946e-03
1.079600802063158949e-02
6.036128968575917367e-03
-6.514583505332847621e-03
-2.013962004193725619e-02
-2.470644642534790963e-02
-2.565520178216949485e-02
-1.771728001306693487e-02
-4.391304832409015368e-03
8.865750344395512475e-03
3.530854839919699700e-02
4.145586275797432524e-02
1.464148482149379288e-02
2.615617233945463031e-03
-2.830437112031440432e-03
-9.513846958258962913e-03
-2.011985111442079945e-04
-1.273442470494793796e-03
-8.590979231193974011e-03
-4.081659583490504679e-03
-2.587255354811687086e-03
9.705617606692920878e-04
1.133185069911557021e-02
1.581000988809345975e-02
1.193106845924272671e-02
9.284968419714618310e-03
8.363401452334440211e-03
1.918350750989371040e-03
-2.393805619504474401e-04
1.466069811079874236e-03
-4.465446116789993343e-04
-2.305289757148259316e-03
-1.037215509924778456e-02
-1.385223410085968318e-02
-8.370842229387468955e-03
-1.160409347252991386e-02
-1.340549928418340031e-02
-1.066281692478236731e-02
-1.010160994694224955e-02
-5.165117866328698334e-03
-9.238745665149491939e-04
4.480982996337683905e-03
7.395009231969597308e-03
2.048110295570862178e-03
4.785471695523394429e-03
7.820519897620977282e-03
-8.362315340929851130e-04
-2.760346174026058214e-03
6.819435442909789133e-03
1.268556899551280884e-02
9.052870895914331625e-03
3.194802727249577024e-03
-2.366158332929903414e-03
-5.064823413928651319e-03
-2.580262213179552403e-04
6.128067642752389353e-04
-3.455003967260387998e-03
-1.716404147517904943e-03
-1.889578170233891484e-03
-5.608783835660957097e-03
-5.857089975151750366e-03
-4.419875547427734412e-03
9.315907315683689700e-04
6.179956575306230944e-03
3.216691440887324300e-03
1.419037363799943241e-03
2.675696931413799797e-03
-1.412208455083037309e-03
-9.063651169457204821e-04
2.190422911119361410e-03
-7.404642057658763522e-03
-1.485655334857771508e-02
-1.078393493733076358e-02
-1.061856830760294669e-02
-1.084158415559992143e-02
-1.013725803651658935e-03
1.152513841809117701e-02
2.027361709845994231e-02
2.558752618723878630e-02
2.318229188368816154e-02
1.339067923131027037e-02
5.966919255807739790e-03
2.042249950989157101e-03
-1.399724148932177115e-03
-5.385981029651270777e-03
-1.098322088164076574e-02
-9.094717444009140644e-03
2.181492232627734937e-03
1.055841626154015861e-02
9.908903655921912426e-03
3.256518374752627714e-03
-1.036540161457442325e-03
-3.716971675734431421e-03
-8.098405533828262337e-03
-1.099145864490000402e-02
-1.607295027124032438e-02
-1.795301400679402345e-02
-1.644326990401604252e-02
-2.014979495304354551e-02
-1.707387407147383310e-02
-1.237711212474703129e-02
-1.064643529752243127e-02
5.531237951704278365e-03
1.644170304797065024e-02
1.361031676091976721e-02
1.832766206954987431e-02
1.835221474530517732e-02
1.254061988171495216e-02
1.387407046179031656e-02
1.132231545312053535e-02
7.413126864517691726e-03
5.829407770081266107e-03
-3.231002664111306058e-03
-9.301036211990172317e-03
-6.873847715066085974e-03
-9.024735439272782087e-03
-3.155052175620775938e-03
1.616262050900690861e-02
1.598115626089144717e-02
8.323861401434561481e-04
-1.689649464247984663e-04
8.975042030563173436e-04
-3.414833092327507116e-03
-4.349538041809484709e-03
-4.673492911905923614e-03
-7.881929317400533999e-03
-1.405846379941762085e-02
-1.309650708855940836e-02
-6.125135316939094195e-03
-3.490041695863404809e-03
1.024089726437209160e-03
8.792407701787648307e-04
-5.502530775846738685e-03
-4.727377331346350152e-03
-2.783545048842379910e-03
2.303944683248656915e-03
8.925563112910657459e-03
4.602758496090150926e-03
1.673410346384495914e-03
2.573486215825054706e-03
8.515848065753319797e-06
7.931714820266432767e-04
3.305644226978489766e-03
3.286124003396560887e-03
1.698286233878432486e-03
1.869776046240157613e-03
2.323756910843134595e-03
-3.068629265189385443e-03
-6.718237737617725747e-03
-2.560110169222069507e-03
3.534836109789218916e-03
4.965990722942219097e-03
1.565527904709788790e-03
2.397652107419099773e-03
4.492230790615870349e-03
2.443382993304144251e-03
2.728952063505762481e-03
1.147453183323300652e-03
-2.017082599364486330e-03
2.155095931811053765e-03
8.057976624387069506e-03
1.389183194405473228e-02
2.032081556163251382e-02
1.278781048518598355e-02
-4.756001372082499512e-03
-1.331559410735135875e-02
-1.918158653610066433e-02
-2.153722246864853140e-02
-1.290059387442888533e-02
-9.822322450260769292e-03
-1.058280917683901944e-02
-7.123387214775248055e-03
-5.730979263975753343e-03
-1.340240581139480209e-03
2.980646980240597016e-03
6.189644693203128802e-03
7.680299153265997790e-03
-2.823586052261030464e-03
-1.333846974278672139e-02
-1.777847759610155787e-02
-1.632637903904895701e-02
-4.705916479232484517e-03
3.826846985204095889e-03
1.297107357393543527e-02
2.329465885766144814e-02
1.893292620496337189e-02
1.176208798033202656e-02
1.298070271504247163e-02
1.704581307806316004e-02
1.995025561238866416e-02
1.718134960868564903e-02
6.164394400727525938e-03
1.087027827005680042e-03
7.428208530381676458e-03
-1.034528948906676855e-02
-3.599987462307862457e-02
-2.094764298260685595e-02
-4.363276353780301195e-03
-7.550590910389507956e-03
-6.293651850573651375e-03
-7.741928803796472441e-03
-3.553050080044674319e-03
1.953824562717513917e-03
-2.486991801472241467e-03
9.435096292196589428e-04
5.986313467840595308e-03
6.964412817836518679e-03
6.625681743191819302e-03
2.302731240847818821e-03
3.768072509902345088e-03
6.349177305237548030e-03
5.585080471268719440e-03
2.131526066589757053e-03
-7.340095341077304894e-03
-1.128392157331075882e-02
-1.195569254048100757e-02
-1.507055673368680113e-02
-1.182306870600844002e-02
-5.915467688775717658e-03
6.542199875145746080e-04
7.966157811017345047e-03
9.303649427435231947e-03
8.306487948656909523e-03
8.411894800328268557e-03
4.438809317680312769e-03
-2.330917080216743896e-03
-4.519051405665089685e-03
-4.730322150689734474e-03
-8.002852919525788380e-03
-5.630082828351284062e-03
3.660238941761205164e-03
6.894087868021880200e-03
4.089638462722705245e-03
3.502630204657009722e-03
4.679132647275860424e-03
6.346787912710013038e-03
8.698431520164504743e-03
8.076212469029361504e-03
3.242823260421258489e-03
1.792825155239066021e-03
4.725235660884621706e-03
3.547361608866611820e-03
5.586075172387868111e-03
7.399701050883673858e-03
-6.502788286095378088e-03
-1.175498160057587317e-02
-5.813183554973008066e-03
-1.345853608834771294e-02
-1.031794253996833055e-02
3.804207651740729081e-03
5.348597850796479349e-03
6.267596400600630203e-03
8.903974159168405933e-04
-8.858672012822125033e-03
-1.125771582391112309e-02
-1.434209199577553100e-02
-8.816101008533380398e-03
-1.973864649321392748e-03
-4.955888909367786241e-03
-4.710700343461687867e-03
-4.273541920650700265e-03
-2.941158373187356158e-03
-2.456322248527059758e-04
5.450256928807758463e-04
4.882535968466082850e-03
3.666516156115759081e-03
3.544078192773390118e-03
1.114958849600289695e-02
1.264854108865397925e-02
1.376898334314345662e-02
1.211913087279105176e-02
2.948604002255553885e-03
-1.446775320567089771e-03
-2.446511224307816416e-03
-4.227483693978185660e-04
1.012674615179245735e-03
-1.738543655083028350e-03
9.053628795107715541e-04
6.256517767697835491e-04
-2.528899716930582860e-03
3.655070489472116765e-03
7.167292543412548053e-03
4.692413681192087425e-03
3.650187609629188326e-03
7.130665272110724802e-04
-2.798112127208476560e-03
-6.110543105481500668e-03
-9.497663838874490644e-03
-8.801383280319464986e-03
-4.030578692529611720e-03
3.874061225159701038e-04
-3.622085141184466393e-04
-3.439225137207945274e-03
-2.368703184065900757e-03
4.707458908940820915e-04
-1.027272387474676123e-03
-4.744437130464665767e-03
-2.438242149039920349e-03
2.403485312162315763e-04
-6.720676201673389874e-03
-9.809966201446125231e-03
1.096375364807830773e-03
9.619074199945117781e-03
7.252953037646369013e-03
5.136399099299895389e-03
3.393320672689874740e-03
-3.628379849789229589e-03
-5.764835993605352780e-03
-3.536725937641824050e-05
6.812925465122215973e-03
1.092546067822913400e-02
4.492910743605952120e-03
-2.379390213090579360e-03
-9.250642177263425619e-04
-5.307661710313183248e-03
-9.084989901799568959e-03
-3.236093650003689544e-03
1.611856639511453394e-03
2.114719531083940427e-03
-2.038789641873676225e-03
-3.661472069956361267e-03
4.645534431335350024e-03
1.227383018409420982e-02
9.190907856067241297e-03
2.145205180417088242e-03
2.300777838159665314e-03
-1.824058628830707487e-03
-1.298570203481354615e-02
-7.433006992317464992e-03
5.084905110096595710e-03
5.849745674125015303e-03
6.170344564538560346e-03
5.474703406940215067e-03
-1.136068689955684226e-03
-5.381810092248310445e-03
-5.511113023392914118e-03
-5.278746807360109282e-03
-6.001021653669148803e-03
-7.530281621295149656e-03
-7.988673186420526540e-03
-2.968265168933123012e-03
3.949816388458526721e-03
6.584991814590769078e-03
9.416472193127077214e-03
1.139854829367130569e-02
6.860591062003551684e-03
-2.232213664135175926e-03
-9.086348294627054692e-03
-5.545140415751970663e-03
2.487707923427134697e-03
4.832614346409828607e-03
4.857893417485601925e-03
2.572118930721864569e-03
-2.708510677600325153e-03
-4.340345888983929666e-03
-2.636684395912663580e-03
-6.614711970221690430e-04
2.613194959084312076e-03
2.951928167795791948e-03
-4.236391878428057665e-03
-9.759140983712312478e-03
-2.854129250835972607e-03
4.827981996308812647e-03
3.658636494697501329e-04
-2.105090859854374117e-04
5.742950452114641870e-03
6.099806162467978242e-04
-3.452076417880639049e-03
3.137451666384084067e-04
3.762079901693552385e-04
1.967734786920991106e-03
2.890470675945653635e-03
-5.762039377755199566e-05
-3.272139146373101871e-03
-5.736823649075699708e-03
1.141438159752203047e-03
6.222632853658019783e-03
9.875334011604814267e-04
-6.519579455611377358e-04
-4.522931450018643010e-03
-1.050391819724429479e-02
-4.631831461572069077e-03
4.165153843675449379e-03
3.184240618319878445e-03
-6.181362355408529137e-04
2.225181963496093793e-03
3.778449512867347246e-03
1.910665668890083706e-03
4.344439451446652917e-03
6.459785949089496236e-03
5.299907767028508819e-03
2.423609610211686048e-03
1.413946403012294887e-03
2.197148121122117874e-03
-1.577587498875987699e-04
-1.688737215379175699e-03
-5.438564120671864760e-03
-7.066316966939908788e-03
-7.036363658100029184e-05
-7.645774757453701904e-04
-4.368048384800947426e-03
-1.172674905628280986e-04
1.783559085615832665e-03
1.585654742751324564e-04
-5.572144404656483247e-04
3.963548793237374121e-03
5.261578800460160223e-03
-3.278087678830505537e-03
-6.220221066251399936e-03
-4.583466435353161740e-04
4.422634445252631580e-03
2.709281455358735977e-03
2.786202930437739651e-03
3.040031791595421487e-03
-1.743362747204000793e-02
-2.708004905308521171e-02
-3.578506954865119660e-03
8.108199706844964466e-03
4.085887662663480364e-03
5.406310491049312432e-03
4.742336703869748718e-03
3.632337245767702436e-03
5.790320845238570817e-03
9.271484297422607351e-03
7.918699024013212823e-03
2.267253313419139923e-03
1.703984256011504715e-03
1.644517950888817626e-03
1.716155259252344443e-03
1.904845791892652860e-03
1.578504239495279507e-04
5.284800041592041531e-03
3.525155098858256085e-03
-7.072876745498552289e-03
-5.946086523981895799e-03
-9.333412216914844725e-03
-1.680787132519431099e-02
-9.679962368644958598e-03
-9.509882762706334605e-03
-1.326636983511348018e-02
-4.060200098835340873e-03
1.552390656368690582e-03
5.816803363101104470e-03
1.110634453598970811e-02
7.677103265849234345e-03
6.176154944113297629e-03
7.062534237245440827e-03
5.273379744182878429e-03
5.612152613157221637e-03
6.531210377483817608e-03
5.875338741130752170e-03
4.444940392970018160e-03
5.201627791330911722e-03
2.519484839700321648e-03
-5.547928253891297457e-03
-5.997825096460098621e-03
-1.192686665814307861e-03
1.315073693459491806e-03
-7.381098038887392437e-05
-3.988936046570846355e-03
-1.979337500090786774e-03
3.894947922350882902e-04
1.568574025208621745e-04
1.562557846313695565e-03
3.321395709744140185e-03
4.141022321878501562e-03
-8.213374629321583409e-03
-1.804477796148102817e-02
-7.199950774769305235e-03
-2.997447374678957870e-03
-3.810567841823563062e-03
1.131788072631088535e-03
-1.479471032092349609e-03
-5.973336601040171506e-04
3.360084824396863436e-03
1.338314266497324379e-03
4.090985301166260441e-03
8.560042995987119513e-03
5.215035407646450259e-03
-1.459137210953531660e-03
-3.264150787462242933e-03
-2.671915240751126901e-03
2.579346849555567110e-04
6.596475199455452236e-03
6.166063469106376413e-03
3.235277808198234410e-03
4.973400007863794034e-04
-6.135804410287609353e-03
-5.680453306994348583e-03
1.297982138125613853e-04
4.587451525894637068e-03
4.755797581300029789e-03
-5.096797605760571828e-04
-1.579523207868084285e-03
-3.617557536566124842e-03
-4.130933482002639018e-03
4.315363437438424037e-03
5.770539454196968975e-03
1.832762795351023906e-03
-1.696345340355834589e-03
-6.331542972583129383e-03
-3.993030865732082220e-03
1.266899107795575784e-03
6.824464444873194410e-03
7.202114422269639306e-03
-8.576081814676843502e-04
-2.473793166332888607e-03
-3.212107364360883982e-03
-5.105298187384296749e-03
2.581616690851375791e-03
7.238319638231785133e-03
3.499475226927901538e-03
-5.481017767754873052e-04
-2.843086154331893713e-04
7.820468053844576925e-04
-5.196223819266289172e-03
-8.857199503953463657e-03
-5.165885563193650838e-03
-1.381756858345093830e-03
-2.043072902636358396e-03
-6.248812369286910369e-03
-2.515055230359193074e-03
2.112519161894428187e-03
2.033337069149999390e-04
3.945172560959271484e-03
4.562950928709027729e-03
2.825514948481370591e-03
7.118954529615712651e-03
3.776646027301462129e-03
2.832878843464486669e-03
8.802411754424935286e-03
5.256609415201529169e-03
2.370265165589399703e-03
3.478342555452400373e-03
-9.477225658992166103e-04
-6.302654784886462663e-03
-9.324599037926825998e-03
-7.646778145318340603e-03
-2.624234048258834891e-03
-2.190786344813095299e-03
-6.841312925085798330e-03
-8.236575966289546094e-03
-1.757194301736670922e-03
4.824998540985793970e-03
7.767913742002431274e-03
8.080577375684169783e-03
3.356818246384904360e-03
2.078188544196411802e-04
4.688511175631581568e-04
-3.626634610672309919e-04
2.161562038903703077e-04
7.171622426296631351e-05
-7.831798270092832706e-04
-7.571193794960887416e-04
-4.065990808689027430e-03
-6.952879644678213941e-03
-4.517631889671353332e-03
2.033042208342784960e-03
6.606917115772801413e-03
2.633402831252678634e-03
-2.961732395989772997e-03
-1.984945323081814452e-03
4.086459753352709827e-03
8.314320502299065233e-03
5.508057974449426762e-03
5.632464652546249895e-03
8.989099353661468561e-03
9.460061796061823526e-04
-7.515469689759913564e-03
-3.716720693277152012e-03
-1.821189702677452216e-03
-3.398624644791754541e-03
-1.353759787608119301e-03
-2.666756946120492008e-03
-4.526432190583013285e-03
-3.488882077387270644e-03
-3.452229723080277313e-03
-3.319965477945271168e-04
1.866803584845187682e-03
1.139596291005566748e-03
2.310588282286701531e-03
-5.867542224651856909e-04
-2.209993872728576413e-03
3.351300258491480156e-03
4.371147779917894730e-03
-2.071854541420714178e-04
-2.058805945258202798e-03
-1.955436500230702413e-03
-2.963657610962580190e-03
-8.697421852729240186e-04
4.265602906809308481e-03
5.664783083282151632e-03
3.090369964481663734e-03
-3.384467780828279582e-03
-8.935076135056800942e-03
-7.542048895048756446e-03
-5.043293068667986136e-03
-2.396277097595381038e-03
2.137293974488412886e-03
5.946707955193137121e-03
3.279692500487189303e-03
-5.856329954894830270e-03
-5.506239974571304312e-03
1.431313883451238410e-03
3.053659332274922655e-03
4.806486137732030213e-03
6.666441004579307800e-03
9.487238965635757387e-03
8.818609816935080170e-03
4.394344356206902197e-03
9.215591923484962519e-03
1.270237750771139977e-02
8.043712452155397929e-03
1.849056505591506125e-03
-2.955169409149450109e-03
-1.789571111210568532e-03
-4.287068920204663118e-03
-5.680067307820885550e-03
-1.774825546209733533e-03
-3.472226619239512663e-03
-4.122163862189682365e-03
-1.779189603145967663e-02
-3.238588582078336109e-02
-1.234891228139777843e-02
4.756157393335004764e-03
3.113393900415624329e-03
6.561908579158077376e-03
4.911004640810088216e-05
-9.013542932483867287e-03
-2.098574232301734892e-03
6.559002866930718594e-03
6.359507832391972544e-03
-3.563277321540930277e-04
-3.530291825467892896e-03
-2.311833897363913112e-04
3.185945972560097917e-05
1.303595606879160915e-03
1.055662612806708769e-02
1.333519125197227609e-02
5.414184621281169577e-03
1.666577540198009187e-03
1.176238726303100151e-03
4.129564434931830633e-03
1.090243745369090349e-02
7.804854195571093133e-03
1.082118745975219933e-03
-3.419104716675216201e-04
-2.986645561171306917e-03
-5.132474611931034207e-03
-2.325786093686865817e-03
1.570717971521486209e-03
-1.106693667997232788e-03
-6.046857512885547500e-03
-7.913594208856237350e-03
-8.431559596515248584e-03
-4.227334467936922843e-03
-2.470616259001920736e-03
-3.110022985985851172e-03
-5.797507859308116121e-04
-4.673601178364991497e-03
-5.535767449033803661e-03
2.696366109542583725e-03
8.899504181114927664e-03
1.446501474864066508e-02
1.274353660938342195e-02
3.925315544759546034e-03
1.585788091232166437e-03
3.303054451039873132e-03
1.813233648526479946e-03
-9.665513069185854454e-04
-1.067865480913458235e-03
-1.494189520403503644e-03
-2.092815543302245680e-03
-3.758255827451820880e-03
-1.127684915154880674e-02
-1.513180805423227152e-02
-9.796274212308546392e-03
1.122360384462049634e-03
4.437783988333301316e-03
-3.258740386301690710e-03
2.517264485741762745e-03
2.349325510790418840e-03
-1.681161171727836232e-02
-1.192084903268214070e-02
4.941247109766008089e-03
8.544295846657177021e-03
8.729946446601515031e-03
4.666001084054546659e-03
6.460377201538897336e-03
9.161199172116579748e-03
6.927090218512324017e-03
1.043669188582066476e-02
6.817479275749547749e-03
6.209242606381252519e-04
-2.667618990092563780e-04
-3.007508075048732302e-03
-9.731538617240474091e-04
2.835624029253258692e-04
1.799786620873589571e-03
4.597231701597315201e-03
-2.284305358230500748e-03
-6.029715977714086503e-03
-3.694715290642192063e-03
-1.969114282298081286e-03
1.328480782290662743e-03
-1.641970200994405989e-04
-3.639555836614678623e-03
-6.227825451020871893e-03
-8.476112676542673502e-03
-5.819903119486542591e-03
-2.499573201425635879e-03
-5.060048690722156704e-04
9.967114795793609837e-04
1.485073683001156232e-03
-4.590687126292826003e-04
-3.272431380459526855e-03
1.945341777558102061e-03
5.879099782883768707e-03
-4.245477220019177786e-04
-4.158727918354944257e-03
-3.586067233591993045e-03
-2.607575607948183546e-03
1.916258425156027682e-03
8.159171382505082948e-03
1.043173972473957802e-02
6.861520660264754622e-03
3.433912322804423718e-03
4.292913729533346691e-03
6.530980535789249371e-03
4.225348468100317487e-03
-5.719053568705414125e-04
3.989055569604375850e-05
5.191310607639715866e-04
-5.984042934184974783e-04
-2.254435758973630417e-03
-1.192100341420779946e-02
-1.620405208976383876e-02
-7.079996661002532082e-03
8.679550588847970019e-04
2.261142830258024063e-03
-2.732647915267867947e-03
-6.798243938851652492e-03
-2.700765621856298163e-03
4.724007540650489341e-03
9.351885075536126718e-03
5.105688719242718922e-03
-3.617769168878344965e-04
3.583610213413028229e-04
5.855504114342817206e-04
3.845973654209697626e-03
7.179453183190551840e-03
5.740663579294856891e-03
6.157446490564109746e-03
2.508725383450954860e-03
-2.620320181692829386e-03
-2.563873955439999186e-03
-5.915308557781586742e-03
-8.255305311448950939e-03
-4.514934156833913005e-03
-2.286528993418275070e-03
-3.362966629006465622e-03
-4.414873529314890244e-03
-2.540223466424231143e-03
-6.261481996296168560e-05
1.231321418626825761e-03
3.819475181050516720e-03
4.795525713454507413e-03
1.775756551031266485e-03
-2.175792501842401579e-03
-1.601969266079763003e-03
5.193965168511774887e-03
8.701780368067577390e-03
4.175787025518056667e-03
1.435508803998931503e-03
2.085455108421222902e-03
-2.249935730995814443e-03
-5.613033224596455061e-03
-1.931964365184630139e-03
1.181056901051219413e-04
4.733279610289504872e-04
-2.826091797815344039e-04
-6.429675198604814165e-03
-7.063175986543946024e-03
1.500446463674504505e-03
8.111435159110563439e-03
6.881945048996249321e-03
1.070632822307262177e-04
-2.409102157767178867e-03
-2.231974761024285974e-03
-4.803964271843056723e-03
-1.239395207961545677e-03
4.183291031552249968e-03
1.561503170845136108e-03
-9.440647383365426137e-04
-8.473935469254824382e-04
-4.606875480792881061e-03
-5.179276917240615077e-03
2.077501060870236196e-03
4.090647616615612943e-03
9.592642226406236389e-04
3.831986981758195255e-04
-2.777097924925001678e-03
-1.896553716324614466e-03
3.805866136284233661e-03
4.190679901142207835e-03
6.090348676399081479e-03
6.217567219919815230e-03
-1.498822295318710373e-03
-7.334348634921454037e-03
-6.199783982330992968e-03
1.721737984180334762e-03
8.209647707956249651e-03
7.920146304548597582e-03
3.221733380527272948e-03
-3.168839378346454110e-03
-3.437053832049289954e-03
-2.675265824588347711e-03
-3.505702077651443732e-03
5.361134312475803517e-04
-1.426043361805002943e-03
-9.158369651950137511e-03
-9.006579547566838026e-03
-2.502569001732209922e-03
8.532150511970101143e-04
7.081450254034719460e-04
2.608803684243273403e-03
-7.084888785301097277e-04
-6.460111495969149582e-03
-8.727022468924195558e-03
-1.644136649982131868e-02
-1.529145684486159749e-02
-7.094550102220931404e-04
6.962173294035902717e-03
6.747506713271180304e-03
3.135461845701291092e-03
3.159770424329449729e-03
8.967311090459008718e-03
1.317566537525409476e-02
1.654570588248249416e-02
1.321525831306002291e-02
6.634754012904845247e-03
7.536523612324963137e-03
8.992806595311004375e-03
9.767678729596381698e-03
8.559822696385303506e-03
-2.237859141238608945e-03
-1.284170713223185475e-02
-1.630950254997464224e-02
-2.245857973760946591e-02
-2.281920575277304741e-02
-9.013373942651947690e-03
-5.351213786595600350e-04
2.308604139924443251e-03
6.549920344052351587e-03
9.610943056897724643e-03
2.096246585435161680e-02
2.980170409728349901e-02
3.131309534732726330e-02
3.113163857402306833e-02
2.456140387243476580e-02
2.209434476760459634e-02
9.299267527476300435e-04
-3.171149617980953406e-02
-2.393846434400909162e-02
-1.383928565858716549e-02
-2.617313369122121341e-02
-3.274288906746406630e-02
-4.450304656147650861e-02
-5.510858907359570541e-02
-5.557350753275761696e-02
-4.593377539794285536e-02
-2.404651227811593558e-02
-9.020520803722127667e-03
3.521527522327060067e-03
1.462263554617400374e-02
2.171374877599559217e-02
3.741202487693651851e-02
4.295582708212043743e-02
3.679968977231060784e-02
3.228187154204091580e-02
2.122962703035056325e-02
5.988003127954198875e-03
-6.981565876119694494e-03
