-8.662671151419838733e-03
-2.489826289570212098e-02
-2.447476280891550809e-02
-3.393228677627415507e-02
-3.561710712271347334e-02
-3.259978724869692923e-02
-2.228953104801704305e-02
-3.615766501334096925e-03
1.138950657720936427e-02
2.147164456365423246e-02
2.931410654296479762e-02
3.852360622703496912e-02
4.082050222902020020e-02
3.744264293950193973e-02
3.573615228732977128e-02
2.905561701219360957e-02
2.016843311214465764e-02
5.197864372154747080e-03
-1.010552962151874817e-02
-1.002952360285857929e-02
-1.355401321527736035e-02
-2.601401861202385507e-02
-2.983908851863101286e-02
-2.705622529026412496e-02
-2.318681152968095349e-02
-1.928055161049925179e-02
-1.090806075629762589e-02
3.574188201117728652e-03
1.173469462047884403e-02
1.072361985631723608e-02
1.248881861753384746e-02
1.809670644619710417e-02
1.930913656907945475e-02
1.739677236268116420e-02
1.355919766595766775e-02
9.407896526164574377e-03
8.704251969144718992e-03
2.042284605732762673e-03
-7.930657215666337898e-03
-7.251799547591573393e-03
-2.469778269743658130e-03
-3.898133805452520459e-03
-1.083048244813301399e-02
-1.382922848938114221e-02
-1.115582625236805417e-02
-1.245117293636316402e-02
-1.079360551604749939e-02
-2.653545487874892604e-03
-4.126755629739863734e-04
-2.081281759949290492e-03
-1.084968953119582781e-03
-5.670391880893059337e-05
-6.463632068994224584e-04
-1.061477447771241433e-03
7.099853034641511601e-04
4.473824185612576901e-03
5.484700104832000191e-03
-6.619397913755831805e-04
-6.064569021723560140e-03
-3.306632100816387677e-03
1.384847302329794694e-04
-4.585155360816345381e-04
-1.116379624985746775e-03
-2.303133751310916652e-04
1.322349598190921934e-03
4.300865320485518402e-03
7.132090563067374628e-03
1.022804317138620821e-02
1.404780590465208416e-02
6.435634957155558777e-03
-7.596914500573707235e-03
-6.383331185626090788e-03
1.860098677372242632e-03
4.192291840246270031e-03
2.630269969670629565e-03
-2.101947753130327910e-03
-1.903891097836033983e-03
4.985402206448012654e-04
6.923800859069070574e-04
8.304452781437232992e-03
1.075866953614454738e-02
2.227844323487783527e-03
1.038891030349855561e-03
4.789270437498602652e-05
-6.737174454122361530e-03
-4.212883276754842733e-03
2.111548522810738696e-03
2.426513902541731389e-03
2.654259758243706930e-03
1.243784255248996584e-03
-4.423219263556866371e-03
-9.761646079450443311e-03
-1.375354051527124741e-02
-1.407807714784569016e-02
-7.462148331717119096e-03
9.856004175046843580e-04
1.430826297191578047e-03
-2.376929424094340656e-03
-1.033505199072992349e-03
5.848644032502704586e-06
1.946934387395492195e-03
4.784908376117280593e-03
4.944368378263032425e-04
9.970440461968353013e-04
2.579003487734124640e-03
-2.725502793908260186e-03
1.740409543510768780e-03
7.211865999052302287e-03
6.620394240492281403e-03
7.019737878155954056e-03
5.271513259434866192e-04
-2.687624358956985232e-03
1.476100893415251006e-03
1.035377160148575910e-03
5.259419337749679773e-04
1.663208939332921346e-03
6.284913795113058555e-04
-2.763244476246716746e-03
-3.357406521188519705e-03
-1.045074789326887492e-04
9.799779399054513607e-04
3.065596860575847422e-03
2.734489110259048089e-03
5.117241278362817843e-05
-2.528128441257383751e-04
-4.043781027444066749e-03
-1.748155555385682691e-03
3.840695838306496142e-03
1.468675358733650439e-03
2.674149945566926204e-03
1.991041246643736502e-03
-3.817218808877345573e-03
-2.563600202958218020e-03
-5.122850812758802507e-04
-2.200708090113686483e-03
-8.273945361650849456e-04
1.564792300293196955e-03
-3.923355397714231238e-03
-6.230047827960002484e-03
2.715191269368267320e-03
2.722830437253511912e-03
-2.496231838487044351e-03
2.303160933320975903e-03
7.303782607520487892e-03
3.108747183021424217e-03
-3.118211829607214595e-03
3.013396531888523459e-03
7.024104465724537042e-04
-1.725776873353597474e-02
-1.096253268977320089e-02
4.072557409515402578e-03
-4.973648179637214176e-04
-3.320150863266227610e-03
-1.783141841305725520e-04
2.984942563054934252e-03
3.759461989429249869e-03
7.650112289741846762e-04
-9.153567430862339120e-04
-2.299666743074732511e-03
1.804968556632463757e-03
6.138202961816449990e-03
4.110242949631966874e-03
5.562231789397456203e-03
5.705707399448992079e-03
1.762969339099617174e-03
-1.458866886510388388e-03
-1.851151540250337187e-03
4.085822421390526878e-03
5.455807529230483240e-03
9.726899685940234522e-04
-1.631313730708564523e-03
-7.101362578869389874e-03
-8.860186416139890705e-03
-2.994324569913597248e-03
1.044925734068164911e-03
1.212476568388583904e-03
-2.557121871200129272e-03
-8.028692520003351610e-03
-8.214636348761295004e-03
-1.418552334759695666e-03
6.092037045922657837e-03
8.581367776532558209e-03
7.480362913409043663e-03
4.586321386503573912e-03
1.411258617501806069e-03
-1.494788547202823784e-03
-4.238746716970795067e-03
2.410805119959937189e-03
1.541519979194247783e-02
1.169892477733538300e-02
-4.108140804991614742e-03
-8.882448238638996837e-03
-6.493219336651292507e-03
-6.757590887759320868e-03
-8.354289143843333931e-03
-5.583871053081730651e-03
1.725213000748330614e-03
9.796470796787257965e-04
6.288040043371957016e-05
7.066406112524071560e-03
7.372243431642595476e-03
8.806426907415863814e-03
3.685691473265756933e-03
-1.952027089780973210e-02
-1.880091631087617635e-02
2.051152180319098291e-03
3.526357705676740062e-03
3.267517881024798853e-03
6.497431482954448695e-03
-1.853216169186089270e-04
-4.301825708463042144e-03
-6.956598642112768807e-03
-1.205885667066675451e-02
-9.256916820582682115e-03
-2.146174841732234086e-03
4.493680040610169963e-05
1.848451728713729745e-04
1.339117162206189364e-03
-2.285625645758303389e-04
1.024331950370836351e-03
1.077751453110573771e-02
1.680343941909463040e-02
1.356365702971002764e-02
1.003000835525182273e-02
9.204826498106657637e-03
5.821479944014041480e-03
1.764629883322656157e-04
2.036468440335800854e-03
7.565613341870059717e-03
6.514505162644986316e-03
2.790234555183092584e-03
-6.320651310790288300e-04
-3.788934626865406575e-04
-2.818722181441283723e-04
-4.628905369457505387e-03
-1.595588956048672518e-03
-2.607317645951255647e-03
-1.235721035139154649e-02
-1.084616225644657525e-02
-9.316372628165411895e-03
-9.222670795654986861e-03
-2.430948229090206490e-03
-6.687368506045627235e-03
-1.651855150673374462e-02
-1.973288611536035825e-02
-1.679896884260830697e-02
-6.045518169914390443e-03
4.835884043541079959e-03
1.121278403473180071e-02
9.930276893928533660e-03
7.275169039798697924e-03
9.656892020957305589e-03
5.346490595103507888e-03
2.087273942948720141e-03
3.069439709846492979e-03
1.106389262371119779e-03
6.751459879992155987e-03
8.634701937302655464e-03
1.571686440586800857e-03
8.381092871388496658e-04
4.160624869407128675e-03
1.071191200866832005e-02
1.378308012841680287e-02
7.715959386409130920e-03
5.978727862119591948e-04
-5.630861288418782806e-03
-4.552615505308821135e-03
8.094107639150115337e-04
2.015228228434017780e-03
2.307439016515419779e-03
-1.443819876564362160e-03
-5.026842330841700505e-03
-5.965649785227063011e-03
-1.180461084059915115e-02
-1.409695520117196579e-02
-7.217343779922543411e-03
-1.005784460682969438e-03
-1.057498404878064700e-03
-3.052001294556510626e-03
-2.339254826526260007e-03
1.584371422524928456e-03
6.237008467707054124e-03
7.170718721556937000e-03
6.651529257623060680e-03
3.685714501723109330e-03
-2.444715252263049941e-03
-1.984869692146454950e-03
6.800621296678871540e-04
8.881356821754966130e-04
1.508045051434752032e-03
-1.664420645934177462e-03
-2.467702602248798577e-03
-8.548524203346682428e-04
-2.667469990906512229e-03
-3.077453433721404671e-03
-3.264660817973317510e-03
-1.864531241247239851e-03
-6.734757364142468419e-04
-4.592740019733175701e-03
-4.360563502304959371e-03
1.471961868502676390e-03
7.493709588861518882e-03
1.038973593318705778e-02
6.376044638306287149e-03
1.372262796684705797e-03
-1.512440644562093031e-03
-1.693505779723957156e-03
5.382169358740578925e-03
1.014117272550091146e-02
4.519298717324001131e-03
2.083174565207787719e-04
8.619457545222866928e-04
-1.534950727070723492e-03
-5.205831004121829787e-03
-5.861606774877577142e-03
-3.381090224660067249e-03
-2.797087098543056712e-03
-5.405968885621958292e-03
-2.763564873921803451e-03
-1.564994576982463759e-04
-1.125074596016496786e-03
1.777003878448977711e-03
1.925602533966206103e-03
-9.788142834799423708e-04
-2.124048697227591109e-03
-3.630585367196311527e-03
-1.423280499420003040e-03
5.425859640893380791e-03
1.257421857448214053e-02
8.967354111573910130e-03
-4.321993588457953908e-03
-1.015603814199533481e-02
-1.086172163062965219e-02
-7.941785213675693275e-03
9.032487060359097996e-04
7.826071733014316328e-03
9.051258386509922552e-03
7.964006629771167326e-04
-2.747582717689901147e-03
4.093616795715352558e-03
4.834201202847387101e-03
5.306405810625686517e-03
7.184401253024373137e-03
6.935474996077693050e-03
5.601832980031673168e-03
-1.240013498236970223e-03
-7.875014816812837479e-03
-1.944790381932787540e-02
-2.080352969567057092e-02
6.338340749662441532e-04
5.622167288097802522e-03
-2.818848206945150786e-03
-2.965520296388564434e-03
-4.023019725488309259e-03
1.129241326862932132e-03
5.833501755047836371e-03
5.427837343653909609e-03
4.326867888140866272e-03
-2.973186794695838273e-03
-2.391723313344595175e-03
2.749023225645136435e-03
5.107062353513969720e-03
9.601392918608651211e-03
5.764133163646696298e-03
3.699493814810727449e-03
1.477426826558269094e-03
-7.979873698301172269e-03
6.094949804386288594e-04
1.143702041976276534e-02
5.582517639144232713e-03
3.600997508662500887e-03
8.820982872220703430e-04
-7.872384818840984233e-03
-1.179734304346361819e-02
-1.042431501538159007e-02
-5.284483826400115415e-03
-3.597535638355940819e-03
-6.174771272043139657e-03
-6.213857909357559453e-03
-8.186018244760052270e-03
-9.445031955734484175e-03
-4.535980117021175088e-03
9.780983787052851749e-04
8.514767946605975371e-03
1.454745443344506589e-02
9.360826293351642499e-03
3.045946777926852173e-03
3.401374884189949533e-03
5.356230452567264065e-03
8.393035659566108406e-03
5.386587934782064227e-03
-3.285577356144479821e-03
-3.755531845624309611e-03
5.591767267208729193e-04
2.246999847780688491e-03
1.573315204893060894e-03
-8.496242836794697757e-04
9.994554266069919247e-05
-8.726548792087958795e-04
-4.924404083403873499e-03
-2.957464507092444350e-03
-1.984498525067842408e-03
3.147501436324130720e-04
8.141963898929452034e-03
6.156473474634474065e-03
-3.270093715475707284e-03
-8.365215561866484392e-03
-4.131832026684319030e-03
6.966210773501058801e-03
7.568736220746796230e-03
-6.873932953296228547e-04
-6.047025043140328258e-03
-9.874088082276714570e-03
-6.521302966929164863e-03
9.167961860173242609e-04
1.282103708440942994e-03
-2.128687236595651691e-03
-3.121588003478297738e-03
-3.733066692840719420e-03
-4.512638480269377458e-03
1.202346675219259598e-03
4.321492018076720371e-03
1.098791006974727223e-04
5.772142655680886393e-03
8.504945514264380946e-03
-5.497492384744274291e-03
-1.262540900695372816e-02
-2.982971738545439275e-03
9.587865090847825025e-03
1.004196431687940684e-02
7.995444701050027914e-04
-3.689679002687766638e-03
-3.590815684689323706e-03
-1.621382933475485266e-03
9.925044490144228210e-04
3.399235891888878740e-03
5.824148292619344899e-03
1.798543661991502084e-03
-2.394119657898763354e-03
-3.458902376263085603e-04
2.310105610572754480e-03
6.918175442545696635e-03
1.018940042217313796e-02
7.452608768839482853e-03
1.781755632991994208e-03
-3.523060550087211626e-03
-5.211640725850208086e-03
-5.354689941797891560e-03
-5.936769254977154568e-03
-6.113810452759656927e-03
-2.655381451084685290e-03
3.840640955999435630e-03
2.786752752931502281e-03
-1.622058469774126724e-03
-1.944818942118369713e-03
-1.492980652793056678e-03
1.557469627319591366e-03
-4.464493642711671794e-04
-7.682322394045861154e-03
-7.854656810336176423e-03
-5.582569051545038970e-03
-1.986216170428684036e-03
4.660835381061965293e-03
5.746153897311023599e-03
-6.158494933441475624e-04
-5.688910309402040594e-03
-1.206154265926395866e-04
6.329371566432086434e-03
5.537123950669940037e-03
7.099736573562216539e-03
5.058320553862426239e-03
-2.453327083010203250e-03
-4.102219824722107278e-03
-6.105658019241843280e-03
-8.029933218512419479e-03
-1.055915624446972798e-03
4.925322045818841983e-03
2.408058884700520989e-03
-2.948200856235250449e-03
-5.617366894723866549e-03
-1.094931474408206238e-03
6.386996141614640840e-03
7.705000906438201451e-03
7.160877886515577481e-03
8.441368955043174194e-03
6.643729731582843911e-03
2.700180616821150521e-03
-2.187331408776601585e-04
2.424703176584023720e-03
7.835753312870832529e-03
3.771343519386114763e-03
-5.340128566801360596e-03
-8.212596425839342046e-03
-4.813500888712149949e-03
-6.527527075836646623e-04
2.085520365291312060e-04
-3.072809053278042048e-04
-5.398647225706389684e-03
-9.943327995928235782e-03
-4.902240101148206547e-03
-2.975386277876696916e-03
-2.816734620137757977e-03
1.856136572209917020e-03
-2.110724275126470021e-05
-2.253915293836760260e-04
2.363527654236960429e-03
-2.239312849635332822e-03
-3.663104186989604282e-03
-5.021759363149852842e-07
1.126274169179558408e-03
-4.371903183139720303e-03
-1.165062844389891210e-02
-8.089148081053609135e-03
-4.885392874730489117e-04
3.992502476524133724e-03
8.903406045582710343e-03
1.033482336057279724e-02
9.263927522426036384e-03
4.668229821747077804e-03
-3.018890943081486370e-03
-1.496170006975305108e-03
5.004506594985278639e-03
6.183670540965965218e-03
5.824134234450185736e-03
2.695303628985092764e-03
-1.841516825805619706e-03
-1.688498524179171071e-03
-1.452348225624092767e-03
1.671704508585392318e-03
7.389342997325105446e-03
3.750294758446741979e-03
-2.036182429018140120e-03
-4.691211335248858874e-03
-6.686589142685895812e-03
-2.460167174860520244e-03
-8.388870345489190302e-04
-2.936334371889535739e-03
-2.371556794961897016e-03
-6.134673278109400302e-03
-6.570329456387340866e-03
-2.857071957276956144e-04
3.584316586904009918e-03
6.750639187495117641e-03
8.711018576544760778e-03
6.873826680521655068e-03
2.008804502709614706e-03
-2.779959089502114411e-04
1.347500297092453026e-03
1.160686605976131219e-03
1.736718705183137087e-03
-2.299300398185671283e-03
-1.116617154489496673e-02
-1.239443812996417205e-02
-9.174406512269720967e-03
-5.213198991112861537e-03
-3.868350628065165414e-03
-1.983681489994248027e-03
5.860627976745684531e-03
5.917033996732532809e-03
3.967071589614163014e-03
-4.072186928219035155e-04
-1.588362377645021958e-02
-1.325611303023173197e-02
2.986620374526065703e-03
8.757314817923869676e-03
1.049655181896647430e-02
4.369301698068916821e-03
-7.013448559169646764e-05
5.909957278876110977e-03
1.011446511047945154e-02
1.125822738593952946e-02
4.000129779274019283e-03
-1.932631963062429476e-03
2.767625621097751041e-03
-2.067509844692319489e-05
-3.120702607963348873e-03
1.260925726218328725e-03
-6.886371149238647770e-04
-2.981876150476675449e-03
-1.689274223689051163e-03
-4.282847221655488451e-03
-5.261365697456641538e-03
-2.365039079879398222e-04
2.715377760269557968e-03
8.641437004066694540e-04
-1.545584081688137395e-03
-5.474229914163816421e-03
-6.605557868961568248e-03
7.072012922828512091e-04
8.329988051268121668e-03
8.103438043318795733e-03
3.596348493085510002e-03
-9.196104981671760891e-04
-6.040596390686225198e-03
-5.902231052160534543e-03
-1.550180866680602679e-03
-2.202788400913166609e-03
8.393192810845119675e-05
3.509766604783547562e-03
-1.777387631311940722e-03
-3.278555910858812691e-03
2.432485511883557966e-03
8.308483325640953626e-03
1.199835962686103541e-02
8.826633209964549615e-03
-2.510438914544227060e-04
-8.366422725270898988e-03
-5.885199489770598022e-03
-1.156372691220478770e-03
-3.565543383110447891e-04
6.462323368408670610e-03
-5.419232146044518014e-03
-2.882138244184946282e-02
-1.891316079497598612e-02
-4.559830030495565234e-03
-5.686326691312794564e-03
1.478599097146677133e-03
5.996765054163958296e-03
6.342395117500568107e-03
7.117809773017037649e-03
4.447331992471432842e-03
8.747481851148548870e-03
1.052864130537270460e-02
4.360397807427004828e-03
1.499199075720091543e-03
4.136495222174210902e-07
-5.053317536462416902e-04
-7.225635362013658200e-04
3.473149373612305184e-03
1.286419086958262396e-02
1.150583379811950281e-02
3.675279467316986369e-03
-2.216954007001054397e-03
-7.549267741936677156e-03
-3.376726340734325336e-03
1.218741730532272444e-03
-2.751988962338395087e-03
-4.484031844087586587e-03
-6.836927578500777251e-03
-7.644470005608365766e-03
-6.128478633314411901e-04
1.859813656806955703e-03
6.220519750348073263e-04
3.203804725119985090e-03
1.181907077890321633e-03
-5.979282086230877299e-03
-8.069886314915328263e-03
-2.338586333444725093e-03
4.612318922205965906e-03
6.201093800492329944e-03
2.412342851936377826e-03
2.232126326589866988e-04
2.871213253135106690e-03
2.307219040404114192e-03
1.315955781567428886e-04
7.130601068204952186e-04
-5.290749866245832850e-03
-1.075671930509521264e-02
-6.576057685708313651e-03
-3.452053855547823624e-03
-1.372572584533909195e-03
2.314870085661588622e-03
3.622839165054357862e-03
4.529113653921962995e-03
4.407179399807603475e-03
2.024688079722125351e-03
-2.411796183940090061e-03
-5.322383334181343163e-03
-9.087328142981321646e-04
5.188397088260587181e-03
6.849204195344857707e-03
3.713672585909633637e-03
-3.710135082152026323e-03
-7.751098799064316987e-03
-3.317729174911757117e-03
3.435704466610596010e-03
5.424400981141849418e-03
4.227958097287853531e-03
2.140363448143485156e-03
-2.995297343525928253e-03
-5.652971449891985335e-03
-1.133394723467023944e-03
4.929420013582729888e-03
8.472025783492079590e-03
7.327499804991204242e-03
1.512301940504257557e-03
-3.111419603871399316e-03
-1.725334794391805400e-03
1.032559147386930302e-03
-3.364014685546715231e-04
1.002020742983241938e-03
4.601860586249096295e-03
6.617204692611935698e-04
-4.311362487888071963e-03
-5.628632881255785092e-03
-8.797542843790206318e-03
-8.283868615085661011e-03
-3.879090945839226787e-03
-4.173868047914623507e-03
-2.580587070526574236e-03
1.704096176556558432e-03
-1.308544067705124520e-03
1.631805350464111569e-03
1.245398578084064636e-02
8.805602550580524795e-03
1.739199671687359245e-03
1.924604939978926624e-03
-4.715527414838532189e-03
-5.601912480873421502e-03
4.599119082176789282e-03
5.689851051917850337e-03
-2.256940395715597040e-04
-4.773667281461828338e-03
-8.086604477042456593e-03
-6.104482911885955251e-03
-1.056817922567310350e-03
1.606397830465587000e-03
1.196534142529110441e-03
-5.668879117923417924e-04
-2.411863402117205187e-03
-1.621990294330161175e-03
4.605729862121307749e-03
9.052579031836949577e-03
7.696225928217632212e-03
6.193202723517528957e-03
2.982639899442245546e-03
-3.911173652966443495e-03
-8.796712115623099570e-03
-3.841277506061210011e-03
4.979929491192309175e-03
3.307814437726065530e-03
-2.643986452418929005e-04
2.231537835976445854e-04
-1.145749120533421945e-03
1.557654814573861818e-03
1.584351945215120485e-03
-2.092978120232728400e-03
-4.982844476808399783e-04
-3.356896523321991482e-03
-4.145511128712581553e-03
1.157066538868592107e-03
5.708090415683948066e-04
2.908592089548489058e-03
5.920390610016446412e-03
1.375690361514375236e-03
-4.375682571412531537e-03
-1.155430829975606991e-02
-1.263794658852240849e-02
-4.631626876650762198e-03
3.275398382184059251e-03
6.478142664410090415e-03
7.112555502373572435e-04
-2.327035204262670881e-03
2.364259258555381597e-03
1.048261959693557463e-03
1.361298350780798224e-03
4.232183994640007982e-03
-2.542956509779364851e-03
-6.636965763734479183e-03
-2.129819916174654180e-03
8.171729545461041758e-04
2.351040268998207377e-03
5.354383921405250595e-03
8.571769410281530888e-03
7.298029213998324417e-03
3.212780144673308639e-03
4.077197757278535305e-03
3.571269760185024917e-03
-3.067269454012971821e-04
1.479775720449898321e-03
4.235446329506536121e-03
3.470012288207958116e-03
7.897094712562210961e-04
-2.537116246472783873e-03
-5.025950387625217897e-03
-8.807533678807271879e-03
-5.327389487388083100e-03
2.355445156777477133e-03
1.087717811640384656e-03
5.405033531822667561e-05
-8.146684847489382014e-03
-2.061036796352881326e-02
-9.171418725428957114e-03
4.533892975669324282e-03
2.571952695838498112e-03
2.905109384297604493e-03
2.905268941729973430e-03
1.932897453332442375e-03
2.349619187512637201e-03
4.822606561593130621e-03
1.158297725696091213e-02
5.816200778275602487e-03
-4.999006077395107966e-03
-2.818701019670873283e-03
-3.971707842244155164e-03
-8.966725244089659985e-03
-4.131089647602411916e-03
-1.357942174485033575e-04
-3.763910142773958974e-03
-3.752758931203161591e-03
3.946371097886026275e-03
1.076586526765235807e-02
1.162146478511992022e-02
6.661301169487584238e-03
3.795466488656485228e-04
-8.357954476162130462e-04
-1.074475650047948061e-03
-3.447786422388382944e-03
-1.196324408944747118e-03
5.259616933892530093e-03
7.518982924880148605e-03
3.304787844245578830e-03
-3.745935198631681565e-03
-1.085368837835736996e-02
-1.227716179577635972e-02
-5.633618501359747947e-03
9.155513347468217499e-04
4.113066961058490026e-03
2.927344725743685760e-03
-4.515745418019304763e-03
-7.125011333885352197e-03
-9.233552513920043796e-04
3.991285640587521194e-03
6.023088907012187805e-03
6.095729004296557285e-03
4.664893410316903535e-03
3.009502372837485114e-03
-1.918948132280452181e-03
-4.148929398066477335e-03
-9.888927789909577899e-04
-1.467376565729239333e-03
-2.763543040437606638e-03
-1.042542493091035052e-03
3.213200943635923998e-03
6.852941172857405019e-03
7.443731476646287849e-04
-2.160819552594816281e-03
3.247182794873974300e-03
-4.595063145349707022e-04
-4.676106256284092225e-03
-3.454390457950680306e-03
-2.981476854976610608e-03
3.291220461552619991e-03
7.987314893930865661e-03
5.748161030430965802e-03
3.334792333594057811e-03
-2.059316758828051881e-03
-7.771053965812426551e-03
-6.912579765715140892e-03
-4.787154444789999165e-03
-4.181069323864397037e-03
6.003359143734393957e-04
2.616641127167654724e-03
-2.655431206102528904e-03
-3.819509800742290628e-03
-2.288875093384780163e-04
4.543860151528215582e-03
4.364190597873282562e-03
-3.194236925233429839e-03
-4.856826931202177719e-03
-6.055145286028166055e-03
-8.362391728645774194e-03
-8.035195782700710852e-04
6.984896614143528554e-03
1.204473380730223392e-02
1.133729486879764964e-02
4.454737167290437859e-03
3.558073906050708123e-03
2.610245089989308293e-03
2.783984144660476071e-03
5.990519389884713629e-03
3.345370672064123391e-03
-1.919967852345562474e-04
-5.160345266620603409e-03
-7.055809410314416684e-03
-3.164396762580207623e-03
-2.166336152827108650e-03
1.510682102782093933e-04
-1.788003601789497823e-03
-5.456038484390999393e-03
1.052637828660548096e-03
5.720736011734781253e-03
7.341558856793527384e-03
1.061723044314026240e-02
1.112960232247273140e-02
9.865946331727465379e-03
5.297063396015830664e-03
1.562242999488562588e-03
3.307981609913662204e-04
-3.608384336392477312e-03
-6.874213276655556648e-03
-6.342983259318373153e-03
-5.063765771248214184e-03
-6.813624116970298794e-03
-7.762698927330211052e-03
-7.525577304311023737e-03
-8.424615476384117799e-03
-5.737373027619377744e-03
-6.586440864618329019e-03
-9.200959458465355831e-03
-5.235319860945341491e-03
-3.538732822991936915e-03
2.875780231224605958e-03
1.465846577460865052e-02
1.495107458606946549e-02
9.454403171849787985e-03
7.147511636969904394e-03
8.536057668450933167e-03
9.309993396889376313e-03
6.348780823257636589e-03
6.903388579718480571e-03
4.208073381806487143e-03
-8.678981440477233356e-03
-1.924104430312044076e-02
-1.919313965489149315e-02
-1.676461136534351457e-02
-2.069027784334055015e-02
-2.077727604795140057e-02
-1.327204266671834498e-02
-6.803771279407400986e-03
-2.731634300993874068e-04
6.089672786889448533e-03
1.659047189148676535e-02
3.078840217652755590e-02
3.622715471447180563e-02
3.689845541576736859e-02
3.707449073483073260e-02
3.193272041121265198e-02
2.899287723959135393e-02
3.276973548639444678e-02
3.196453065640054297e-02
1.976918734463576494e-02
-1.132049853044474023e-04
-2.373926625519676842e-02
-3.935232798384580982e-02
-4.616675809180955520e-02
-5.836526344686322754e-02
-6.715361599807784243e-02
-6.552193722234239681e-02
-6.166711885114369712e-02
-5.082336944884811858e-02
-2.828583929577896047e-02
1.948324775434971635e-03
2.207463905505866950e-02
2.076297864589599779e-02
2.173613954893379926e-02
3.470601780318160329e-02
3.767416696816674321e-02
2.645794403930377611e-02
1.003279691702669944e-02
-1.363379224453128633e-02
-2.994076068000012594e-02
-2.270350414593993657e-02
-1.504511639711180078e-02
-2.018794980013162085e-02
-2.710361238114587790e-02
-3.203828683696974267e-02
-1.864267873966691039e-02
1.057747416689528222e-02
3.061336780765043855e-02
5.379741952498277163e-02
7.741225027370055023e-02
6.746011060658685388e-02
5.860572489695693027e-02
7.415977488741681833e-02
5.545928911599763006e-02
3.031161650094650259e-02
4.438684226510301173e-02
3.310580043427312907e-02
-4.996676219788990202e-03
-3.038492839853056474e-02
-3.843395367050939093e-02
-2.086771203114523923e-02
-2.435489201584013774e-02
-2.692178663526049662e-02
3.687032039096942160e-02
9.441643694640437789e-02
9.527643990190193257e-02
6.703789202921241197e-02
2.732039150946346737e-02
-8.172207679568498171e-04
-4.352053197846229154e-02
-1.454680789165203880e-01
-2.555727479190399998e-01
-2.833806949883654336e-01
-2.491505811662847458e-01
-2.032037044469836296e-01
-1.359400675662650326e-01
-7.865466191115673411e-02
-2.861979841042112255e-02
2.875448431526806195e-02
6.772174515709820930e-02
1.340745313567596186e-01
1.888406345988648538e-01
1.820851122512051057e-01
1.754301514817760699e-01
1.372564313963563487e-01
7.373171023143529346e-02
3.950498169340509874e-02
1.794498980083897993e-02
2.925138912968178184e-02
4.033659462989943462e-02
2.192343946352904790e-02
2.366608770775429152e-02
4.812505364498722432e-02
6.632966719736002603e-02
4.692993475757228222e-02
3.305331188300381084e-02
6.063704496692661622e-02
6.075919134424683649e-02
2.449344874031958788e-02
-3.287140700639188534e-02
-9.485506614252041391e-02
-1.180818887601364220e-01
-1.102459481932743374e-01
-7.175890379522500973e-02
-4.987500095668422756e-02
-7.940626727148170083e-02
-6.358750856491124370e-02
1.820103644589420033e-03
-2.425166100959821533e-03
-7.587658896694084165e-02
-8.611966231831287566e-02
-2.292927970916633015e-02
8.425201824251687954e-03
2.956743518969175491e-02
4.380618332463457471e-02
-1.046729593891987907e-02
-6.484214550936191757e-02
-6.481486992909624156e-02
-5.055143697924698032e-02
-3.017660719142245193e-02
2.020757731444853059e-02
6.176460537853797200e-02
5.893067069942929670e-02
9.014098463819368579e-02
1.266657676658490550e-01
6.461761370709863395e-02
-7.211846938916927768e-03
-1.154192071743748507e-02
1.371591145808878122e-02
4.376877283930899476e-02
5.882872899636913677e-02
6.682579366798542531e-02
6.621744193005711654e-02
4.992291657253809106e-02
3.544093237063593999e-02
4.098062872868324033e-03
-3.713316835547295774e-02
-5.491195214358437354e-02
-6.274557833888787239e-02
-7.612632105353721312e-02
-8.218104325878615446e-02
-7.159132702494842848e-02
-7.075692362408256275e-02
-7.257584528463031925e-02
-3.381765450616510543e-02
-6.359283324308978406e-03
-2.745583437442807029e-02
-1.235696126655473279e-02
4.410746145124844891e-02
5.225504141241320288e-02
2.579763284485178665e-02
2.362780288511141108e-02
3.361349197382230980e-02
4.330090223377836001e-02
4.955524206696355904e-02
4.136826270743592521e-02
3.499960634522927133e-02
3.422050416711600734e-02
3.100143253500083768e-02
2.632984366509458218e-02
1.236462978397408034e-02
-4.564102550793690607e-04
-6.427124435479113045e-03
-1.713496743363607591e-02
-2.492935920890288967e-02
-2.680697675025980539e-02
-3.307573029699359402e-02
-4.649764406727016630e-02
-5.233806368057626612e-02
-4.736845626777454882e-02
-4.952443384476835214e-02
-3.808746696971950646e-02
-1.254268854179563068e-02
-5.499491666383099324e-03
1.809059667973030722e-02
5.523229245344603300e-02
5.082550492043780982e-02
4.017733681966608600e-02
5.042057665794457549e-02
4.068060457903343446e-02
1.050324243164296734e-02
-5.753287235838604879e-03
-1.095392010486828313e-02
-2.967392053174829764e-02
-3.570808275977179619e-02
-1.886161946198344416e-02
-3.027593142963380668e-02
-4.555176422625756283e-02
-2.574558904557919942e-02
-1.417246285788841854e-02
-3.505057244257171137e-03
3.382135297565536103e-02
6.400636522312594390e-02
6.506611421481141300e-02
3.913011370970378294e-02
8.172371929284152556e-03
-1.263637039702088585e-02
-3.721240848134707568e-02
-5.694578662131115354e-02
-6.398226348340700642e-02
-5.464449395534565213e-02
-1.835011935124238394e-02
1.713594438772875553e-02
3.868193449245614646e-02
5.462266073114835363e-02
5.123706828389516105e-02
3.836421335952411305e-02
2.485963031398681633e-02
4.237786447822099178e-03
-6.910663294336179610e-03
-5.398510435167591659e-03
-2.491955827270508732e-03
-1.606253706868135400e-03
-3.948309891242298385e-03
-5.710916615084649789e-03
-9.640218326821398814e-03
-1.089324027201118116e-02
-4.981141339506416597e-03
-6.551098672182931702e-03
-7.969741849182481949e-03
9.024914175410536556e-04
3.462416138564131801e-03
-1.541562194600322195e-03
-4.995035719669168109e-03
-6.765506602903393132e-03
-6.188030989959725919e-03
-5.971391510707358720e-03
-9.775864352624060588e-03
-1.600292878141899508e-02
-1.565452573535837388e-02
-5.092876234393389767e-03
3.602556349860651548e-03
4.305447004014002245e-03
3.289155337680895169e-03
3.561477289458387339e-03
2.899502529583178508e-03
4.236489638355477386e-03
1.078451353961750250e-02
1.390126267273537018e-02
1.264746730844927732e-02
1.214306606257443792e-02
7.879493925802647653e-03
5.101474255452875806e-03
4.812519922329126613e-03
1.795890837795793751e-04
-1.735723514588007835e-03
-2.343081590024442828e-03
-3.984604395483226126e-03
-2.777428088380184002e-03
-5.016590431047986826e-03
-5.508842041788408576e-03
2.019634075257125370e-03
7.770807638445323753e-03
5.924129376379375783e-03
3.646910227397356756e-03
4.119753271635897239e-03
-9.934923039003082032e-03
-2.790462284193496317e-02
-1.714984197061693305e-02
3.374120567433974358e-03
8.015615264923375144e-03
4.305208209288220907e-03
1.489663888483306687e-03
2.441249140385241996e-03
-2.702522528400900462e-03
-8.573885938851982108e-03
-2.200232089602376182e-03
-3.631647280693714149e-04
-6.113801424005653809e-03
-2.194631578468457002e-03
7.616576004909439077e-03
1.072396736862159250e-02
9.352516148769399532e-03
8.048152517382415813e-03
3.226994940605198720e-03
8.998497376896453549e-04
2.965733164247824887e-03
3.213920273499225322e-03
6.186628308818816445e-03
5.773263281810502717e-03
-1.751008893739713608e-04
-2.747504525509089374e-03
-6.332995670687020795e-03
-6.624947614209439339e-03
-3.044377744104196683e-03
-3.967257121518706631e-03
-5.001596163856049035e-03
-7.082414483433138556e-03
-6.989967862088408181e-03
-2.558115283122488256e-03
-1.482167080037354078e-03
1.423884138453920464e-03
2.307466719551875753e-03
-2.269782809370491771e-03
1.409067541826838563e-04
2.822358810591148095e-03
1.278906377666922647e-04
3.279696974225754236e-03
8.479036879489072406e-03
5.833471119765919199e-03
6.101704330461901011e-04
-4.355321471700514041e-04
-9.605559301752468124e-04
-3.602783392689179812e-03
-5.288490578999820169e-03
-3.333047083300290717e-03
2.237287483105353323e-04
1.266810626250792268e-03
7.555181887363177518e-04
-2.433612086350631434e-03
-3.951320441593744563e-03
3.640762024938830159e-03
8.181050900504541201e-03
5.097179079189409663e-03
1.784010689361016340e-03
-2.868657803893226443e-03
-2.900648557897156452e-03
-1.798495495537548059e-03
-2.114658729727891557e-03
5.955259143834773158e-03
4.909303650338838615e-03
-7.875944910570684132e-03
-8.294492622048550354e-03
-4.001797634733410443e-03
-1.979504571429602840e-03
2.452035949883046764e-03
2.150689453716979251e-03
1.243028219917973777e-03
6.749272728105863749e-04
-4.656458157745273913e-03
-4.852206102494220109e-03
1.960822222956275923e-03
6.327253252935308679e-03
5.472126170993237698e-03
1.203262784530576435e-03
-3.047921268036804434e-03
-3.863998303693245897e-03
1.865710359862831399e-05
4.066111344033999930e-03
1.866878734887094521e-03
-2.277060072754574088e-03
-2.295154067522643063e-03
-1.515773880037105895e-03
-1.037296641305392522e-03
-1.284699873614841750e-03
-9.525066790519235143e-04
5.810087705622585773e-03
6.758594955605631664e-03
-2.498900561810474957e-03
-1.566851831645011284e-03
3.939534834265746507e-03
4.098856609894591108e-03
6.923608838977275172e-03
5.959299123611388853e-03
3.370669027075712948e-03
1.364652401551273838e-03
-6.494221285113103807e-03
-5.711782461301051494e-03
5.693288559373326429e-05
-1.416449881882946623e-03
1.733013964100297037e-03
3.648351959350460381e-03
-1.569787191603958182e-03
-1.360979765865750167e-03
-1.284065358070397801e-03
-7.487258925049215287e-03
-9.305302136902430035e-03
-7.437202180313349717e-03
-1.105419770417413391e-02
-1.252862443658825375e-02
-6.517480522348760574e-03
-3.113036980798586893e-03
1.841733828110690176e-04
7.596980163288981000e-03
1.018897055632738378e-02
8.021248716413846569e-03
5.504210394123708328e-03
5.105371426107860842e-03
8.444170228221234420e-03
5.981076236083067259e-03
-2.432730517585374001e-03
-3.703939509798685747e-03
-2.284782620530458573e-03
-4.083908534127667252e-03
-1.742630314071621795e-03
2.802301003581047015e-03
6.224402722126157889e-03
7.370440713359839753e-03
2.256891994997141989e-03
7.473513583804937323e-04
6.038944944703921944e-03
6.913139905664090167e-03
6.173595654007768552e-03
6.219011115628038378e-03
3.019717107916591349e-03
-6.556557238572558160e-04
-4.035166685755055792e-03
-4.815573500601123998e-03
-3.886123601818506929e-03
-4.898451415604137757e-03
-3.608735937571126273e-03
-6.561248452930734144e-03
-1.251938407844957989e-02
-6.354581313591468536e-03
-2.907795899549287400e-03
-6.868018872163073572e-03
-9.170465079260889125e-04
8.242619032592002522e-04
-5.374964379789973212e-03
-7.803386579314407039e-03
-1.180785884944943187e-02
-1.102201039511539922e-02
-5.541403049123923112e-03
-3.553047232349824426e-03
-2.426884058887632863e-03
-1.045740283354359805e-03
1.429226902161838397e-02
3.523085521733014536e-02
3.012088719696508557e-02
1.126514652173803144e-02
1.146138668797840564e-03
-3.611042208977793908e-03
-3.208984290574539485e-03
3.177701133790808083e-03
8.593537515093375989e-03
8.659133102137018742e-03
7.506226795308832203e-03
5.479006900232779621e-03
-1.256109796059710383e-03
-8.189060002422893225e-03
-1.133781630670934598e-02
-1.238041669456951474e-02
-1.043290222590921232e-02
-3.820133742236225035e-03
-5.813881396721620309e-04
-5.562590737457146634e-03
-8.629615669286437238e-03
-8.105366157854175177e-03
-5.598665624096847183e-03
6.155582361986454854e-04
2.746626400813257859e-03
1.180632880474874902e-03
-4.993242602017037082e-04
-3.828100802909020165e-03
-7.028071804230213125e-03
-9.737170452920641817e-03
-9.424720079106954640e-03
-8.367221053484755894e-03
-7.057959816325861876e-03
2.352783261693568075e-03
1.928766685968079028e-02
3.329662251066098366e-02
2.875781501503846954e-02
1.409332246422847351e-02
8.655002744316686591e-03
3.144321768496715751e-03
-3.033515201092731525e-03
-2.965954179369166034e-03
-2.566059179249263744e-03
-1.665357418059459351e-03
-7.419415804688269528e-04
-2.267485751974887380e-03
-1.508973003554473294e-02
-2.578088095808577646e-02
-9.286142121964897217e-03
5.066994155935237824e-03
2.127026379546478625e-03
3.048350218616620051e-03
2.273375180100721885e-03
1.879545994833824955e-03
2.915515672197975701e-03
-2.195764036313464611e-03
-3.366350778834043857e-03
-4.112153684151687895e-03
-5.958645831058396840e-03
-4.110686570816015663e-03
-7.718556098265732038e-03
-9.309485207734237086e-03
-1.112651337435759981e-03
4.900544840401721905e-03
5.830438364660182546e-03
3.699510370605458252e-03
2.535341888834700920e-04
5.760224420339324532e-03
1.409057039623925860e-02
7.912631929362378552e-03
-3.615309982791601717e-03
-4.885206938134839354e-03
-3.015438325036572803e-03
-8.689473984533320830e-03
-1.250746061758471403e-02
-6.747859525323105260e-04
1.470552270762149477e-02
1.744907789752305274e-02
1.233774715470051415e-02
6.269210109813975508e-03
-6.943271253447493453e-04
-4.773275601441482122e-03
2.720057094366521333e-04
3.998943212185375636e-03
-1.385868205256739075e-03
-4.331488026942395021e-03
-7.124726713996681719e-03
-1.135083984190513907e-02
-9.279691170457191399e-03
-3.329486633251090445e-03
4.188734066103203153e-03
3.686671972812383472e-03
-2.911467348057208970e-03
-4.114919433453670394e-03
-5.360812933961113698e-03
-3.878520070838133420e-03
-1.078491528992961846e-03
-1.281775518201713933e-03
-1.611715063034399424e-03
-6.475828494637599422e-03
-3.033920811273423720e-03
7.126546124223644488e-03
9.337880079706798245e-03
1.222718111870597403e-02
7.591409408443570983e-03
-3.401285139395879807e-03
-5.336187817906187271e-03
-2.689226234747906299e-03
5.067346464127217912e-03
8.719367568800403048e-03
4.244906619690863407e-03
2.427531922150369652e-03
1.518953468170443355e-03
2.181297096346100813e-03
-4.964703688850696101e-03
-1.235715478261468353e-02
1.094211314416617623e-04
5.704211012757944704e-03
4.613030414849269146e-04
2.897106936351841969e-03
-2.322111187875929624e-03
-7.282585509631352150e-03
-3.386858775746014270e-03
-3.644095691656926584e-03
-4.230961376030273856e-03
-7.661489811089830342e-03
-9.722368646551292001e-03
-3.179765858156905541e-03
-2.991188272989923295e-03
-9.070383537974275375e-04
1.037910615823707701e-02
9.246030109260172658e-03
8.677332216004915184e-04
2.300290536456520239e-04
2.457553263925624752e-03
6.343069942642760514e-03
7.038970493554104133e-03
3.315269831445110706e-03
5.444277257907558995e-03
4.014210753134751439e-03
-7.782043653201889920e-03
-7.779515674180226270e-03
6.265730132255928168e-03
1.299984063661978329e-02
1.119484616966982468e-02
5.930199753153484604e-03
-2.529557131696048150e-03
-6.206379260993872063e-03
-5.975432520232895964e-03
-1.094073864767006708e-02
-1.523947013286895691e-02
-1.368592161959390416e-02
-1.545467109241008795e-02
-1.454768033498223326e-02
-2.015311101497605124e-03
7.050108462819613606e-03
1.052841595338149111e-02
1.363429236391370050e-02
9.541984956651476668e-03
6.775716290619340429e-03
3.688337231167459606e-03
-4.073207050784989625e-03
3.122202320524282600e-04
7.484707745991509183e-03
4.648351973737060820e-03
3.099946499130101091e-03
1.412218533993192787e-03
-3.881216792974629369e-03
-5.636279693630959209e-03
-4.544915900761631257e-04
2.154628742674628405e-03
-3.969224768391799336e-03
-6.499682817120908812e-03
-3.422199035346206331e-03
9.935625995529811811e-04
4.541003148934691890e-03
2.222478662783188095e-03
4.398015177375163946e-03
7.668518709160442211e-03
8.660655627513803899e-04
-5.297929549893916693e-03
-7.522913464678585536e-03
-6.972961291036954695e-03
-5.277766972138752885e-03
-5.006720735139174455e-03
-4.267219400728885885e-03
-7.509047370929860209e-03
-6.684392866871943957e-03
5.947993058385071027e-04
3.126455237163901137e-03
6.441693293564204267e-03
8.737041289448441855e-03
5.957724348187413976e-03
5.421270537481825275e-03
6.335633772214915513e-03
6.291321531403468864e-03
4.502725527293578549e-03
3.650649525995883736e-03
2.315316790615302815e-03
-4.306784024020929476e-03
-9.512426417324870015e-03
-9.986870446963449013e-03
-6.288818395142076016e-03
-1.006145903268496414e-03
2.227918357752572097e-03
5.368836778455886652e-03
4.593690235725214621e-03
5.021556507791113781e-03
7.087115973919211505e-03
-3.547155855918789590e-03
-1.298554713390426447e-02
-9.369103267260635651e-03
-6.668372795181939927e-03
-6.927264876840076926e-03
-3.793952756594645183e-03
4.663438735405827165e-03
1.238599816464849152e-02
1.351636903311940335e-02
1.228975943719630252e-02
1.118353393797493628e-02
8.180172287188107808e-03
8.342741708147135855e-04
-3.599135920462421829e-03
1.602904116494653815e-03
1.590948374471654221e-03
-1.120767054008683060e-02
-1.879692244469292201e-02
-1.016026286250410263e-02
-1.188282530033470813e-03
-2.970955061226535944e-03
-3.578350106656445068e-03
-1.991025239879803087e-03
-4.135403760148584872e-03
-7.130926387088655505e-03
-1.063679890877424448e-02
-8.826823593123674441e-03
-3.327646335548649272e-03
-2.920399057052932429e-03
-3.549976012297782844e-03
-6.034879945588676742e-03
-6.283413287329718891e-03
6.924758737327072269e-03
2.206792559805082279e-02
2.812531480538854947e-02
2.640763918785967584e-02
1.762228796233136080e-02
1.457886678008843417e-02
1.594609967878645590e-02
5.132176798626104930e-03
-3.713587779338366375e-03
-8.658303134707145618e-03
-2.476867611007117428e-02
-2.715101172588426509e-02
-1.280089984259377700e-02
-2.280451168140184247e-03
1.047115687866497814e-02
1.175281959640184400e-02
3.284408008507019253e-03
2.983435381159441242e-03
-1.943006155531842123e-03
-1.483868138196125499e-03
-3.602224648675001199e-04
-9.908102486353941724e-03
-2.661361683563444238e-03
-6.474194252649920905e-03
-3.086187541246112817e-02
-2.394168388769817718e-02
-5.524962627136333765e-03
-2.530455667929843735e-04
7.829690073943872120e-03
1.094035874173687230e-02
1.112679924027742094e-02
1.231183033523060820e-02
8.573515788502085108e-03
3.437516107479323887e-03
-2.354342030140475989e-04
4.112020745579376101e-03
9.256384783390464790e-03
6.165199638550611372e-03
4.005854591678931209e-03
-9.984271451038370139e-04
-6.513915222352387700e-03
-4.384641767898809746e-04
6.906751558905788006e-03
8.392471912924422128e-03
5.676918671830047738e-03
-1.117675616025637017e-03
-2.578587079567054574e-03
-1.418750954994181697e-03
-6.581992914276680456e-03
-8.248091807956959079e-03
-4.522101967374100688e-03
-3.772715686261019202e-03
-5.199625286983636761e-03
-5.844931702198356144e-03
-1.353751170722308078e-03
3.520245666096841718e-03
1.071138321962831954e-03
-2.469594873931664318e-03
-3.885576565967153312e-03
-2.644293523035808925e-03
1.119166121651505490e-03
2.372695833958859187e-03
1.372703680252184083e-03
-1.669932226986528805e-03
-5.031250676116301966e-03
-8.588251021618524550e-03
-1.042969970535874251e-02
-1.550994442284402879e-03
7.223906865123436855e-03
1.015382356213572444e-02
1.313912952159570005e-02
6.775338449595338063e-03
1.156645023217225000e-03
2.186215513357729623e-03
1.402924888167465410e-03
6.642267987006619107e-03
3.791992822411293252e-03
-5.340382192980554568e-03
1.170247742512689699e-03
2.273160432971558110e-03
-3.359281485311749974e-03
3.912112005777337084e-04
4.826477812026515606e-04
9.804863546289119876e-04
4.224977078981189196e-03
-7.522587397915788060e-04
-3.242463583794507210e-03
1.328183144186038250e-04
-2.956947342947213297e-03
-7.610048921226270947e-03
-3.532901897699478738e-03
1.029929056272559052e-03
-1.474359587291226240e-03
-4.437128493411807324e-03
-3.877151488255610977e-03
-1.586475605687399058e-03
1.309000963849304457e-03
3.549227097294179508e-03
2.979944312040458572e-03
1.075500254462884208e-03
-3.175580083408568793e-05
-2.594188805491904823e-03
-2.024970655878189502e-03
8.544401269178481233e-04
-3.075951923182230260e-03
-5.816242516025364913e-03
-1.618995203632016440e-03
2.176249409133932354e-04
-3.000535700573951203e-03
-3.903413159621390432e-03
8.666650645581766999e-04
-4.975752318156097774e-04
-7.986345136555640656e-03
-5.289681561337657850e-03
4.237128992092468668e-03
8.067847325333990169e-03
4.041996108597958708e-03
1.394051105365945453e-03
7.661965290620610658e-03
1.396364601584762152e-02
1.579126797845642471e-02
1.229419742399256478e-02
3.500254789742935496e-03
-1.483611475916138227e-03
-3.220020809232763351e-03
-1.756613611408264913e-03
5.881149282290160443e-04
-5.654583598158166580e-03
-9.146347728841004027e-03
-6.559446178755368173e-03
-7.334163692234340476e-03
-6.183032696578121337e-03
-6.092177222339149531e-03
-6.643510426991322548e-03
1.582625131371499013e-06
5.054144197235240291e-03
5.989591783275275208e-03
6.470509726739546302e-03
3.185366026750109745e-03
-9.107978270521059194e-04
-2.684203094500875898e-03
-2.629151010924357049e-03
-6.268799203720386726e-04
5.004162860484809641e-04
-2.773689366856925019e-04
-2.213300777998098313e-03
-4.151862739226490004e-03
-3.613189277479429348e-03
-1.032597512379045124e-03
4.169641365316819302e-03
6.838671831481408191e-03
-1.877844580050083256e-04
-5.165817550890585384e-03
-4.129886653055446673e-03
-4.177261408915089978e-03
2.036679808311293340e-03
5.290816960474842290e-03
-2.245652785096548427e-03
-4.061561114544261220e-03
-3.372065735489333544e-03
-3.763447473277251650e-03
9.901979596773733284e-04
4.189802604730820390e-03
5.673869982891262959e-03
5.183072162774548554e-03
2.666744893239129770e-03
2.063747059776853930e-03
-7.248486022224863391e-04
-1.198465248458397206e-03
1.761302371288826687e-03
1.045940896501997616e-03
5.218262586952687396e-04
4.919813878766279023e-04
-1.455765516322841176e-03
-2.021570140534050420e-03
1.598115839225176978e-03
7.065437937223839268e-03
6.171856573942628536e-03
1.165377638902284369e-03
-1.533104374643318299e-03
-3.447965030804499027e-03
-2.012625949821717462e-03
1.177757429124494815e-03
5.590129803339839200e-04
-1.354710951495265462e-03
-3.629940691980469356e-03
-6.104369177849868627e-03
-6.459964536510525573e-03
-5.013558067061061989e-03
-1.646584298751548655e-03
1.157142450060915945e-03
1.757761037472707708e-03
3.013658192246340380e-04
-4.826472552160749468e-03
-3.008254038532476391e-03
6.554143963213738926e-03
5.919021139019142556e-03
2.538863550378707163e-03
6.178834034996825118e-03
6.303643213528390549e-03
1.761211000839728617e-03
-3.370886807560298168e-03
-9.991223359724174958e-04
4.949378009406138999e-03
1.555397383151930352e-03
-1.254319718668819167e-03
-3.084323817584140072e-03
-7.590982313908332078e-03
-9.559646966476900015e-03
-1.209809035656188303e-02
-4.202228315161714127e-03
6.046262371304999064e-03
2.901581757560624773e-03
2.078148644342094585e-03
3.748050257469499012e-03
1.708171864260322245e-03
-1.037312805084868346e-02
-2.298944292701090436e-02
-3.860133764004109510e-03
1.448578071455119791e-02
5.799515207156121128e-03
6.163776016014759114e-03
1.023893354963938476e-02
5.841963251409507292e-03
5.804316852896781315e-03
5.007130551584409485e-03
1.220434737720633121e-03
-1.393111094629642058e-03
-1.879412593139960334e-03
-8.849501863948784977e-04
2.324339642243366914e-03
3.257450368414879609e-03
-3.162802321683075724e-03
-4.621322280346690063e-03
-1.535242803995248663e-03
1.628226143071102687e-03
7.397479768827649321e-03
3.680981433441440562e-03
-7.151049980247882899e-04
-5.559912969738944064e-04
-7.170772291106205718e-03
-7.087413733878037206e-03
-2.349128823352422939e-03
-8.295321836143230857e-04
2.869942597325381324e-03
-1.096515146927531069e-03
-7.474878051614231890e-03
-5.693899704980665520e-03
-1.207460449011765313e-03
2.238020929802087174e-03
1.335229107585331112e-03
2.484370980314795201e-05
-4.171652851662802325e-04
-2.597191116107489504e-03
-2.093856836706765780e-03
-8.405409234439544137e-05
4.858004711868825140e-03
8.918283755097263302e-03
4.113733673412343743e-03
4.834835873290022653e-04
-2.583324781616093586e-03
-8.403428419939851235e-03
-4.446503451053806372e-03
7.056280031464852703e-04
2.120155515352605729e-05
1.506608399778587397e-03
-3.299786296657183926e-03
-6.802843657767679991e-03
4.360900477279759570e-04
8.533216054786591648e-04
1.372582780611393679e-03
4.695373085842078319e-03
-6.241776936180888115e-03
-1.053720531303168652e-02
1.510749130480384776e-03
9.536080930655064028e-03
1.322297302084138836e-02
1.119798438590427145e-02
3.119707045746759454e-03
1.369978430521121351e-03
3.050181454827103830e-03
-2.013219445297582591e-05
-1.642537703158479046e-03
2.146007808584359747e-03
3.206095938831780498e-03
8.779576527872108528e-04
-1.286604540279182290e-03
-5.404245444989548910e-03
-6.079624962575352377e-03
-4.041468647660168001e-03
-3.319843040815519640e-03
-9.420236403785431107e-04
-3.589070321412245971e-03
-8.798810105021492162e-03
-7.186600679757654264e-03
-2.354487312083163725e-03
1.799865786496848870e-03
1.728237044761784212e-03
2.376912726023600302e-03
3.735752732608220352e-03
-1.174409093622342691e-03
2.144738210765004174e-03
9.657417254975566440e-03
5.784380921445416920e-03
2.426918485553979533e-03
2.344550183766710115e-04
-2.133588360531857471e-03
-7.311753995206506443e-04
-4.003232632945580294e-03
-5.199660192618383962e-03
-5.237640385934742501e-04
-5.258740587021075875e-04
-5.468632990208844788e-03
-9.916360836128453732e-03
-6.189167844876545220e-03
2.322647453464062040e-03
5.404488410161979728e-03
5.719349384322299987e-03
4.852714271586601458e-03
2.398361834823284616e-03
-8.577710671557212075e-04
-4.394037037489856648e-03
-2.763746425982595636e-03
2.262020010768102992e-03
4.938630895235962028e-03
4.313795634490621110e-03
9.090601637727190737e-05
-3.546024729820845302e-03
-3.222976190677895141e-03
-1.093903361156590981e-03
-1.442182239801808317e-04
-4.039489866716566521e-04
-6.606741980186072458e-04
-2.209039572085741508e-03
1.610709588388043356e-04
8.080648017861248242e-03
1.041465970933066164e-02
6.817773827445610356e-03
4.618669359772539611e-03
3.260347736369128245e-03
-5.325009416782110899e-04
-6.753037238692397373e-03
-8.331858379426782674e-03
-2.617763106833538925e-03
-2.611028469907034121e-04
-7.748944786911392615e-03
-9.337770675634909576e-03
1.731428515090949194e-03
9.777967939272381483e-04
-6.702815120685502379e-03
5.838196108701565034e-04
5.989898074450848708e-03
3.802316568108931455e-03
-7.108353837561941875e-04
-8.740241514207621951e-03
-5.521157477253582635e-03
1.940056168512673332e-03
4.169013759113856903e-03
7.341885119485085272e-03
3.517027417929648181e-03
-1.586186952531658213e-03
-2.069358813617596347e-03
2.330871095304637864e-03
1.484463704597774672e-02
1.361999272520390131e-02
5.189564222329682034e-04
-3.965132146935470420e-03
-8.315512470430020189e-03
-9.724475856030218718e-03
-4.994959887185654139e-03
-3.543746960701727768e-03
-4.368951282879824207e-04
2.444721735344681374e-03
6.653512773067632793e-04
1.518634546600703544e-03
2.205092546005065022e-03
-2.219468077161914927e-03
-5.062875371938734687e-03
-4.802570771225779349e-03
-9.801684256178401153e-03
-1.449684329192786614e-02
-8.917372206073337013e-03
-1.716179743751078055e-03
4.034158534114107471e-03
8.491038085746712913e-03
4.020097488140218604e-03
7.649395952367830020e-04
6.313807001410460563e-03
8.653491063893001267e-03
8.383440049475193723e-03
1.302427838424956817e-02
1.307512562187781308e-02
5.536122736083554444e-03
3.734093023835709409e-03
3.891137689818002007e-03
-1.156980837290225378e-03
-4.133182971892802350e-03
-8.796792500410138133e-03
-1.399624627113375472e-02
-1.542139838677713398e-02
-1.916472156893065173e-02
-1.897609226415771649e-02
-1.454308343269405251e-02
-6.849620022498201059e-03
6.328975218321138650e-03
1.138453682453697061e-02
1.183953241986411553e-02
1.510337722804645615e-02
2.201730468600643364e-02
3.471734981411919718e-02
3.451718745012070932e-02
2.706593470226922524e-02
2.470535858685336816e-02
1.172853425914506878e-02
-3.479781162075668358e-03
-1.126043136613220919e-02
-1.434086410872199673e-02
-1.623936406929519724e-02
-2.760897961754789701e-02
-3.977009862911159987e-02
-4.851357931806245249e-02
-5.894370947080163070e-02
-5.778366062405301123e-02
-3.098601847877796578e-02
2.933667843711224520e-04
8.679006580039397983e-03
2.413473240612317577e-02
3.823210586800359495e-02
3.273461688682573201e-02
5.607665541685063343e-02
3.980187014537746315e-02
