1.036089270093585625e-02
1.739436318822120200e-02
2.169961114607767139e-02
2.350061112716621270e-02
1.501413421533269107e-02
1.152005281469222452e-02
1.333912938663486987e-02
8.665375354138835778e-03
-5.801495668886626905e-03
-1.802640828146254495e-02
-2.180030048570303150e-02
-1.977161570136308846e-02
-1.203327050787431768e-02
-1.174816077262018713e-02
-1.049998620745242785e-02
-1.107468259497571775e-03
-5.122121162075412432e-03
-9.668917474197319395e-03
-5.160011988244193014e-03
-4.469408992908750246e-03
-1.439237768163775322e-03
-1.869935428652494337e-04
3.490008614904650916e-04
6.833313207014153796e-03
6.971583545831279427e-03
3.570357336226656891e-03
5.752574062572558995e-03
6.424002966819435979e-03
5.715986073901932474e-04
-2.918994522916558421e-03
4.051290291865243488e-04
1.790857472948217130e-03
1.709517219864608098e-03
1.967780666495101433e-03
2.810793932521018102e-03
7.337042032099470000e-03
5.889722501860227867e-03
3.598375581376097015e-04
3.885015099248432082e-04
1.007887536874388975e-03
4.010426451790448897e-03
7.144043085605997212e-03
1.157010181689276454e-03
-7.759748436456254291e-03
-1.184935372334674011e-02
-9.810540806943700634e-03
-2.605121028592233788e-03
2.370169088018313653e-03
1.567512540654382881e-03
1.219133946446503266e-03
1.982943856771042599e-03
-6.966348718350203134e-04
-5.804957776669670763e-03
-8.512547086280434702e-03
-3.460790707356318965e-03
2.089012809772916156e-03
1.228950281667186945e-04
-5.081084600907115768e-04
-6.935781111552094189e-04
-2.499781942799414458e-03
2.401201365074773306e-03
7.428352052235872791e-03
7.775438983173098458e-03
5.589063539973346435e-03
2.465775359876153962e-04
-1.807976947339728132e-03
-1.696162346412695811e-03
-1.653116575083306327e-03
4.471083562186160300e-03
8.262776502381254107e-03
3.457148302981599176e-03
-7.109488211387002049e-05
-2.389405250047827323e-03
-5.927861923345035394e-03
-1.748183954646522365e-03
6.277596019508020070e-03
4.601950526591542558e-03
-1.105582964218742746e-03
-1.825819265014762965e-03
-2.828650594564610481e-03
-3.829689215773148317e-03
-1.667368264253376361e-03
-2.830579970078748293e-04
1.242723655286626821e-04
-1.994621276949861289e-03
-5.565114944695531349e-03
-2.716933197905025202e-03
1.853682539160394441e-04
-1.664443895487113974e-03
-1.168599100945660451e-03
-2.512517056102320841e-03
-6.210903973698973270e-03
-6.800181558103547512e-03
-5.434884962624638924e-03
7.006362075309062291e-04
7.339131909352578087e-03
7.427893270052393290e-03
3.273231541564466159e-03
-6.139000001875805426e-04
3.921797466424323296e-04
3.216598468811692141e-04
-8.264332889164328856e-04
4.160517189830782898e-03
4.733009755326337761e-03
1.127475102545549487e-03
2.739071894436408876e-04
-1.107356127951316304e-03
2.791350519047048132e-03
8.096641162096615552e-03
7.849036459202506089e-03
3.842411387751774269e-03
-4.219558528058955926e-03
-5.676465451423075466e-03
-1.552350682399723835e-03
-6.711112866402874121e-04
1.634829938348331298e-03
-9.605066404977623262e-04
-3.790532201146331031e-03
2.978592879063834270e-03
3.549423678066301359e-03
-3.991817073271835582e-03
-9.041541529779076672e-03
-8.936857852334209595e-03
-3.357212958395199617e-03
-2.987711141616823836e-03
-6.534593294237930894e-03
-2.840468442920695419e-03
1.535524528473225601e-03
4.528927578657289919e-03
9.909055657065615405e-03
1.126041054229956484e-02
5.264139315895565059e-03
-1.802587817380118911e-03
-2.808973715168289805e-03
-3.267274234943721295e-04
3.267388451879123072e-03
6.754017240442484679e-03
5.825427862241870126e-04
-6.351259624147481686e-03
-2.282791741002986128e-03
9.809433527425555593e-05
-2.132735885351512938e-04
2.971078639919019077e-03
4.704178114226726000e-03
-5.725233299985179393e-05
-8.860029444964835979e-03
-2.506247010495065829e-03
5.343904152712844122e-03
-1.321360027208451360e-02
-2.009296735389602684e-02
-1.033723464112606483e-03
4.143474418697495366e-03
-3.697737546702468112e-05
9.258263828748006935e-04
4.200243243696959519e-03
1.052520878599601598e-02
7.918889114188100084e-03
3.271773161776076431e-04
-4.218264770295263770e-04
-1.422949596017847448e-03
-2.554269615594036754e-03
-5.170913094729805669e-04
4.026460050903376067e-03
7.145448276051171062e-03
2.328700195642491311e-03
-1.583094516256270106e-03
2.746083481303555679e-04
9.921081349344574966e-04
2.383102852443606378e-03
3.785937696318567112e-03
1.441106342373997366e-03
-2.745876986304786067e-03
-5.441475514080409623e-03
-3.518646274985295225e-03
3.095506759844690462e-04
1.606563958361616282e-03
-1.100504085349417399e-03
-4.564133724272541846e-03
-4.107436470646842579e-03
-5.261256629776818981e-03
-5.140915913194703257e-03
1.184133810557981385e-03
2.000968434972541163e-03
1.886205840182050191e-03
4.583071550163272771e-03
5.996470507675142432e-04
7.645676009593850250e-05
2.212231070035142882e-03
-6.382618331712126792e-04
-9.109430706230776942e-04
-2.008350361958329520e-03
-3.338509167930198314e-03
-2.366349161931066876e-03
-1.593544056141605160e-03
3.448933668196562264e-03
6.037628412858730455e-03
4.372114996057397014e-03
1.788450926251730936e-03
-2.814531162942930740e-03
-1.194413200002256798e-03
-2.499595413041605114e-03
-6.313250548590701797e-03
3.534158233312487303e-03
8.432027634279299147e-03
2.651321827714384332e-03
-1.681602055034433097e-03
-7.238764348947356216e-03
-4.414483392397271222e-03
2.161302597935616746e-03
1.710974424657560940e-03
4.464863643286261403e-03
6.376732728107508720e-03
2.667721276140354574e-03
-1.086172839997504545e-03
-9.557605812403516905e-04
4.743511261824562633e-03
2.428081299934963053e-03
-6.065651047196014486e-03
-4.957358779837580179e-03
-3.095384220841781563e-03
-3.139541937838969277e-03
-4.706022297288971245e-04
1.172583532013712616e-04
3.200531175081069383e-03
3.679139560375776271e-03
-3.561155021786585433e-03
-4.202554306888403417e-03
1.030086098955768645e-03
1.346232958263032884e-03
-4.103054805086988471e-03
-1.132753104114898532e-02
-9.717832802098919434e-03
1.116922497090756561e-04
4.414720940154269122e-03
3.911543197681064191e-03
6.110477984017298643e-03
6.780262702498097462e-03
2.947544125055537399e-03
-4.933803731994839802e-04
-1.829694759704976643e-03
6.481680131667680962e-04
5.314443936300653620e-03
4.453806871791803068e-03
3.096908183235991697e-03
4.382955132648449527e-03
-3.989053786305431682e-04
-4.730838253410433493e-03
-1.689956988846068016e-03
1.250587021369559387e-03
2.397459593353711872e-03
3.567402698298655344e-03
3.248463790201194887e-03
1.984018196447368074e-04
-3.911344871335789737e-03
-3.588836529481090245e-03
6.611996496187216724e-04
3.877749177037188616e-04
-5.932005180210597056e-03
-8.086025140871925393e-03
-4.153913080294449438e-03
-2.918880293916295381e-03
-2.026945449404934756e-03
1.248514592233420989e-03
4.082984122652912138e-04
-3.942902056124132984e-03
-6.085684393710347369e-03
-2.947427531156791153e-03
1.089039406076364354e-03
1.693512418347876188e-03
4.548174085079088186e-03
7.954671714205054436e-03
8.048013817771449210e-03
7.722265762700967345e-03
2.025008211706837841e-03
-3.500450665670638405e-03
1.393315022917208717e-03
6.700887409214094891e-03
6.846993564568647911e-03
3.733758929313115826e-03
-2.275275969340183856e-03
-4.074309308499166234e-03
-3.587888173146017070e-03
-4.210842940031876355e-03
-1.954963939946917709e-03
-1.414294372736224449e-03
-2.987851436409028841e-03
-4.274649609878827285e-03
-5.864484744152196130e-03
-3.240201639102174673e-03
-1.124707616480539758e-03
-1.884503347987112913e-03
-9.985550929662747981e-04
-2.604854820374380604e-03
-3.761033022359453262e-03
-1.775238244274969989e-03
1.766379339476542793e-03
8.118422304767872535e-03
6.446480740242924341e-03
-1.459851161039208518e-03
-6.605020593046100367e-04
2.319829380608961697e-03
1.160356732344315373e-03
2.626461863758860951e-03
6.767462536969442999e-03
5.245519121073783514e-03
-2.280829175117180582e-03
-4.791293421286758371e-03
-2.786442317079904519e-03
-2.284020256848653778e-03
2.924944677220182019e-04
2.403647030395860817e-03
1.271995122725140103e-03
1.809038404746161509e-03
2.171003671067023907e-03
1.021221891693986118e-03
2.985224339063065249e-03
4.102184998883343266e-03
9.157385425478533573e-04
-2.238126592646870385e-03
-4.648197053635952196e-03
-2.247718315322740253e-03
6.844124531506440897e-04
-6.418420863392389035e-03
-7.490140538085908462e-03
2.100084383670742204e-03
2.597846975185860025e-03
-1.165038185375043842e-03
8.006796119284913813e-04
3.623137901971662956e-03
3.256397960798889518e-03
4.580918320070606967e-03
1.159458288993461296e-02
2.476400666759391751e-03
-2.025242146568563550e-02
-1.787062112280530038e-02
5.085607717924016044e-04
4.356401913434700471e-03
-2.380007688556637011e-03
-6.818978077017284756e-03
-2.812960723430161462e-03
2.633816995861236986e-03
2.876505433473179347e-03
5.464172204161468760e-03
1.031110259897023360e-02
8.512600048623992360e-03
2.120930908492419352e-03
-1.016454975506176240e-03
-1.625306701246435892e-03
-4.348331551899621474e-05
1.539416036728879968e-03
-1.854310110532886953e-03
-1.832469575267404874e-03
1.570459208565649087e-04
-4.392557263176026169e-03
-5.841132117725264181e-03
-1.566756687435561912e-03
1.422160132171948737e-03
6.314890836631018890e-04
-1.622921136548039628e-03
-2.341033075428048966e-03
-2.896760127394240950e-03
6.938443449291892620e-04
3.715466758759807756e-03
2.555441851303403948e-03
3.905465835695963277e-03
-1.497186050738807212e-04
-2.183889558728366580e-03
4.395413466025200125e-03
4.052533879603534631e-03
2.074012052995072818e-03
1.339133106581919886e-03
2.892831071706507056e-04
1.477130552732794702e-04
-4.258608363802567597e-03
-4.045613785651249990e-04
4.945182826763133872e-03
4.271975363020902305e-03
8.301658311811897437e-03
3.542618266008970476e-03
-3.036433643467432823e-03
-4.632620360142850058e-03
-5.219419692076822381e-03
4.645920205194602193e-03
-5.335801913626534929e-03
-2.331041593416137078e-02
-8.629225885542631327e-03
1.895547011903885297e-04
-5.097181515889405087e-03
-3.612830098303069820e-04
3.186982833231480870e-03
6.985201058554935984e-03
6.441854905829941767e-03
5.251100769755535002e-04
7.022915723806450123e-04
-5.959776991963637062e-04
-2.320567887198969994e-04
4.694877569601348805e-03
4.011898782062296720e-03
8.050208070536533315e-04
9.914428436450361398e-04
2.127118855927196631e-03
-9.252289219447884690e-04
-1.648372711644947126e-03
5.282646530961370573e-03
5.545712258556386755e-03
-2.528575758504495244e-03
-6.160405209157193175e-03
-5.220397184130464233e-03
-2.257045058684232879e-03
2.235317648339875504e-04
-9.754285996404939152e-04
-1.120076049459548017e-03
-7.834516438409446469e-04
-4.243627202681205836e-03
-3.807345774573063849e-03
3.181244969453812538e-03
7.113113928816348387e-03
5.177161365596497956e-03
2.505877791233160259e-03
8.686123324694903581e-04
-2.761113645399685020e-03
-4.071472026334834945e-03
1.636551829344620951e-03
4.950115665371923948e-03
2.616948959436317303e-03
-4.125296771588013293e-04
-3.586735690700557696e-03
-3.122623103832389019e-03
-1.357345049402819328e-03
-2.017926404625626589e-03
3.264845247721101388e-04
3.125738865949666007e-03
1.998187688407049040e-03
9.817647711805117978e-04
4.821945553269037362e-04
-6.030340117955945711e-04
1.348136765707487646e-03
5.171243572919848562e-03
4.169016433228920834e-03
-2.666745505316940081e-03
-1.073191407249002652e-02
-1.090776242323816467e-02
-1.622395086782553908e-04
7.505509251089015517e-03
5.955483753560634162e-03
2.361406224301473584e-03
-1.668592919003738769e-03
-4.149631290044168350e-03
-4.813363346667123149e-03
-4.654322709037647839e-03
-7.852032296600035223e-04
2.200180673954122475e-03
2.783108437058754922e-03
4.473586071695964152e-03
1.081341949360738229e-03
-2.675378330574202518e-03
2.045978184988385667e-03
3.554068642788189934e-03
-1.506194101127173671e-03
-4.619406459160219774e-03
-4.911366335454143972e-03
-1.755852270494569472e-03
1.333832450326098641e-04
9.849788781123274949e-04
3.531802575179707367e-03
-1.350911118740890596e-03
-4.944939098020173333e-03
1.221892279527321025e-03
4.717581423846631608e-03
5.295126697235687414e-03
5.056569245138320574e-03
3.726917938874829608e-03
2.795147577336279041e-03
-2.246727920045466908e-03
-4.272306948517263017e-03
6.764034563944310453e-04
4.582499577641365590e-03
3.462163244415123863e-03
-1.563987881172574550e-03
-1.580185194224947767e-03
-2.089044780354519255e-04
-2.997178668782908041e-03
-1.322048558273820494e-04
3.532091913031925462e-03
2.267506260448926610e-03
-5.504424588578719999e-04
-5.714682187385864212e-03
-7.387052606940613941e-03
-2.545200333383474973e-03
3.865945423634051421e-03
4.012710185748609264e-03
-3.320029043116338465e-04
-4.806312460237409032e-04
-2.769004092987162064e-03
-4.552858941645202689e-03
-9.719067356090760681e-04
-1.290906166304345596e-03
-2.256636061348941784e-03
-2.825443203587255092e-03
-2.891678374106701303e-03
1.062974518334367836e-04
-1.042160707771055180e-03
-1.472322510107563045e-03
1.235657231060767773e-03
3.139241168862823977e-03
4.530035491082665816e-03
1.144637079010748029e-03
-1.280079886364734370e-03
-9.017892162011919947e-04
1.007510830685161589e-03
5.664139005791215056e-03
2.430688217741513481e-03
-5.370310035283061079e-04
2.205644983924979347e-03
-8.719772863614564827e-04
-9.017043971597136706e-04
3.060129501073921478e-03
3.858457453898960984e-03
4.141781116998225973e-03
2.391364110524582531e-03
1.355416661278736543e-03
1.761547331346795297e-03
3.835178434113637683e-03
7.809756489852335941e-03
9.467077806876566387e-03
9.108236872363704301e-03
3.356560396437383107e-03
-4.587727641564212991e-03
-1.703464297940579866e-02
-3.480314591888722386e-02
-2.818826142470836835e-02
-5.161124959457359489e-03
3.672987589288629565e-03
8.836154027897089730e-03
7.944229542754173770e-03
-3.745136208692231503e-04
1.691295208602904910e-03
5.435394264949728466e-03
2.711642015222186577e-03
-1.209724443329684507e-03
-4.280582605197205508e-03
-4.352572152243921327e-03
-2.883364952400574877e-03
3.749008866815250291e-04
4.691224022664848212e-03
6.131135746863124528e-03
3.416716433840255585e-03
-1.111478174317945196e-04
1.874365170898368606e-03
5.677551717279414982e-03
6.458684648578146177e-03
7.150847330819162968e-03
6.601601653051149092e-03
4.565593029531944333e-03
5.746128912915621006e-04
-6.410968994880805738e-03
-6.538387415872707470e-03
1.578378940865060413e-03
3.021375625843307489e-03
-1.324956307719371432e-03
-2.489221155278023307e-03
-6.385712142191782639e-03
-9.205452606730085696e-03
-5.255747173663195652e-03
-3.751657621900382576e-03
-1.642968887294093310e-03
1.620586115844726638e-03
-6.735168276089996495e-04
-4.794268298597170502e-04
1.737070649264005904e-03
1.691715897382820499e-03
2.610142689710049681e-03
1.636890431472765939e-03
9.859009474488117375e-04
1.318831632219062818e-03
-1.473701769244806746e-03
-1.881106861729515880e-03
3.083744731658105438e-03
6.155946706753468063e-03
2.320057045778072674e-03
-2.128049153000609491e-03
-3.432925220980479006e-03
-3.180334416131626925e-03
1.337548304017829827e-03
3.648626798884316205e-03
1.416578737703149153e-03
1.362125026545690830e-03
-2.435722110148329450e-04
-1.189065686043451649e-03
-1.169619804435300487e-03
-4.006421002976809365e-03
-6.332270049251597678e-04
2.188320765424150820e-03
-2.521494734877244119e-03
-2.811263024054200081e-03
-2.476127790623983659e-03
-4.039624561184926993e-03
3.807717028803003670e-04
5.126582367110552214e-03
4.469758608055216312e-03
-6.821773612892389343e-04
-3.833480387162922168e-03
-1.818837130015933743e-04
1.812959515248796592e-03
8.583692492027570568e-04
1.922059119685588747e-03
1.215889320242129852e-03
-9.724756006726130919e-04
-2.159524483474890670e-03
-1.794549908103322241e-03
1.907195423516362589e-03
4.207361237278802249e-03
3.235991131491618069e-03
2.619576433402186731e-03
-6.747240375862733133e-04
-4.402433205187592478e-03
-3.822593363703263684e-03
-2.412646517628124886e-03
1.068350055392756166e-03
3.174941229611726468e-03
-6.579468723203046052e-04
-8.956913096977842364e-04
1.034003690172549238e-03
5.381516928195547692e-05
1.871635881374182804e-04
-1.514697124673009508e-03
-1.600757700496299165e-03
-5.390301041959127699e-04
-4.682695995201765354e-03
-3.235046550004251880e-03
2.532727148939102179e-03
2.828173972136880775e-03
2.518081815222212791e-03
2.008925100085257737e-03
1.288845560368935333e-03
-4.421587763309250594e-04
-2.624351691145256939e-03
2.215494220151738997e-03
5.159063386889151115e-03
5.564279353136773829e-04
-1.515160590032207542e-03
-2.073902970211811362e-03
-3.363488435670338762e-03
-2.874977589462679537e-03
-8.123758942917492154e-04
1.001248139621702810e-03
-1.170724879387908136e-03
-3.300167604708707271e-03
-2.726288159816929978e-03
-2.728360567955904082e-03
3.605705224560185507e-04
4.893173619099550932e-03
7.177827199977094251e-03
8.440523263548001254e-03
2.819194825041235111e-03
-4.321931209655042669e-03
-1.253070849800427301e-03
3.885864212339237931e-03
4.935160979500884115e-03
2.349657398690933787e-03
-5.352720114330921514e-03
-7.498521410457823291e-03
-2.212484052545678984e-03
3.378316260046054917e-04
1.688581332567557023e-03
2.490314780678949420e-03
2.210614306729259248e-03
1.393151652342444898e-04
-5.286379721545636512e-03
-4.093112301790778444e-03
-1.573482468736662294e-04
-1.632493568119455611e-03
2.420577189689584823e-04
7.063998300237437711e-05
-2.981905156192910574e-03
-8.853143757256704124e-04
-1.276508317380033912e-03
1.883135691980689520e-04
4.677531366009639660e-03
1.555010296439443855e-03
-1.710171048544162310e-03
-1.841666636220897196e-03
-1.798941217522245957e-03
-5.023998529035558856e-04
-1.093966005699430763e-03
8.452000382458169396e-04
3.477978316673276202e-03
4.670916259827822018e-04
-2.200421949974713191e-03
-3.926358636903133116e-03
-2.831395566734669182e-03
3.021681956877387241e-03
3.881937980530528534e-03
1.669630683247019581e-03
3.005123437962158896e-03
2.629270559561179034e-03
4.946587281816538974e-04
2.173238481239439437e-03
4.117934695465239395e-03
1.236967176431589014e-03
-1.346212969061322783e-03
-1.822633109712094596e-03
-2.963421854928322951e-03
-1.326540745310230167e-03
1.508778554986815084e-03
2.165005400343779623e-03
1.786751749144266637e-03
-1.005111491925048811e-03
-4.109415608411949236e-03
-4.056216921819366140e-03
-2.261155617551839029e-03
-1.720137779992320787e-03
-2.131134465628166039e-03
-8.639328438303875988e-04
-1.037891007441886504e-03
-2.354635011839262965e-03
-4.837341351751704146e-05
3.190373992608915455e-03
4.322443873744922366e-03
2.533491468597856826e-03
-1.273579322509199954e-04
-2.571133832188560110e-04
1.597790748720343294e-03
3.630343345487195127e-03
2.230935834212633296e-03
1.371489880728081001e-03
4.054145763545609869e-03
1.908863037041254405e-03
-3.933072509520765120e-03
-6.215668783811797299e-03
-3.902788136457700958e-04
6.185104557681002369e-03
2.944055569086621253e-03
8.898030442093126345e-04
-6.071269264004116109e-03
-2.314698022274958716e-02
-2.030786751466310408e-02
-1.177348670217584709e-03
8.981788806296148869e-03
9.169973423015712402e-03
3.596536372229031022e-03
1.896524173750778919e-04
-8.065900260273956663e-04
-1.671124885029604034e-03
1.563213283821353935e-03
6.069661541757831805e-03
7.646421939311855327e-03
1.129490921656306100e-03
-4.322436942397096804e-03
1.592940597081662045e-03
4.252707316074285336e-03
1.712854038791514905e-03
4.538304228030959515e-03
7.676665058439832885e-03
4.930712273799943944e-03
-1.795135831801643409e-03
-6.301590062436157949e-03
-3.792304649867076199e-03
2.983305440527477242e-03
3.196338761461580379e-03
-3.237994886349855172e-03
-6.661924368899398499e-03
-8.827961319348790956e-03
-7.250553221694793458e-03
-3.621805323403226150e-03
-3.727350722469089262e-03
2.007022706137443890e-03
5.158752064256353666e-03
-9.440335707136224578e-04
-1.441345431316324796e-03
1.603123837898861757e-04
2.331721456366239048e-05
2.945562501417740755e-03
3.955765783961505064e-03
2.395402537900662415e-03
3.337014009093197675e-03
4.577615802137224854e-03
2.942549049414360657e-03
4.987496258583144597e-03
6.486515477742451491e-03
6.670244303307136925e-05
-4.424138641191593078e-03
-5.189189030778093917e-03
-2.974140120064109379e-03
-2.031844573843056938e-03
-5.786346358787658808e-03
9.633614311271583141e-05
2.214767048190279322e-03
-6.387335086622742894e-03
-3.817788585762885590e-03
-2.579227460718445941e-03
-5.288374976776782921e-03
4.946993513591511123e-04
1.613566897497195358e-03
-7.359038142187644509e-04
-1.837619391747562529e-03
-3.633574488915777747e-03
-3.791124463033858751e-04
5.784692633743996650e-03
8.168776841663262511e-03
2.249679272435303572e-03
-2.889627015069980067e-03
5.993620955951447409e-04
1.202138844310734990e-03
-1.763854329209121581e-03
3.315415591116080071e-04
5.504352797294765481e-03
4.330007365751879604e-03
-4.672427342064110374e-03
-6.263605237709433948e-03
-7.100754987861813646e-05
1.306295116215173838e-03
1.414958740317640538e-03
2.962120008220386555e-03
2.323830162662348688e-03
2.080682706786286980e-03
3.061859506914090673e-03
2.132585801677778625e-03
1.436999059679336995e-03
1.940625699238322701e-03
-2.622815320730496869e-04
-1.480886322402021147e-03
-1.031067790663269977e-03
-2.310791926311994531e-03
-7.520497657063701311e-04
1.652461320834758534e-03
2.800391281100972959e-03
2.182315729612735022e-03
-2.631309637047956566e-03
-2.644632917357851633e-03
-1.197357038165673118e-03
-3.480525258457260306e-03
-9.687115794449110279e-04
-1.297366695717966844e-03
-1.766510654639799833e-03
4.632214406697185427e-03
1.736848589901119743e-03
-4.961468358839681188e-03
-2.810981375895497611e-03
6.267202666312054939e-05
1.486905942301999729e-04
-1.894538187613545874e-03
-1.611108101919839740e-03
1.658490704093395661e-03
1.968605354262172990e-03
4.101293840615671468e-03
7.967902972186954869e-03
5.270994330484460311e-03
-2.728835559164273679e-03
-7.081249715974600317e-03
-2.236090060121597844e-03
3.592424563373831405e-03
4.704489659667227160e-03
5.123560861513935805e-03
2.672447481452120462e-03
-7.014470996779528572e-04
-1.159605812944723008e-03
-2.097316092824541567e-03
-1.870931385391010277e-03
-2.199077652745546653e-03
-7.084080480976901947e-03
-8.563373864470376351e-03
-5.552323594581102736e-03
-5.685879381799986178e-03
-3.188717538702148194e-03
3.579628115446994042e-03
5.474784101611029387e-03
5.243783000330337445e-03
2.481664619145006710e-03
-2.723567390369583535e-03
1.844485185707537981e-03
8.193036579288702839e-03
7.729703226516831428e-03
7.672441106554688146e-03
3.034868788018139051e-03
-2.888054273795971280e-03
-3.101065869831413132e-03
-4.312866964538097231e-03
-4.756369288063705576e-03
-4.157446100412361123e-03
-4.581867804025773795e-03
-2.355993747687915724e-03
4.458022501258106056e-04
3.882562407876839067e-03
6.059071764541933310e-03
-1.314468566578286734e-05
-9.950337551558481250e-03
-1.518141758159321890e-02
-1.801234573642608583e-02
-1.817215588689099007e-02
-9.058878526228331118e-03
-9.740947869781837933e-05
5.825402833442384042e-03
2.021692822056196659e-02
3.011982404275977132e-02
2.690025537854774315e-02
2.083310705015316636e-02
1.572897805585260489e-02
1.876307727974691961e-02
2.552090620038981530e-02
2.124432811464893947e-02
3.825203595906168270e-03
-1.060602369188091802e-02
-1.650943203209085828e-03
1.462699050007099273e-02
1.575661882882756215e-02
6.161578537432554209e-03
-3.970231973988927118e-03
-8.480101409947161592e-03
-2.200113172121239552e-02
-4.421319964946901493e-02
-6.138928335029661398e-02
-7.695096683201016474e-02
-6.389567139867420587e-02
-2.818765656211982135e-02
-1.829596689659311257e-02
-1.979989256746339868e-02
-8.863624372594608447e-03
1.923502558573320434e-02
4.373371940813190750e-02
2.263722592279863999e-02
-2.923550468446095736e-04
8.772263078879072307e-03
4.577949550357673925e-03
-3.987818687154883954e-03
9.485541245200098184e-03
2.401653047125301699e-02
2.897209727467629434e-02
3.830887629695193392e-02
3.921613891342907998e-02
7.632132272586376019e-03
-1.413548376735520619e-02
-1.181459694032971006e-02
-2.915417312262313584e-02
-4.794443280733074603e-02
-5.748632547464485598e-02
-5.831759675259022557e-02
-2.456452415767414188e-02
3.292497286881388568e-03
1.614686898674733487e-02
5.962165050266662880e-02
1.028723848238873723e-01
1.039675968978891196e-01
6.424463639167489470e-02
1.302489353731261547e-02
4.849820649473837904e-03
4.412006470486604104e-02
7.390500446402643864e-02
7.274196626489193296e-02
7.327486175706028615e-02
7.889755077667451322e-02
7.239324578290927403e-02
4.455121196716237131e-02
-2.730963512149780018e-02
-1.104936127886062686e-01
-1.675761414899528956e-01
-2.057146696242814210e-01
-1.625972677538382316e-01
-3.720967766150097555e-02
4.421364123149005426e-02
4.351070130380604167e-02
-1.675772093555791438e-03
-6.506823539067532747e-02
-1.212227204920374168e-01
-1.779979106501550501e-01
-2.261823382167526542e-01
-2.238517423460047451e-01
-1.624128000153984008e-01
-4.382337179155023493e-02
8.158531527948267859e-02
1.325803393254896545e-01
1.691219644172098080e-01
2.402004249056715612e-01
2.415060294211496816e-01
1.834426992409859403e-01
1.393996024371655651e-01
7.815576619176736739e-02
2.837036226802493524e-02
2.564020425492340854e-02
3.299420064302039518e-02
2.469317550247872306e-02
1.064028914798243082e-03
3.100063788191829636e-03
1.812857665605875721e-03
-5.236987433226559380e-02
-6.771822805676171175e-02
-1.312944540129689329e-02
1.021974283454335670e-02
-1.962421377126122649e-02
-1.731987080969577333e-02
2.502577241856964244e-02
3.301158584937279386e-03
-4.290459539861728872e-02
-1.836077053288301397e-02
-1.065998725602407445e-02
-5.058085088838172594e-02
-6.353082745648550023e-02
-5.843255739979130725e-02
-4.255270292241983970e-02
-4.366946520788713391e-03
2.780015045549365585e-02
3.429782217257544563e-02
2.355396363594577588e-02
2.089376112728467960e-02
2.132161755794386923e-02
4.590601476813164182e-03
7.251176685707761641e-04
-1.006572033448089459e-02
-7.139237278144919263e-02
-1.029679978768301418e-01
-9.395530008571632841e-02
-1.096087724669804198e-01
-8.408696920365907324e-02
-3.513704331294348338e-02
-1.782384379820543124e-02
5.146623565011514134e-02
1.106047054744839775e-01
6.978751408905010944e-02
2.863210888755337094e-02
2.875088229353219699e-02
3.644689731218792028e-02
4.459223172529202389e-02
4.837525967607416572e-02
5.200779412864670048e-02
5.564352326843374774e-02
6.371010798939677477e-02
6.298735681237996320e-02
4.256075889508790372e-02
2.285676391240789446e-02
4.464939327385487877e-03
-6.529204225945369443e-03
-8.885512961184600586e-03
-1.811734326560664188e-02
-2.290340501132461307e-02
-2.495439894346575260e-02
-2.867752542711791627e-02
-2.900210589124460961e-02
-3.451479600441657858e-02
-3.448827362000900232e-02
-2.781100864400000428e-02
-2.918772817381777573e-02
-3.124269044427139749e-02
-2.495065871398157581e-02
-1.222945808200901971e-02
-4.397568175540156332e-03
5.215751996359957020e-05
9.493364589444708984e-03
1.034888246987484064e-02
4.087397154810154705e-03
3.913436924074840256e-03
6.041658963897396893e-03
7.879881264568396743e-03
7.147155683906209096e-03
6.540438762209010298e-03
7.920373627824633944e-03
3.276310624924811277e-03
-1.493844122428567315e-03
-3.025186946739257324e-03
-5.734151335142573247e-03
-1.286244524085811396e-03
2.955745666811555698e-03
-2.264689990827507132e-03
-2.983749153041677805e-03
-2.117196310277381054e-03
-4.916026309344405550e-03
2.284875526348285283e-03
1.292283407281860468e-02
1.489159687625134579e-02
1.234626673673306675e-02
8.417136646020225571e-03
4.765263991058468415e-03
-4.382408087073364107e-03
-1.614500058691544990e-02
-1.577334344074554293e-02
-1.425998515541377319e-02
-1.478876897302160154e-02
-3.578843862937851773e-03
2.829619100767843086e-03
3.400335128471052796e-03
1.433842984026686106e-02
1.598677277202382313e-02
4.937388880642858136e-03
-1.256694253614050807e-03
-5.798208577362983819e-03
-3.941174311769340792e-03
3.958893654730556884e-03
4.074039292649891952e-03
2.589617947130246848e-03
3.251439782223622312e-03
-1.919662245818705816e-04
-2.198146892323389005e-03
2.634477487991636118e-04
3.528595883916331010e-03
5.792686649751199908e-03
1.947783846430276369e-03
-2.924546032314621121e-03
6.094616323714501785e-04
1.239709825641686176e-03
-3.570158591885948165e-03
-1.335575900974127206e-03
1.026808552840369117e-03
-1.049757902343383294e-03
-1.567762820708319769e-03
-3.507667892689505119e-03
-6.050912430873545481e-03
-5.194537223906477499e-03
-3.674440695159976412e-04
4.649795352236133460e-03
3.048948052799656250e-03
-1.197770231441061973e-03
-2.718405340948785390e-03
-2.535601324738239078e-03
-1.194925599106307426e-03
-1.329505599662714590e-03
-2.749098869715249204e-03
-3.997118192673823969e-03
-4.783365855308603816e-03
-5.006319878261252312e-03
-6.108072681914024360e-03
-2.975778428940790109e-03
2.111284355652808583e-03
1.437359885467595654e-04
-6.436492024207557654e-04
1.583189794259252589e-03
-6.095480720597433845e-04
1.142293492796923882e-03
7.543695709287767844e-03
9.853222268761781949e-03
7.862633077985433164e-03
1.643537993547121131e-03
-7.866162457363914864e-04
5.300555120978909379e-03
8.785316020179899030e-03
8.996817792064820685e-03
8.995190628440029312e-03
5.852910593279691230e-03
3.231111955721358009e-03
2.388595331128893758e-04
-5.572685037195897369e-03
-9.141371942982229326e-03
-6.705753982991473003e-03
-1.349093819250378034e-03
1.584880231486804217e-03
2.505071725060119357e-03
-1.381137416153201906e-03
-2.580265319975981464e-03
6.824691277011844803e-03
-1.712559715117974819e-03
-2.355194126307064845e-02
-1.919274732053358884e-02
-4.421087642402185894e-03
2.851310699079219555e-03
1.144447838526184077e-02
1.334299081447847327e-02
7.088348822227267566e-03
-1.253731043751087721e-03
-6.986268197603001141e-03
-6.153195802131701531e-03
-2.866885027170395280e-03
1.751850440995300498e-03
2.309145946656535574e-03
-2.076327209055284576e-03
-3.137329617604931072e-03
-4.313565477661589209e-03
-4.231241447196888196e-03
-2.083709477719254775e-03
-4.044496146277181195e-03
-1.454549409759818600e-03
-1.224142723285605349e-03
-1.311543722479771405e-02
-9.288412530022729929e-03
7.864990527769660095e-03
5.095442200780413503e-03
-1.422156568841620016e-03
3.989503103096614725e-03
5.508746464882896196e-03
6.086598439111251188e-03
1.055371631715447227e-02
1.881940276534503631e-02
2.772232448783131312e-02
2.252591838393912249e-02
7.181036901884884499e-03
-4.881606027068921896e-03
-4.726619496499045482e-03
6.076511177405537895e-03
6.412380097161188459e-03
-5.237023971167301464e-03
-1.586450197575067084e-02
-2.055485075860648617e-02
-1.512440279873593016e-02
-9.554607313147035763e-03
-8.577052367645790487e-03
-3.098007766028221168e-03
5.617658202350343279e-03
8.295065943748293827e-03
1.085441547810151982e-03
-7.808022841588998543e-03
-1.225477810249530827e-02
-6.058279835275403279e-03
6.817165497274698879e-04
-1.621992029065802768e-02
-2.194613282409376906e-02
4.363553293619678100e-03
1.289076638975456858e-02
5.323618030199571589e-03
6.726734467507942787e-03
5.188946453156868636e-03
5.340294236999043424e-03
8.711565187667594246e-03
9.218183409054317781e-03
9.689672538116181691e-03
6.689756990400785516e-03
2.557692076409813671e-03
-3.497033583746699285e-04
-1.429254357073562152e-03
1.066947878625315030e-03
-1.549383950499761894e-03
-8.415577208041053608e-03
-9.053128809457597001e-03
-3.841739829779166650e-03
2.019984838717867569e-03
1.842852603909955105e-03
-2.627184557613413633e-03
-9.248771360408981120e-06
3.800065835794380360e-03
-9.866236106926848468e-04
-5.230358100019381722e-03
-2.654477414680324939e-03
8.252703020999142217e-04
-3.921951216365913810e-03
-8.845927166898642433e-03
2.698763990785793977e-03
1.346692886171653274e-02
1.138740369048068905e-02
6.945929290160091259e-03
-6.293690314727166425e-03
-1.383309977473396943e-02
-2.907461029632051660e-03
2.442598493190359030e-03
2.793688386640239257e-03
5.996737074178741522e-03
4.741641146971199532e-03
2.700284589982702294e-03
-8.918040926158552536e-04
-2.535199231307385705e-03
2.484262634869578452e-03
4.919383267396066489e-03
2.751720162629861868e-03
-1.170836499261989141e-03
-5.499960999263146105e-03
-6.301731363564324999e-03
-3.205776042751637325e-03
-1.012553408334306926e-03
-5.130844597033581934e-04
1.828635790631241362e-03
1.018037588703662490e-03
-2.107729462020873842e-03
-3.306542700001670332e-03
-7.127363745995617117e-03
-4.067919493122996999e-03
4.660492129432192848e-03
2.040490145065951277e-03
-2.775752763895217301e-03
-1.446639209017766634e-03
-1.568869700342120747e-03
-3.660664467033935502e-03
-3.648472442616550009e-03
1.553558937847884878e-03
6.244193317588429826e-03
2.085633926441779994e-03
-5.306950701540356571e-03
-4.635317139350048771e-03
1.728510391422201451e-03
3.225271863082784535e-03
1.971338664030642535e-03
3.309248514728764263e-03
6.271539162806647090e-03
6.137979285301565363e-03
1.946447881901524973e-04
2.361788083791118060e-04
2.812415335717657634e-03
-1.404590599761873677e-03
4.762530735021988973e-04
-1.028823958048998531e-03
-6.943361774109388894e-03
2.327457007049889542e-03
7.288865710284919697e-03
4.869431405409451255e-03
9.321586431438610293e-03
4.408682205634088455e-03
-5.713055315698841938e-03
-1.088694155916565716e-02
-1.232667112077682689e-02
-2.964967799958072650e-03
4.886383245570714157e-03
2.947026866395702303e-03
-1.720524995831805223e-03
-8.454485578444621494e-03
-6.838899180457180295e-03
3.661762414282290160e-03
9.219831140698903429e-03
9.398208809101409045e-03
4.891238953409688880e-03
-3.116266903539728628e-03
-6.554677263563115849e-03
-5.285694016444088782e-03
-3.128936373851079564e-03
1.061726705194333733e-03
3.929838104079872926e-03
1.128091518634483949e-04
-3.418213511058802289e-03
-1.758664318143547374e-03
-1.229596328823668282e-03
8.415810188977096689e-04
5.218750821174070013e-03
1.033142443012176337e-03
-5.882799977519869057e-03
-5.432627688885867390e-03
-4.412873052741288216e-03
-2.424321216568086929e-03
2.087281685263475597e-03
3.155709693032736698e-03
3.700455993145918866e-03
2.915339532275740275e-03
1.184142163787989201e-04
1.793402248508226948e-03
3.679518376698000161e-03
2.470515174976765232e-03
1.734478785620216686e-03
1.073171859564531249e-03
-2.269668424503265298e-03
-5.628045461271562536e-03
-3.743529873162234570e-04
4.645694353993354286e-03
1.392322651152165048e-03
1.886405827580983413e-03
1.998308928835181800e-03
-4.541942477941028102e-03
-7.651663720924711809e-03
-1.978251523638039928e-03
5.951720401766246761e-03
4.335913438162779764e-03
2.621247506365222048e-03
4.449235621291389164e-03
-2.979267088035070406e-03
-3.765334727427483222e-03
1.892034586864471636e-03
-3.993737938729177207e-05
1.605202545721559973e-03
-2.936124020171582312e-03
-1.302908392868539975e-02
-6.665546698995293562e-03
3.211329031436658144e-03
3.801980708569202387e-03
3.925994648249303554e-03
5.085534678048432566e-03
2.601815620250871441e-03
-5.564454744354039705e-04
-4.408643118020349420e-04
1.426945583856850447e-03
6.362655611490764321e-03
7.080159906049526136e-03
4.869100110966737872e-03
2.293391232586063783e-03
-1.831680592541220023e-02
-2.929310748111068133e-02
-8.193715283644771585e-03
5.553511130239070955e-03
8.649197845268642368e-03
8.778203629992710824e-03
-1.440635376897370307e-03
-2.199498819659838084e-03
1.835999104130769813e-03
1.320686783771893476e-03
4.768677810249980636e-03
3.381067923039335257e-03
-1.344798203570408057e-03
-2.314663574852764139e-03
-1.700191197481894538e-03
1.683017744182081820e-03
6.841620651496039922e-03
8.976933154130917539e-03
2.310305294293285398e-03
-5.530275337690323915e-03
-6.834327062433462330e-03
-6.071481448831401832e-03
-1.237901823881879188e-03
3.202652913632719235e-03
4.644492064430570319e-03
7.148310681117942163e-03
2.860600636889344250e-03
-3.917852342860526742e-03
-3.665981095447457244e-03
-1.087921499487418380e-03
2.846638969744988488e-04
-7.722372913217216825e-04
-2.121392271740579847e-03
-3.602835869276906078e-03
-6.647142114961011178e-03
-4.704558631680117245e-03
1.160871856136682550e-03
3.437790252914900858e-03
1.847244794660110774e-03
-6.408082792855626479e-04
-4.860784136188401098e-04
1.328430933445474364e-03
1.070711385216929334e-03
2.065744282461692491e-03
5.025493750811203808e-03
3.087790863306683065e-03
-7.398287003472767999e-04
-1.145161070369513610e-03
-1.616317711969535772e-03
-1.564120665354951914e-03
-1.954104648360178499e-04
2.403842875895120541e-03
2.862926732713040427e-03
-3.741622517229242946e-03
-5.334360609580290555e-03
3.375889001922519517e-04
3.862883292436767192e-03
7.526325506173607745e-03
3.349322775292748466e-03
-5.868178378914081471e-03
-6.696475576885754788e-03
-6.560003702591119847e-03
-3.730066469727765996e-03
2.422168909204131838e-03
1.719605580826319684e-03
-8.071122215944867041e-04
-2.486175607778555539e-03
-3.689664763428957689e-03
-3.075815396856508999e-03
-1.223468058415974440e-03
4.788820112022295142e-03
8.137819637055281052e-03
5.417445678234308892e-03
1.491332284600489170e-03
-3.196458356811805041e-03
-2.068488871622333608e-03
4.193435809235685971e-03
6.818645561321446703e-03
4.721447472461629859e-03
-6.408030894515381198e-05
-2.267097360382042386e-03
-2.269016725037811041e-03
-1.713753733270904217e-03
1.031899756231755136e-03
2.677850328735134665e-04
-2.311226460601341782e-03
-2.482454749745247047e-03
-2.872979136103954393e-03
-3.164787139214948666e-03
-4.102260670461413752e-03
-1.532420860486942817e-03
2.702695068955219323e-03
-8.887297891457294975e-05
-2.801707341393219752e-03
-2.448557093711709477e-03
-4.267756950082415021e-04
4.631313535146371410e-03
4.553174323944751342e-03
2.474803979433014538e-03
3.006506770214514498e-03
1.780570740491133020e-03
2.564900638371572783e-03
2.452909910581282764e-03
-1.212857872514900464e-04
3.545661013318472166e-04
7.691949141045322565e-04
-1.620562573941145999e-03
-7.397555436940302619e-03
-8.222495716444259625e-03
1.453036553976831203e-04
3.528068690644633153e-03
2.390262835161081120e-03
1.209621515433190620e-03
-3.855019256311251197e-03
-5.459570029016048640e-03
-2.338395980549507532e-03
1.417703373463366544e-03
2.258293892813185554e-03
-2.259389456661200710e-03
-3.158092132383054969e-03
-1.437970443377047970e-03
-9.554356247488981525e-04
2.220351401476811613e-03
2.266586677611186901e-03
2.533514484910897625e-03
8.327894480248367731e-03
7.700861567918536668e-03
1.221704189800750743e-03
3.368823699566198004e-04
1.893739831367162473e-04
-3.098927835170973630e-03
-9.009568312268768919e-04
9.205373971469229047e-04
-2.492744570976745781e-03
1.506446298002060138e-03
5.972192112021698640e-03
2.695661735238512671e-03
1.472655001474686923e-03
-1.131509663119624042e-03
-5.936346988011442088e-03
-6.486306817505964675e-03
-6.037696071961898628e-03
-3.262571716100707512e-03
1.830297015222062370e-03
3.819382205212269992e-03
2.993385135445705315e-03
1.257898550862304472e-03
-7.218147984106664493e-04
-1.938732498758041030e-03
1.249306766586774252e-04
4.110360518786417006e-03
4.813275580640874463e-03
2.159530281964793744e-03
-2.263937482859906727e-03
-6.096557379499227027e-03
-4.943643721656819541e-03
1.432471218288435336e-03
7.256683254471959880e-03
4.404461643561063088e-03
-5.283330590098301097e-03
-1.007631133642012712e-02
-6.393028206936033665e-03
-2.020868140017739040e-03
-2.335249844049620740e-03
-7.296415971916029751e-04
4.213046432923753075e-03
-1.470243861613210667e-04
-8.852676627917666075e-03
-6.262651657910859627e-03
9.989362697392114546e-06
2.682514366904813815e-03
5.984114265546932980e-03
6.381989488998380221e-03
4.991169366547524265e-03
5.798467529761158409e-03
5.715479096661280414e-03
7.945163805945058833e-03
1.129060409265735671e-02
6.414654515724585102e-03
-1.980966767298652804e-03
-3.880476522000841314e-03
-2.208697765136741209e-03
-1.331746277521387353e-03
1.859520070422784064e-03
5.590421725956214345e-03
2.859375421193840593e-03
-5.576149825771592461e-03
-8.620617549702010163e-03
-2.582173568453640061e-04
3.897760760214042004e-03
-4.460177651063216100e-04
6.052366653406285020e-05
-8.501660202590370988e-03
-2.372031246282649275e-02
-1.698367078306534800e-02
-3.626304811945845960e-03
1.395819800678181058e-03
8.586022046587017675e-03
9.032818225335689094e-03
2.486768337535103044e-03
-1.245591456148036980e-03
-2.473070789567029335e-03
8.665022206419812538e-04
2.379030960774024869e-03
5.439002242475045107e-06
3.007100166664565359e-03
5.288735706065904665e-03
3.583692163595910882e-04
-3.686005447655088790e-03
-1.811535515473929134e-03
2.045295855390005715e-03
2.531227198570735418e-03
2.246274505755387584e-03
3.932301708375330641e-03
2.478174435605365669e-03
9.966184912829744846e-04
4.538153494842732394e-03
5.873711332214091516e-03
2.352562093321919953e-03
-1.212149261274812154e-03
-3.414982734492744403e-03
-4.620202446762951623e-03
-3.529164950205191005e-03
2.855345610903191117e-04
1.915431764327114612e-03
1.836670656239007679e-03
1.016849152719723160e-03
-4.330344086311585343e-03
-3.636015110039460870e-03
2.903743909773315573e-03
1.030474599289162322e-03
-1.982069817556048399e-03
-1.686107624548331078e-03
-2.664701886109523219e-03
-3.031577339943780734e-03
-2.445790205902709583e-03
5.810060544090526894e-04
1.261738385443536559e-03
-5.312291475152050672e-05
9.706383967867734811e-04
-1.258303665162170031e-03
-1.617980213075349719e-05
3.336921960492636018e-03
1.279818271581340265e-04
-5.745275536927586856e-05
-5.068732543695146251e-04
-4.379300121846626571e-03
-3.819979427119736971e-03
-1.216582010163441393e-03
2.511371055103305255e-03
4.232300033244673979e-03
4.281839059863718107e-03
4.521895681735883625e-03
-6.033897400920161199e-05
-1.585531799161213383e-03
3.467826172005570619e-04
4.871755858262549754e-04
4.860516492967213546e-03
4.492615862634168240e-03
-3.396069009445107281e-03
-5.118359156217152338e-03
-2.145372169346679465e-03
6.006703247082303358e-04
3.061028613647793530e-03
3.174501616691560377e-03
2.042365504924396110e-03
-7.520756369731289174e-04
-4.313562806600734073e-03
-3.587683326192462729e-03
-2.009373292230656836e-03
-2.493345224249347066e-03
1.388796053483046852e-03
4.561577045448142465e-03
-1.286657439319150960e-04
-2.908810465843950175e-03
-1.595752088447138914e-03
-1.839154846150522875e-03
4.476488311969324571e-05
1.982685826881469635e-03
-1.231573174081907439e-03
-3.926613839757515066e-03
-2.113646691851818298e-03
-8.789543158481440675e-05
1.006286148508838427e-04
8.412334221509338260e-04
2.530019122289335447e-03
1.793526627571144071e-03
-1.610637186228983022e-03
-1.651256747609808513e-03
1.324902611531052340e-03
2.382730158864136260e-03
4.467883685829700073e-03
6.359356032627109384e-03
3.090665811310126538e-03
-1.089245151279721359e-03
-2.085622196404172523e-03
8.204757008895608881e-04
4.358236417394043515e-03
2.832835240034323708e-03
-7.589922239579249591e-05
-4.595181582737869401e-04
-1.486713679858176883e-03
-4.153376894884755130e-03
-6.236201709542874352e-03
-4.911271487539010071e-03
-1.401315981781579194e-03
3.914684290549048993e-04
2.809534999498789322e-04
1.582451201222820488e-04
1.690261032178772211e-03
2.198161836751453841e-03
-2.160419090162226329e-04
-1.256269259334843926e-04
1.508124562792287826e-03
-1.652344502720026233e-05
-1.720291715412953799e-03
-2.114327792899101891e-03
5.466504898977006185e-04
5.539355056271084293e-03
3.982154685235309369e-03
-2.016300436678439886e-03
-2.804056824210889292e-03
1.414398511227214945e-03
3.921298314561760465e-03
1.080893881758046658e-03
2.693959707840093507e-04
8.841418368339330584e-04
-4.856741254250800457e-03
-6.304180282887206221e-03
-2.872028142282196436e-03
-5.788135774700795509e-03
-5.898990889781895522e-03
-8.640392553516873173e-04
-2.633309474225362448e-04
-1.024587159627916985e-03
1.349262051868860279e-03
6.614202272648262056e-03
1.031113685169912121e-02
7.532513257868986810e-03
2.206242892697280866e-03
-1.556394147010344443e-03
-1.824613403189137778e-03
2.737141239360622261e-03
5.644230582915245667e-03
3.641340465058040543e-03
2.863554562758224061e-03
1.600860062448252906e-03
-4.675499318084735262e-03
-7.828938481955108331e-03
-3.321264146551889535e-03
1.427777126150110622e-03
2.231676987970149847e-03
1.339368518051296591e-03
1.513330104434717398e-03
8.009956496381156381e-04
-3.130847356702353822e-03
-5.957477704035004859e-03
-4.100976303194660451e-03
-6.710769290388609752e-04
-1.996169610741004973e-03
-4.848044705753946741e-03
-2.461219776645248714e-03
-1.414689549054504560e-04
1.267883088328739753e-03
3.234209833764406950e-03
2.264008104310743282e-03
2.129255962865959310e-03
-5.908354087079282498e-05
-3.525101223568867948e-03
1.193865003970965736e-04
3.100604126725214817e-03
2.288897260099141250e-03
8.294336473282801431e-04
-8.356973989599981133e-04
3.301890662367803759e-04
-1.312014057151157740e-03
-8.405014347261708686e-04
4.465012476404136600e-03
2.129525052536412454e-03
-3.406173421907258232e-04
-1.533991800974692345e-03
-5.856753027869223555e-03
-2.811786269476423093e-03
-1.032620962397439861e-04
3.763221741781827339e-04
4.397957869659547582e-03
1.839833867284764758e-03
-2.814106675788477833e-04
2.296562343237975191e-03
1.822402511415867864e-03
3.429543038321249560e-03
4.514916402436027973e-03
5.040048585266841165e-03
7.485240210251452309e-03
3.814466470224475540e-03
5.986184737044365507e-04
-3.197510910335073144e-03
-1.204491411431882729e-02
-7.781371567389310483e-03
4.504850257412693396e-04
-3.403806208999770287e-03
-3.108022843461004381e-03
4.325464582076897968e-04
-9.599112655501924364e-04
-1.454275607993088049e-03
-5.188537193611377158e-04
2.277655459053396815e-03
1.654710308022491402e-03
2.140603415452991057e-03
3.780787147565192567e-03
-1.344309945036715852e-02
-2.185634310872275679e-02
-5.909298711274625030e-04
8.331872596517152230e-03
2.338562697067722313e-03
1.717834956155892857e-03
1.389342406396259968e-03
8.402588195980737612e-03
1.481146365044437585e-02
1.007593227561271766e-02
6.583691518638051798e-03
2.456898181982645861e-03
-4.482299454847057940e-03
-7.019301462923902696e-03
-5.390052015847211775e-03
-8.142213897309933095e-04
1.062912030494267759e-03
-2.593024496203740620e-03
-5.013509275871948744e-03
-3.144267257395527270e-03
1.003716702766215213e-03
4.646342795423207689e-03
5.670240468053071130e-03
2.885296783527968069e-03
-1.482857275836714332e-03
-3.839528858406695156e-03
-5.932135256214774062e-03
-3.205573694013747268e-03
5.488644025172046727e-03
4.091835610635197185e-03
-4.141347762410128169e-03
-4.004110054558095849e-03
-9.949015097755636340e-04
2.091972497128891974e-03
3.171408740543488203e-03
-1.832808644951416932e-03
-2.957797141209187429e-03
-5.201769377804307988e-04
-5.037228994370328413e-04
4.373029829145703550e-04
1.193674395068662934e-03
2.825450279330137763e-03
4.538528429437572315e-03
2.089369159164270948e-03
-1.458694259709581494e-03
-5.108516416872629744e-03
-6.397709874185956817e-03
-1.383733881512437969e-03
4.211660636585762285e-03
3.716638217678099043e-03
2.353493313819881064e-04
-3.574229228869869185e-04
-5.982825195230779885e-04
-1.133122987290657239e-04
2.532181157145468181e-03
1.609874338724797847e-03
1.930965003407806571e-03
3.044430664533497987e-03
-1.841478108544773121e-03
-2.014298899700531394e-03
5.951974548779786003e-04
-3.763486299946942632e-03
-2.962621341497208467e-03
3.656702303402716535e-03
2.252513549457384363e-03
-1.945606150648554727e-03
-3.707576154428941448e-05
3.240290577765665442e-03
4.792242738768364568e-03
2.391578099871850480e-03
-3.931008053574240255e-03
-6.677883191344554693e-03
-5.445101796957027215e-03
-9.479857021556766308e-04
3.784261230584142627e-03
2.866282177731597179e-03
3.939225728500500567e-03
1.457192100314905203e-03
-8.688548422130097301e-03
-6.606738940183868279e-03
1.151782564675284679e-03
2.176150377339978233e-03
5.532683960599800270e-03
6.005105948067760747e-03
9.333207246578602637e-04
-2.420681292964427939e-03
-3.429988257778665735e-03
-1.661743037778720070e-03
-5.998524158215452762e-04
-6.327430310981167674e-04
1.182468258391516838e-03
1.084369287333086318e-03
-1.406993856935411999e-03
-4.459250677451192038e-04
4.623594674958503119e-03
6.988763504684684935e-03
5.778087275991915413e-03
1.979608167093529873e-03
-6.331425160609844768e-03
-1.053817941520525207e-02
-6.651351116402607830e-03
-1.558902248911461568e-03
2.173546849725194879e-03
3.332078526639812525e-03
2.081864830473823501e-03
-1.536246896963630116e-03
-2.847153686855469906e-03
2.767602954436540301e-03
5.129845408554233044e-03
2.966810240497155891e-03
2.991474417377634233e-03
1.408494278143740614e-03
-7.078722756798600316e-04
-1.551628091031356056e-03
-1.684256272548706121e-03
1.562243104972274848e-04
3.593918280766389992e-05
-3.166739830887878911e-03
-5.550048151917898534e-03
-4.765640509328572180e-03
-2.977559139899946077e-03
1.963421022893346748e-04
7.444420258061661654e-03
8.722430875622976670e-03
2.716176887999733908e-03
6.950392257105816787e-04
-1.664073830223678722e-03
-3.385866882045493464e-03
1.723265878849370315e-03
2.930031193677443482e-03
-1.980675140849623515e-03
-3.276240235153847491e-03
-1.329205830945242488e-03
1.653816097982210138e-04
1.935739684030861807e-03
2.928521921208397660e-03
2.419549853338919931e-03
9.514259731481562342e-04
-1.363355510060456017e-03
8.070540698724073679e-05
1.322408699054385302e-03
-2.407058440892134547e-03
-7.964295450333229182e-04
1.704309296970125997e-03
-2.705676605275935884e-03
-2.870686284909576731e-03
-7.907242955279619387e-04
-1.457474157399112243e-03
2.006783718947745786e-03
2.976176482990117167e-03
-3.911494918372106395e-03
-5.524129944723778392e-03
-2.007964474194881164e-04
2.829014923740228544e-04
-3.468760665498505139e-04
1.770263847067727811e-03
1.800735851166064853e-03
2.030662281566867830e-03
1.328472614062839723e-04
-2.547977949735562211e-03
-6.741816671348242599e-05
6.780058135401655431e-04
-4.040457031326755762e-04
8.592218100685638962e-05
-1.097807843476384781e-03
-2.552437709080337697e-03
-3.010508666580746610e-03
-1.357692120412028625e-03
1.546065554822911251e-03
4.181312913805617509e-03
4.083080803625507502e-03
-1.520897920729928935e-03
-2.061734594732668024e-03
1.644863610325243133e-03
8.922762059622381565e-05
3.668411323695698611e-03
1.029413994763959429e-02
5.980271140294026941e-03
-7.520975496295887689e-04
1.890541559494599011e-03
5.031230668327517710e-03
1.506714039291926410e-03
4.716143189857204617e-04
6.353795336793612719e-04
-2.046309269734331287e-03
-3.000195710952558315e-03
-5.797496927909858398e-03
-6.910287465805570531e-03
-6.272293804018489989e-04
4.066730118424470054e-03
-5.031229117464269991e-04
-3.320709922177451402e-03
6.572189595311890911e-05
-1.437004995361152761e-02
-2.613366590594644670e-02
-3.554562522344194200e-03
1.134736750629483995e-02
7.651885898219868906e-03
7.588448255393925000e-03
3.752662298985695935e-03
6.345959444838446435e-03
9.472640060788505359e-03
5.236846081944090264e-03
4.902074198886273090e-03
-3.093842037677439587e-03
-8.988753589930642898e-03
-6.571973153093051308e-03
-9.693579487081297949e-03
-6.443300876439081795e-03
-1.207348843774953134e-03
-3.460655346380060032e-03
-2.855547190487722330e-03
-4.038413101081412041e-04
9.354358351366956698e-04
4.208293137295139770e-03
9.173945464495842153e-03
1.086654081423268220e-02
1.128554976786914042e-02
8.764217671321523906e-03
-6.877696129206476881e-05
-6.315864038494539397e-04
-3.825609291308669675e-04
-4.678544669115148463e-03
-3.361100976475216336e-03
-1.293542879075415888e-02
-1.355310542077905155e-02
