2.379159423707379387e-02
2.958138864156886066e-02
8.541459178733614224e-03
3.281111505653871389e-03
1.232379438163359029e-04
-2.379045565530131610e-03
-1.005758633640578895e-02
-1.846406034411619129e-02
-2.477682180899327957e-02
-3.207385478343595386e-02
-2.656674352865609837e-02
-2.089731116976557487e-02
-1.709906815710724240e-02
-1.426919497930917435e-03
1.152768813946816913e-02
1.604090631749715418e-02
1.568217143127119406e-02
1.676677115274924704e-02
2.400866333045663034e-02
2.457049473071476822e-02
1.871937486064505565e-02
1.283317768255079483e-02
4.791376783359230750e-03
-7.556351991312112472e-04
-2.364451504871615053e-03
-2.601755397626800709e-03
-3.805563266192598000e-03
-9.554019294516751665e-03
-1.623535147692827321e-02
-1.723315180698114027e-02
-1.268841595547079426e-02
-8.087519658448527951e-03
-4.997462431385510905e-03
1.141524022186541330e-03
8.288589575971526402e-03
1.104080612251875232e-02
1.224476590904942722e-02
1.129889923057256738e-02
7.005102686642110388e-03
4.990601208504395064e-03
5.088346021062234090e-03
4.765991165008499723e-03
-1.479847504428368930e-03
-9.764368056839663884e-03
-3.676123945532265656e-03
3.898347323675522939e-03
2.887396321746677451e-04
-8.416680302760120094e-04
-2.953228573483866314e-03
-9.770173491011830205e-03
-1.398461077756958486e-02
-1.288908960236285865e-02
-5.857868740009379745e-03
-1.417943092643202422e-03
2.631230049757388775e-03
1.055456972129717452e-02
1.079109593705427153e-02
3.531831786294915929e-03
-2.366169470140198905e-03
-2.033891913781472275e-03
1.210331359720891349e-03
9.301499264241264468e-04
-1.152223330607862880e-03
-4.323110646290820140e-03
-5.895444121704480596e-04
7.557772392282842422e-03
5.221898652706329948e-03
3.109659209314424161e-03
5.350857409848537583e-03
1.674373454326449559e-03
-1.297599719191675589e-03
-1.724383609114313798e-03
-1.853777207744844576e-03
2.279401503590928416e-03
5.686099857701553024e-03
1.991737008466428448e-03
-3.860032992398450529e-03
-6.933693477401223909e-03
-7.550480866378769980e-03
-1.953904754919945797e-03
2.545058698987060289e-03
-2.831539053607229003e-03
-6.375706668880360903e-03
-5.199868575508770699e-03
8.929042351014032175e-05
8.935214048642347445e-03
6.835272098361025797e-03
9.412347636499257325e-04
5.015477695621929155e-04
-1.966951893413928110e-03
-2.751250571504487621e-03
-4.076467492758908615e-03
-4.895750540222729326e-03
1.506142160532085699e-03
4.066256759935851089e-03
-6.214285847111499818e-04
-3.692795034091412437e-03
-1.281317514980444706e-03
1.371455163765575476e-03
7.796323053836744493e-04
2.351097085994075485e-03
1.117417824985720036e-03
-2.658239971778506797e-03
7.697445865678911501e-05
5.809567908090237411e-03
1.009646978465240583e-02
7.509367478449973515e-03
2.970746297607877815e-03
4.017858178251196809e-03
2.113193280914221327e-03
-1.233573488272086136e-03
-2.108514943794381757e-03
1.913876523366174085e-03
6.364395099861840273e-03
-1.777812004011985981e-03
-4.646291368062893841e-03
1.692368019463027194e-03
-8.669527838535234744e-04
-3.994429039098766621e-03
-3.211368532402419929e-03
2.005608170057222948e-03
-9.792569808636786537e-04
-1.486665090463877917e-02
-7.571841003066917541e-03
8.512620369722796038e-05
-1.129637005448692888e-02
-7.937312973275880215e-03
7.089401582150171334e-03
1.082042980633659592e-02
-6.323745402448881919e-03
-1.858599964458928708e-02
1.535692057059593989e-03
1.106888938493996721e-02
2.031766122632297934e-03
7.642845604759459198e-03
8.180900687288003917e-03
1.130779972664085501e-03
5.176504077104229426e-03
8.922910885096148326e-03
4.523634347589096730e-03
-8.137536686350866017e-04
-5.401005230725211895e-03
-7.717710203244820301e-03
3.339136549087199680e-03
9.250818804198448347e-03
-3.928455493091415757e-03
-1.039667838375597439e-03
1.073093324940799925e-02
3.578317305560820265e-03
-3.019553135755291898e-03
-4.043216048104050775e-03
-4.733920281874063989e-03
-2.073065716682282334e-03
-1.734039908864775477e-03
-2.198355477728673388e-03
-3.288442001921590419e-03
-2.715217328517572325e-03
1.792364892541972255e-03
1.353805181721458653e-03
-1.133568623247557892e-03
-9.479854188469201848e-04
-3.631322454154011035e-03
-7.377880337778720647e-03
-4.158315032967586228e-03
3.656691634753432216e-03
3.728909871728515197e-03
4.760430712099047220e-04
3.284928999682568389e-03
3.795115272578956315e-03
4.193415547628313172e-03
7.506489188616146009e-03
1.202555485904477795e-03
-7.943596195025907566e-03
-6.033831855417600386e-03
2.835729782272652412e-03
1.015778287068539940e-02
9.302637708897377317e-03
4.398650787879153888e-03
1.619146152756170036e-04
-2.449446053825160997e-03
3.663634412101065109e-04
-9.024324889740028416e-03
-2.327046212988433463e-02
-9.471812513383793403e-03
5.648479197662386112e-03
6.351136761648051333e-03
1.181289898794966355e-02
6.436839487857237002e-03
-5.481700661442762048e-04
4.037236697748906866e-03
1.142110306917160523e-03
-1.455642988110904777e-03
-1.141808468952761838e-03
-3.523241589791381405e-03
-1.086684829872870163e-03
1.061265350177023484e-03
1.237495399244435169e-03
-1.519535168383523947e-03
-5.721279135345887397e-03
-6.776496973716190052e-03
-9.877240583777743832e-03
-8.657591826713344554e-03
-3.285956422416311598e-03
2.112204423606846553e-03
1.093123704973254610e-02
1.142022381000075415e-02
8.295352236687527844e-03
6.824411112859951264e-03
-2.841936070409837017e-03
-6.538484293003999324e-03
-1.962606620890164355e-03
1.323534824026191157e-03
4.903629830277266705e-03
1.489573000045291357e-03
3.353383997850771341e-04
6.627037623235075212e-03
3.139554608737766487e-03
-1.727872462373755908e-03
2.538263220469487522e-03
4.362201766852239274e-03
-1.457132848184364195e-03
-7.896541696582009065e-03
-4.465087562657584982e-03
-6.217974384851426145e-04
-6.024834384702200396e-03
-2.045335111017215941e-03
7.216238395899189119e-03
4.947242428276810849e-03
1.972192185125828945e-03
-3.049638788216164128e-03
-9.529198573838215669e-03
-4.584226754455118444e-03
-5.505675252045751046e-04
-3.083792110594155492e-03
-2.637987090572648397e-03
1.569121397567773985e-03
6.107309301438258037e-03
4.493647619688212989e-03
1.548121719700143624e-03
2.165886819715802619e-04
-3.615572791087130321e-03
-3.164797381115846790e-03
-1.465024339823463957e-03
-3.682302221634919112e-04
4.311239664927634350e-03
5.151644395075922860e-03
2.885046188738053449e-03
1.507630549685948273e-03
2.063104118176003771e-03
3.539783331623094775e-03
-6.548360120620531823e-04
-3.432487916812860564e-03
-1.912320396694419623e-03
-2.690159699575106738e-03
6.636736217293160746e-04
5.784415064813713640e-03
2.707828201321337003e-03
-2.742961446871272115e-03
-1.729921261006104466e-03
2.574573434928558585e-03
2.581489123462976133e-03
-1.735007821337515794e-03
-5.470346489484782630e-03
-6.380740708066285488e-03
-6.019208061150906237e-03
-2.238968014338701702e-03
4.755765684635038237e-03
7.189826022096511976e-03
5.783135689338087491e-03
2.312715759365322268e-03
-1.352354025117513377e-03
6.672590996645535902e-06
8.212317076924108695e-05
-5.946087178033616135e-04
7.710886152998792584e-04
-1.263400429808794485e-03
-1.773372328116448781e-03
-5.602853856248751242e-04
-2.089838188862424943e-03
-5.598184069294321122e-03
-5.083379164173683178e-03
2.832362546457706069e-03
3.636764056620897870e-03
-3.799227579606241547e-04
1.223797475070230109e-03
9.015234345071576789e-04
2.309470000301878847e-03
2.919903755545893813e-03
1.824662206554765161e-03
6.740064498588742813e-03
2.251276025075442996e-03
-6.440519344747582496e-03
-1.596693803884515536e-03
3.269285809809324879e-03
2.281507223750226573e-03
2.188494906403769778e-03
2.232390879067475825e-03
9.092616903245386017e-04
-2.919597357898118164e-03
-6.116819254882997423e-03
-4.976300125194827936e-03
-3.935243103058485084e-03
-5.286133122563678975e-03
-5.387269709411540881e-03
-4.322318739548994433e-03
1.412023194967677083e-03
7.662306533490737502e-03
3.267100331781066375e-03
8.009837521423149136e-04
2.660048693070448615e-03
-1.712850133221620937e-03
-2.374318542515876235e-03
-8.272103702739956989e-04
7.726912648858092966e-04
7.025427751681529408e-03
8.828005898017321842e-03
6.809373327314511941e-03
5.986865339128744253e-03
7.804389799164779609e-03
2.508258125748150796e-03
-1.238469350011759534e-02
-1.046654441475190767e-02
-2.755726970497750748e-04
-1.322284921413499116e-04
1.196048828100127219e-03
2.642093710517583877e-03
9.369333628535408270e-03
1.015064606703759004e-02
-1.388923000973214805e-03
-1.021031298117025467e-04
-1.027835907746065848e-02
-2.749873965182704147e-02
-1.103182910512079049e-02
3.709748823705785997e-03
2.294121183419619431e-03
5.898879884694674391e-03
3.478998980322818221e-03
-1.864919110527414733e-03
-3.802706679553878328e-03
-3.145565989152392713e-03
-1.199469578930415642e-03
-3.351277103015642619e-03
-2.058459353108701029e-03
3.164224466715936202e-05
8.639754680648967450e-05
4.779658291185962492e-03
8.066860809362870477e-03
9.137739319917365793e-03
8.460215146693903648e-03
5.877844208414515804e-03
4.361931659024296387e-03
-1.389586713009477144e-03
-4.597430298070626781e-03
-7.730999250654571435e-04
5.989095046245685935e-04
1.046695192047653652e-03
1.334736457951532810e-03
1.523822786824163746e-03
3.368230494166720834e-03
7.740858675297931056e-04
-2.793337530719671672e-03
-2.756918993835589474e-03
-3.775369014902966655e-03
-5.767232396891176782e-03
-7.365353549755229885e-03
-5.315901045501386125e-03
2.294257858941261934e-03
7.009821231119778978e-03
6.387751809623341132e-03
5.221882204221595103e-03
1.629165019281577764e-03
-3.433090993389582152e-03
-4.413152017867638839e-03
-8.089054156841695483e-04
2.376316202389558083e-03
2.057544885777901674e-03
3.006536949326709448e-03
1.739650072930813002e-03
-3.666384155169646192e-03
-6.881960025474393328e-04
6.937226922392200710e-04
-3.367263748859798938e-03
2.307570192606604384e-03
-5.762242055547047749e-03
-2.411798433793024138e-02
-1.293429400290940605e-02
4.086483045614167087e-03
5.738226231817836545e-03
8.843340745889681498e-03
8.636466513509894957e-03
6.200359345560518473e-03
2.358474088460383710e-03
-5.633004459560809161e-03
-3.881170547268063525e-03
2.188687643538968133e-03
5.460173370712095159e-03
9.995645234523365188e-03
7.533379077845311564e-03
2.566439904077578212e-03
3.825833823393041521e-03
1.096007961612110223e-03
-7.470158411288821756e-03
-7.038709156278733642e-03
6.898249097122237513e-04
3.991623906791189904e-04
-4.306155189069985024e-04
5.855349677749801737e-03
7.103664991183971690e-03
1.469279646927881258e-03
-2.736076447978135536e-03
-4.858616561695035599e-03
-9.798278030942667374e-03
-1.129112862477786756e-02
-2.616058602971899072e-03
2.893529373165570212e-03
-5.768772528263933384e-04
-3.066563599751102095e-03
-5.483097970845260665e-04
1.160673077436700801e-03
-2.003807976286361460e-03
-3.916085545580283780e-03
-3.020450428831987760e-03
2.607323226711640279e-03
8.876537902404313049e-03
3.942728965435664951e-03
1.652244459836084986e-03
5.045997023746563725e-03
4.968303236958978783e-03
9.025814585121900643e-03
6.037414126839018083e-03
-2.182526381218918149e-03
-1.792919951347927542e-03
3.422737033303046216e-04
3.540799737647028819e-03
4.032245891952656973e-03
1.002914585710623988e-02
1.157310510446497853e-02
-1.263119415276655472e-02
-1.691033555342080774e-02
-6.068952079533254836e-03
-2.051304916321135957e-02
-1.744837471073294038e-02
7.956979483430875934e-05
5.561097548442623436e-04
2.590953286145827959e-03
3.957302733010699229e-03
4.245658288458052827e-03
4.033225781443835513e-03
-7.467610485464163186e-04
1.063452615574676623e-03
9.190420460862159125e-04
5.050859974274281468e-04
3.218413046293331845e-03
7.392003005203132485e-04
4.798805090281623061e-03
7.447160981875280278e-03
1.543199625621879045e-03
1.510365381925317168e-03
4.171937135187990704e-03
4.588280550015929639e-03
1.499750926840109216e-03
-6.238144122256072607e-04
1.174216970197173530e-03
-2.932112630512019775e-05
-6.844072309900801942e-04
-4.218889722482268428e-03
-5.206612033214355964e-03
4.341960444560637178e-03
2.847972640871929140e-03
-4.974441429561255075e-03
-4.735782939984660433e-03
-5.075524579930756723e-03
-3.030256162812999896e-03
-2.638720074935161156e-03
-2.538961263153374261e-03
2.591333831569848055e-03
7.991947933268017451e-04
1.700397333558645958e-03
6.180440901376200828e-03
-4.518135202773976267e-05
-4.049477040043051451e-03
-1.652715582371225810e-03
-1.106178306512906398e-03
-3.246454315134066591e-03
-4.883508054550939233e-03
1.322548689767950869e-03
8.082657562779272872e-03
9.165164610267366105e-03
8.042897505249285359e-03
3.877506915739576798e-03
2.833479055059041820e-03
-1.053641398025703235e-03
-1.071373535601898019e-02
-6.899812915753885008e-03
1.067524869021232179e-03
1.324093001765945824e-03
5.124188172835047496e-03
2.953132015925118235e-03
-2.785168969936586969e-03
1.878118663674734328e-03
2.823826291057036962e-04
-8.055349886530912759e-03
-7.013384047320888638e-03
-2.648820011758970180e-03
-1.218887290687729842e-03
-6.162029433095077020e-04
1.142037309329432121e-03
3.153684992502796443e-03
3.143620533425137142e-03
4.784869954475632833e-03
3.911791707455148683e-03
-4.294752111161597059e-03
-7.365190153950404266e-03
-1.890691391566722088e-03
-2.561997972497294276e-04
-2.978815202652393673e-04
4.768548404212331199e-03
5.664646881221405486e-03
2.908716115168020512e-03
2.478064849353596010e-03
-1.384189570240408791e-03
-2.201457917944365031e-03
3.815241012778386291e-05
-1.389773534503742011e-03
1.304698452534398161e-03
-4.679985417154293101e-04
-4.307169187255287246e-03
4.537354224110523061e-03
9.572000794587042644e-03
5.973449230585506017e-03
2.499539524162882644e-03
9.630461424318795044e-04
2.485158961996295022e-03
-4.794816043432618968e-03
-9.092361489784595019e-03
4.295551744981162580e-03
1.083904329278731309e-02
3.553450595405818931e-03
5.437837286033828620e-04
2.692256396318427371e-03
-6.070684943157951714e-03
-2.097175157784087959e-02
-1.799118641766338580e-02
-7.415265245941741676e-03
-3.795727910895483215e-03
-2.798702248746817440e-04
1.065324721995144965e-03
4.938031773838628437e-03
7.252510757308287467e-03
-4.932425440863076561e-04
-1.466742974223319684e-03
2.059758652384957762e-03
-7.656544398597025331e-04
7.300314461547542178e-04
3.199433377247204186e-03
1.616318766049282870e-03
3.297608146952035225e-03
4.865311015712742507e-03
4.025372283639715165e-03
3.326346310496667430e-03
1.453277942886732231e-03
1.132921039019756885e-03
6.173534175444575153e-04
-2.748041032816126664e-03
-1.748570812937325384e-03
1.503332369315836395e-03
5.410640863105466635e-05
1.308235869031408507e-05
3.102684832522341514e-03
2.125000356168897479e-03
1.674455187401992402e-03
4.585604212464247653e-03
4.058451968694830108e-04
-3.188042158957626881e-03
4.970181535176730787e-04
-8.333851156278912313e-04
7.384897227650066408e-04
4.706789462691405440e-03
-1.512457622071857171e-03
-4.308654700208611014e-03
-4.313134780629495658e-03
-5.985970887229763795e-03
-2.034993096727256111e-03
-2.369056447081148604e-03
-2.373537491973432261e-03
3.207796406777255280e-03
2.536220283405287573e-03
-3.616626404625293729e-04
-1.335994989994939179e-03
-6.902475094486979152e-04
9.394228899813322070e-05
-1.843244188521034896e-03
-1.323342783653131457e-03
-4.443028484556562317e-03
-1.004632522828491359e-02
-3.287868859002935403e-03
6.108588195715356980e-03
6.352817979800182147e-03
3.169234538580393765e-03
-4.861643674228613172e-04
-1.098375786954293790e-03
2.267547614122821138e-03
-1.171861964078127016e-04
-4.548718510625221999e-03
-1.141951471847459532e-03
1.140541597073839171e-04
3.836854314189189208e-03
1.521842253663160255e-02
1.178026737224675304e-02
3.322409992118950488e-03
4.708368554126132234e-03
-2.018766521814035087e-03
-8.447203174390290753e-03
-4.574432070650880783e-03
-2.916895775531138518e-03
-1.487710099315099708e-03
2.366052487088830640e-03
4.569112733231326523e-03
3.285715472387030350e-03
-1.538371360846613406e-03
-5.486533884781410499e-03
-5.808978432201910777e-03
-3.759514781582550674e-03
-3.583716152845202452e-03
-5.397834185887715602e-03
-5.228191360535621411e-03
-1.319266601041042385e-03
4.871149038928707445e-03
3.760686953034129542e-03
-1.264405874922583948e-03
1.991019042421716435e-03
2.359894178133108492e-03
-3.460099554130509607e-03
-8.159714497906836190e-04
4.121381320834171212e-03
-4.124475407087872369e-06
-1.810008984270238333e-03
6.438508955833473039e-03
8.116747096121436009e-03
-1.473724227959282568e-04
-2.287505574326637470e-03
-1.393099610176554972e-03
-2.669154347018485099e-03
-4.482136721101249738e-04
8.789196995693923566e-04
-3.314795685147291920e-04
1.381459389294940063e-03
4.272166484073363843e-03
6.707426171971165446e-03
8.524489945748161754e-03
3.674245514601136471e-03
-4.429950289313934995e-03
-6.168290602931560465e-03
-5.100001536838772061e-03
-1.860702548872522621e-03
1.983663535574671944e-03
-1.633191908060201885e-03
-3.420012847306866648e-03
-4.297314636086854408e-04
-2.126495772077183384e-03
-2.813359569413398896e-03
-3.323674632154471984e-03
-6.997801059209577887e-03
-4.769450865834338853e-03
-2.589728612653164220e-03
-6.395808709279603155e-03
-6.001465058791671282e-03
-1.242535121117316387e-03
3.761740583656084363e-03
6.695594198566121903e-03
4.257832097027410868e-03
3.713994111029856725e-03
3.241814164645838610e-03
1.126525258076647691e-03
7.417805276472089551e-03
7.533970316429550174e-03
2.912880957221237240e-03
1.117462653653420249e-02
8.667311205331715632e-03
-1.867674899054866302e-03
4.892104623098237921e-04
-1.706836171943841747e-03
-4.700154933818466788e-03
-1.753007510116274311e-03
-3.041828487616650943e-03
-3.123524063358149808e-03
-2.368739564076778256e-03
1.234459205660584516e-03
6.530804797340653868e-03
3.273150940142820209e-03
-2.463812011868808140e-03
-7.561112883831997214e-03
-9.878587078546699832e-03
-7.027749108565311056e-03
-4.791916765421460819e-03
1.268765969726650636e-04
4.463991326478760312e-03
3.883045044988099517e-03
2.601158660375646210e-03
-1.688045225677347249e-03
-4.603673364190851922e-03
-3.505832453621518779e-03
-2.749778467659565618e-03
-1.588191622467492129e-03
-9.762163445716064017e-04
9.350399903121236773e-04
3.089940991905221375e-03
4.097131594988102574e-03
7.160133582747195066e-03
4.167820300003888083e-03
-1.542582127327372194e-03
2.404195687359855424e-04
-2.549393584182450953e-04
-1.212222355124422486e-03
6.274767801085075983e-04
-3.342778473240400235e-03
-2.947505481890681442e-03
1.402730902282238110e-03
-8.771273873799069129e-04
1.451367271906531860e-03
5.785749018559228560e-03
1.280449057666506680e-03
-2.238550627163437678e-03
4.252251617462512757e-05
8.402675788693313857e-04
-5.115197435891856610e-04
2.338843004466365817e-03
4.432654897729188144e-03
2.717690512859764242e-03
5.585882913603426765e-03
4.062299030743950906e-03
-2.540814764119667460e-03
-8.457224621376123897e-04
1.568453994633939481e-03
2.721692150728975690e-03
5.493599093391569703e-03
4.234196880912474877e-03
-2.872751271106002875e-03
-1.774365879068921098e-02
-2.395124878365990223e-02
-1.157247637237803807e-02
-1.758037185632977143e-03
-5.537336863166612095e-04
1.142160702496079891e-03
3.617604668729559967e-03
3.273809416078182679e-03
1.036413568261672661e-03
6.819003713003248370e-04
3.699999136226388933e-05
2.366137353818662664e-03
5.730346694782059887e-03
1.406019553285817007e-03
-1.661526188567352680e-03
-5.266815748781895207e-04
-1.262540385726772935e-03
1.271140238362301281e-03
6.671136958121288291e-03
7.436106618333434420e-03
5.837082087317643081e-03
7.712957707637166198e-03
4.233999313790884345e-03
-3.618852238608534500e-03
-1.028935458870060575e-03
-3.358289911737571487e-04
-6.602452071611332289e-03
-4.689740749854579005e-03
-3.278797018529190730e-03
-5.511391188700897822e-03
-1.100605220964106330e-03
2.476729254813002292e-03
-6.079458410193207350e-04
-1.518095453479369195e-03
3.301447346493075006e-03
4.841442331288981112e-03
1.520182322552737688e-03
4.839513284428191542e-04
1.840188505478253852e-03
2.397241607452048340e-03
4.170618119067278132e-04
-2.610114566141290716e-03
-4.258876518028441305e-03
-2.926384866545301850e-03
2.189150072364989439e-04
-6.616592630095671302e-04
-3.236200363169076250e-03
-5.870680605583315781e-03
-8.104589930700369788e-03
-1.572329379505512000e-03
4.759423300566243374e-03
3.339481610689061866e-03
3.081824503936205634e-03
1.447664409762951200e-03
5.013449564744455744e-04
2.422630223503505469e-03
-2.246145217772097837e-03
-5.083671371485598035e-03
2.691794634021609043e-03
6.559613207881170339e-03
1.842268309045712186e-03
1.356268252027002449e-03
5.035959909198374149e-04
-5.573559164257010402e-03
-2.274542892466145747e-03
2.702198746862700864e-03
-2.295537434257514768e-03
-3.974668710102437566e-03
-1.454629255641226105e-03
5.770662288234097584e-04
3.851527942447929148e-03
4.743490128630049700e-03
5.386794234035091090e-03
3.781787448791673958e-03
-3.276408233914339472e-03
-6.674059231904202853e-03
-5.021081033312634057e-03
-1.453930931088013960e-03
4.179088767752297574e-03
5.667300335776398121e-03
3.334268327618875646e-03
2.320185005799695575e-03
5.229201950840373179e-04
-1.374033335739714657e-03
-1.815041702669342944e-03
-2.645539218092865085e-03
-3.902800580973374116e-03
-3.865272603888546699e-03
-7.520221567209285835e-05
5.310275048729426461e-03
5.497072764677249888e-03
3.496233531146409040e-04
9.725026530203941411e-04
6.449025413746317312e-03
1.523751322568719186e-03
-3.487745598994305540e-03
-2.584285349290274189e-03
-9.543949936530762151e-03
-7.942210070244008421e-03
3.460179502598057432e-04
-3.125281850788922105e-03
1.065157636374528113e-03
5.072762770000698376e-03
-5.021518337165053678e-03
-6.668859690153024211e-03
-1.810312720174344541e-03
-8.607110558746698876e-05
-5.501817076480844003e-04
-1.655861556832689992e-03
5.671210426958180062e-03
1.053131683706108081e-02
5.345454652173248916e-03
2.629415063368533475e-03
2.537953250614372481e-03
2.005037226144221283e-03
-4.109206983902566123e-05
-2.970277321783012462e-03
-3.157235759944542614e-03
-1.497420013788546868e-03
2.949091413186692365e-03
5.035040684366016289e-03
6.780677531056009642e-04
-2.202692495397480434e-03
-1.178236901001824839e-03
-1.220487105175104437e-03
-4.653341039146069273e-03
-4.937713633701326481e-03
-1.252361259496501339e-03
-1.232223682272045673e-03
5.859449186938124566e-05
1.909851237804923059e-03
-4.677283205750547204e-04
-4.756300963249387461e-04
7.527216536812304879e-04
2.095386458280671955e-03
9.236836057240435270e-04
-4.189325323598004983e-03
-1.673315886255979446e-04
6.320956592634744201e-03
4.433828295457549820e-03
4.060093532879879841e-03
4.511964844632705175e-03
2.660786406392468342e-03
-1.861845671577083000e-03
-6.751087391224621509e-03
-3.870025212097320637e-03
-3.640011359778731401e-03
-4.837649495165215544e-03
3.528598821849246621e-03
4.782898633191743666e-03
2.227109708403689561e-03
7.972985362456984706e-03
5.466649245375318662e-03
-3.045558061010809978e-03
-5.108581112527908058e-03
-5.474985690990362072e-03
-4.503165208052556899e-03
-2.416488962626371032e-03
1.178449774262369529e-03
9.553346902167064031e-03
1.277044339823354274e-02
5.881231389396101086e-03
2.702786177454090475e-03
4.929260480792797480e-03
4.760083938981560063e-03
7.158975218932007653e-03
8.733563357902880686e-03
3.898348184399384915e-03
5.367595028403092557e-04
6.481171327975408965e-04
1.951821830359617939e-03
-1.022825040954999367e-03
-6.645795083912601174e-03
-6.323600806808055662e-03
-9.917206440159670455e-03
-1.435442351195595316e-02
-1.088803906009351910e-02
-9.036240393885855426e-03
-3.938859527251948114e-03
1.146126219780298368e-05
-6.155799669058251503e-04
4.742091176940789639e-03
3.252762679371108169e-03
-1.502783212658572874e-04
4.661740013067151682e-03
3.403294720668992648e-03
1.733199187834144660e-03
5.125806804331118315e-03
8.259918044868717890e-03
9.454415381116179282e-03
5.609108909818793891e-03
8.306074070160123900e-04
-4.939494596293382729e-03
-8.971416079461875734e-03
-9.445761264644745789e-03
-1.391341694811530465e-02
-1.872588393183606884e-02
-2.322319266199331100e-02
-2.507817413967262932e-02
-2.108750149925970457e-02
-1.927029470745060188e-02
-1.633038825793087581e-02
-1.231755900501327848e-02
-1.115043689171017760e-02
-1.170583852199301444e-02
-8.363824697895790375e-03
7.796050068190452965e-03
1.906089637278656976e-02
2.602395661297894625e-02
4.176275042770639240e-02
4.663496855916889061e-02
4.809628641785954756e-02
4.362309804759081922e-02
2.361701994213815520e-02
2.139231353560340845e-02
2.584135897189446945e-02
1.739903804384588387e-02
4.763793019149257374e-03
-2.104840118273616778e-02
-4.018318494362958793e-02
-3.567096247940912401e-02
-2.689192243209857780e-02
-2.830520742922207345e-02
-3.763748866871712700e-02
-4.313675000623882344e-02
-4.088141416198531192e-02
-1.857940531762717132e-02
1.154078976725423679e-02
2.005201149149393736e-02
3.145272600757298420e-02
5.099359411009204285e-02
6.060480810476324282e-02
7.013474956697469953e-02
6.408287485535316130e-02
4.307801476019678527e-02
3.576114150633916827e-02
2.729906293792004959e-02
1.504270152458021727e-03
-1.578471376874427887e-02
-3.120451200666288921e-02
-6.055161048394414741e-02
-4.728488244993185596e-02
-1.003501585449605334e-02
-1.288920553188034959e-02
-1.499054232425390404e-02
-3.672050149728477153e-02
-8.354444164219848590e-02
-7.834585101701689591e-02
-8.264396003886731457e-02
-1.443075128615543823e-01
-1.899040013924550019e-01
-1.508374700065638341e-01
-4.119707518251196354e-02
-4.965054060468173866e-03
-4.196922467704154724e-02
-1.891947662378976481e-03
8.735526677203155066e-02
1.425463988737320775e-01
1.642963908886410085e-01
1.942474048124754049e-01
2.424983097174693569e-01
2.283972458265134953e-01
1.701774036255333522e-01
1.380468427859571912e-01
8.629323431130643540e-02
1.174626561147993492e-02
-3.965287082075215352e-02
-6.733204193775405022e-02
-7.932998225455462071e-02
-9.102689949936824954e-02
-1.056309263350497379e-01
-9.715490944968882547e-02
-5.453834850480779317e-02
-1.089641891163373004e-02
1.277417264064645459e-02
2.143490119048439488e-02
-1.513711432111792751e-02
-1.023221908335830849e-01
-1.731232816839350652e-01
-1.654251458028463129e-01
-1.065688502106349050e-01
-6.981615031121425619e-02
-3.813303201494408490e-02
5.395892089781226947e-03
2.992458431306643102e-02
6.955485837245685421e-02
1.050403888412535097e-01
9.938555120558324740e-02
1.049047078476400552e-01
1.088838325494901060e-01
9.268006786401249142e-02
8.055993583873935493e-02
4.892437114611922905e-02
1.396875843416800142e-02
-1.246493188565513978e-02
-5.544958945188880467e-02
-7.672289186397453220e-02
-6.827745840058650761e-02
-7.349651878586394016e-02
-7.504561945445833993e-02
-3.631245397973520417e-02
2.190164516068501821e-03
-2.294340017813607455e-02
-6.081451287329531913e-02
-4.191194700892987568e-02
-1.105729991835045604e-02
1.064050112822932138e-02
3.160871697902308680e-02
1.766455091291398855e-02
1.946819551988727623e-02
7.889603149214130529e-02
1.009507184038932748e-01
6.162580633373956202e-02
3.590714331329213083e-02
2.844544304417746111e-02
1.543733116879131111e-02
6.058920426729264529e-03
6.695374838753433491e-03
7.960177902959580942e-03
2.799741974440595610e-03
4.470226429860426004e-04
-1.979492874938205450e-03
-1.068158801256632005e-02
-1.437190578247658085e-02
-1.827344694835120881e-02
-2.667320645346148156e-02
-3.054984259905088942e-02
-2.982878448283896033e-02
-2.555399436025643928e-02
-2.650838631350459218e-02
-2.751143143303938846e-02
-1.893277572932298980e-02
-1.712613962999791697e-02
-1.284806000898892735e-02
8.555974920074118500e-04
4.222187066495724367e-03
8.655729187345043152e-03
1.655228032411539679e-02
1.683171349759357907e-02
2.024404774027157086e-02
2.324284132575428832e-02
2.124026312037338715e-02
1.660885416576944260e-02
7.827331722400665201e-03
-1.969804018905708942e-03
-1.190361835054853934e-02
-1.227844138043654269e-02
-5.786104232000982041e-03
-9.058178712402378471e-03
-1.223600882692236352e-02
-7.722928976644825340e-03
-4.290450802638940027e-03
-3.719462185324675513e-03
-2.580106124214690162e-03
1.599034485444697073e-03
3.221109707869221784e-03
5.441276560332971093e-03
1.261310487636102540e-02
1.155841203314107897e-02
2.118353301629146476e-03
-5.191571139220767586e-03
-6.275227223311361999e-03
-7.700435222536738435e-03
-1.349606508243282772e-02
-5.064529753123061216e-03
8.483551868967086421e-03
3.935545116038679896e-03
-2.125272012664261665e-04
4.900145923025978414e-03
8.657764501241718355e-03
8.672876762305822135e-03
6.142318462701634729e-03
5.426884095310054862e-03
1.121639336748336043e-03
-1.210106575227654861e-03
2.274972368300543380e-03
-2.700392394025987429e-03
-6.410394013224720612e-03
-7.971394390080717429e-03
-1.209078591460230161e-02
-7.686496597697180938e-03
-1.159783498026623928e-02
-1.552727864778306703e-02
-3.985249444973865325e-04
3.313711266223159403e-03
-2.383604755845813127e-03
5.309756259167559486e-03
9.564948879751613772e-03
1.820507827213909639e-03
-5.241943284722510102e-03
-1.349088575223037195e-03
8.159626202946015580e-03
8.566048351792398749e-03
4.193762384534131284e-03
4.126010496009791667e-03
1.279122389031150768e-03
-3.093626593417711599e-03
1.973491085171929799e-03
9.191099624416150179e-03
8.866509645725219671e-03
6.547320949429646583e-03
5.771176970448253264e-03
4.706811374572947293e-03
-1.270266962624960142e-03
-7.054451904365655925e-03
-4.598214240317262391e-03
-4.890266257631985074e-03
-5.947604909064829054e-03
-2.849742594360167580e-03
-6.265240590014364667e-03
-8.109662587974493866e-03
-7.700515339574705818e-03
-6.940128797296322115e-03
1.170108589142141971e-03
-1.366602496479511764e-03
-4.575972449202437599e-03
5.621494130993411747e-03
5.007810490554458725e-03
6.294974581116261937e-03
9.695771268264524040e-03
-5.862572187091327595e-03
-7.141991092940235680e-03
5.235851782890536821e-03
2.006960327305683765e-03
-7.277527453472933464e-04
5.672429637787883587e-04
-2.849438090996241719e-04
-4.300173088737124544e-04
-3.896085341750509488e-03
-4.149617027028488364e-03
-1.092640789941686473e-03
-9.902261876740786183e-04
8.297236585609471873e-04
3.809471979998596200e-03
2.913055116581466601e-03
3.174213534901538917e-04
2.040340605174106869e-03
2.651967749623379729e-03
-8.710938310074990091e-04
1.105026830981784523e-03
2.657765993224106126e-03
6.359749833023406809e-04
3.336842388505242320e-03
3.884785885533378804e-03
6.455991384138751524e-04
-3.136670423506885633e-03
-6.897778252285402881e-03
-5.474933229881870020e-03
-5.001328034445672206e-03
-3.713734236215733824e-03
4.094247860516175321e-03
6.021208863341506907e-03
5.357563445565385885e-03
9.113639796961569423e-03
7.310935800075661281e-03
3.795196110578892210e-03
2.663053968552096459e-03
-3.138278759620947295e-03
-5.549392005921911612e-03
-5.846674257972780562e-04
-2.296861014175041651e-03
-6.968638441277977789e-03
-4.827892994048721236e-03
-3.834629020153793554e-03
-4.265859573737340073e-03
-4.506388458228060591e-03
-4.659263871720225811e-03
-4.639288620122655575e-04
1.975636179896137119e-04
3.822683761936082267e-04
6.875958246201088753e-03
1.021828344433593425e-02
8.224114553580763945e-03
-8.621432381457545292e-04
-8.287283003913747254e-03
-4.665755689226626021e-03
-4.362917614876374653e-03
-4.247896481229983083e-03
-2.396614201541298009e-03
-8.774483752379847248e-03
-6.562530802948073061e-03
6.110026925879138288e-03
1.045686841254936730e-02
6.325484160084279307e-03
2.292843788461931299e-03
1.780145028801223680e-03
9.635595367165976062e-04
5.943083467121459615e-04
-8.393908292877750319e-04
-3.556908567751271028e-03
1.642020590194386530e-04
3.311807890974875312e-04
-2.925261604331390666e-03
-3.368900817797166117e-03
-1.003877269736653047e-02
-7.625510143525944876e-03
3.564863717504870768e-03
4.605985972378186591e-03
7.854454707715407408e-03
1.184464103403643984e-02
8.623550525187925059e-03
8.454985507525381028e-03
8.720207302699766946e-03
3.795047357429708404e-03
-2.223254716606913161e-03
-2.038345440467588619e-03
-7.897389704565163150e-05
-4.628841782306478136e-03
-7.616902151166568026e-03
-5.350576539889182956e-03
-1.710252173580810529e-03
-2.152869039338752705e-03
-6.280420101212327681e-03
-3.713529299534962507e-03
-2.618879076433144708e-03
-7.713547819587345325e-03
-8.371399193714584158e-03
-3.902861249069390637e-03
7.953226550440490802e-03
1.602066302544598309e-02
8.834246540271139050e-03
1.607914369668505877e-03
-2.060321183940227140e-03
-5.796845634547465910e-03
-4.810298647295867258e-03
-3.860099901865088334e-03
-4.487086337949977403e-03
-2.106146782781944608e-04
4.504171817181785303e-03
-5.478278787506307181e-04
-6.079122501143604217e-03
-5.866641574360112552e-04
5.064335192246084173e-03
5.774931190627046775e-03
5.214726682053751408e-03
2.811133215409121044e-03
-4.577935534509473023e-04
-4.436549212812172099e-03
-2.237438563879181642e-03
2.747624721697725612e-03
6.739004915417901899e-04
4.042773270159558292e-03
8.302636356567638654e-03
-2.196230907253599474e-03
-1.381742097502151011e-02
-1.481693327593333089e-02
-8.961867815384532560e-03
-7.412808636617079262e-03
-7.768898644852244295e-03
4.917758301044406789e-03
1.396231800821428823e-02
1.466591908118570695e-02
2.215504658935921883e-02
1.624743980635131799e-02
1.826544267432063298e-03
1.127038020110516462e-03
-3.023061449671753456e-03
-8.426240359760573534e-03
-3.727797676145935390e-03
1.066704034674947318e-04
2.996388602737841411e-03
4.266140781025658073e-03
3.162472322480970794e-04
-5.724321262010318052e-03
-9.754910034127524041e-03
-8.630185032556914049e-03
-6.995635577643375021e-03
-5.593723381144073865e-03
-2.887970246368275293e-03
3.170580196663715577e-04
3.212027060771265735e-03
1.359924015995896216e-03
1.294622027089860350e-03
3.069622579358420329e-03
-9.017985786034386948e-04
-1.939704191446277445e-03
-9.287299342705429735e-04
-2.059441190137152513e-03
3.515934506068620242e-04
5.607926088160485045e-03
8.148185230035447785e-03
-8.115018950167178112e-05
-9.086428136201581823e-03
-6.117328136819646760e-03
-1.245253166042911176e-03
2.081884795345349468e-03
4.234337013596787234e-03
2.742690210587795351e-03
4.625678330527084581e-04
-1.470871492265697069e-03
-5.343929355985177834e-04
6.921637216069684946e-04
1.367225865779526321e-03
2.666511664800267235e-03
3.589821533762067407e-04
-3.829460197288532108e-03
-1.076790378295811902e-02
-1.216766762670394228e-02
-4.004998533504353607e-03
-2.164566163159426654e-03
3.251080673055594273e-03
1.351141456209763170e-02
9.128789231077082816e-03
4.438824571366600802e-03
7.960853313074958693e-03
8.002929913123376163e-03
4.787199857095240062e-03
3.448433060748918796e-03
2.111027789626251233e-03
-3.698095412110987898e-03
-3.209570709782558380e-03
2.929509236406598570e-03
6.113284693379191816e-04
-1.091974627043863669e-04
4.809643256661679488e-03
2.753968936543560019e-03
-5.287638330782072627e-03
-3.591201986533790018e-03
6.867390507281538083e-03
6.257579043959803772e-03
2.119713729060234125e-03
-6.350546260655468879e-03
-2.348139079855549038e-02
-1.562047691125561903e-02
-4.766780069812175114e-03
-2.018916555632880097e-02
-1.639756410737792935e-02
3.188250985352993321e-03
3.272461112045713365e-03
1.447768132544901155e-03
5.229510584026319207e-03
1.952386138137559950e-03
-2.233100481751312903e-03
1.194404892504729665e-03
3.982680518227752972e-03
2.462203447974509966e-03
2.772453984000030139e-03
3.310711633184608513e-03
8.622904533499778021e-03
1.463313595682841362e-02
7.801344960080756202e-03
1.580149585046475985e-03
3.754759664428951836e-03
3.015743232197315611e-03
2.878722094861271190e-05
-1.550019430546472742e-05
3.315660590874681003e-03
1.212438641743180008e-03
-8.136189616883966053e-03
-9.111583070786447372e-03
-1.451046547167323059e-03
5.185275625536600423e-03
8.007495402447644545e-03
2.770775551476534638e-03
-3.437226541393548305e-03
-3.002786511530301534e-03
-3.401867259542805909e-03
-5.764569983593589159e-03
-4.898229241311901488e-03
-1.541778505534003489e-03
-5.077552926479372754e-04
-2.708689413275504766e-03
-1.984285900171975934e-04
2.209604705621471838e-03
-3.152671960640368153e-03
-4.322829243015744935e-03
-1.920494531915811548e-03
-2.903399062747522106e-03
-3.011187687452093319e-03
-5.048305092209808692e-03
-2.937924078773881693e-03
6.224675418414508596e-03
1.062610284113965457e-02
1.066328985063820858e-02
6.444829656137286006e-03
9.232744571293683995e-04
-2.971929412872184682e-03
-1.191085495675778955e-02
-1.075899901402691157e-02
3.216746493988919577e-03
6.306248626792327651e-03
8.185451776109348068e-04
-8.909043859797293862e-04
2.678829908519634283e-03
7.613927260987255613e-03
7.294007364177443331e-03
1.251683764797219007e-03
-7.938409924040689888e-03
-1.058442273980460084e-02
-7.367076561339894018e-03
-6.891862761688248400e-03
8.097427278493057965e-04
8.176839630371329770e-03
3.916511565162582656e-03
2.965989543359623393e-03
3.027291097355155718e-03
-2.041975355226980824e-04
8.463116967552547108e-04
9.610688850050939838e-04
1.240526068943959145e-04
3.530745694344651717e-04
1.742912212514858249e-03
6.372540878827388788e-03
4.635416791808626320e-03
-2.250403561799021145e-03
-4.063418357128776269e-03
-4.921701454900740888e-03
-5.804468725659063348e-03
-3.573323558559678755e-03
-2.427090344370617329e-03
-5.045814031261898480e-03
-3.945527463909309293e-03
5.498238020886238829e-03
1.044775271627838495e-02
5.697534874614936656e-03
1.959215693818681481e-04
-3.408721359862290981e-03
-4.021391936649008382e-03
-6.575330598543672848e-03
-9.318439501674425501e-03
-2.335485618130976951e-03
1.974137642050847758e-03
3.586538275274590241e-03
1.097256162012030280e-02
6.932679812414184288e-03
-1.772738902638479417e-03
-1.828117702135485150e-03
-2.237291574881036197e-03
-7.355126810055344225e-04
-2.543729366229505271e-03
-3.233098796354324286e-03
8.261839678708566767e-03
8.922744062004821231e-03
1.080238502420065479e-03
2.911033482729005577e-03
2.784763629741161123e-03
-7.795147545152214920e-04
-5.827341906438241077e-03
-7.731509285799915109e-03
-1.793866021649269263e-03
-1.409976021741973307e-03
-6.440254817546258847e-04
1.823368823625059771e-03
-3.437619290737717152e-03
-1.964319020613362540e-03
5.431767336267743791e-04
-2.653675728990190566e-03
-1.616163847067678041e-03
-5.359645491793536137e-03
-5.881057705786882361e-03
1.821097001895691757e-03
1.224123653741469300e-03
1.007688298195557946e-03
4.808427176681997692e-03
6.129626193803363980e-03
8.105937540403508959e-03
4.284976578632157182e-03
-3.160172480200759736e-04
7.649240975814009099e-04
-1.472609856416140582e-04
7.855125540272539075e-04
2.374647649580267743e-03
5.302752177071001511e-04
8.950434738314689501e-04
-1.408120499863311234e-03
-4.859920053015618149e-03
-1.501091394826840680e-03
-1.610457071092945801e-03
-8.209244494327458397e-03
-8.316014223017923618e-03
-3.740197720677229925e-03
-2.207357969462423603e-03
2.359522060098036104e-03
7.701998423651506935e-03
5.410885039668732535e-03
2.973971129489828315e-03
1.445271796616183534e-03
-6.294913135376558992e-03
-9.905010276408639583e-03
-1.372859038312378155e-03
8.155792470400746383e-03
1.001624445938150212e-02
6.777126594255669483e-03
2.242630082931106224e-03
-1.680235706554167470e-04
-1.323391127562901365e-03
-5.751242056742283774e-03
-8.145225127578035670e-03
-5.416244045800167224e-03
-5.016044896440807754e-03
-6.612050661615040056e-03
-3.896267358906798945e-03
3.878930689773229905e-03
8.031322505998618466e-03
5.765926014677996876e-03
5.455432076192824262e-03
8.951056670155621304e-04
-5.539703653614743914e-03
-1.587993783101065981e-03
-1.065893111572818741e-03
-1.884416436362178465e-03
5.018778449560419921e-03
2.808476830749761372e-03
-6.085149881054876175e-04
5.027751130385022665e-03
5.400209172144472720e-03
1.024445709391453695e-03
-2.989704014459418618e-03
-3.115171441720660829e-03
9.317833023385142972e-04
-9.005401039056308652e-05
1.358032300060744817e-03
8.322048518698485498e-03
5.621395585371177263e-03
-2.648073917509762964e-03
-6.172483939718390218e-03
-6.819415413383022803e-03
-4.304567314760321568e-03
-3.674515997960013072e-04
-1.596880391694692968e-04
-3.597524380475128781e-03
-2.123979145675763350e-03
6.530023026788023439e-03
4.741723967100226061e-03
-1.158594962864856540e-02
-1.889085224420562759e-02
-6.791990107048427767e-03
4.687733138525537746e-03
9.248057734227292962e-04
-6.202143076877100628e-04
5.691862928855177459e-03
3.361338894176431856e-03
6.900589782426929178e-04
5.097208638180169941e-03
5.369450503194177736e-03
1.094722568240265185e-03
-2.627774931319881279e-03
-2.136017144194662324e-03
-9.556562511381667263e-04
-7.014714152281279836e-04
2.558766076669292521e-03
3.381524486764854020e-03
3.963308576957105811e-03
4.750918970137602004e-03
1.116976581634739714e-03
4.193231529005807430e-04
-9.257762560922716370e-04
-5.410059931436963197e-03
-6.143922095258162047e-03
-3.838955188345344761e-03
1.225553767984326626e-03
3.472362045536356908e-03
2.852324333887094020e-03
3.945300729222708802e-03
2.192374150675120790e-03
1.065267124294415205e-03
9.831659629810265543e-04
-1.042382293018467247e-03
-6.261658555507326144e-04
7.001406784573387327e-04
1.649955939314635012e-03
3.199155079051934237e-04
-4.102795052641050599e-03
-4.190940745287163351e-03
-2.394929038246327614e-03
-3.524585584014801147e-03
2.127342395229785913e-03
8.567344413103562817e-03
-2.247785728535290392e-05
-7.107971086173821805e-03
-7.104708883086245999e-03
-9.455622598207022445e-03
-1.145864051049251759e-03
4.513413007895394381e-03
8.763295113948304724e-04
4.698304077411166388e-03
2.518106659418561412e-03
-3.390281646485864388e-04
2.227493089777516679e-03
1.094461113844734986e-03
4.312803045701717186e-03
-3.496814885060824975e-04
-5.690976995066275405e-03
6.326346593242752718e-04
3.379048860477352730e-04
3.851876800615909677e-04
-9.353261635429994513e-04
-6.757814138932453224e-03
-4.994420667940477516e-03
-4.282351342536590451e-03
-2.851470572681335993e-03
-5.488923068888233161e-04
2.369346262389986513e-03
9.052690930756709942e-03
8.121555080241036825e-03
5.171102229704951578e-03
-1.045456862618642912e-03
-6.739438141122968719e-03
8.885684286057661204e-05
1.124508833370247134e-03
9.384008186181083460e-04
5.610785650899263385e-03
3.278268011787968585e-03
1.906256330235810755e-03
-3.562766653332096302e-04
-1.201827812313876250e-03
1.261834022728067998e-03
-1.482426471709756772e-03
-3.972288790482375771e-03
-6.881761960149643080e-03
-3.901056997491684705e-03
3.339760646918242711e-03
1.050490624221910117e-03
1.884033600047500204e-03
6.337806397902795430e-03
5.731728863005077293e-03
2.180689968898672588e-04
-1.010768639324671585e-02
-9.527802352660869403e-03
-2.702098719710912828e-03
-1.613851269667332866e-03
2.787896630842781436e-03
5.401858507538520593e-03
5.440257790865109071e-03
3.657246541067608967e-03
-6.047276680334386784e-03
-6.551232832481819306e-03
1.237975982372945243e-03
-2.065791327450054900e-03
-5.326304358683845233e-03
-3.877684473181688659e-04
2.520408301154221809e-03
2.962460023455014066e-03
3.200201141754032298e-03
9.708785371334567420e-04
-2.521273593686208358e-03
-7.657917575514192055e-04
2.017207774886398564e-03
-3.741629228379911992e-03
-5.655210316537247726e-03
7.890002754479736626e-04
3.002615316188840880e-03
2.672456219199061817e-03
1.233176160043849157e-03
1.020059510102073672e-03
1.621480616768180161e-03
-2.026348599313186616e-03
4.343861274375626028e-06
8.239051838453321803e-04
-3.917309955269595093e-03
-1.977781148137974180e-03
-1.974141457380721408e-03
1.002585054627371918e-03
7.510550512253072811e-03
3.828706203407002042e-03
4.719635539117247175e-03
7.774357123510616634e-03
2.829419161886746747e-03
-1.436166415890996126e-03
-4.462075694035175059e-03
-1.492302119512388305e-03
1.919710991821551790e-03
-1.517213378667043146e-03
-4.321408421661290626e-03
-4.849889561093561827e-03
8.147825563344638549e-04
1.983155867377944543e-03
-6.481801061353121077e-03
-5.873904719366278455e-03
-3.465210606854144879e-03
-4.878208484131301217e-03
-1.481890375350268258e-03
-9.256128039149627302e-04
-1.352176187911326329e-03
5.892115840027511812e-04
-2.480720769384349043e-04
-1.727864051007174575e-03
-1.475845582758748961e-03
3.196901927265030641e-03
8.044340384085239826e-03
6.138162508489686080e-03
3.142198214597554263e-03
1.980024532080472497e-03
1.778192608201256339e-03
2.989799013872725900e-03
9.934125364434154542e-04
-2.301139509276398619e-03
-3.872300500879285600e-04
1.614820141021518782e-03
-2.399948799941398984e-03
-5.399207781150743533e-03
-2.292987588936269781e-03
2.129566311759909826e-03
6.292556839639844996e-03
5.938632707183804683e-03
1.416845717468946577e-03
2.383058453096303930e-03
-1.046725677268727514e-03
-8.212865908566671300e-03
-3.001993194700213526e-03
-1.593616486538844976e-03
-3.736181799834470667e-03
2.049115508844627249e-03
-2.921468883421911127e-03
-7.042036354022228849e-03
-9.309995926198581968e-04
-3.754248596433050478e-03
-4.009741263006829683e-03
1.087139386987081907e-03
-3.981919115871483195e-04
-1.950371761493957306e-03
-4.236617130227497002e-03
-3.360679705844546103e-03
5.352344844706376226e-03
9.323473480985708384e-03
6.634359747559064394e-03
7.417619526369870729e-03
8.904367572939612258e-03
3.405654187880185080e-03
-1.669860046283386419e-03
-1.788032108193733649e-03
-7.968139472291858785e-04
2.174988802912767617e-03
2.589307122755677912e-03
1.684517411987819253e-03
7.739224596282497613e-04
-7.171327194520199337e-03
-1.085353935218601532e-02
-4.096571061370439353e-03
-6.123933667026089551e-04
-1.516147690393943427e-03
9.077884080234379293e-04
3.870478645596873817e-03
5.612007948626287351e-03
8.225795324378951806e-03
-1.483333867982607104e-03
-1.706125305372298631e-02
-1.372849286875575496e-02
-6.123677672993855202e-03
-3.537724862460955421e-03
3.234712806888715830e-03
6.530437131176946089e-03
7.593513234776571100e-03
4.736931141134373066e-03
1.124773157216125887e-03
2.374501229356660616e-03
-2.339545121803844954e-03
-7.444486334106153926e-04
4.377809767113874893e-03
-2.671398969655984588e-03
-3.485448521723541471e-03
1.448417904101592440e-03
3.171763325898298552e-03
5.658600719859300382e-03
6.183536478054160387e-03
4.590387427181466008e-03
-2.992366138090134589e-03
-7.661117205607511325e-03
-3.374484748932858949e-03
-1.943110405062160309e-03
-2.946623871295943374e-04
1.366054748523452649e-03
8.191950570932717262e-04
5.578736116404062542e-04
-1.897633281296486887e-03
-1.481598069367048550e-03
1.100082690848997423e-04
-2.645848560895298321e-04
-2.313003466681937993e-03
-3.660607754989223233e-03
-6.486807460365683542e-04
-2.812411445642200129e-03
-8.038452598459566809e-04
7.320122534318964161e-03
5.659790644316728056e-03
6.656996264530017776e-03
2.599373629942191601e-03
-6.163149333291045515e-03
5.936555504033041043e-04
-8.921816320329173508e-04
-5.908711593512739474e-03
1.148034814269578664e-03
2.480548855177229441e-04
3.991291739675887815e-04
3.393210907060071387e-03
-1.892388101062968814e-03
-4.303900922567611975e-03
-4.044369425194582583e-03
-5.338356787747606559e-03
-6.499139302753841226e-03
-5.177936318902129700e-03
-6.262222639224863593e-04
2.393206076864762104e-03
4.159295226822049343e-03
3.493642230200331381e-03
2.195890730017682410e-03
3.462897695163141831e-03
1.331584188831739114e-03
-1.992998965764413485e-03
-9.589514003098545880e-04
2.862074355290002755e-03
5.758475013306259618e-03
5.232277182632266536e-03
4.586765680533222249e-03
4.287645875197036889e-03
1.925620202946919969e-03
-4.631405332338281791e-03
-9.880753971314609405e-03
-2.740133776525664581e-03
2.216694683096283053e-03
-4.878121904545148872e-03
-4.729397595340159750e-03
-1.719020738189959007e-04
-7.187860925126101069e-04
3.612996702390258198e-03
5.340117563127190839e-03
-1.340010973019890774e-03
-3.180026754483156366e-03
-3.402324083427451986e-03
-5.457781772972518548e-03
-1.288633144734245822e-03
3.935645205446457358e-03
5.563192032600922619e-03
4.286342342297356535e-03
2.222909698335340418e-03
3.383810257693211938e-03
1.448913970335643456e-03
-1.239601848762184131e-03
-1.265215651563088945e-03
-5.516578903398195073e-03
-6.697230341763891689e-03
-5.667137634021923547e-03
-5.852401618967995912e-03
2.544364279818809096e-03
8.881609560988448782e-03
4.244240240515452858e-03
1.431501366587734731e-03
2.442711669424896346e-03
-1.043480235921553185e-03
-2.427775802500112007e-03
2.738709289774578660e-03
1.300332074129107980e-03
-7.874868569073608261e-04
4.543134220356007742e-04
-5.650275445500530305e-03
-5.070323030277553746e-03
-1.637875621357827178e-03
-6.749201922305191233e-03
-6.136704375481640342e-03
-3.468520940128711535e-03
2.644509772856274820e-04
6.715670981543152285e-03
7.661818280993072487e-03
1.005292202502643464e-02
1.049802056071648219e-02
5.037373675838238175e-03
4.546351437996323580e-04
-3.589479098761987324e-03
-6.602800419099608131e-03
-6.749565964704647668e-03
9.194527958294106910e-04
4.277122590089721399e-03
-3.038230666291028698e-03
3.123381134495695124e-04
5.040115635745814025e-03
1.700966801924237671e-04
-1.825408984605119160e-03
-2.621240838393372029e-03
-2.543068590971811743e-03
-4.805914611719893162e-03
-6.726452450408208945e-03
-2.266922757454692926e-03
-2.535033107294325672e-03
-1.190293430731507139e-03
6.541704278811917746e-03
9.306894284550332533e-03
5.346694649964815402e-03
1.644360381173287200e-04
2.385825370480807762e-03
2.190408059479724123e-03
-3.394062251017422333e-03
-3.297852025682381123e-03
-5.058855142305066291e-03
-3.214430753017360164e-03
2.051107818076461104e-03
1.652358652705303473e-03
2.716294844827440384e-03
-1.790038776029974528e-03
-5.491819223290627522e-03
-2.917069533274921182e-03
-5.278472839326526014e-03
-1.152284594213823492e-03
4.360636261018923689e-03
4.229854832143599593e-03
8.179109567925868171e-03
6.410975878248531372e-03
-1.751357992286734161e-03
-6.938585088790115603e-03
-7.216346664071793433e-03
-7.313079538706760731e-03
-7.238856012472001840e-03
3.195737997872630156e-03
1.091696833035010750e-02
9.491014549689886365e-03
9.244250423256843499e-03
6.890373172808396916e-03
4.531571376232842487e-03
-2.076428280660723240e-04
-2.764532740100977565e-03
-1.161251948528538780e-03
-5.952619926515273496e-03
-1.004777737421018013e-03
4.714829051930359560e-03
-1.941723342009027235e-03
-1.205936156597534319e-03
-2.352386041054964263e-03
-2.714750570287895182e-03
1.716862330637359711e-03
-6.891709404192092325e-03
-1.182182960076835938e-02
-7.929082369794952095e-03
-3.077791723848691784e-03
4.220058610131968875e-03
4.551332502671635166e-03
4.242734064107218407e-03
4.841469700423024422e-03
3.613597664130074796e-03
7.616624663711719055e-03
8.678502829617519912e-03
6.864995769575034379e-03
8.308301736456970635e-03
6.352719626034277096e-03
-2.480474266019649324e-03
-7.797466954026651374e-03
-8.260265831761025648e-03
-2.284689873542583918e-02
-3.407893625787748043e-02
-2.197662906924897561e-02
-1.519163045500282819e-02
-1.633727036469004995e-02
-9.017819913378896657e-03
4.860688710967771579e-04
5.002663762860975853e-03
3.772092548037935238e-03
7.845488646896440349e-03
1.710266199154089964e-02
2.693284589625730488e-02
3.935215092426919831e-02
3.693444236633727784e-02
2.404956344540798430e-02
2.020905303487543353e-02
1.568959051823031955e-02
9.313944669252746320e-03
6.329849340531787036e-03
-5.887301259670249878e-04
-9.319850715087747012e-03
-1.595917233150953574e-02
-2.082427855219946833e-02
-1.903070975953837993e-02
-1.456685228380098784e-02
-1.299351323290365984e-02
-3.112636007087006551e-03
