2.190415801287951165e-03
2.488603179087474761e-06
-1.345394899814437561e-03
8.984249634892286021e-03
1.000538593393097975e-02
4.909971704298739074e-03
2.090482020179738366e-04
-5.988480696358200288e-03
-8.010459905336967876e-03
-8.482676707956439757e-03
-5.511949701377677653e-03
-1.916229258891517578e-03
-2.836396940466058905e-03
-2.004424225138171762e-04
2.140510016629613901e-03
2.506159980275812771e-03
4.225793100812736021e-03
4.631577356038247065e-03
8.450987852107402082e-03
6.990142886799901277e-03
-1.345278698704118316e-03
8.087531941360567855e-04
4.909469548644711766e-03
1.395171268830029589e-03
1.756475803799549995e-04
1.654599992924977786e-03
-3.019295659725836209e-04
-4.287245488871406322e-03
-4.673295051470428667e-03
-5.312405622482874352e-03
-6.043645557111739820e-03
8.470934335992617902e-04
7.768763072721694696e-03
1.236487373406354798e-02
1.479972888319280172e-02
2.975513301617846960e-03
-1.223266932570130604e-02
-1.351092610509391050e-02
-6.615718624952436622e-03
1.805281896200318381e-04
-1.180218502459519977e-03
-6.374556333231456290e-03
1.455183618362438161e-03
1.164522497286089170e-02
6.996645047798418122e-03
-2.049394606044995393e-03
-7.484757475192422606e-03
-1.078178868165409650e-02
-9.272968087395645764e-03
-7.360203274165128158e-03
-8.646213504472182593e-03
-7.910592794154380422e-03
-1.163834585397111520e-03
8.708714842957822680e-03
1.096647814967323387e-02
6.246768645139822405e-03
7.441019109776892543e-03
1.234498948537836489e-02
1.167963103026568687e-02
6.159871338779232888e-03
4.536566492844416767e-04
-1.856455693738994330e-03
-3.589672716944721171e-04
4.971604792275221576e-05
-3.370723706098767512e-03
-3.435490446932407994e-03
-8.318525589074153613e-05
-2.459082255069881904e-03
-6.229870333376050055e-03
-6.634404124822891602e-03
-5.808340508091306385e-03
-2.308464345136672802e-03
-1.654374655366187981e-04
-1.350985302893262414e-03
-2.156011925876585248e-03
-1.860888065889500231e-03
-4.353072191172482289e-04
2.415429295711523381e-04
2.089588420613620184e-03
5.430463811260014852e-03
4.096801135821033849e-03
9.221876499332712493e-04
1.952558246851168701e-03
4.435347867299728637e-03
4.350874110356054390e-03
3.887291959280042737e-03
3.509971712969852612e-03
2.458325750878633063e-03
5.922138168490344474e-03
4.993568147788402488e-03
-3.200798161190429418e-03
1.079487321754804725e-04
5.562511972863243108e-03
9.951044269952967784e-05
-3.044977406874884839e-03
-1.140266742796385620e-04
4.200906694827536564e-03
6.906931228576730728e-04
-7.648871618996131924e-03
-1.516169686995462104e-02
-3.397203272793449663e-02
-3.676219079701052717e-02
-7.405190573332153317e-03
1.063412942512818003e-02
1.228794871568250104e-02
1.219332089515045084e-02
6.383757999172924406e-03
5.364926681689507690e-03
4.379152235079684756e-03
-7.010553464702112608e-04
-1.821413859014192214e-04
4.584080155492678121e-04
2.581736072957061781e-04
3.130512269203103177e-03
7.138861758229035799e-03
7.104610235501615523e-03
2.787021995257725829e-03
2.512522806219809335e-03
3.921769621573895949e-03
5.188615532310480137e-03
3.603436719303631641e-03
-2.118828345514518589e-03
3.067600250963669738e-03
6.301504248241283739e-03
-2.139987125654409499e-03
1.472824709959769920e-04
1.686528315037507005e-03
-6.301013625884313400e-03
-6.935186394205631114e-03
-6.829242004980621943e-03
-7.341649960476783615e-03
-2.011194286175159527e-03
6.530625843046354269e-04
-9.502764588878244477e-04
5.730823862941862405e-04
4.451527567471193561e-03
3.083598802173693251e-03
-2.691000842073512514e-04
-2.669490988763386762e-03
-6.104761965255618705e-03
-1.085460809532531618e-03
6.342463714312416082e-03
4.232835049574331515e-03
1.877978359438995260e-03
-1.040163690968625831e-03
-5.258762752200267510e-03
-1.075537032666626456e-03
3.212251424369348858e-03
-6.882250126474850471e-04
-3.816449888965847519e-03
-2.042317296355677068e-03
-1.312881908620955177e-04
1.512793007045051298e-03
4.041123610855810143e-03
5.502027625049427627e-03
2.478790042149646433e-03
-8.044110515829502525e-03
-1.512902404461439337e-02
-8.833635760831607189e-03
-3.326792848507196653e-03
-4.505377502943141640e-03
-9.682144410043415621e-04
5.370947764119188110e-03
6.763944641922264508e-03
5.135570638764798759e-03
4.160820164091606592e-03
2.871223797683284448e-03
3.042459267291743280e-04
-1.041247625464535552e-03
1.168414787241281574e-04
3.961202227663789335e-03
7.075196990198769076e-03
6.712508479786317289e-03
6.938649663220177420e-03
6.326321912146286655e-03
4.014688883615028132e-03
1.221834026655611947e-03
-5.273363897078335756e-03
-7.379201875129202774e-03
-4.548192354707498997e-03
-6.425182792228204681e-03
-5.398298268773091615e-03
-4.379314864188680939e-04
3.592034983818181895e-03
9.142512427801908689e-03
6.018203478035974267e-03
-3.574921229119575310e-03
-4.146345096057768576e-03
-4.437321022048790024e-03
-1.100871662875477219e-02
-1.225190016444503531e-02
-8.597655713462805382e-03
-3.555682368236097544e-03
4.751527930204360768e-03
6.505937501441660595e-03
3.121712455531752521e-03
6.082789570843300485e-03
6.140189702166275534e-03
2.933601789398589989e-03
4.504269899772664343e-03
2.940967811460848663e-03
1.672815132948646255e-03
3.187930273088096685e-03
1.798853309029467377e-03
3.095103355169305081e-03
2.162022076277603146e-03
-3.572405944221045387e-03
-5.416044765880937729e-03
-7.993535437442607708e-03
-1.133879967450507342e-02
-9.742004019391544214e-03
-3.477309141417275935e-03
6.894486749875949547e-03
1.162894354279732888e-02
6.673631728843608911e-03
1.334124473215472784e-03
-2.817770904220971793e-03
-6.900956959125366559e-03
-9.266493769305760367e-03
-7.797730667061747965e-03
-1.182330797849500108e-03
1.539328464292446250e-03
-6.298069459846304804e-04
3.472630278674595540e-03
8.732114978853658740e-03
8.510430834188776467e-03
7.117533126125520290e-03
3.311491644678078022e-03
-1.242725430580068208e-03
-1.730222374699615529e-03
-2.385500580416679054e-04
2.054204572304954850e-04
-3.972025053817090120e-04
1.225530140148947634e-03
2.484860337540542585e-03
1.000002767264860639e-03
2.158638009603560184e-03
2.062199371871474823e-03
-3.718723681469100176e-04
1.530133532612508386e-05
-1.961815375928068622e-03
-4.203489543533104299e-03
-3.636636315758932838e-03
-4.041461272572506765e-03
-2.205544517241540652e-03
2.549598040030442319e-04
2.159037113546551003e-03
5.318541152694692374e-03
4.370627664777524887e-03
1.381306051185334730e-03
5.303064172900586555e-04
-4.017785856866853901e-04
-2.089475307751499124e-03
-2.756162455384634016e-03
5.984196086742841428e-04
4.699166335611339347e-03
6.978102798672048118e-04
-1.047217824282707307e-02
-1.417000798144796812e-02
-8.182920098595100611e-03
-5.511441482974125707e-03
-4.683256633232175253e-03
-1.700793949540504524e-03
2.913639311051876516e-03
8.815657254341659893e-03
7.346009997413059829e-03
5.262366919317419157e-03
8.798221234590303946e-03
6.759892313752513537e-03
1.196892892885493154e-03
-5.170242326386332264e-03
-7.430876766070450452e-03
6.355323260900043502e-04
3.985766055796011002e-03
1.025007674461478726e-03
2.126170020129371403e-03
1.848916680457316723e-03
-2.363040245306570041e-03
-5.420460826577847176e-03
-4.130486579050615670e-03
-1.530183365299431393e-03
-1.290708221512835638e-03
-6.583211881833932536e-04
1.479721335769391705e-03
4.131478960940752378e-03
6.651303137226572022e-03
4.922275771732366641e-03
-2.396827306153188008e-05
6.868809615625443878e-04
2.985890695962241121e-03
7.513996672088984075e-04
4.413129063239466842e-04
-4.635889069823171250e-04
-5.733047240720395886e-04
1.876362943737725462e-03
2.151987687186148000e-03
6.000715166106200191e-03
2.908510867235226775e-03
-2.591484288897246205e-03
2.309371234426827943e-03
3.527496280622382510e-04
2.957646881391873955e-03
5.965244633739682015e-03
2.140480907078514457e-03
1.072481016430982224e-02
-9.826928688004886100e-03
-3.652070152006523657e-02
-2.397922669810708188e-02
-3.201776451938771056e-02
-2.882867217346118602e-02
1.091779528736995172e-02
1.529679007174232844e-02
1.061145700041855183e-02
1.602635810469373728e-02
8.121001928892051039e-03
7.557343467340078315e-03
7.354032745525577834e-03
3.128519084629698393e-03
-4.219742154748795117e-04
-5.232259631631858317e-03
-1.656094610382301442e-03
8.095358537041777783e-04
5.016746012244960133e-03
1.268717941151246628e-02
9.139306731114075349e-03
2.267298865983977726e-03
1.839434439704883649e-03
8.746032364427901856e-03
7.684800052315687684e-03
-1.995294640816832211e-03
-1.584493880091869793e-03
-5.130541397390026015e-03
-9.132904936033201318e-03
-2.802246213386385375e-03
-9.989330209435999617e-04
-3.758056724772099286e-04
-5.660935792792152858e-03
-1.135200619048303862e-02
-4.826044466690005037e-03
-2.713874512337010290e-03
1.205551734773138944e-04
3.872098498969556678e-03
-2.213595032529795757e-03
-2.383611221456073421e-03
3.928795015762285257e-03
6.125294420265121192e-03
2.577236022956656651e-03
2.680672660043327982e-03
7.191011653109298171e-03
1.119585806069612081e-03
-1.352481627346569437e-03
6.849092384949811811e-04
-5.238066269443076781e-03
-1.301854654278448552e-03
3.754433640080809265e-03
1.098794424081566030e-03
1.554470272452284979e-03
-1.846828756857071168e-03
-4.673155035641193139e-03
-4.966839374603279622e-03
-5.725551114372451345e-03
-4.443560503370442595e-03
-5.741668948669671584e-03
-2.482009490577563680e-03
2.407806944610744841e-04
-2.217080933704338851e-03
1.552647469740548857e-03
1.110375618787415222e-03
-2.463003089720139805e-03
-2.511125549172300636e-04
1.487713633341913953e-03
4.457195195873470822e-03
2.495547084660041433e-03
1.070425172868248861e-03
8.720717741270313586e-03
7.946187430763857265e-03
1.741124172899289647e-03
1.469729509360938758e-03
7.095984356370943014e-04
-1.046658369872185404e-03
-2.414970505205639374e-04
3.013338829688316269e-03
2.668736260359289795e-03
-9.436079384137960584e-05
1.422013892097281429e-03
1.811362621826950996e-03
1.701864098545053175e-03
3.719120454338439938e-03
3.577986147807294629e-04
-3.454200359676118035e-03
-2.086909453192568290e-04
8.790164846032024436e-04
-3.251878652022200267e-03
-4.872538002913430824e-03
-3.425234383904600041e-03
-1.648276500105148651e-03
-4.871972172485994693e-03
-8.940612536733257357e-03
-3.068414322598184054e-03
-1.356714769334754506e-03
-7.367766242418871854e-03
-4.770755665265638372e-03
3.788569437116553226e-04
4.039719308702877272e-03
5.861578376314009568e-03
2.945989426672697160e-03
4.409258715694086561e-03
4.424142125067674798e-03
-1.112632877743204192e-03
-2.681088890391892902e-03
-2.042683303303481721e-03
-8.223924791565413988e-04
2.315797134263054857e-04
1.944519738342643340e-03
4.385751183402804461e-03
1.806706778110011040e-03
-3.013693036772020989e-04
1.477203913784861809e-04
9.678352770593852059e-04
3.201481577500459724e-03
1.483928248475189669e-03
1.652887487464759116e-03
4.876861903046732574e-03
2.252126490125587813e-03
2.398450673328179016e-04
5.338805603908569055e-04
-5.462615542232082677e-04
-1.416830964648079947e-03
-2.753697971963037228e-03
-1.399548958855165214e-03
2.352947725734768920e-03
4.382462275570365301e-03
2.146683152709462188e-03
-3.688300392071163121e-03
-5.656263454802279086e-03
-3.762199800822659413e-03
-1.871290413958150807e-03
-1.349941830512902275e-03
-4.981661837032347155e-03
-7.315113652705207414e-03
-4.197716692265885015e-03
6.416495983107441516e-04
1.702176523656715769e-03
-1.761026996292621490e-03
-1.729463938248645104e-03
1.163389758140934496e-03
1.368678161784876854e-03
6.414422114781531204e-05
8.206818872289196442e-04
5.793663136053601656e-03
8.326690594996374525e-03
8.527475580604359368e-03
8.226946361153486195e-03
3.428247429340448328e-03
3.698344276508409596e-03
5.122350650698116389e-03
-5.646840717708840251e-04
-4.488275230225262369e-03
-8.934886038063666325e-03
-7.677900362642197177e-03
1.392430778423500628e-03
1.849660730281072092e-03
-2.320856875983621191e-03
-3.533751654136430258e-03
-1.426832489636995285e-03
-2.299470515267817419e-04
-4.755046311026952209e-03
-4.785995789293686319e-03
-3.443000296768962149e-03
-4.976049230029946230e-03
-5.468110029745322075e-04
3.793131216475049625e-03
3.957970706741841156e-03
2.674593427705317192e-03
3.804086429718773403e-04
-3.978756043689251937e-04
8.107164997016892694e-04
1.539018382488043044e-03
-2.270258074121446598e-04
9.844314478454807733e-04
2.759621512654423982e-03
4.767797783218660334e-04
4.747283363977238576e-04
-1.495781027938934704e-04
-9.203488781599346129e-04
-1.383005269807508885e-03
-2.700266004002107451e-03
5.161806623711997534e-04
-1.887129930920445741e-03
-3.966668987883829878e-03
1.392258494397201514e-03
3.052923208869599923e-04
4.118015161302498311e-03
1.267834106804900836e-02
9.716661642428989915e-03
1.117958335113141939e-03
-3.270762693221247741e-03
-3.667566143814343280e-04
-2.407036120399934798e-03
-5.524261113965001427e-03
1.426465797511193069e-04
1.825058025366214616e-03
2.679223162404818868e-03
1.066952905854857839e-03
-1.373627461175803803e-03
3.079637184869635311e-03
1.533038520555663267e-03
2.809616727224398345e-03
2.275051236759851898e-03
-2.219373959767641843e-03
-1.453360863236669758e-03
-2.653095743346155569e-02
-3.761085015349308752e-02
-1.959437673084690919e-03
1.118059366070761965e-02
6.073924395359645706e-03
1.078236756515227497e-02
4.612462703947593258e-03
3.685410047965804580e-04
1.018709414406605840e-03
-9.878926996525936536e-04
5.208439187608160164e-04
2.929741648750483485e-03
5.506395711129792939e-03
6.145971430218790353e-03
6.690298465492365045e-03
8.656688137190837740e-03
7.546724763346605858e-03
1.935147062186499565e-03
-5.784460524501181151e-03
-5.929355968133344194e-03
-2.248101867722277457e-03
-1.889346346191976642e-03
-4.014971077137030912e-04
-2.009430471777222307e-03
-2.959786903994577820e-03
1.315799925754710612e-03
1.265591224785677206e-03
-2.364098133204555266e-03
-3.747960328287683329e-03
-3.135973869028992229e-03
-3.648456363044023671e-03
-3.670297013041926796e-03
-3.466852662154833111e-04
-3.124147412248469706e-04
-1.627464861225573186e-03
3.815055735776456394e-04
5.822178485429580115e-04
2.221628391044957497e-03
6.912294231438632398e-03
7.226311864325584214e-03
2.499477171442780060e-03
-2.311190156083521401e-03
-2.181552759662848482e-03
4.494362931521820627e-03
1.002249255341977098e-02
7.203317642055488516e-03
2.282702594498195632e-03
-6.486330047425403669e-04
-6.533911521116476245e-03
-1.200918424427040859e-02
-1.000253979384942843e-02
-3.494127831666293208e-03
-3.320052245475004025e-03
-7.402388423977368168e-03
-2.532877184997959011e-03
4.160174045984290150e-03
3.514063715261196187e-03
1.228816370144636926e-03
-1.300663647084004731e-03
-5.598353112282793229e-04
2.032589645702433806e-03
7.142982106546061014e-04
1.131065573091265524e-03
4.109166898690574249e-03
5.937546129557227069e-03
5.405118524117252625e-03
3.505877188007210186e-03
1.672401470171079162e-03
-2.033258110823851425e-03
-3.020541893949119441e-03
-3.526225355222829035e-03
-4.702974339806996300e-03
3.088141211590566225e-03
7.714773720061232284e-03
5.016487297458504906e-03
3.588574531223517189e-03
-4.990898043757468691e-03
-8.095093019115743097e-03
-7.455694332426576407e-04
-1.947365654895662820e-03
-3.971875446947720732e-03
-3.865677331980757643e-03
-5.278918790216136948e-03
8.469246921626127184e-05
1.269997376126948086e-03
-3.308726041018335978e-03
-4.751424396312278102e-04
3.649054398044156763e-03
2.845304324099712668e-03
1.107407947655490894e-03
4.448868694320957853e-04
-1.030011140712339514e-03
-2.833539840296798659e-03
-9.591028741652004924e-04
3.143027360961371530e-03
5.247341812460486025e-03
3.889378274592091445e-03
1.858207893704935535e-03
1.550617174513310281e-03
2.599619055956831678e-03
5.248664196660418960e-03
3.436242165916925540e-03
-1.332398593514161692e-03
1.441763376249185656e-03
3.249932271609343604e-03
-3.002650065134134134e-03
-5.413986835935295783e-03
-3.108171063813190693e-03
-4.699791102044574218e-03
-6.029647842490541698e-03
-2.348216653604968517e-03
8.582991064032351571e-04
5.733790690466558171e-04
-2.247858353795078451e-03
-1.239755474620909785e-03
5.650175671813218239e-03
3.429076717764706697e-03
-3.178754230825928898e-03
4.990833808996289955e-04
4.755652682539565960e-04
-4.353453949037054856e-03
-3.173100107875788910e-03
-1.456710044992338146e-03
1.290926561818903648e-03
3.110112220679767375e-03
5.930881219570175887e-04
-2.246352727493020757e-03
-3.979665666526486199e-03
1.391014905544065935e-04
3.896861239927338575e-03
1.071751001921941249e-03
1.204893268243598624e-03
1.032228111106781596e-03
-2.021210067720683075e-03
-6.737525197760137977e-05
2.742359542627332593e-03
2.701173897143928446e-03
2.474244637321117764e-03
2.391245641445299396e-03
1.361190849477195586e-03
-1.145464347995100085e-03
-1.719621336618990014e-03
6.932287319110721656e-04
2.385477174470733430e-03
1.457499730120855388e-03
-4.418176110753844685e-04
-5.929769996363326362e-05
-6.410109122477211738e-04
-2.736171805577660484e-03
5.809324828871231241e-04
2.895416333431184621e-03
1.833715656819827995e-03
4.077691667197091453e-03
1.492439731700185603e-03
-1.816028884119718755e-03
-1.879271661064244644e-03
-7.655094278812466478e-03
-7.075594083749866571e-03
-2.294306641498655274e-03
-4.081033125505063343e-03
-2.211725839940657714e-03
6.810938388679321689e-04
4.515262852317286114e-03
8.615168737170776983e-03
3.498352311500350833e-03
-1.669023285690546905e-03
-3.622722211427384376e-03
-2.413277722949739267e-03
7.649730779837490792e-04
-2.767218802612372505e-03
-2.768294179084553747e-03
-7.304128106338453677e-04
-4.142631118602982387e-03
-1.930169766151072297e-03
6.877522025679773908e-04
1.344156530416632271e-03
4.907562979872806888e-03
2.020715660834783781e-03
-3.301583737139771827e-03
-2.575314494315588450e-03
-1.912916711486431585e-03
-2.165989752460988158e-03
1.396245794489863173e-03
4.011597160878134158e-03
2.770394037829526646e-03
2.593251813925945715e-03
3.471726988062854690e-03
5.125299893066084453e-03
4.765470934561369214e-03
9.731318420286020807e-06
-9.121017044434737283e-04
2.734752250115261851e-03
4.181532036480929346e-03
1.238909897102813754e-03
-3.579842450720754736e-04
4.542552693179639604e-03
4.912424648270188703e-03
9.944700409398967746e-04
1.654132478568165834e-04
-3.654281091394703546e-03
-3.799545770903427558e-03
2.401490460399124689e-03
4.665607498022620973e-03
1.274845433607768325e-03
-8.080439369716409422e-04
-1.103453647535330810e-03
-2.029390521712946122e-02
-3.474877296350466910e-02
-7.991820214011300175e-03
8.238045953882881800e-03
-4.016171705094568473e-03
-9.332031669754037350e-04
5.210533528791560717e-03
3.951490952237199893e-03
5.291325002185457045e-03
2.179989967596307997e-03
8.633375053998298878e-04
2.156856560593811353e-03
-1.146274850254167064e-04
-1.939640658773891194e-03
-1.354909421155780450e-03
2.027268140496854207e-03
3.218005997936131211e-03
2.539924209786637108e-03
7.167808554817385082e-03
1.071272855563412500e-02
5.418002315286399306e-03
-1.941793530547137724e-03
-2.167203441288023842e-03
1.141505680151932945e-03
3.436490075467598369e-04
-2.239112456329485617e-03
-1.107395610516277674e-03
2.261772418928711600e-03
2.066066303273785833e-04
-2.416931418935582172e-03
2.969351387619065166e-03
3.935637873977586992e-03
-1.922031551382083264e-03
-3.268068939063764958e-03
-4.159327113138176768e-03
-3.753131741905025957e-03
5.107355032571299878e-04
5.901120428069802411e-04
6.747360102211941157e-04
4.609303040972975371e-03
3.637324330189667214e-03
-1.120067227444763742e-03
-1.592708726339983356e-03
-1.523277715824296503e-03
-5.072239606461375998e-03
-3.890051696140386494e-03
-2.323797209540815422e-04
-1.638624581431779225e-03
1.781481730564552499e-04
-9.662275668223123436e-05
-5.318448539771033351e-03
-3.744590827289640336e-04
1.288320038523802120e-03
-5.460136968263679287e-03
-2.821114072266046879e-03
2.131503368691882558e-04
3.020792139038452201e-03
6.262413677913511445e-03
-1.583590677943190039e-03
-8.118080358751500903e-04
8.136535919680068507e-03
2.755644236413534384e-03
-3.806019397854711311e-03
-2.437651678611549213e-03
-1.571190779278667940e-04
4.461491516852632679e-04
-3.944233201518279825e-04
1.304397916461274112e-04
-1.670474550949224311e-03
-1.636881392911148248e-03
2.226764418844759223e-03
7.768897286309598294e-05
-5.690226298068395755e-04
3.546620587166457277e-03
4.988708065695398458e-03
4.292235826699049642e-03
7.869848103804376804e-04
9.176821638316875421e-04
3.945885675242697364e-03
1.972577154749201398e-03
-1.468919960262477778e-03
-4.944667203493693063e-03
-5.557454465535734828e-03
-6.061265127537708401e-03
-4.580346604420573384e-03
4.342424909679519322e-03
2.254832514380278406e-03
-1.566233475613691434e-03
5.990147169345561365e-03
2.662305260145112276e-03
-1.843044528773094166e-03
2.691524884985607626e-04
-6.585706629214994109e-04
5.020282887257149522e-04
-4.366914392263076573e-03
-5.211574753487738416e-03
2.403199292243003628e-03
1.332318422007545966e-04
6.556625182827519461e-05
8.236317187455354351e-04
-2.890270681993044842e-03
2.829019316408429839e-05
-5.600834770321806407e-04
-1.264076685043626688e-03
-3.397217191731577348e-04
-2.759874228044991145e-03
3.397372905129926804e-03
5.607644074351441840e-03
3.880198167384490884e-04
1.667800598505075459e-03
-3.913196714248010641e-04
-2.909328211617361309e-03
4.283065124776486306e-04
8.296954710990296633e-04
7.697972801127313117e-04
1.099293520725418182e-03
-1.833061176652148183e-03
-3.609797883060885358e-03
-1.900091024891041721e-03
6.579004782518358112e-04
3.731029638376352937e-03
4.452683050930408143e-03
4.396138671106507453e-05
-1.625384227495839124e-03
-1.057369834545132930e-03
-3.795572439026801553e-03
-2.296000791362174005e-03
3.913534066783784103e-04
6.177898296822744795e-05
2.899777010320625948e-03
2.631326970273872769e-03
-1.437666616574288141e-03
-4.862983149545399585e-04
2.994743171093566629e-04
-3.439263379485634452e-03
-3.212471028853222492e-03
3.712201282110565419e-03
7.996384494186634800e-03
5.346247741716526891e-03
5.641463442292201768e-04
-6.396175510866408242e-04
7.241867730191217309e-04
-5.131379881076277190e-04
1.106917833924251932e-03
4.276174687207931827e-03
1.161962471707493269e-03
-1.431298180150212575e-05
1.266277243355282654e-03
1.601773524993714212e-03
3.312114755237046196e-03
1.015003022256943683e-03
-1.189268063995697899e-03
-1.039073609074468978e-03
-1.527921233686013475e-03
-2.302490184717138747e-04
-2.245195095389127763e-03
-2.024841307926979802e-03
5.105500670100906850e-03
7.342736836884098360e-03
4.589925961661411001e-03
2.805619349430274294e-03
3.834790191738069245e-03
3.587685935549820085e-03
-1.729654991688479122e-03
-5.085390155807858331e-03
-6.544643193416936275e-03
-6.957970080477857838e-03
-4.870122845744290739e-03
-6.924541520350668139e-03
-1.083273951039070114e-02
-1.235594504825652910e-02
-1.106792728715628657e-02
-7.020488466107441781e-03
-6.246584993412393483e-03
-5.810438249279764600e-03
-2.527170255210091799e-03
-1.307778937023352465e-03
1.681931814687179488e-03
6.045476128354695944e-03
5.895211645960274881e-03
6.141944597714445522e-03
4.033323707791688223e-03
-6.239507722848978630e-03
-8.526648535391385259e-03
-1.844348576758237518e-03
-4.033462810637512656e-03
-4.445999147949281256e-03
3.169895071644520008e-03
7.820995557983913271e-03
1.487709133524064455e-02
2.233976268440687751e-02
2.405711419105927007e-02
2.721669956261757103e-02
3.174244015554720383e-02
3.110712622165622693e-02
2.590226904875926953e-02
2.319102189573095038e-02
1.617162448971422306e-02
6.983352578630445170e-04
-8.187557263825487319e-03
-1.585051924166825874e-02
-2.799744439005302440e-02
-3.514207539862958946e-02
-3.809860860352933670e-02
-4.234752359760721174e-02
-5.764331643174202408e-02
-5.336124280751956828e-02
-6.023678183731335026e-03
2.232804610565852776e-02
1.668529648729858220e-02
1.884908282130126622e-02
2.186086780773489197e-02
2.332339687674872195e-02
2.434269149986729996e-02
1.218913007164976019e-02
-9.861329057345857504e-03
-3.410897607020297456e-02
-4.343715911894358711e-02
-4.134449134213761395e-02
-4.910086727083760871e-02
-6.272923937181767995e-02
-6.808403219265250772e-02
-4.867425773081788393e-02
-1.228648135979113105e-02
1.631210638526611745e-02
3.534642475483321111e-02
5.184732917159636661e-02
8.211329092149227682e-02
1.159090562681260178e-01
1.262195019998511580e-01
1.314296304341868449e-01
1.304598422742729025e-01
1.001970734254787193e-01
5.275405625565692674e-02
-3.680890061858039120e-03
-6.245154024615305610e-02
-9.640611490856672294e-02
-9.874160569320751535e-02
-9.245622843576951910e-02
-7.144402058436984115e-02
-2.748481792729482245e-02
3.336830338646284240e-04
9.484459637647432023e-03
2.677641313163317549e-02
5.029938603302424455e-02
4.282294982275021422e-02
-4.385023920296871741e-02
-1.212629421399775836e-01
-1.034877145392771314e-01
-9.954897344749838450e-02
-1.411430528145510843e-01
-1.529654408448356540e-01
-1.437261215891122712e-01
-9.639671440796020174e-02
5.538615387852611344e-03
7.210283181204409086e-02
7.912846137862393492e-02
1.293863981690106524e-01
2.225374937994298308e-01
2.574661518714431163e-01
2.147012799304566233e-01
1.134439366998854781e-01
1.821782666648149446e-02
-7.010941987283850728e-03
-9.979825047168744065e-03
-2.045581068239987754e-02
-3.756423967767117539e-02
-4.664298881373796224e-02
-2.885363139657450005e-02
-4.318970577779580183e-02
-6.827005756160677008e-02
-5.532840028856901571e-02
-3.453629598806201573e-02
-9.610092739772755840e-03
-2.176951475272158668e-02
-2.070458057010269443e-02
4.795736820178949505e-02
4.910006626747989017e-02
1.483339371719639976e-02
1.096744648378782626e-02
-5.592837158633601896e-02
-1.005007703563184918e-01
-4.721545664794322278e-02
1.570525124423471572e-02
3.156713834525076701e-02
-1.112618522207454129e-02
-3.026431246628408234e-02
-4.654412826103358596e-03
-1.747564634443420778e-02
-8.970008328583448445e-03
5.475749998774212535e-02
7.679484280328741086e-02
4.406732851597006811e-02
-7.909694342831043168e-03
-6.146987487657731841e-02
-1.016123441727684457e-01
-1.215122853558061183e-01
-8.622694602212767345e-02
-1.510985314268942052e-02
2.957583047059361703e-02
7.806472738828504343e-02
1.286290477717918768e-01
1.099535557812819642e-01
5.525248497351385041e-02
2.876772180694906270e-02
2.407482699313835683e-02
3.086783244613364174e-02
4.837002137768472293e-02
6.446818908323664887e-02
4.513247105533849113e-02
-1.440718609838314256e-02
-5.738112924967727485e-02
-6.727411852399703407e-02
-5.913753865866323844e-02
-2.154746134729146334e-02
-9.316869486549981269e-04
-3.237935575526298959e-02
-4.175177546603946882e-02
-2.119341904240114316e-02
-3.819018316722324474e-02
-4.809833987161309804e-02
-1.939806751968881126e-03
2.663660994817048169e-02
-7.295576788603665673e-03
-4.278954834671942070e-02
-3.631446620736390740e-02
-1.993169263769715982e-02
-9.914022294474357858e-03
1.192401967621837221e-02
3.831578489650123293e-02
5.642876811384328617e-02
6.034363749498370538e-02
5.956325212375559314e-02
6.822153779719557221e-02
5.943648449036510739e-02
3.239498425937351045e-02
1.690493239768348435e-02
5.271306142530819520e-03
-7.394783901632902279e-03
-2.629249230071438806e-02
-5.033897741827215999e-02
-5.714745179210416887e-02
-5.827761011453463924e-02
-5.490688485654808548e-02
-3.499530283583866114e-02
-2.005760007584432916e-02
-7.547031281059774464e-03
8.894500906142251140e-03
1.000727790633665869e-02
-8.772026736442571789e-05
-7.753018918475099337e-03
-9.689071318123868015e-03
-3.772071943691492242e-03
8.993942675246002771e-03
2.099719134805768175e-02
2.488884196321690043e-02
2.753321253032296745e-02
2.699419678003666875e-02
1.586871946034092151e-02
8.161745914067555785e-03
6.061667525632340355e-03
3.097316306414671979e-03
2.293963503477608121e-03
-1.504764817462637093e-03
5.431397231647349007e-04
8.462838166512288637e-03
3.956017903586987175e-04
-1.102998978768563246e-02
-1.090573602226165527e-02
-1.067583838914821365e-02
-1.269861788483851381e-02
-1.403932117839223719e-02
-8.655606096763551749e-03
1.589641645851016041e-03
6.661588632429796437e-03
9.271141443183845629e-03
1.113772324073348391e-02
1.750809319890318100e-02
2.099601086069388320e-02
-3.040987409741572906e-03
-3.495938303946012626e-02
-4.660023309094866312e-02
-4.395165888219398909e-02
-2.172850859093969009e-02
3.750927946279979976e-03
5.912014193591478076e-03
1.889161548555221351e-02
4.568641598367342155e-02
3.779076659260667548e-02
1.466734309064987932e-02
1.038203168166652174e-02
1.599739343890264204e-02
2.562800595979214044e-02
2.011280640398081798e-02
-3.500435495237255810e-03
-2.544232756057740463e-02
-4.304911008258444083e-02
-3.974076246929763440e-02
-2.653897635476375194e-02
-2.559027361901369466e-02
-6.735861565222283145e-03
1.944505359664913668e-02
2.147761136147147490e-02
1.748904001947117204e-02
1.392632663658923374e-02
9.110715381415165209e-03
5.340191069076580602e-03
-9.826762115163496097e-04
-4.289124873183622691e-03
-5.628846194741500553e-03
-8.789131135171063952e-03
-8.637824851038148483e-03
3.547419301251299520e-03
8.099698044442970798e-03
-1.646162156054926592e-02
-2.263422012679826983e-02
2.941523989689081263e-03
1.162659135280323837e-02
1.250043782417731113e-02
1.351891303391758101e-02
2.678213910271750372e-03
-1.257509905614760670e-03
-1.267062732576366762e-03
-1.745979461946853750e-03
-2.731456651120954190e-05
-7.555609013666599559e-03
-1.152204265587025017e-02
-4.361484673806498985e-03
-1.746662669491008592e-03
-5.355112586719877089e-03
-4.986994429624999441e-03
2.290917245330616886e-03
7.305628273935226707e-03
9.997482290943146555e-03
1.687736503239303104e-02
1.894533083990039210e-02
1.017032352369462954e-02
-2.752553742802314046e-03
-8.700383595219815178e-03
-1.255825575424261860e-04
8.952361110795406529e-03
5.390936880381291992e-03
2.149643741273874007e-03
2.170636797774666300e-03
-8.023952962163043243e-04
6.837592861718439093e-05
-5.896011468284961636e-03
-2.120400315350210591e-02
-2.204043113172834967e-02
-1.225199450603954403e-02
-4.471662846794493412e-03
-6.510549197135016234e-04
-3.494110517175378836e-03
-6.447826447094442449e-04
4.772457174129959498e-03
3.930897530641012071e-03
6.676407619668806373e-03
7.549834160062510180e-03
5.959073488046096219e-03
7.412418138923742780e-03
3.611275232513910631e-03
-2.132332195337946089e-04
-1.647656367199257655e-04
-3.084793027559831757e-03
-5.107597867305244295e-03
-2.627212536761662758e-03
-4.379163221949301972e-03
-1.031655231636978073e-02
-5.729547677184526969e-03
1.371580132280918922e-03
7.121681269585404712e-04
4.616711869229330779e-03
8.625839943371368598e-03
7.032739307635960634e-03
5.470449723838416781e-03
3.290050444956319278e-03
3.053536078643204286e-03
2.799662075719277273e-03
1.978154478947346390e-03
-9.042649629161986550e-06
-3.610502325645944047e-03
-1.411086881742241051e-03
-3.576025115107044159e-03
-6.665468505001673205e-03
4.838273565475038570e-04
-2.113921826352812726e-04
-3.029382799216799680e-03
-3.711412558843718134e-04
3.294139793011056742e-04
6.912672632625343518e-03
6.871113504459161817e-03
2.549256286416012179e-03
5.507741532945073515e-03
-1.663394912232607492e-03
-8.049252758104186861e-03
-7.555871425649579413e-03
-1.049950784630305708e-02
-6.634434171828844373e-03
-4.032415570408399465e-03
-3.388482712210389575e-03
1.257826518798956569e-03
-2.692674902361305404e-03
-5.562182347935582839e-03
-2.559383093893736246e-03
-2.167767707791979671e-03
1.932555580799594046e-03
6.693188546326005357e-03
7.715398128403708720e-03
7.894751233107271532e-03
3.886316411040738241e-03
-4.509678461052102892e-04
4.981222143345098372e-03
1.345213535950159564e-02
8.662187934715416190e-03
-5.023140548365750101e-03
-1.426699769309045483e-02
-1.387778155655524336e-02
2.448751965839881042e-04
1.294277379613908464e-02
8.421144329720407426e-03
3.286094404186494858e-03
4.095394298032364010e-03
3.042723871132640414e-04
-2.035400777346025800e-03
-3.701188161686790913e-03
-5.985240409896924740e-03
2.187158127649069510e-03
6.269426435739861546e-03
-2.596280343724090712e-03
-8.004659483759050953e-03
-1.112551148445822292e-02
-9.684944854251347629e-03
-3.980135649697422694e-03
-7.617785064087515857e-03
-6.673728698894048836e-03
3.253227073639721953e-03
6.660399542003716221e-03
7.234599460062325453e-03
9.285890701197157399e-03
1.184328471671533892e-02
9.197333564008397522e-03
1.091916486651810497e-03
-1.570822718215428467e-03
-2.879705054999192031e-03
-4.929348721513141830e-03
-6.398513403913049478e-03
-8.703179345894396582e-03
-3.529559392917251074e-03
2.126385619325394088e-03
3.959985946467702023e-03
6.650091238755787178e-03
2.873110307015473274e-03
1.013167515952141835e-03
3.773059669787458617e-03
-1.180754095431257736e-03
-6.898347969073385759e-03
-6.756968834998769262e-03
-2.191732932322033433e-03
3.404173872551419060e-03
1.098764607821835302e-04
-1.027886111055400543e-02
-1.195619684131986153e-02
-3.374617980897134679e-03
1.693590536811575035e-03
4.478566234637842806e-03
9.988977028224070229e-03
1.088706224146212230e-02
7.846738132471060834e-03
5.500122884951736540e-03
6.918400726356472262e-03
1.146993592417880521e-02
8.258840270872517056e-03
-3.460005222832366646e-03
-1.504885991055814921e-02
-2.217223136568327937e-02
-1.997350289431623627e-02
-8.340706203550160916e-03
4.205339937952124602e-03
8.927336709603035311e-03
7.754927848147193103e-03
7.246436251271954829e-03
7.001472902831975750e-03
4.151329819552014404e-03
-2.767391203722838634e-03
-6.380472403065642374e-03
-2.418857824242323651e-03
-1.740276531843763059e-03
-1.613380848509688055e-03
3.059724430486436206e-03
1.337658735761299792e-03
-1.537886033864704688e-03
8.153960694088806856e-04
5.292416537305661643e-04
2.980701539679744133e-03
7.050667155621827970e-03
1.441616928361427828e-03
-5.493921123341799148e-03
-4.363085742229940757e-03
3.002796450668058278e-03
8.990563979108549472e-03
3.214428944453968668e-03
-7.555995341324503629e-03
-9.488424870425532509e-03
-2.097316262634213099e-03
3.816912733511490258e-03
8.207727746701410721e-04
-2.012136470407248617e-03
-2.899786097523958644e-03
-6.944406783235519166e-03
-1.154201373901007910e-02
-1.312805665052511200e-02
-1.425813626456946164e-03
1.270685045109628056e-02
2.014692553371739275e-02
2.696118323257922986e-02
1.651154806596863683e-03
-3.226903235119488872e-02
-1.706738075563957180e-02
2.977437689841963379e-03
7.679459047166992559e-04
3.199468425570656423e-03
2.451518376974143060e-03
-8.679789333467754532e-04
-2.488379067001083699e-03
-3.041342327254469013e-03
2.824288150469288824e-03
7.430306774131961896e-03
1.057315966561105276e-02
9.778627351792005054e-03
4.379550329299809058e-03
2.839303295023244168e-03
-7.246089692446125875e-04
-4.972611031172996521e-03
-5.701337078171979204e-03
-3.773817263976398523e-03
1.299616650074601537e-03
1.305621814895827548e-03
2.264420910865578337e-03
1.076974801605925201e-02
1.621721889323117852e-02
1.398544916042633937e-02
-4.743904656576735973e-05
-2.190732062012914344e-02
-3.194211218183893447e-02
-1.913200026126151559e-02
8.116162633879681499e-04
1.555711044627220091e-03
-1.040485933632036633e-02
-1.030070462725864340e-02
-1.232867331271382191e-03
3.183241900699999676e-03
4.907213938226326171e-03
5.378187642360901001e-03
3.521159926401564669e-03
5.686087355510959472e-03
7.431432396370177100e-03
4.696351562753856186e-03
4.708334634859849370e-03
5.032666587816789910e-03
7.622523438604007252e-03
1.111393003184599042e-02
9.023380687560126137e-03
5.691088095464241943e-03
-5.711908761933992378e-03
-1.631257061663121330e-02
-1.480787774975016527e-02
-1.145652307390665307e-02
1.696474560999185590e-03
5.870652463493806344e-03
-8.247898924887963126e-03
-9.093658073071566499e-04
1.039494353437135296e-02
4.283324167406309980e-03
1.202924429240186111e-03
-5.685969570198131685e-03
-1.175664795546706165e-02
-7.636229855982203975e-03
-3.009217063345631486e-03
-2.477458117644219652e-04
-1.026739039764622838e-03
4.820307389633076908e-03
1.439837878759053086e-02
1.207963464369198568e-02
1.047135583410948971e-02
1.167346441274686938e-02
4.269107117116675149e-03
-5.165912287765134572e-03
-8.665525406239148534e-03
-6.346528146828405055e-03
-4.923253586339505425e-03
-6.714665557313666440e-03
-7.985831994743309084e-03
-5.310811660507253409e-03
3.322167020696216878e-03
9.623576833179844567e-03
7.940968100835669313e-03
1.229756763350359737e-03
-4.786159085013247209e-03
-3.570568134676248111e-03
-2.453911516695382253e-03
-4.750442068636824208e-03
-2.904265523466658967e-03
-2.309108713620770803e-04
1.069922889821323239e-03
8.489932165228756189e-04
-5.568030694560718906e-04
2.518697841549919457e-03
3.349159242245926000e-03
-2.539060140365138993e-04
1.112744526831845656e-03
1.755553990808490349e-03
-9.184304716021499376e-04
-1.843223470860250049e-03
-5.372644671361503921e-03
-7.643486804881007880e-03
-4.816843605197023044e-03
-3.437167372838269459e-03
-5.258322260024606183e-04
6.471060066178487870e-03
8.840989995150216191e-03
4.066439286489195032e-03
1.712099444407020644e-03
2.501773524508077266e-03
-1.570885481311463721e-03
-4.316210309617174792e-03
-4.455125443484153798e-03
-7.082467796932652090e-03
-4.456326472498680843e-03
1.481538787186000429e-04
2.213619217658854485e-03
7.246222446148133274e-03
1.163134585851046190e-02
1.341831336546932436e-02
1.247077073560840486e-02
1.336334405065423003e-02
1.908943150302197869e-02
9.324794714659500813e-03
-1.907293036673178219e-02
-3.389843083835139548e-02
-2.122231404698758303e-02
-5.261056830450402087e-03
-3.821615092200630372e-03
-2.931958750471066934e-03
4.033842482312377693e-03
7.760723839611519820e-03
5.914191236474549210e-03
1.038412908597052039e-03
-1.406392929740279355e-03
-4.169844903139120589e-03
-6.931548089057958106e-03
-7.414939665410328349e-04
4.668111228030442580e-03
2.494212269674187920e-03
-1.483470048933660914e-03
-6.852587740868585492e-03
-9.086668355952190468e-03
-5.975351477360735415e-03
-1.104787278162977331e-03
3.164918241421925058e-03
7.632268402251820606e-03
1.128371018662186441e-02
9.557227232086512939e-03
1.078130976385800570e-02
1.226091700679256789e-02
1.188985695010116557e-03
-5.114771315211824251e-03
3.377583525371767115e-04
-2.920978517741054637e-04
-7.270679836945586998e-03
-1.088568802471879225e-02
-6.290912096965754069e-03
-1.788270192671382599e-04
-1.120548288147864800e-03
-2.672562234715105713e-03
-3.090835734590062934e-03
-5.432785274193348453e-03
-5.087889981661345047e-03
-3.064819444081048287e-03
-2.783982718568744821e-03
-5.888831169183387322e-04
3.667244684568086305e-03
5.307098607294173827e-03
5.512072868804221079e-03
4.179706727376618185e-03
-1.836500236774594747e-03
-6.794509516444328934e-03
-3.772088330895134473e-03
7.182896575541731707e-03
1.678340477148231730e-02
1.407068138077210116e-02
6.653321583528126228e-03
4.323706434622682539e-03
3.721580602964760526e-03
3.908952836845286903e-03
2.043805689308421207e-03
-5.674472288029692828e-03
-1.210679399323017109e-02
-9.921513248021741893e-03
-3.764030891286936856e-03
3.394261658178822512e-04
8.714628750354849740e-03
1.854426866173151250e-02
1.175726482833202094e-02
-1.105068318740236658e-02
-3.151413854380466506e-02
-3.480276570775608230e-02
-2.225775939797319802e-02
-6.877866117629951627e-03
8.046357606180559383e-03
1.726650010539514113e-02
1.758218546773235649e-02
1.467196695663277976e-02
2.576634580527489317e-03
-6.594774771338979963e-03
-1.310882041276659584e-03
-8.527743031659039928e-04
-8.641750927658503525e-04
3.344677287610453142e-03
2.015209875748982891e-03
4.591352796402071827e-03
2.032927312577895770e-03
-7.515622355733436212e-03
-5.607242575362271844e-03
-5.531620747724413315e-04
3.238554103384386814e-03
3.769092934485877063e-03
-2.657432965537461986e-03
-2.896929712838293945e-03
-1.927601021655648119e-03
-1.932480594253133555e-03
4.531250025564499857e-03
4.115266264623979216e-03
-2.168259673809014732e-03
-5.690241970502735646e-04
6.525495943071115204e-03
7.758706095512148300e-03
-1.818302771435531822e-04
-3.129920023226378297e-03
1.109681001125233319e-03
2.802358532998810037e-03
3.688109092598772145e-03
2.381394768927726831e-03
7.113221993861423799e-04
3.100351278752993666e-03
3.065208464779203661e-03
2.548062208555561736e-04
-2.686535199127980909e-03
-5.102878833901397515e-03
-2.734096421665457854e-03
-9.784822160408019210e-04
-3.153561082801348281e-03
-1.695696803517948584e-03
-1.671764626467467374e-03
-6.217016441051391278e-03
-3.790674427927295982e-03
-5.630310149608064351e-05
-2.698290456160599201e-03
-3.830396523029565531e-04
2.739967043183273200e-03
-1.028356336342779167e-03
-7.222986765423102537e-04
2.805896704466190675e-03
1.355939875423328896e-03
-2.271254966386920902e-03
-4.009636973175605655e-03
-1.219088364964176618e-03
3.861537417688323554e-03
4.526432697432649331e-03
6.668288926958611945e-04
-1.888369850639544899e-03
-1.364174552495113577e-03
1.284583134678515251e-03
2.405607322244620455e-03
-4.537061931404842360e-03
-7.914235210703633727e-03
1.365192515413349251e-03
4.151639021638208957e-03
-5.979212133448068376e-04
1.194776818788936866e-03
4.591146635539079639e-03
6.971504849394127845e-03
5.867008583195909913e-03
1.414169352835730961e-03
2.335016419736042452e-03
2.987163333922475319e-03
3.398687620593679535e-05
-1.336769292327046488e-03
-3.029837680652687926e-03
-4.472825386207845803e-03
-3.490450062381577311e-03
1.703893200186823009e-04
1.857935416527804881e-03
-1.112982035632867741e-03
-1.037062583060443296e-03
4.698037661473122330e-04
-1.028235449523251478e-03
-1.281254711828322315e-03
-5.063490405397200319e-04
-4.032087865091946925e-04
-2.852945157174555449e-03
-5.032193148021395397e-03
-1.572002283157758820e-03
2.354885804178546375e-03
3.630684231430530897e-03
1.550146892917578928e-03
-2.990468281939542058e-03
-2.636265468391442435e-03
-5.254744995762441464e-04
-1.844486495517201488e-03
-2.775134141557109198e-03
-2.391110982252543410e-04
4.028588220268627604e-03
4.236031897585228710e-03
3.094753807581976119e-03
4.562437322166391571e-03
4.391133274041356636e-03
6.564279741712286112e-04
-6.174040918501436798e-03
-6.711454004609733112e-03
-9.607823618765689438e-04
-2.008024923481732237e-03
-2.383122763524020589e-03
-6.399324069785289597e-04
-1.892524944783734132e-03
2.094611229135498031e-03
4.191627221692819337e-03
4.928464990666136386e-03
8.388220072802024876e-03
4.890224144339824254e-03
5.295440492170817338e-03
7.064776450305046765e-03
-2.254324517764081433e-03
-7.208807745531854369e-03
-4.728069739596677847e-03
-1.652981138664988111e-03
-7.374043648672049065e-04
-3.931836032229955001e-03
-1.896153770530970874e-03
2.288244970081313931e-03
3.676323676083391532e-03
5.924739022909275218e-03
3.125679556317127045e-03
-2.682888333772403405e-03
-6.365546252473696168e-03
-8.588495799408258149e-03
-7.133143420164619886e-03
-3.834567912150056972e-03
-2.890618695790480534e-03
-6.450875344810665275e-03
-7.892650566458778508e-03
-2.499601901141002697e-03
2.400906054988239183e-03
5.566834942171786441e-03
6.157494089570386166e-03
3.444113213589570458e-03
3.676328979066075583e-03
5.271654868739546196e-03
5.746397158364691463e-03
6.432798422630219004e-03
6.149301279173853552e-03
3.703540806752036660e-03
8.565010745103376422e-04
2.816654213049931245e-04
-3.044743546358699531e-03
-6.505910698086762173e-03
-1.832733685801127277e-03
1.379926827684827212e-03
-5.249264716913265095e-04
5.059401965069208133e-05
-2.321347647737731154e-05
-2.763293760225341879e-03
-1.573311093563573970e-03
3.437697534280092365e-03
1.595033695303710048e-03
-1.968874693769913711e-03
7.878651248267680689e-04
-1.596983166914843879e-03
-5.070569062338740537e-03
-2.821522306170397114e-03
-2.875705360212441140e-03
-1.777494668642115106e-03
1.509221554826406433e-03
3.207565970610413552e-03
3.665504493604832773e-03
1.539268990056672165e-03
-5.048954534005837842e-04
2.256392587245218133e-04
4.094321003569050162e-03
4.763696771941387971e-03
-2.685822704760800752e-04
-1.732093250030301672e-03
-1.620284189118985927e-03
-2.524139533020370359e-03
-2.648130309478084060e-03
-5.258117548384685404e-03
-6.391842047685627158e-03
-5.277670579673066423e-03
-3.307331465040857545e-03
-1.007427406453300462e-03
-1.105603257879501531e-03
1.759853917278200687e-03
5.263651692367762348e-03
3.783225068636519948e-03
-6.812845026950136449e-04
-3.180805686148385596e-03
3.808165641520189909e-03
9.398650733619390643e-03
5.344188458689158421e-03
1.684874844821850548e-03
-3.408993129650998623e-03
-6.587341709282955315e-03
1.218060809326317745e-03
1.003985378886519154e-02
8.844834474669969332e-03
1.978015992497057698e-03
1.023433702725592693e-05
2.366486794061678067e-03
2.943231436083167552e-03
2.003448339967902041e-03
7.788802927169262424e-04
2.015862434703924108e-04
5.226004070370322439e-04
1.225775463478006536e-03
3.631969360565348928e-04
1.004221051251985748e-03
-6.144422135009794655e-04
-2.019455051499837589e-02
-3.373925387725365543e-02
-1.663978500655409476e-02
-6.304224683206184534e-04
2.579877032350865428e-03
6.096314642942803411e-03
7.129283609882943774e-03
8.841401882633100756e-03
8.425258120106552881e-03
3.834887219046611510e-03
7.935477986064967118e-04
-2.105578751462824135e-03
-1.574457036196520200e-03
-1.217075760944546278e-03
-3.344795224176151834e-03
1.851428808879856122e-03
7.296212735014304465e-03
4.026029977708880415e-03
5.107161042854960718e-04
1.913417708895973329e-03
4.644257059685133297e-03
5.341435732740669635e-03
2.373333232374654281e-03
-1.903055391535013246e-03
-1.007611529757698266e-03
2.358555091520712910e-03
8.838238749855160600e-04
-1.682297156766360659e-03
-9.596400383625771063e-04
2.408625448901123318e-04
-1.771489261170061712e-03
-3.812423789608512369e-03
3.025774871554929744e-04
2.254546169086059891e-03
-3.808696127846962053e-03
-3.998176523604126190e-03
2.106356629876438534e-03
2.337891914582770556e-03
1.485318048290406841e-03
-5.010563722343715221e-04
-6.288161378269904560e-03
-3.944229470620919456e-03
-1.073608800326698127e-03
-3.939282025333331466e-03
5.554679429415142851e-04
1.256270752879328411e-03
-4.155127193869768108e-03
-5.177970658857575324e-04
1.262361551287455612e-03
-1.258008292842208295e-03
-4.683942048528729613e-04
-8.951283436353578253e-04
-7.762143005980755165e-04
9.913667357503691394e-05
2.075569793671140292e-03
4.300553627673066662e-03
1.623151529272655845e-03
9.589387812202823658e-04
2.819206271360213695e-03
3.353241737204291830e-03
5.289976132583112944e-03
1.672550351500853459e-03
-6.225043522351792445e-03
-4.544096446693843445e-03
6.322729969770947596e-03
9.512737405546109123e-03
-5.617971985784812970e-04
-6.483169831748235822e-03
-1.005304725159235878e-03
5.160639096771686869e-03
5.030460183419398212e-03
6.280799627080438461e-04
-1.665717983190731673e-03
-4.009085229435313535e-03
-3.487092764765013699e-03
2.284015881426539312e-03
-9.063625714896391067e-04
-4.487120763898913567e-03
-3.380071434393600851e-05
-1.831498549763249661e-03
-3.681953847061432677e-03
-2.547774784833867212e-03
-2.305510976341526921e-03
8.135664687524058651e-04
7.555565500907166854e-04
2.682302796529371664e-03
3.772425530710363066e-03
-2.441051380891408763e-03
1.000736109212503090e-03
3.782018285104204840e-03
-5.717693431676311271e-03
-8.351032878399484646e-03
-6.278730865136088364e-03
-6.533438790060679992e-03
8.948698367281834442e-04
1.203779457155547059e-02
1.056506598345543536e-02
1.329055886804862393e-03
2.218255387742268554e-03
3.402893799468030122e-03
-3.642953220744043260e-03
-3.358374290054133397e-03
2.039381382518407840e-03
1.794015368334901358e-03
1.176897314454941569e-03
2.452923068828369302e-03
2.269607240994461674e-03
3.555220506494959250e-03
3.075693958099472158e-03
-4.146264068014925488e-03
-5.574700415913208529e-03
-3.275306977296943423e-03
-7.728200668129983804e-03
-3.575583938937831364e-03
5.551575890148842223e-03
4.737640468402816961e-03
4.191378738880814116e-03
3.179028116850664103e-03
-2.115959621104918087e-03
-3.642046293259399315e-03
-4.390942780361444843e-03
-5.182573087959775095e-03
-5.762554313049312411e-04
3.529452654323082892e-03
1.851786840102283760e-03
9.911605985654652496e-04
1.345552470896742899e-03
4.146271171678918570e-04
2.946391842547534373e-03
4.224603048244302168e-03
1.738584128845099136e-03
1.045444114785162686e-03
-8.311188977609223994e-04
-2.844597006238723438e-03
-9.845716347485951054e-04
1.805720316239136682e-03
8.419960577768841005e-04
-2.945118484768507062e-03
-2.160896861415210254e-03
-2.249682765777416115e-03
-4.913701345550636201e-03
-6.731889806080597251e-04
8.893948995380978207e-04
-1.582452918724266836e-03
1.477587067884098340e-03
1.144008585381822186e-03
-3.714358456465378586e-03
-2.561449043332895796e-03
2.873140003160596506e-03
2.335878502314564942e-03
-7.652113886909091734e-05
4.786254177783110485e-03
5.033104980648698580e-03
2.786588585573203586e-05
2.734473736565766564e-03
6.563615392296455811e-03
3.530633286817568862e-03
-2.645672115786288064e-03
-4.518269281271860942e-03
-3.884291334221486210e-03
-5.930394944501384512e-03
-3.215769674398748917e-03
4.424462885020716914e-05
-1.249608596316048549e-03
1.581812823444710787e-03
5.594196184709280054e-03
8.714751910265494672e-03
8.696314668491571254e-03
2.562768658423293308e-03
-1.657643186938757320e-03
-5.617046959233597606e-03
-5.950877969802957808e-03
-1.370411818442395869e-03
-3.495547524754295463e-03
-3.833830286521170815e-03
-4.282421565825756705e-03
-9.060236013217579099e-03
-2.061828178882610905e-03
-4.687607827418249469e-04
-9.873397079487360173e-03
-5.922537115317134601e-03
-1.845515649557359118e-03
-3.798319573417916969e-03
1.211447572663473110e-03
4.038480407987094303e-03
2.871321976983943862e-03
3.751720402230092170e-03
7.093868684821598436e-03
1.015031781878177053e-02
9.247372724498234206e-03
9.087711254118171003e-03
8.384068880617014802e-03
6.401344185961183736e-03
5.783289528591454079e-03
3.974065482470696790e-03
6.373916493659744463e-03
7.223282007498458591e-03
3.715578402473101050e-03
4.905668297776027975e-03
1.319803151019736682e-03
-3.691618251408106382e-03
-2.430326985667780049e-03
-4.591456741163571324e-04
4.069065890963217448e-03
3.547347662938255680e-03
-5.096197149847354370e-03
-2.577266995349990902e-02
-4.044883167863745632e-02
-1.639526045936604004e-02
-1.112442979742970378e-02
-2.992145246955522919e-02
5.110714289970988769e-03
2.123072570635284664e-02
-2.285736227936979378e-02
-2.073325598876985670e-02
1.615519949659567633e-02
2.185687928471943126e-02
1.593953556893500795e-02
9.073592465079903524e-03
1.581911965027572257e-03
4.010721892544275545e-03
8.137100560305558436e-03
6.505367761538658269e-03
4.430484799712398891e-03
5.881242448250691840e-03
8.943444566419935307e-03
8.802955383928995695e-03
3.507765384766035367e-03
-4.229523484535432942e-04
-1.472329559825599809e-03
-4.092238289866633946e-03
-5.459297549166716550e-03
-6.714134213370638940e-03
-7.477770742770097068e-03
-3.030964926791094097e-03
2.731209419835891813e-04
-7.571233705772523236e-04
-1.709109166246192916e-03
-6.148451751819287905e-04
3.383334711754219359e-03
8.973837459526262661e-03
1.209334213479382886e-02
9.225017431812091578e-03
5.469337853494814217e-03
5.637363818511225214e-03
6.007118899544153234e-03
4.179172399846024441e-03
-1.804832244538703877e-03
-6.257294374364463091e-03
-4.810339877758015859e-03
-8.464306968113463961e-03
-1.275798623833804615e-02
-8.798636644237634030e-03
-8.669211178866226969e-03
-1.041098215200791585e-02
-3.691540052844790708e-03
1.385558299851723804e-03
