3.597499894638067630e-02
4.476929242205634346e-02
2.102179716590216185e-02
1.298346053667345443e-02
1.671150286903449068e-03
-4.155175424001064828e-03
-7.569043331495039877e-03
-1.001732936463588935e-02
-5.082111506778320964e-03
8.535015318950865681e-04
1.104585838703866021e-02
1.292473119491367901e-02
1.279285064656180901e-02
1.855041466314408249e-02
1.600634202784500734e-02
1.860876142150333715e-02
1.965040442662174466e-02
7.171494884544352306e-03
1.398484915538118593e-03
3.379793619171692727e-04
-2.715447321712018310e-03
-3.484425674719873484e-03
-5.339235164219881084e-03
-9.079471244999640783e-03
-1.154941162579074983e-02
-1.236340835796571024e-02
-1.630552611070465452e-02
-2.016121508968935980e-02
-1.807544812645990942e-02
-1.204237545393748061e-02
-2.646965472424967891e-03
6.467297698375618076e-03
1.260668285051718025e-02
1.353367629751984005e-02
7.379979646326926927e-03
4.821787117701537874e-03
7.693510894258758816e-03
1.834535686190455787e-03
-1.005952632914873177e-02
-8.628223201543987197e-03
3.319743615266418542e-03
8.269028983086044310e-03
4.859235748995327508e-03
-4.747569368247511572e-03
-1.389769463181595409e-02
-1.790961931417321337e-02
-2.088932345083203274e-02
-1.311597740333048621e-02
-1.896325849381627453e-03
-2.917917438408231066e-03
-3.162778994822083856e-03
1.068424352946703007e-03
6.418629276802342680e-03
9.678820015695034987e-03
4.789737963365174600e-03
6.466983725381229842e-03
1.326330560077910656e-02
1.112311121415994128e-02
1.001284487042730306e-02
1.342260041731317341e-02
1.533662438813327561e-02
1.252241753422638285e-02
4.640143283376022519e-03
-1.361059961512305289e-03
-5.136260058877604312e-03
-5.449033361771517953e-03
3.498595292822865633e-04
1.148884981775313797e-03
-8.626840487068821242e-04
1.890910341925604353e-03
1.283145702832926916e-03
1.852550800941167239e-03
3.671216399550322231e-03
-2.468225776802703865e-03
-7.043902519832905343e-03
-1.292840084424715617e-02
-2.141439781315258861e-02
-1.695635213920542589e-02
-1.018480903160880711e-02
-7.180105872072247743e-03
-2.316514626351979383e-03
-2.700831678658741943e-03
-1.555918478976449750e-03
-1.069086774258847265e-03
-6.137834366174947133e-03
-4.417704268877628224e-03
-4.724784928113828731e-04
5.098018134471002209e-03
1.094098994110673934e-02
1.043568681661432088e-02
1.517819387669692467e-02
1.152573289698355201e-02
-1.168537412545620586e-03
2.453173109312744085e-03
4.101545373030726811e-03
6.490370818922821129e-04
4.631021092293246752e-03
5.612688580411860292e-04
-4.240168447247884449e-03
-3.013179519956056887e-03
-3.008642774125629225e-03
-1.058327320362889394e-03
-2.999634324518105685e-04
-2.002367891488031522e-03
-6.479872663045019299e-03
-7.421605249130582005e-03
2.122305687490206802e-03
6.290031527160557141e-03
5.810856184502010010e-05
-1.930666192749275461e-03
3.778856423617344470e-03
4.955940247980598554e-03
-1.728622135711257741e-03
-6.563409388997185241e-03
-9.557384464966831028e-03
-5.368427721601965082e-03
1.273877661115474513e-03
-3.905163571425394539e-03
-5.462066763852004882e-03
-1.496088795493488157e-03
1.788950432445530645e-03
8.953045002561079574e-03
9.060312465463737919e-03
9.249617828627935273e-03
1.065411358885078909e-02
3.374326405561099002e-03
1.597339811723541168e-03
-5.417680035389058838e-05
-1.016544767090958416e-02
-1.696726054262573738e-02
-1.305617836011049339e-02
-3.015424256004148491e-03
-3.463033023315895999e-03
-6.280198621135558643e-03
7.790272785828834942e-04
2.601911208381672315e-03
-4.791351472655166750e-04
1.034248662049544725e-03
1.577336164252016648e-03
-1.757073642543295752e-03
1.226396822240821043e-03
6.940710402735884681e-03
4.704393726749232264e-03
6.705089215698334208e-03
5.141488267366730799e-03
-3.942112332958503870e-03
-1.136331446468919967e-03
1.999900139379824290e-03
5.587138776215343043e-03
6.278058444891546769e-03
-7.373889294204978746e-03
-6.316845858448499537e-03
-7.593264134453523361e-04
-3.934702807801455059e-03
4.266782911691603501e-03
4.493954422307547963e-03
-2.630738534968598587e-03
-4.278238123232214543e-03
-7.387254566157928914e-03
-7.416586352529974148e-04
3.715324438906398522e-03
-2.168854368305704518e-03
-1.310963936765032790e-03
-1.815422259073976106e-04
-2.888526185315177033e-03
-2.853173692025985208e-03
-6.060631116536195108e-04
2.371277689224772500e-03
3.900756440097134532e-03
4.058409214442786246e-03
3.800409872266490626e-03
3.855752259754162241e-03
3.193808090612721123e-03
2.269679352937369141e-03
3.107218416291747734e-03
1.588361369156153068e-03
-3.380202278808945235e-03
-6.428414896610072128e-03
-3.885329437217177259e-03
-7.089075463842267567e-04
-3.530204133050884006e-03
-6.728348267418951013e-03
-4.799038977673878749e-03
-6.147634901442249533e-04
-1.033849126733393136e-04
-2.739570815646848873e-03
-9.482984739308773781e-04
1.774333283832992166e-03
2.024519122212991261e-03
1.297943889376986740e-03
-1.095900009267669010e-03
1.885763504512888433e-04
4.517872740912459890e-03
6.204427095865825900e-03
2.547568317226171601e-03
1.795610751000822512e-04
5.067435950355278322e-03
9.628703433230857830e-04
-6.581792301891455782e-03
-2.730214826858964015e-03
-2.617529235835987841e-03
-2.432385084263420476e-03
5.217250218775052427e-04
-2.156365294179229952e-03
1.026533389148269427e-03
1.983487995771552811e-03
-4.752294018885590797e-03
-3.848225637011930874e-03
4.592332010457014346e-04
2.201820925230227452e-04
-2.271757848651232304e-03
-1.216109241675099361e-03
3.316865285602486110e-03
5.247222031574941617e-03
5.114528597768228275e-03
4.912446770529752633e-04
-4.737932428065048072e-03
-3.968210192512049497e-03
-4.413674482771383009e-03
-2.749653317112080424e-03
5.187591590245525276e-03
9.267262767109834057e-03
9.792069808886997781e-03
1.009855160592263053e-02
2.144961759325005567e-03
-9.341551989389546007e-03
-9.010122765389670663e-03
-4.658689038329456508e-03
-2.679539623281026930e-03
5.251415062548152150e-03
6.539981232216528391e-03
-5.322487530835636393e-04
-2.232326253663890917e-04
5.822629843006137292e-04
-3.335186261904270373e-03
-7.838584526825873727e-03
-9.986470086005796998e-03
-7.806180481485086413e-03
-5.843079158220306803e-03
-2.729633543668387192e-03
6.476340827734567763e-05
2.465753870974816790e-03
9.689310275900800060e-03
1.172209694339319992e-02
9.347803130827291723e-03
8.754644543113551322e-03
1.573795919383198490e-03
-7.985266689197169365e-03
-1.296601475558367689e-02
-1.213668635594890820e-02
-3.696588342215090684e-03
3.723981788005873567e-03
9.925010119518338537e-04
-4.392257863079052777e-03
6.679369202341984635e-04
5.446475663195450914e-03
1.371906426487543625e-03
1.880772830788823922e-05
-1.905028061127220489e-03
-1.931037516982967751e-03
3.109036028304585156e-03
3.181708408510312922e-03
6.897691368353666211e-03
8.041547684490875023e-03
-7.882369344565875145e-05
1.710391703012862025e-04
2.587487606913666752e-03
3.908759957294737769e-03
7.720990556708957203e-03
3.157122198403527601e-03
-2.119444569270021589e-03
-1.577130675386217594e-03
6.357131213780181948e-04
-4.938264546532636573e-04
-7.331432227321995135e-03
-3.313443496804313083e-03
6.661676068054070247e-03
4.078340102002272691e-03
-2.356263053147295960e-03
-1.035443019183920378e-02
-1.699614860875380690e-02
-1.594726040770134620e-02
-1.286336366366735810e-02
-1.873232390203469211e-03
6.950670401120712105e-03
2.705790201750435820e-03
3.287636927879757000e-03
4.035933620892555480e-03
8.914557784624431436e-04
4.328602318672461653e-03
6.287317995275781661e-03
7.282258135112469610e-03
3.402854611840576329e-03
-5.817782749102847102e-03
-3.946820756490609927e-03
-4.718513104448850961e-04
2.590084314107504639e-03
6.936235386690165795e-03
6.681778667889579342e-04
7.380936293300248289e-04
5.536587104901361835e-03
2.209606689854501458e-03
3.373702831780327031e-03
2.309215562527815874e-03
-1.485752796569047391e-03
-3.679679743891519500e-03
-1.039380116566027482e-02
-9.973275767418667004e-03
-3.797947520623018956e-03
2.028960769892177579e-03
3.196809660443220621e-03
-6.288798269179264773e-03
-4.364935957691921768e-03
5.552128413489323434e-03
4.471949345129775689e-03
6.426342781014813405e-03
8.624822004869400760e-03
5.024890046154702195e-03
1.174976524959770851e-03
-7.219457493698197212e-03
-8.893140933177471827e-03
-9.065248862099364044e-04
2.285493094110648514e-03
3.588959251870116850e-03
3.785920011057943100e-03
-1.986931219106505449e-03
-5.482539316158149822e-03
-2.629160671588152455e-03
7.240821312704920050e-04
3.643518332941117488e-03
5.501340931168557588e-03
3.210549110729640342e-03
1.860897585262835836e-03
3.821089707530060317e-03
-2.812732888848075842e-04
-8.892929981000569778e-03
-8.437311186101192906e-03
-5.795426735040598923e-03
-1.127720451847669114e-02
-8.691520523444176347e-03
3.715117388321141287e-03
7.677023279940503771e-03
4.268547295796412677e-03
8.431296578548229956e-04
-4.868970649547361669e-04
-9.047016665891711735e-04
-2.986404634027042902e-03
-2.495535671363087200e-03
-6.481287047168737088e-04
2.576328423803771715e-03
5.899132506114765188e-03
1.294517047542743417e-03
9.478539238885814360e-04
5.786676236808701267e-03
9.545066571917581923e-04
-2.520185318201026165e-04
2.052806610138981341e-03
-3.033126952986105098e-03
-1.111630056046678319e-03
2.593288496692718222e-03
-1.907043168635867833e-04
1.604350828375048291e-03
1.762614334588287219e-03
1.018100705899405850e-03
4.543673394761773426e-03
1.457805645001355446e-03
2.598576108835256248e-04
6.814486329737256404e-03
7.268423803804949235e-03
3.712054403982643458e-04
-5.829151941063892908e-03
-3.636855798663587991e-03
-1.353343801943059175e-03
-8.547989078627263315e-03
-1.018712543917290984e-02
-6.585519244031432830e-03
-6.642512511390196404e-03
-3.976576090602158484e-03
-8.644797267363950495e-04
2.673585561031833861e-03
3.579554792118556494e-03
-3.244782297391584757e-03
-2.696815104838284297e-03
4.616194671983673246e-03
5.563632321618420043e-03
6.249147786028966776e-03
5.453549381942942795e-03
-2.560341759876499446e-04
1.540565049648099033e-03
4.904214200239603166e-03
-1.320420625389037315e-03
-5.265650503768714002e-04
4.775799436097578898e-03
-1.211965925410630031e-03
-2.762786119714047851e-03
-2.582458564833600831e-04
-4.678223765489415362e-03
-5.231742862903841426e-03
-3.898448175539143221e-03
-1.072623311497887793e-03
3.621580913941884090e-03
1.792639361977789491e-03
4.043717779674091406e-03
6.418040030407448984e-03
-1.147329515719539223e-03
-4.838899567891923395e-03
-6.203113982591439320e-03
-6.446306274932319703e-03
1.282993860123287332e-03
5.357440292049992468e-03
4.066974466466374317e-03
2.980610809357995845e-03
1.831074354868001547e-03
4.532656653944462308e-03
4.168379953523229826e-03
-8.656235049305541175e-05
2.961791280352501707e-03
5.897860177460838987e-03
1.911697379402539513e-03
-4.598033748561950775e-03
-1.184182428391166060e-02
-1.145491962788708698e-02
-4.429099105631186667e-03
-2.166858961063637765e-03
-2.014719092060701395e-03
-1.539581006765062187e-03
-2.183036696751546827e-03
-1.176288911420366422e-03
1.118723636268287693e-03
3.973830359461387116e-03
4.175248888415235803e-03
2.112078364407023092e-03
1.928711806846686739e-03
6.012475281759764372e-04
2.396945106754375782e-04
1.095436875156113789e-03
1.088686298909410412e-03
5.513061260086191823e-03
7.333663962995482649e-03
4.192025505013739425e-03
2.801235212658562210e-03
-1.931004940462310296e-03
-5.490978036716351839e-03
-4.302555410265408026e-03
-2.759594905309787835e-03
1.502177473199808270e-03
1.776720038149030671e-03
-1.372695459056286638e-03
-1.113147561024712458e-03
-8.137724700102289118e-04
6.598732071348246487e-04
5.656443717651851721e-04
3.506875348769459828e-05
1.650395594911138286e-04
-4.071167140585313024e-03
-2.255093244965854574e-03
9.504406703976527428e-04
-2.051878146359963680e-03
-1.015119758392700943e-03
-3.500509612612997395e-03
-5.307929193202874131e-03
2.447806129724632365e-03
6.771829315562230035e-03
7.653636136704152458e-03
3.823176325345766999e-03
-2.038449770926121021e-03
-1.112192955786208554e-03
-4.083301785115615867e-03
-7.292993645181366884e-03
-2.598712072340096570e-03
1.923279640889688285e-03
3.344494851782145624e-03
1.384528743388073642e-03
1.007530879987064958e-04
2.727597766948002943e-04
-1.592440280002050497e-03
-2.931765165340935626e-03
-1.578981985209990113e-03
1.665498362845411985e-03
2.506476798914213750e-04
-5.979671295103494147e-04
4.561237931048313203e-03
7.065508490917405543e-03
1.321684561318556272e-02
1.180210736198866218e-02
-8.126428860885473796e-03
-1.385452611090025495e-02
-4.362701078752909654e-03
5.377964826345381279e-04
5.670777296635535689e-03
3.348475749416858060e-03
-8.981941153069217254e-04
6.868933530157357928e-03
7.203434569366218114e-03
-7.491151999350185650e-03
-1.628650863090305712e-02
-1.087683788128630119e-02
-2.158274510044616307e-03
-2.090889565864172649e-03
-5.875759719371225279e-03
-2.780378674676851295e-03
-2.773933419187395426e-04
2.001478571389766776e-03
8.446746331886535383e-03
4.538360887696993133e-03
-2.935589116624987178e-04
2.529725755655335209e-03
-3.216519095230883549e-04
-7.845995692794171996e-04
-1.640829855250987334e-03
-3.010179514342590200e-03
6.497688964193438360e-03
8.033276892747031467e-03
5.151006630056680947e-03
7.808533799019632023e-03
1.979020544534469770e-03
-4.101313818247191018e-03
-4.828805166738140038e-03
-2.392012761669152447e-03
-1.189641856592568107e-03
-5.550304687256071325e-03
-3.722535448678035062e-04
6.334399017963208284e-03
3.602634530762243575e-03
1.772617152583778498e-03
-1.135257036179650398e-03
-1.252891898452725096e-03
-1.406195997448717646e-03
-8.102287614831719942e-03
-9.950489272175138192e-03
-6.771302135422551521e-03
1.845125584162826541e-04
6.973491820148882032e-03
4.636700371765130509e-03
3.094584173054008782e-04
-1.589580266075351798e-03
-2.022354476140765783e-03
-3.288031876072624021e-03
-5.225743341529858789e-03
-6.965325190572948990e-04
4.699366608074096244e-03
4.583823547305781315e-03
4.204985167065697707e-03
5.858295534814301694e-03
5.338443505819740267e-03
3.192716532586565084e-03
3.773410289946348660e-03
-5.850486003951699005e-04
-6.304225607217641726e-03
-9.694745452641442829e-04
4.499249011815796909e-03
4.046805053679103370e-03
1.957405666055490878e-03
-3.049500941799979060e-04
1.756048483449333371e-03
2.121404905120424268e-03
-2.488019962942665878e-03
-5.910668988782274806e-03
-7.675437837283109396e-03
-8.698954383257245446e-03
-7.586026187853958137e-03
-1.372069100331369364e-03
3.101221361064216211e-03
-4.587917987464084843e-04
-3.161460779704098646e-03
-3.610762508954740331e-03
-3.380226014588079940e-03
2.101781329199770736e-04
3.318668536956030299e-03
5.258421850513440160e-03
5.930831405420658974e-03
5.397184571258604839e-03
5.140847775884401470e-03
1.510396018637026605e-03
-2.541231084024074289e-03
-7.622069707462641617e-04
3.277367171786926478e-03
2.344537563928434602e-03
-2.126783514850637963e-03
-2.721781804430921554e-03
-2.377601364592973020e-03
-4.140040801424534588e-03
-1.886889386793369136e-03
4.186435918205534679e-03
9.469646164184912160e-03
1.059571180519118527e-02
7.009697296730028199e-03
1.545751791747514061e-03
-5.059791920991482846e-03
-9.479531228841139856e-03
-7.164244781350579891e-03
-8.410355962372230735e-04
-1.025975250077293009e-03
-8.239150072419935272e-03
-4.024914049931080200e-03
5.968357887833904141e-03
2.116282366573813984e-03
1.469980448320810018e-03
6.406652526284573740e-03
-2.144086506719692590e-03
-8.005803231789444113e-03
-4.781012584629478791e-03
-4.291319480672851384e-03
-6.861217238611594751e-05
4.030491547309084967e-03
3.556131438872778099e-03
4.036646071614504762e-03
1.992361045073902728e-03
-6.787322962318772775e-04
-2.871404597207599056e-04
1.879778167442509428e-03
1.064851090510054001e-03
-3.850251965969867744e-03
-2.098751473344073401e-03
9.359483022429555214e-04
-2.279380108946872099e-04
2.493907407085260101e-03
1.422417302843384523e-03
-1.934945656497884031e-03
-6.893742789029215674e-04
-3.305018004268695593e-04
1.749777957439730683e-03
2.600837747113973926e-03
9.516955482549552302e-04
2.202366035275736197e-03
1.538326372182090718e-03
-2.442738865553317242e-03
-7.269922664024091631e-03
-7.538655909415391959e-03
-2.490559822138953749e-04
8.073724254606888528e-03
1.087416386494227845e-02
3.975711834813636450e-03
-6.480722547304511132e-04
2.929369997854212263e-03
1.879196317581605623e-03
1.449600315481171676e-05
-1.527827440447340973e-03
-5.020380147387688494e-03
-2.281250111255773115e-03
-2.396853288423668200e-03
-6.160599005043359069e-03
-1.496845656866098743e-03
3.435763249676869122e-03
2.476726200925995734e-03
1.610045650314390498e-03
-4.266069250077414660e-05
-4.991644518200796452e-03
-6.979696375310134177e-03
-4.188844237934744551e-03
-1.179558667681224800e-03
3.462913489484392010e-03
6.946615280069657304e-03
4.253118794590032836e-03
-1.033777403511260910e-04
1.035830798238840432e-03
5.071987094759511892e-03
3.587630340854509187e-03
5.299345297057842527e-04
-2.461349720700491302e-03
-3.776267046423097389e-03
3.060399502917936568e-03
3.848563965291772453e-03
-2.412395973743081947e-04
1.495737110610774467e-03
-2.435836952103332190e-03
-5.192604155399117155e-03
-5.688275390591772916e-03
-7.790631830397024699e-03
2.411354687576847556e-03
7.802253893013725780e-03
1.888538104385511021e-03
5.531346782715138716e-04
-3.529005140114148138e-03
-3.968602026269031115e-03
1.153802992303881855e-03
-1.662044392176505138e-03
-3.219487461710341877e-03
4.349986897627693876e-04
1.823774818091647822e-03
6.376916053611978190e-04
-1.728819549703487952e-03
-2.795397551430753302e-03
-3.032750756652087304e-04
1.445594807465495424e-03
-3.391595185912983645e-03
-2.447978193002245222e-03
5.795768314563426275e-03
7.433474902671472102e-03
1.451317734359221061e-02
1.988779467830319864e-02
8.180744758235953401e-03
-1.881784500015821994e-03
-1.158933383726793061e-02
-1.794500542148532232e-02
-8.188276887228247009e-03
-1.840862034244415864e-03
-1.277485395244972247e-03
6.602383118205709406e-04
-9.161755042979062796e-05
5.317664012769008448e-04
-5.710101667657522997e-04
1.626427500766647717e-03
8.432850726176131795e-03
5.351303186397402684e-03
-2.486290427252300320e-03
-3.879066472257027779e-03
-1.032923954901077308e-03
-1.092081624299002206e-03
1.065907326830767580e-03
9.659802538330385796e-03
6.721835389075621336e-03
-3.560789902239889539e-03
-5.841674841209223631e-03
-7.030738255402678959e-03
-7.405783077257951756e-03
-8.650950078967101220e-03
-8.390656873741129604e-03
-5.342994756321666969e-04
3.087772962135876091e-03
6.677438913605768678e-04
-2.846915056247608777e-03
-3.438000846549351969e-03
1.511826261009609944e-03
3.077344603171366672e-03
3.398720149562168679e-03
3.899340628616037099e-03
9.400954618473220548e-04
4.662439162269586433e-04
4.716666067612197526e-03
8.648314609665400457e-03
2.686151634714127080e-03
-1.151640480930188901e-03
4.543891764439643953e-03
2.868721667333070605e-03
4.241110238215016481e-03
4.610826902535242015e-03
-2.799769860142201951e-03
2.728166156206113767e-03
5.624137478585001680e-04
-8.242615235447775870e-03
-1.004496710266642931e-03
-3.466119692074992294e-04
-3.152262811817516715e-03
1.301399152455961984e-05
2.485940617822852625e-03
5.723757727811398278e-03
-3.974413711514812771e-03
-1.415416211685520224e-02
-7.756427694034891823e-03
2.430046155522392053e-04
5.011879968849376060e-03
3.402087628426943983e-03
-1.358819115386538908e-03
3.357748091025428323e-04
2.520601538336449121e-03
5.057495168122530180e-03
7.566785574076825491e-03
2.049590250087849740e-03
-5.646664549101991330e-03
-7.249339706011206572e-03
-7.855456151701708731e-03
-4.281972441571245055e-03
5.970622694690708686e-03
7.428710212537118808e-03
5.503604620423038947e-03
4.531424846097517611e-03
-9.128262188172458352e-03
-1.562210668247283538e-02
-3.753266269047374551e-03
6.131564306833854269e-03
6.662582060680452209e-03
-1.771869250645168384e-03
-7.213203982756421877e-03
4.103766919796083277e-04
6.469569588998135522e-03
1.158026472385312875e-03
-3.159336975811967256e-03
2.148116241090019737e-03
3.490279864851053397e-03
-1.161843189740319453e-04
1.985928065622963746e-03
3.027777811447779355e-03
3.385794194905092196e-03
3.608841266265511594e-03
1.606698938437960741e-03
5.323957485963214803e-03
3.750469463685790050e-03
-6.418875540183983583e-03
-5.853428085437353302e-03
1.085984051999419652e-03
9.869775664285550948e-04
-1.507759130159788772e-03
-1.776010275962077584e-03
-1.332518723305377599e-03
-5.397794415566802137e-04
-1.759905212254242587e-03
-4.117262299269542312e-03
-2.385122793653973641e-03
1.960260600844250349e-08
1.261827086474092514e-03
3.539234712783400922e-03
5.167403800970669231e-03
6.077144977007340951e-03
7.180239505754461900e-04
-8.577518929429006969e-03
-7.252844077379441874e-03
2.338027741421300990e-03
4.321676988225109373e-03
-3.576185251327800973e-03
-4.465233388438110546e-03
3.201639690552697537e-03
3.099703589353489715e-03
-1.764839191277832366e-03
-2.345999202298811037e-03
3.518204911599860738e-03
8.480805004923382129e-03
1.901336060786106398e-03
-3.669002096714920995e-03
-3.849541507110206852e-03
-5.454933485585474091e-03
-4.356951174578119722e-03
-5.685607443980895091e-03
-4.171056065323207156e-03
4.606358053294927132e-03
6.059577764877857251e-03
1.888579870150681583e-03
-1.405608113434479722e-03
-7.525409843760398837e-04
4.405076210499700093e-03
6.261544511053432176e-03
8.571748683315864523e-03
8.372243185542162930e-03
-6.916107307369753245e-04
-4.025784171543356042e-03
1.139878710062786982e-03
1.401674297252743792e-03
-5.042957157109200471e-03
-6.690473474655419736e-03
-9.347840317163142810e-04
-2.299919340137806471e-03
-5.844016364189423031e-03
1.384149891157530681e-03
2.708046546153771057e-03
-3.552309417900257824e-03
7.370762622445081475e-04
4.650982466981687380e-03
2.540366463377704762e-03
2.385282047251358929e-03
-4.231134547005398552e-03
-5.457766728466735030e-03
4.989319299134353444e-03
4.552004116333429988e-03
1.701568407711470795e-03
2.174788473279652429e-03
-4.056356209766020203e-03
-3.527943840463040274e-03
-3.506078410720827069e-04
6.406981981451265922e-04
4.340492293372266198e-03
8.852222707032420109e-04
2.764260864233025142e-03
7.081070114562052625e-03
-1.292048192424041612e-03
-1.001922546713085102e-03
1.963179901612573455e-03
-2.668195952899142780e-03
1.433768005786156255e-04
-1.070392732242284040e-03
-2.875346177491843250e-03
4.025803994414633644e-03
2.768209920739790175e-03
1.161126628019782184e-03
3.277245513004488093e-03
-1.998255782912250651e-03
-1.858026375181741612e-03
2.538286519388201126e-03
-1.534491461667309223e-03
-4.558882240303844743e-03
-2.680177039139587138e-03
-3.293510128209145918e-03
-4.992896891566563772e-03
-9.943991556635948387e-04
5.011126908738068597e-03
1.835040371335181376e-03
-3.593265000380468227e-03
-1.362031319327966939e-03
4.012335942478214949e-04
1.267071353080485244e-03
4.902812969154138334e-03
4.542946717495882983e-03
1.081111169322870880e-03
-6.023612195042837153e-04
-3.904179125207910689e-03
-7.471392692947657031e-03
-5.611045587708716163e-03
-5.504409565722671871e-03
-1.061428998913539062e-02
-1.211567177120447328e-02
-1.179520653056823770e-02
-1.079460708339513922e-02
-9.022256890859297121e-03
-8.482327371136993976e-03
8.947398692655021083e-04
9.323840317129889962e-03
8.214408583553489684e-03
1.562435518534023918e-02
2.007214988747385229e-02
1.186557562111338442e-02
1.056750047015381569e-02
1.323426266888844648e-02
1.405332051938196040e-02
1.608927037340834865e-02
1.417142514882501272e-02
1.204052069021665713e-02
8.878885591322755941e-03
-4.849897940797263593e-03
-1.841646945743342922e-02
-2.197218907091195647e-02
-2.360321465390871620e-02
-1.723068412977818431e-02
-3.881024557098208773e-04
1.444940021583748790e-02
2.220296073035368453e-02
1.138116248726056545e-02
-3.149032161956289919e-03
-6.214102354834500968e-04
-5.634478300207144789e-03
-1.114314590622641522e-02
-2.940057930115235526e-03
-5.428283869776645565e-03
-9.669781298259596397e-03
-7.435971654550471537e-03
-6.151176942246643943e-03
2.072823801825823299e-03
8.830342009728642944e-03
1.923746958193425088e-02
3.990480588309738147e-02
4.154117116322040421e-02
2.734823296184432997e-02
2.792511177740190920e-02
3.117802759140030772e-02
2.104533898935785977e-02
6.315876310787124984e-03
-1.820392969922886989e-02
-5.673913373232199187e-02
-9.520305068722630104e-02
-1.056251425485781048e-01
-8.554804230195334203e-02
-7.409428738121331959e-02
-4.281840190432838200e-02
1.761253691153714246e-02
2.440114257068936102e-02
9.139675885641537420e-03
2.259926111045417602e-02
2.544465825602266335e-02
2.638455268508037993e-02
2.589557760348604187e-02
2.139461249736748089e-02
1.315751660549019028e-02
-1.164375933830051960e-02
1.752723404564956490e-04
2.253298182472924377e-02
1.527504121109581232e-02
3.743744955408306180e-02
5.287664463046155144e-02
3.598450017472721446e-02
3.033298969205070264e-02
2.800567099644585278e-02
4.516096411422934609e-02
6.336894290507949501e-02
3.987712976087159217e-02
1.914956019777173252e-02
3.180618409767110161e-02
4.154815683154835376e-02
8.065379425199832933e-03
-5.882351969739415404e-02
-1.153323962602357949e-01
-1.291386825242260006e-01
-1.054110552881142304e-01
-1.031777104789023541e-01
-1.327071426466002180e-01
-1.341804738528285801e-01
-9.457966298971488828e-02
-3.894762921005136963e-02
2.235564047205449226e-02
8.050219417223793139e-02
1.053401889857253498e-01
9.394988211304816650e-02
7.981134104941560448e-02
7.378176680416728694e-02
8.366542214324292071e-02
8.411244822021098078e-02
6.876245581400801388e-02
8.529143345319774305e-02
8.612149185044529198e-02
5.487146148750570579e-02
4.219048032225647393e-02
1.906835064588259174e-02
-1.124705375360732229e-03
-1.806473964346651251e-02
-5.077734260520247456e-02
-4.992317048270146496e-02
-3.687016245079805660e-02
2.033758981103010559e-03
7.619624405744515605e-02
8.131284781248598881e-02
4.434287247381307751e-02
4.822752220341656841e-03
-1.084174546167934183e-01
-2.556484455817950030e-01
-3.415657535120638633e-01
-3.452480388182617710e-01
-2.819274908845926797e-01
-1.710859585552029216e-01
-6.111676791949637033e-02
-2.005442397857193013e-03
3.402282877487725066e-02
1.092906884611421214e-01
2.430108215681399120e-01
3.355264833001522229e-01
2.725040824597088074e-01
1.519601115428353133e-01
9.167718073805609935e-02
4.668457662080130466e-02
-3.712046486884965166e-03
-1.274662058396696176e-02
2.667817871361240212e-02
6.185552462207025148e-02
6.789465230132536722e-02
6.254078262597453919e-02
4.174818294160530241e-02
2.797851757283039906e-02
3.305130756367739842e-02
1.910953181518827357e-02
-5.619021612613061926e-03
-2.037130532240950809e-02
-4.559861049513646430e-02
-7.395582836507522129e-02
-7.694468660518902214e-02
-9.042884080801008584e-02
-1.212969443206888126e-01
-1.050595961150595364e-01
-7.690832242188175294e-02
-7.075918819355296596e-02
-4.400346182609651130e-02
-1.612752650647242617e-02
1.761579032439550621e-02
5.346346927695182216e-02
3.969357862539414639e-02
1.326040652356929098e-02
1.286610747388153286e-02
1.493952615216125046e-02
-1.065082078101775662e-03
1.117071273317890578e-02
7.358009782254354425e-02
7.380872325884635377e-02
1.979887546645557259e-02
5.211516693879703066e-03
-5.486577536562567241e-03
-1.473623409226013092e-02
-2.718482995362238655e-02
-6.522366763868960027e-02
-9.477928268632949960e-02
-9.776497300917331990e-02
-4.704857815163841078e-02
-2.914322275773523555e-02
-6.962916812918687470e-02
8.732611124996219470e-03
1.041694932600188833e-01
6.174328244313763425e-02
2.196602508683911242e-02
6.871487043644221825e-03
1.273966258700399978e-02
1.013522722153366723e-01
1.365385575267050455e-01
6.607048114532203253e-02
1.007030858198917911e-02
-9.372090437407852581e-03
-7.006510160870704426e-03
4.398876754781897921e-03
-8.535312332412680475e-03
-1.236214508174995029e-02
1.789077553001805140e-02
3.345449226169762424e-02
2.191607795079127813e-02
1.150185209570882619e-02
4.803231145155449438e-04
-1.245835147020885915e-02
-2.202574137421529563e-02
-3.501757897890202254e-02
-4.328892895694767123e-02
-3.674509242542284976e-02
-1.946382828709057947e-02
-6.325595965727431880e-03
-1.517483348442570136e-02
-2.679845068667483649e-02
-2.070085697174035150e-02
-1.604924717370517784e-02
-1.522960229762030521e-02
-9.330128674724271279e-03
-5.255937100694690889e-03
-1.554422571717534824e-03
6.769248829164717200e-03
1.356165489270227779e-02
1.004417546979420942e-02
1.043170348402683474e-02
1.596754251347758807e-02
7.186435128236141022e-03
7.326609104764442333e-03
1.782193997202232913e-02
1.368610260573833309e-02
8.467695529809506072e-03
-4.915080295066850784e-03
-2.536102835974549108e-02
-3.647525052391096395e-02
-4.220057191364658816e-02
-3.710252022740021666e-02
-3.559882687191290307e-02
-1.053664176704219475e-02
4.970417773309447618e-02
5.742236667029687602e-02
2.857319699571596663e-02
2.131155058820678738e-02
1.113529371905577076e-02
1.121357805358066430e-02
1.189271336352503913e-02
-2.089972641375781749e-03
8.416059934266456773e-04
4.486333280519083123e-03
3.976738861298149616e-03
9.823859096702802773e-03
7.768119396840074235e-03
6.100659084668156630e-03
5.949449871793221697e-03
4.535565955697170790e-03
1.963380241791283422e-03
-8.312921817301279631e-03
-1.252421524412473952e-02
-6.243807456737659502e-03
7.432498343971815822e-05
2.053412284738564009e-03
-8.475664993118300645e-04
-5.478182649179219772e-03
-1.172333679568300473e-02
-1.545314764394085938e-02
-1.406358706373238114e-02
-8.008416876580571123e-03
-3.074038189099872337e-03
-6.809011050743108730e-03
-4.045240494967964479e-03
2.717928965962230874e-03
2.319766823131746807e-03
7.960690743307859141e-03
5.776090015790680612e-03
-2.344659668212115654e-03
7.423792644014042853e-03
1.223396956052739439e-02
7.643728251633332901e-03
9.150168463794043291e-03
2.410300415680527095e-03
-5.863546558046067551e-03
-3.593991248774735994e-03
-3.331599022304307899e-03
-5.423213337553452716e-03
-5.683093638262564501e-03
-5.485715909000523673e-03
-1.359529733443092013e-03
1.973074541220962586e-03
4.739841373658584822e-03
1.098353063084023772e-02
6.852089493193612262e-03
-1.314415033440808700e-03
1.153641407367283741e-03
5.039201059201796774e-04
1.548524381336550135e-03
8.016717598233901246e-03
2.832345522099439204e-03
-2.511038218598151024e-03
-3.407306326715381882e-03
-1.020124263443283365e-02
-1.290395665091713905e-02
-8.755779104630595847e-03
-3.503936313619868386e-03
2.361073242138790780e-03
9.644735569218961663e-03
1.393263114516797227e-02
1.045178242752725639e-02
7.208658329835068712e-03
1.727258685106149725e-03
-5.444431106443966932e-03
-1.314598466947565188e-03
1.921617930568252043e-03
-3.257017921596906175e-04
3.479309514210268423e-03
6.673194034569905446e-03
3.915416549904765509e-03
-3.129043042878650472e-03
-8.109225376153784623e-03
-7.196062017631514769e-03
-7.286267720233432707e-03
-7.004906497974566944e-03
-4.123885392016908395e-03
-1.371551916846872445e-03
2.566256242970855941e-03
9.637268745410140780e-03
1.448819116682539647e-02
1.214620429930199537e-02
8.988949204758898623e-03
-2.290453608467762740e-03
-1.798726310997133052e-02
-1.408765281743845459e-02
-4.550415851271583101e-03
-2.541717083544277702e-04
5.007353493511426147e-03
9.431318782918039160e-04
-2.877797024434065529e-03
-1.421166590548744420e-03
1.615116014576868566e-04
6.553331412701962795e-03
7.235292670304298984e-03
3.595691479619467223e-03
1.990657135334748026e-03
-3.174671578794965193e-04
-1.599608302141657589e-04
-3.005610062022448081e-03
-3.355264520961046167e-03
-7.927558165989616497e-04
-5.942499937641636601e-03
-6.363692199343956059e-03
-3.259878324345349965e-03
-5.704247757413217178e-03
-7.115669579409548799e-03
-4.729187621019608281e-03
3.049643429813639426e-03
6.086760314451404238e-03
2.296335346621420845e-03
4.518680043360133805e-03
7.639171559902486509e-03
6.890939111153029061e-03
1.819582553101669210e-03
-5.118919090428729161e-03
-3.530340821817555281e-03
1.377164158866086684e-03
3.635764785435741282e-03
4.608773114795950560e-03
1.669150794381028943e-03
-1.998611517768664712e-03
-3.896304743681797307e-03
-5.298362488463203082e-03
-5.603539655609811494e-03
-9.995965999278814094e-04
9.266031880506869767e-03
1.244476734004440303e-02
4.800550992950829848e-03
-9.601422666099971919e-04
-2.300581962811432471e-03
-3.979224280765298119e-03
-3.871010802318526536e-03
-2.101185083883406069e-03
-5.826964036673709657e-03
-1.146811893381354322e-02
-1.104352708449516177e-02
-1.082329446355293802e-02
-8.030732199718769795e-03
2.574554532422600531e-03
5.656394261021475620e-03
1.349805246991155755e-03
6.812920761298787119e-03
1.380415712701471564e-02
9.289096751405328742e-03
7.974347393888539526e-03
1.386869872575946169e-02
1.154545414867747671e-02
8.081588039967842196e-03
5.188138466681184273e-03
-8.300304920193306638e-03
-1.388816003453703304e-02
-7.278655094135910199e-03
-1.004388324609164357e-02
-1.201547080688528113e-02
-1.279985157424810144e-03
4.820520414417844672e-03
5.517720228669207097e-03
1.118923736000406767e-02
8.791713644809800651e-03
4.942880137041661195e-04
2.210677874468326611e-03
-6.955256916818665196e-04
-1.313138728666100007e-02
-2.002709620851111233e-02
-1.886921650227483746e-02
-1.089493900032540222e-02
-7.678065361303879587e-03
-9.424046358954834765e-03
-2.486258253921755888e-03
4.715378000044076826e-03
1.179468617975112932e-02
1.894391158359647748e-02
1.371982869690070196e-02
3.911785612119857494e-03
-4.307628079839745036e-03
-5.709928440903018487e-03
2.998834876463153925e-03
5.666577730709858839e-03
5.160944192810773198e-03
6.896100687551517949e-03
2.116053528171631982e-03
4.002890660238320013e-03
1.372791692390905142e-02
7.533357727602661355e-03
-7.141788379197510674e-03
-8.925010584727478824e-03
-6.153623095164681249e-03
-4.888394141126485397e-03
-8.304528320382433947e-05
7.166695825120169942e-04
-2.053514749140829005e-03
-4.124146026953127639e-04
3.109948956548782856e-03
1.611319171015440904e-03
-5.609050573943080535e-03
-8.924358446608122303e-03
-7.692598350821566386e-03
-5.282877344100860711e-03
-1.772112884779496363e-03
-4.302091574172282711e-03
-5.052297387178632769e-03
1.349120347064225543e-03
6.622592794083597550e-03
1.264022479725973938e-02
1.362646719014010653e-02
8.096451310130517789e-03
4.434849730763823841e-03
2.180594050864628590e-03
-6.871694382558232944e-05
-5.964689299528050381e-03
-8.286376863417321825e-03
-1.485906454515455817e-03
4.804827139043331766e-03
5.450729795251782472e-03
-4.532426095030744548e-03
-1.240435128201618220e-02
-7.760463786682934503e-03
-5.033741320943467545e-03
-1.917576574668382805e-03
-3.659196363467253450e-05
-4.389616122600996026e-03
-2.944512780858300587e-03
1.758975497258548435e-04
1.222753512144080000e-03
2.384025590192115785e-03
2.164857806714270538e-03
3.215679977132571404e-03
2.359549104158612139e-03
9.704847026584885504e-04
-2.843042473237418055e-03
-5.898603292936826364e-03
5.206061027868068639e-03
1.150420118896979850e-02
5.180052525279557792e-04
-7.391868390608243022e-03
-5.836203774322570349e-03
-1.082684133073129763e-04
2.568048934214150342e-03
4.016581339496868956e-04
2.433444983712075658e-03
7.238345379553231054e-03
8.226677650144455581e-03
5.671595550591879142e-03
1.433198933361442282e-03
-2.900537649227184940e-03
-2.870598317490689368e-03
3.190832845130069009e-03
5.392167298620042550e-03
-9.223263658844494794e-04
-6.824178023182293079e-03
-8.780458272731030134e-03
-1.056004243017639316e-02
-8.274996797062379381e-03
6.249856012045826390e-04
4.714968942606131974e-03
3.685851952768860306e-03
4.064262929156010722e-03
-1.919824964065191544e-04
-3.765993121214731209e-04
6.167695358214198703e-03
1.093727102448981007e-03
-8.545277689933055559e-03
-1.361956538418479870e-02
-1.984918421016707360e-02
-1.532063061401093412e-02
2.733599101079986038e-04
8.575512528956044309e-03
8.654248932131859348e-03
6.140566551913213995e-03
4.733290455944476859e-03
7.966210060735215079e-03
6.410933457684730129e-03
-9.581085119608707739e-05
1.021091140744344577e-03
4.893823571971294166e-04
-5.493533253981931069e-03
-2.152091683845295134e-03
1.530144598303116677e-03
-3.060708847937275716e-04
4.363369650064240039e-03
7.462965027736590158e-03
3.024235106428392692e-03
-1.717408358045139022e-03
-4.796618741057951003e-03
-2.834633615449097532e-03
3.222969975836163185e-04
-5.115023350065072858e-04
2.585243001337325305e-04
-4.859371539117131062e-05
-6.828315788494251394e-03
-9.044845619008444471e-03
-1.514525985067395565e-03
6.724136054601921424e-04
-4.511934900680762174e-03
-6.552866309862486437e-03
-6.237699477982940749e-03
-2.988968115218990865e-03
-2.437964815785053588e-03
-7.665478032173493779e-03
-3.497733106509487259e-03
4.714165550602915020e-03
4.515848494341331149e-03
2.804501656593826660e-03
3.012453022360014020e-03
4.542330596047651145e-03
3.798424388424792662e-03
1.996442708024553231e-03
4.081187678570562596e-03
7.268350911575367085e-03
1.000962094321788953e-02
4.368594108592757132e-03
-2.652107813946693801e-03
1.792839751271228452e-03
9.697426950183769432e-04
-2.878346873247134268e-03
-3.126611893133499076e-03
-1.080276212458464342e-02
-1.213840350611678116e-02
-5.287086425847836030e-03
-6.852429159672698833e-04
3.521486073766814592e-03
4.608899618888713350e-03
7.616106128534010783e-03
7.230698677136905388e-03
1.153980270148267885e-03
8.788072395242140520e-04
-3.255220618224603964e-03
-7.309741206069226595e-03
-3.420241490749336213e-03
-3.465447900512127078e-03
-6.485154172654668259e-03
-9.036979163292463424e-03
-2.877666016692466064e-03
7.746872184948634665e-03
4.491320166623638532e-03
5.003279511700631319e-04
2.154811018033902896e-03
1.892989537008461873e-03
4.937208792917719552e-03
6.246301367249209452e-03
5.727462873966878039e-03
5.372416269307060677e-03
-2.700235184221550172e-05
-5.577175929431790399e-03
-1.005279828838555149e-02
-1.093090362899933055e-02
-4.626656156390846278e-03
-3.233036831121149663e-03
-8.599948417619806412e-03
-4.344061222476836188e-03
6.012342481860062648e-03
6.598011846093102678e-03
6.485619579156312077e-03
8.933829385589557581e-03
3.583141055963857003e-03
-3.083918469819043533e-04
-1.683737167767108836e-03
-4.637727220720970489e-03
-2.380825731119153542e-03
1.044192143621707836e-03
1.831485321764572119e-03
-2.032177842303025100e-03
-5.127792448119826776e-03
-8.051445739694362575e-04
7.095354824462572763e-04
3.344266119688644665e-03
5.830874363943753386e-03
1.797437142417472383e-03
5.042312918086014513e-03
2.923257066336572806e-03
-7.378576035344410963e-03
-7.035738885624922938e-03
-8.154301608536715026e-03
-9.831624995481510337e-03
-5.991063814727023290e-03
-3.023786665107536849e-03
3.177423344343987752e-03
3.511203540255800667e-03
2.608224258888876615e-03
7.990161076975161453e-03
6.093854188932886808e-03
5.378062520516394170e-03
5.375254127985867880e-03
3.084049212030340716e-04
3.946587135562408186e-03
6.191508234239926148e-03
4.037250307558691120e-04
-2.988374026745070806e-03
-2.417606834324180151e-03
3.161594895347528533e-03
7.029646230514830819e-03
5.935254555775083124e-03
-3.967218361724538130e-04
-1.115147813148491089e-02
-1.092360424999920879e-02
-5.555329917271701647e-03
-8.704882528532881247e-03
-9.348865655123437743e-03
-3.673305614772972086e-03
5.795656073924663858e-04
-3.023996492753634703e-04
-6.112200781770672428e-04
2.948957019859517990e-03
1.164316084020542135e-03
-2.492106318493783005e-03
-2.065778142918927446e-03
-3.298436685001249376e-03
-4.072223013050650653e-03
-2.185473372372660761e-03
1.152856283278426387e-03
4.466185371632232920e-03
4.682809430312837029e-03
5.862309687220523986e-03
7.892181242802071700e-03
5.154394573169462923e-03
-2.627028153688191407e-04
-4.374155749856171310e-03
-2.854565303067836332e-03
3.606829789574231282e-03
4.396645104461161316e-03
5.218869023425881789e-04
1.134640193228313686e-03
5.902798742403474099e-04
-8.823433591581935883e-04
4.879207997709300582e-03
7.115778641703856405e-03
1.293450143111776578e-03
9.680916137475260527e-05
2.843331999877052405e-03
2.303127457856721585e-03
-1.291995740502896841e-03
-4.878782246604618580e-03
-3.783167988119498157e-03
8.606529014086344203e-04
1.414129885216401129e-03
-3.197747953706474387e-03
-6.600812568328420955e-03
-6.063602557340800649e-03
-4.441698569353883484e-03
-5.855706484244445342e-03
-7.364390411738475084e-03
-3.694344118356185976e-03
-2.145622729352318365e-03
-2.417050879545371445e-03
5.522820435485372489e-04
-3.594815228693747870e-03
-5.522706501021498217e-03
4.612165556057974507e-03
6.552285615076270005e-03
3.310996006595266945e-03
4.865101669559526894e-03
-3.990868951738249255e-04
-3.060223994994273108e-03
2.885120680950003873e-04
-3.039742846205339532e-03
-2.466793543616666983e-03
1.325571755049765980e-03
6.826014535864957482e-04
8.006410305919848744e-03
1.652279496416431820e-02
1.655997777433888124e-02
1.493211621188669617e-02
9.018520750931674837e-03
-1.234286150120368197e-04
-9.099643446485731341e-03
-1.513865712523452568e-02
-1.135439777346245599e-02
-4.272111237079690392e-03
6.904098791282126200e-04
2.359873498279877607e-03
-1.637242867528156641e-03
-3.379748821965005302e-03
-1.138780343860684762e-03
-1.548981198021425105e-04
-2.403151596236690300e-03
-5.843284919134039516e-03
-5.326481733245833072e-03
-3.173079032793256482e-03
-4.890848327077408500e-04
1.555981460842307575e-03
-2.351228633299284779e-04
-2.627066615213194140e-05
3.615714282555788136e-03
4.239071961530794727e-03
-1.631231954712083175e-03
-3.118024250930342967e-03
3.456342915748070090e-03
1.404555989530248145e-03
-1.342301974804682024e-03
2.679545136947667806e-03
1.434858275719019674e-03
1.394667499262511367e-03
1.026958124617246984e-03
-1.179564610038362840e-03
1.014434133809934309e-03
-2.516977591083888860e-04
-1.586164830412718123e-03
-1.682667813314662033e-03
-2.796561916410942282e-03
-1.734065124285982676e-03
1.161935395453713024e-04
4.436010067333683547e-03
2.025992085235354641e-04
-3.710723106510691299e-03
3.766890736162430229e-03
-1.514448343801885668e-03
-3.576933534166755989e-03
7.745369269150774796e-03
7.177000992554568269e-03
5.187356779007962042e-03
2.785579168467496730e-03
2.495932597552900792e-04
6.538423990548681945e-03
2.909683463367432679e-03
-5.347522855187857548e-03
-6.809779905993862577e-03
-8.983017622201768665e-03
-9.821862098723764187e-03
-9.714730548856884834e-03
-5.529686249985884226e-03
3.316118930656229442e-03
8.752074365675084275e-03
8.984144104637995648e-03
2.163330617882064724e-03
-6.152702154140144569e-03
-4.548214928060112343e-03
3.172168605893565738e-03
2.124229452021076433e-03
-3.520728757940601653e-03
1.268403485935778573e-04
3.496964826482219877e-03
3.352715502272072493e-03
3.811656536364289860e-03
1.012028352614668687e-03
3.615009950764425713e-03
3.003906285430501914e-03
-4.469689444278999654e-03
6.904654841622730145e-04
3.040812454190020171e-03
-3.476671431925183742e-03
-3.053732760001463538e-04
4.233201938979733940e-04
-4.273637396845683320e-03
-3.986671423857198263e-03
-3.884546740150506428e-03
-1.651876643284154499e-03
1.678402174098805747e-03
1.909566052151913992e-03
2.766562529142115295e-03
-6.953245609047054802e-04
-4.129709345000886871e-03
-6.042439200906432909e-04
2.283897440527101895e-04
1.524504750295077463e-04
-6.464017374282065046e-04
-5.096345569844114125e-03
-9.214269605910972629e-04
4.718272068930749047e-03
4.297001126679463739e-03
4.614975208188554397e-03
-6.678240081155681351e-04
-1.588529875980083592e-03
5.089624912941830698e-03
-9.512774841977716597e-04
-6.353887515369461420e-03
5.201147479886059641e-04
2.784654765493338978e-03
9.278035670323593739e-04
1.658118804152084315e-04
-4.967688608460429662e-04
1.245058514933961415e-03
1.614855940795718783e-03
9.875730880538325079e-04
2.772701795051193095e-03
3.881512213139029152e-03
2.548513180719607328e-03
-2.576485724899827551e-03
-6.250917321177138636e-03
-2.776868812635948595e-03
-1.547820945921463435e-03
-3.375256808197493502e-04
8.617619078680853473e-03
1.088690263178844833e-02
4.179232563682431199e-03
-1.710690571945660057e-03
-6.711473231661737454e-03
-4.732047680081985161e-03
4.927187482302289225e-04
-4.893154197385314076e-04
-2.210997305134245264e-03
-3.385470340537365466e-03
-8.295075519799997160e-03
-1.751748000566599045e-02
-1.898569853162916307e-02
-5.905586622333811216e-03
2.040878111108983435e-03
2.734459098519212601e-03
5.055926504212639172e-03
2.985282272929416173e-03
5.907315921271959550e-03
1.269983600006556641e-02
9.349412246428533482e-03
4.422976309971589533e-03
4.200960435059111243e-03
3.016774579765427351e-03
-1.625647925164223472e-03
-3.954057514832611843e-04
7.678945647012816109e-03
4.416743120168395084e-03
-1.696908709449351598e-04
6.978959900167739684e-03
8.485231353809855742e-03
5.658116642056000740e-03
6.180859267912938715e-03
1.203684640526988224e-03
-7.767078430561349771e-03
-1.132786841512225390e-02
-8.213782512157355789e-03
-6.009694939160327085e-03
-6.463266486313293084e-03
-6.470353389046840618e-03
-6.620203295705075729e-03
-4.621183993538502399e-03
-2.936593388967838770e-03
-2.896253791077084590e-03
-1.284250837380069817e-03
1.358748295617200378e-04
2.187301923353317419e-03
-1.324797748562184848e-03
-7.187970576158485628e-03
6.432448407360606950e-04
7.849595753879260243e-03
4.919936854863496585e-03
5.044802658157264939e-03
2.061250868374912490e-03
-2.726461736095114451e-03
8.808433397124979013e-04
4.916849993756558859e-03
5.651826478476391739e-03
4.244466117417483413e-03
2.586458580052565688e-03
2.121674099605830571e-03
-2.581636367859331538e-03
-5.498330733631650279e-03
-2.342862677140386540e-03
-1.117922052143893730e-03
2.000983157400148486e-03
9.778584508242029946e-03
1.328918148873647551e-02
9.180905819053898978e-03
1.413120482238073715e-04
-1.031702607768912074e-02
-1.770582084849742915e-02
-1.401487791492642826e-02
-3.056157703988700118e-03
-1.234500204061511749e-03
-2.499060697180641340e-03
8.031333322185791809e-04
-1.129041162949665379e-03
7.501985911185483046e-04
8.693336296685791678e-03
6.455376494076537144e-03
7.738583271092491821e-05
-3.580379701202132670e-03
-6.142532943352855927e-03
-3.627461519867498235e-03
-5.522490302756564301e-04
3.602689807291070429e-03
7.592708423981736100e-03
2.941739874611094558e-03
2.036198099166935862e-03
5.888967154474526212e-03
1.437411948896489145e-03
-5.575147950257473319e-04
-3.664173503883502909e-04
-4.716236116226331897e-03
-2.746097855027407244e-03
-2.894700800871613544e-04
-2.375042301123697543e-03
1.869216867957943515e-03
7.962735148613455174e-03
5.188838008761764188e-03
-1.055352605584849047e-03
-5.353509172387310158e-04
-2.728246957891340609e-04
-2.664745676027465392e-03
-4.564071810111121146e-04
-3.844072500184502351e-03
-5.100275172089061351e-03
2.614061996580054580e-03
-7.801347338875037549e-04
-3.183361673377557276e-03
-6.673601001332498707e-05
-6.007582151744852821e-03
-2.913946554794662625e-03
2.889578670706609894e-03
-4.900661258840737639e-03
-7.220727544255150197e-03
1.239368590941297113e-04
5.153150867332474509e-03
4.345533233316971160e-03
1.944719354143122948e-03
1.158799451053776648e-03
-5.641630281676552868e-04
-2.401753891769108171e-03
-4.366311156148838107e-03
-1.306630358755316284e-03
4.084530636554774448e-03
3.037655417212868636e-03
5.397557507861184406e-03
6.482464690652617843e-03
4.176163723193816561e-03
8.449323452323243000e-03
3.873210495778942834e-03
-1.617259679454514151e-03
2.038068004384847604e-03
-3.978521455424499816e-03
-5.656801270878188299e-03
1.916593572872250144e-03
1.067586800644955587e-04
-1.593685804004056758e-03
-9.594987218945023270e-06
1.381153870344029684e-04
3.063610161907501760e-03
5.682442362858511039e-04
-7.687438850716678956e-03
-3.733360063377302775e-03
7.788298740231138460e-03
3.539303974960231192e-03
-5.401118352555662507e-03
-1.587028473333952205e-03
4.534641023840478482e-04
-4.235864174453195588e-03
-8.365765726294931148e-03
-5.467929778339219310e-03
3.484555243320752727e-03
3.795708803114418786e-04
-5.285561696681847881e-03
3.146686989647753713e-04
4.588122849298010642e-04
2.162798786094480210e-04
4.980652162936275058e-03
4.927357591534131838e-03
4.645565631772247302e-03
-7.947311365151678948e-04
-7.071469924671598337e-03
-2.882846315110157692e-03
-1.554877290054549688e-03
-1.475658182179631975e-03
4.208408160816232146e-03
4.872934733287433151e-03
1.252692834098897501e-03
-2.383488121335357573e-03
-1.603244582437867664e-03
2.566147511832980038e-03
-5.849343604593805587e-05
-1.335058730553857070e-03
1.855184711419486645e-03
2.363949319461574987e-03
5.405579257531550538e-03
5.837280834188418241e-03
2.735453278804526878e-03
3.764321346308146816e-03
1.811411343033080424e-03
-2.043319125613577737e-03
-3.508749930663847879e-03
-3.954965008757871554e-03
4.419214346492755146e-04
5.487098178575361244e-03
6.082734266481397076e-03
-4.158721000341059635e-04
-8.514985778437790878e-03
-5.582926746120258667e-03
-3.888694020457022192e-03
-7.844859091716649066e-03
-3.812100049846988206e-03
-1.185045151862729879e-03
-8.437801152970981784e-04
3.491680869481765277e-03
3.904905735490010223e-03
3.470364093959151311e-03
1.264546006659582030e-03
-2.192021347588160671e-03
-3.557456961594592654e-03
-1.188905422931439693e-02
-1.098515890714323387e-02
4.308663068273805782e-03
7.587045899472000948e-03
7.445867255495615226e-03
1.146600058622396744e-02
6.218546250647182839e-03
1.338235675384038745e-03
-2.390432234770447392e-04
-2.907311046422010430e-03
-7.720483040126061101e-04
1.177283233878873188e-03
-9.703040972504322747e-04
-2.286807440544960397e-03
-8.121522639705226450e-04
5.272022545392442269e-04
-8.643549726295703204e-04
-2.213054495218384418e-03
-2.689737889883568513e-03
1.200621909084068030e-04
4.046606641703709602e-03
3.986696122188041229e-04
-1.383814083819515485e-03
5.491213791902044804e-03
8.883632524273618256e-03
5.277832461826051022e-03
1.192921717212288256e-03
1.138469857953222923e-04
-5.402500651275890173e-03
-1.273249140475880316e-02
-4.832525036172836269e-03
3.401084317574541716e-03
-3.761093179319111284e-03
-5.742532373918338845e-03
4.442764414030639071e-04
7.457041591103260713e-04
3.286748905843567942e-04
4.120942897084737926e-03
5.425615123376062790e-03
1.746988084530213658e-03
-2.161698420204306338e-03
-6.744451774486772723e-03
-8.914755558514914774e-03
-1.590461225224257041e-03
1.406081423601953642e-03
-4.940752788766188293e-03
-2.311575458380150851e-03
3.164695064091666791e-03
2.645311588909051315e-03
6.789628638871158910e-03
7.810363072993968363e-03
4.666169642752348266e-03
1.028017258159441040e-02
9.857974958511575916e-03
5.968463458116993149e-04
2.650460470723733312e-03
5.803320857472793123e-03
-3.714617670880547649e-03
-1.082145709624489360e-02
-7.123074535182020300e-03
-6.434169802368566553e-03
-1.516151668848469622e-02
-1.786744210768759569e-02
-1.065606740531037377e-02
-6.238497296353022817e-03
-1.891027078850857470e-03
3.378752313109282049e-03
1.828931924571791743e-03
2.083544811243817456e-03
8.149659952425442402e-03
1.246589867080964351e-02
1.589001388014362956e-02
1.569183410674132931e-02
1.464746610149616698e-02
1.983129481262183372e-02
1.632938025030350460e-02
5.074905141166215217e-03
9.411887942852848171e-04
-5.113025948771747139e-03
-9.703130163291490487e-03
-1.203090118409406474e-02
-2.162597668642401300e-02
-1.986678811815478785e-02
-8.894733191450676646e-03
-4.335643351656124495e-03
-2.135541189183168395e-04
1.727089674054663876e-03
7.816461043877823492e-03
9.556440386044121396e-03
