-2.955553641155689824e-03
-2.172998794963286115e-02
-2.914677963637692104e-02
-2.754027481587720261e-02
-2.117841994757386354e-02
-1.651447939366074841e-02
-9.133800793263825366e-03
6.619993219589562694e-04
1.051592488883325467e-02
1.740657365547591470e-02
2.350426612610409874e-02
2.648520083771104677e-02
2.478570305052077427e-02
2.086552815487612011e-02
-5.425669260790154380e-03
-2.227628461097690832e-02
3.636549903517236927e-03
1.377898562113296331e-02
5.071800466402672999e-03
6.847619504446375398e-03
-1.811801023011965633e-03
-7.069866524044910935e-03
-7.412017821198640249e-03
-1.369716249872408170e-02
-1.093912627771273516e-02
-7.773103965479642372e-03
-6.447396065724774784e-03
-4.524983831492174376e-03
-7.714895308882484953e-04
1.052487722147639471e-02
1.357017173359741438e-02
1.158216987282919067e-02
1.133907055365901938e-02
5.509166736595325770e-03
2.891809744869571364e-03
2.282539233204460612e-03
3.167602550894578484e-03
6.160912261143530570e-03
2.940480608724993679e-03
-1.676271379477336934e-05
-4.254057003368703210e-03
-9.943426277663581364e-03
-8.138645700386118800e-03
-5.990686385362355149e-03
-7.128594991324240827e-03
-1.085495235360302464e-02
-1.292369289380769851e-02
-5.298557617166745407e-03
3.275129741069904982e-03
5.050400994006598414e-03
2.700999232835195503e-03
8.729781675594929218e-06
-7.825211075944111345e-04
-2.380704011848837429e-03
-2.273780413525730137e-03
1.041630921890949633e-03
2.373651140248154295e-03
9.410213227178718500e-04
-5.687150321906763589e-04
1.280148074008362422e-03
4.606228308579219874e-03
4.993643089510793609e-03
4.719259397908234094e-03
5.234815714816060811e-03
3.925767546794178657e-03
1.336609850410017683e-03
6.631068504966555277e-04
-3.825074197592467484e-03
-1.315687619346646124e-02
-8.408512278867200096e-03
7.751407073121286892e-03
1.105242666519467079e-02
5.341457402395662774e-03
4.361338570906364044e-03
5.841645961650515639e-03
4.335998789361766685e-03
-2.642838722757713272e-03
-1.005949923576011582e-02
-9.239033944969570269e-03
-2.473752672656012990e-03
-1.377941653251206532e-03
-4.484032929543863531e-03
-1.278192410976796475e-03
1.965065496914953844e-03
1.856915262400789029e-03
1.248081559677281793e-03
-4.145480872859985677e-03
-3.125627249136001071e-03
7.056905476667388322e-03
9.103401231280418976e-03
3.314630548412887418e-03
-2.325045483410343415e-03
-5.512656536028694848e-03
-6.340228862503727997e-03
-6.070749163146815786e-03
-1.458360012890064792e-03
4.982472377631651586e-03
6.913945300662422376e-03
4.388671723871104789e-03
3.387790153010408929e-03
5.608675302041703746e-03
1.554400791126681145e-03
-5.030123060292106436e-03
-2.424691135643569813e-03
1.382979502788078859e-03
1.913160634045003077e-05
-4.181636237453239873e-04
8.428840767068059622e-04
1.345992865337472316e-03
2.044555017730429088e-03
1.284201602939232618e-03
-3.290870640081488673e-03
-6.743788035934570116e-03
-5.766121420244884818e-03
-2.776568209124982613e-03
-7.749860243559146067e-04
-1.008967080262285253e-03
4.419077574318341136e-04
2.054386079346174222e-03
2.109203922246527443e-03
4.860958815566153966e-03
4.190618233242139265e-03
3.973479178514878365e-04
1.744687949872648393e-03
1.702641732369570334e-03
-3.268930797551165487e-03
-6.900636697860057858e-03
-5.115886157389779205e-03
8.713730211792481816e-04
5.696093928602716586e-03
6.510689059930186741e-03
2.048043077167685262e-03
-1.729101820044478535e-03
-7.859707905088074323e-05
-2.080502362714712998e-03
-6.192418158543697149e-03
-4.574025089929312921e-03
-1.402829667442574268e-03
1.929047384293704637e-03
4.054478715271665062e-03
3.828428293429503824e-03
4.955253382392825479e-03
4.537528031435428787e-03
5.800778745418701515e-04
-3.150180163406700318e-03
-3.112394894448605558e-03
-7.643726523382554953e-04
-1.815239205085921728e-03
-1.151849781226672040e-03
3.362204672676988911e-03
2.563410554728501756e-03
1.447906205361481290e-04
-4.246467739077085745e-04
-3.563426754967444644e-03
-4.235860403244150890e-03
-1.874091326415845563e-03
-1.943067547657503042e-03
-1.652843030007309115e-03
1.114474266844147970e-03
3.081327741965385857e-03
3.098607140294905001e-04
-3.452292074923202225e-03
-2.748545148290947688e-04
1.824308439171144292e-03
-1.540358526394085574e-03
-9.910364132568059352e-05
-2.385577630782700323e-04
-1.581443734303042284e-03
5.805821741789671427e-03
7.601924350006739224e-03
3.921924346820482299e-03
2.770494752768558940e-03
-2.273951379347461613e-03
-3.161402790993933336e-03
-4.329102517362328796e-03
-6.584535632045356024e-03
1.671083991613858157e-03
2.947161765848413557e-03
1.053694002507179562e-03
4.931686833086745651e-03
6.673352454129548436e-04
2.435194196553964411e-03
8.300977423420723145e-03
3.307908797770881069e-03
-1.456308026665982698e-03
-3.752476693029757962e-03
-3.955986580669921746e-03
-3.975524376502975743e-03
-2.977764959070095842e-03
1.532404884152916260e-04
1.039348696024589361e-03
9.748097367697234478e-03
9.627511618793454032e-03
-1.853418950695360449e-03
-4.077681990885983175e-03
-2.390211746625101746e-02
-2.732620083398494548e-02
1.091992709308722831e-02
1.187300091996411865e-02
-6.123372452082702193e-03
2.502975434881743629e-03
5.375982502372701668e-04
-3.308052588734819270e-03
9.195537081192596638e-04
4.551024475753027120e-03
1.078670664226994910e-02
5.685355040666184405e-03
1.671552122211951256e-03
1.997137313691593492e-03
-3.702446264731952368e-03
5.086528848716250373e-04
4.797942010120022360e-03
1.528128885590971991e-03
-8.376666540241560531e-05
-4.266567721178286983e-03
-4.561836113283153360e-03
-1.439205347824769029e-03
-2.335998692254706837e-03
-2.035696055751867132e-03
-7.479591915187451708e-05
4.121285031424632892e-04
-3.020140492638975121e-04
8.921849719536553312e-04
2.851511162418018854e-03
2.094197325423399498e-03
2.235334854860929394e-04
-9.485391430977550874e-04
3.115939138014610778e-04
2.303006846668739262e-03
5.392420128793283529e-03
8.070864752264466507e-03
4.708219380425686211e-03
-2.685460023222674191e-04
-5.282753291969013477e-03
-7.829238994245132921e-03
-5.732283043650965131e-03
-1.174736066438929454e-03
6.760079128848938898e-03
2.886859780043166211e-03
-1.448171360493464991e-03
7.540656736752007240e-03
4.753157830665712472e-03
4.382024320032663553e-03
6.745821306228754095e-03
1.067472747512051689e-03
7.618583719949633716e-03
-1.799230162255330279e-02
-5.267297713294226413e-02
-2.023270080400416462e-02
1.215795228231867503e-02
9.359854397383583421e-03
1.000146696649110815e-02
3.220032185257073413e-03
-1.306405855402494130e-03
-1.243140092057546373e-04
-3.292672966954106589e-03
2.478994501857532951e-03
6.023808291714402054e-03
2.845825351112022446e-03
4.067418676448142020e-03
5.598669301213897269e-03
2.048811329156875576e-03
-2.688455229131986139e-03
1.742944774137546995e-03
4.994162608559999175e-03
-2.161167492568611195e-03
-5.174356870572954618e-03
-2.319536341282569126e-03
2.412524237412583174e-03
7.160313418463146694e-03
7.623679193112589680e-03
6.625407777313354132e-03
9.979214690376085866e-04
-7.059467197100355827e-03
-6.778730908121190397e-03
-1.709575950119217314e-03
6.828637001151423172e-04
-3.775401185967099203e-04
-1.192464593397031449e-03
1.138565002658875960e-03
4.089848240674002523e-03
5.778818118645859432e-03
2.336499091078862028e-03
-2.039811960625009541e-03
2.168689823442960640e-03
3.775312602757608868e-03
9.213295569312065841e-04
3.043441954253023416e-03
1.952527182760373150e-03
3.913145891182269291e-03
8.300144447355169153e-03
4.994061389138088232e-03
6.992488522705948666e-03
-1.010665266566514522e-02
-4.590980859800518343e-02
-3.484369068805220904e-02
-1.320845888467775224e-03
1.726740184301830136e-03
2.226988519626703269e-03
5.427252220640344134e-03
2.969848574398506816e-03
6.214322650157013718e-03
5.393282321011233331e-03
1.763922979349365943e-03
1.593443492497202468e-04
-2.194188746635105432e-03
1.150904742654536484e-04
1.439610854119447499e-03
3.682238942613879316e-03
7.195682892610873356e-03
3.023349545834399209e-03
6.812242112746568629e-04
-1.131261964423944510e-03
-4.545495771760348427e-03
-9.573056643795614402e-04
1.146407204955747581e-03
4.534099324573391369e-03
9.170520426835110372e-03
7.261318780006768489e-03
8.435095120508460942e-03
7.393214249709919791e-03
2.777310000248910549e-03
1.309537539592792697e-03
-2.432070061309037860e-03
-3.979568607200004854e-03
-5.756006645760599651e-03
-7.042711622342254230e-03
-2.523509831750339345e-03
2.256918980507870327e-03
8.525118634781510274e-03
7.711692604467793553e-03
2.117324899205365839e-03
-9.141133911496468869e-05
-4.583624817861948857e-03
-1.935149346404491620e-03
-5.795420574068096140e-04
-2.753446415247816706e-03
-1.299480566863582759e-03
-3.305728908645807432e-03
9.549848282213602851e-03
1.124755163326720273e-03
-3.890532256664886585e-02
-2.745903619330560333e-02
4.340802156296552465e-03
3.718659103429701896e-03
5.951970411837610025e-03
5.278354584439854010e-03
4.075645593425775343e-04
2.358715630395627569e-03
3.112015696051004688e-03
5.506674094209776729e-03
1.250488978463565066e-03
-4.604811996808737436e-03
-5.883694145311388866e-03
-5.754776920134497750e-03
1.367570554024509564e-04
2.026894973494299500e-03
3.956367266284318077e-03
7.952901387206034664e-03
7.700110948651439982e-03
1.123254137809361758e-02
9.389292266496051392e-03
4.167694639459224720e-03
4.356644020651879307e-03
1.225021868748147388e-03
-9.429564154292890618e-04
-3.426539612862896864e-03
-5.944232249595418800e-03
-4.859536597021298521e-04
5.396488559939570905e-03
7.660099419549737040e-03
4.439818021662370572e-03
-3.320947934514626582e-03
-9.360108889607213212e-03
-1.323496969077598943e-02
-9.705995458482202104e-03
-2.733566379676111071e-03
-2.269369169040060842e-03
-2.919691986636471608e-04
5.579549595726839874e-03
6.534109499910078361e-03
4.325102930176472245e-03
1.974869192088936094e-03
-7.326497363053043098e-04
-7.605826799775262069e-04
-9.337184274411468700e-04
-1.502148872129505791e-03
6.766084928184995344e-04
8.125541414634239283e-04
1.152895771861331929e-03
1.349451746492850383e-03
8.330610100309987758e-05
2.508315292036061243e-03
-3.173630404749037438e-03
-1.161451260071524709e-02
-6.304164197943413518e-03
-9.387355478128845765e-04
-3.262391919634400218e-04
-5.777878938745740394e-04
-1.418333266208066362e-03
8.354442052677286696e-04
-5.229807789074063847e-04
-4.080884727429091364e-04
4.162935607705426332e-03
3.139041563949870710e-03
7.990955439573239460e-04
-5.777809693320633613e-04
-6.232324963521187339e-04
3.119008568685317524e-03
7.196834714355383918e-03
7.807901243577437637e-03
3.024954257452415127e-03
2.174563115875829348e-03
2.152702877985551277e-03
-4.852517919785125436e-03
-4.974025919815473762e-03
-1.576848645060489667e-03
-1.901340864729773959e-03
-2.059181534153497627e-04
1.277650347570374358e-03
5.137616920675882985e-03
4.890016245335513691e-03
-1.080282599304391387e-03
-4.258510286234269649e-04
-8.213308758632036858e-04
-3.503031062290135923e-03
-4.320294953154065788e-03
-5.334808677528462932e-03
1.709779008821719209e-03
5.935130618944147937e-03
1.086133509677826396e-03
1.422431916019187845e-03
-2.061907248566813376e-03
-1.097391722850971432e-02
-1.037222748692251222e-02
-5.466470539385603206e-03
-1.385584471432357108e-04
5.191082131648598781e-03
4.213151559692584862e-03
4.846241829355139516e-03
8.080880965867832250e-03
4.347017454851602458e-03
1.827857323498730197e-03
2.238595621233327275e-03
-1.292724698705386170e-03
-3.644856569568301948e-03
-4.340970861864512469e-03
-3.239904142613323976e-03
1.973354030887834037e-03
7.551718393978747862e-03
9.121679477765756369e-03
4.512660545582552162e-03
1.947779654862230158e-03
8.175456082056670702e-05
-7.742659891379805731e-03
-7.350703257172540306e-03
-5.706784424716517256e-05
9.717428545924025347e-04
-3.627122700654016344e-04
5.346064208867809097e-06
1.539872939438233224e-03
-1.862966811945929082e-03
-6.047682068337863551e-03
-2.146048141201960507e-03
-6.517242820022128239e-04
-3.427267121096659510e-03
-5.670971619445096257e-03
-6.557825642962819036e-03
-4.521937690464910252e-04
5.058868117519156084e-03
4.735858936439462340e-03
3.761316782843592693e-03
1.797043870634469805e-03
-1.853837568626018990e-04
-1.504608894581001234e-03
-1.130401123986697490e-03
-7.221271981507508325e-04
-6.407715886443566145e-04
3.495244422524915878e-03
5.014482643182741235e-03
2.932867338120561957e-03
8.619918248903249858e-04
-1.884353669302461830e-03
2.833619187073585250e-03
8.178420671095480016e-03
6.032280532963434777e-03
4.210708005996850224e-03
-4.990943001872895791e-04
-3.423792423561477279e-03
1.077791135880058109e-03
7.040961164370384802e-04
-2.958748476315255661e-03
-4.871633200113407829e-03
-7.307087958548987884e-03
-5.558613269241402186e-03
-2.064365830879469690e-03
-9.842202347733568484e-04
1.925134454491785789e-04
-2.408631925697167790e-04
1.332569249191762955e-04
4.196301088555338780e-03
3.157579864413004051e-03
-2.388208181239218249e-03
-7.411871036292599349e-04
2.921933955520874919e-03
7.493204313816783594e-04
-6.227504373209464227e-05
1.654707647547363982e-04
-4.281530685241964813e-04
4.273097928036866978e-03
7.430499015958445634e-03
5.190135504301879137e-03
8.223411219117759009e-04
-9.436738324392108732e-03
-1.308416233962866708e-02
-7.240720703539292764e-03
-7.771336128404734110e-03
-5.056443038538442278e-03
2.367318157835534339e-03
2.376263900210984735e-03
3.669305503618310559e-03
6.600489359344027807e-03
6.262659388364170965e-03
3.996969020022731259e-03
-2.807606987829701969e-04
-1.895761890568080799e-03
-4.559774167833555159e-03
-7.055215793697826310e-03
-1.651969692295536312e-03
4.568435577054738225e-03
8.105073785250169541e-03
8.302164205881801956e-03
3.680589113434864536e-03
-1.914625399755171984e-05
-6.917393857247423200e-04
-2.119863248739292444e-04
-3.488535020108930219e-04
1.893535197439946130e-03
3.671690801440119153e-03
1.212490611783022829e-04
1.430075319896165383e-03
4.264468085816799404e-03
3.228702525308835454e-03
4.312810121777211833e-03
-1.533177624560559562e-04
-3.558855811553057920e-03
-2.952966461266312050e-03
-8.942096118031567231e-03
-6.682169807811086208e-03
-4.228342959331595667e-04
-2.096807297092984773e-03
9.428089685189326458e-04
2.318572291582944069e-03
-3.196502199154862243e-03
-7.714266792059000857e-03
-8.057002162381270496e-03
-3.366717988387366717e-03
-1.604555715427780516e-03
2.569715435666803716e-04
5.125796813207722687e-03
5.099132745933033367e-03
2.587916591279750423e-03
-1.550982044992630510e-03
-3.356854900063306266e-03
-2.003294718866148114e-03
-3.772440859749493555e-03
-3.709596178074736714e-03
-2.726149518694356757e-03
-9.901039504468373258e-04
3.353893729921904755e-03
6.208031810761545713e-03
8.414879666817923903e-03
3.959105265916295149e-03
-1.092374254378774027e-03
2.248526552338461250e-03
1.849872958657110961e-03
-1.333954289459110803e-03
-2.857049284967675502e-04
3.892981069948985625e-03
6.088774950831826391e-03
4.925571109947913737e-03
7.467825751322625626e-03
4.326514948658059280e-03
-5.420870536551722265e-05
3.074993002823841245e-03
-5.730252905044091669e-04
-1.034824045034833878e-03
1.409986003608803802e-03
-1.114185805455269714e-03
4.169422610155229178e-03
5.647151301584749788e-03
1.331753714479170679e-03
-2.601195482737652526e-03
-5.545183395809466335e-03
-8.667237861521497966e-04
-2.612428350042635041e-03
-3.532780524657735347e-03
-1.388216736132317358e-02
-4.555975716219518717e-02
-3.384323353484465502e-02
7.382719123410584096e-03
1.293252273978332846e-02
8.503644787420562220e-03
7.873001440138619259e-03
5.727121536657003506e-03
7.219590648072196290e-03
1.641576189515082723e-03
-2.578165091391073412e-03
2.763068344968670959e-04
5.886222102254594531e-03
9.511073548688471491e-03
5.960259856765526450e-03
4.449978690326242617e-03
2.663524491123234542e-03
-1.598339030922401195e-03
-2.857008883383619149e-03
-1.754701151478011778e-03
4.056103092939507791e-03
5.108173464930851337e-03
3.245193145455099303e-03
6.251512264381453229e-03
4.669689267947555074e-03
5.762244863506178587e-03
6.936508332639395279e-03
-5.082407663483479252e-04
-2.802383039219678591e-03
-4.691076008114050851e-03
-1.040389683730299705e-02
-9.947298375453737795e-03
-6.291809085124880872e-03
-7.291327108314346866e-04
3.242043229034124573e-03
-4.388774149363014704e-04
-5.905150855870319564e-03
-8.123173248421378112e-03
-6.460715552323230242e-03
-4.643003760942830595e-04
5.235844468678051145e-03
5.866768371063577937e-03
3.582094506371025916e-03
1.788293298698194803e-04
-2.822314287597616975e-03
-1.665679345756042274e-03
8.176360781672859608e-04
1.307429570498084680e-03
1.539700832691733674e-03
2.402953720591223617e-03
3.860070886689144476e-04
-1.785636047282122612e-03
6.455352323072302556e-03
9.909114231282843688e-03
-1.611499002034536780e-03
-2.457424788925960304e-03
2.762002290099938376e-03
-1.679852181942742897e-03
-3.418325302444739228e-03
-5.321901182089399523e-03
-7.453157820453974909e-03
-2.552912631679427578e-03
1.338506437270445054e-03
3.084013609647407676e-03
3.198901486554175944e-03
2.015986412593718732e-03
7.824783934805418489e-04
-1.677062031121550213e-03
6.702842657837944362e-04
7.971473290192018606e-04
-5.030738037149542000e-03
-1.880183176531579400e-03
5.029011939251978175e-03
4.544493482172898106e-03
2.774351505540774594e-03
3.827495266275719125e-03
2.364489735516415569e-03
-3.086135390284097408e-03
-4.573685830332938768e-03
-4.221026443565387663e-03
-4.082921827942152110e-03
-2.066859558700385481e-05
-1.284934307568205442e-04
3.905547256801651982e-04
7.199763273286520666e-03
6.396830243658587281e-03
1.258968019841609758e-03
-9.944942126750002873e-04
-4.286267299589956864e-03
-6.063251691050722259e-03
-7.437841976031756876e-03
-7.307758685268044702e-03
1.294827654740032287e-03
1.072050513635833605e-02
7.930827456008964632e-03
-9.907270567691738375e-04
-3.090860767101012013e-03
-1.217136652320922711e-03
-2.907172348516659510e-03
-5.907035051302423831e-03
-3.391018309061254003e-03
2.138897993369295522e-03
3.974260571162519483e-03
6.192263022496668524e-03
6.711550179459969609e-03
2.792324802796559372e-03
3.131469172137900294e-03
2.351043270127995202e-03
-1.693647053172968580e-03
-6.474601791071169800e-05
3.366533105533607139e-04
-2.423455883887866251e-03
-1.227433128044481698e-03
1.568012831476479386e-03
3.004451309887148057e-03
1.906882056341184474e-03
-1.876452674619149196e-03
-5.897316928016293688e-03
-7.014801789114804946e-03
-4.095674671355274861e-03
-2.822418480239688877e-04
2.679768000453430169e-03
3.408424363318911590e-03
3.175219516135535528e-05
-3.873729971704594193e-03
-3.332349426045556548e-03
-8.852975471096966899e-05
5.849703040582357070e-04
-2.825376463078345846e-04
-9.824011817293333386e-04
-9.082090513930435663e-04
2.847014931810731581e-03
4.708052009038078342e-03
3.678256833347840361e-03
4.529851522476420304e-03
4.717822222725125874e-04
-5.765909477344675557e-03
-8.353966910557194744e-03
-1.201381428292960449e-02
-9.728354142231838975e-03
-1.134110204749945970e-03
3.472184060150773372e-03
8.529955300682817709e-03
1.255585287558028292e-02
8.373831393410881979e-03
2.188680555729167251e-03
-9.062464669719009092e-04
4.307643692098513696e-04
2.989274242015099899e-03
7.440077597890087067e-04
-1.058707083364942214e-03
7.251273596582774963e-05
1.603158778852777988e-03
7.479739186233150434e-03
1.016519064924073512e-02
3.341386352849184775e-03
-2.159813810051366273e-03
-6.153662089220839765e-03
-1.052604527305678155e-02
-8.016433465157275437e-03
-4.054795787782838890e-03
-3.057178352770198709e-03
-1.352410698706787810e-03
-5.292172693758655927e-04
1.604225164211611678e-03
4.677654964886686882e-03
3.021234530460390703e-03
-1.860243711083634606e-04
-2.434975806625918650e-03
-4.637619936968508799e-03
-5.963586911271207686e-03
-4.462943563415044251e-03
3.557334813072022140e-03
8.954613708785325726e-03
4.179890846898976636e-03
4.024021785240672203e-05
-3.205782875322922554e-03
-6.108249210811218799e-03
-4.239566057699920530e-03
-3.860735159343978238e-03
-1.313294767080303580e-03
2.494456420915108254e-03
8.303203999618822499e-04
1.622889402274547196e-03
3.106818839461360140e-03
1.474696099058623233e-03
9.289630709767189576e-04
1.517431893681725485e-03
3.676521483486066590e-03
3.361233874424615544e-03
-9.593908222946865400e-05
2.873356908926045193e-04
5.315302455378875281e-03
8.372066026191019028e-03
6.472176006416985490e-03
3.631435955825356061e-03
-2.083319787141387804e-03
-5.028835914306532123e-03
-2.442066105707117653e-03
-7.473576849015063986e-03
-6.733568123353135537e-03
3.503073421818185193e-03
2.302161594809295185e-03
9.061287510431070141e-04
2.302340450164984658e-03
-7.337952680385196116e-03
-1.402971220906064007e-02
-5.432871433982821609e-03
3.140009095759365744e-03
-1.392446519513686068e-03
-5.197233698119394646e-03
-3.193523929745973981e-03
-1.238449396655356104e-03
5.595837105666170465e-03
7.837188970051135045e-03
4.335591256847788448e-03
4.728452605166695577e-03
2.442541688152780749e-03
-4.315305448313033580e-03
-7.409935494564827765e-03
1.870636463008454667e-03
9.316022501673178885e-03
5.265461531384849243e-03
6.354597731259706457e-03
7.574823273463229117e-03
7.319772454211109260e-03
6.234541166501618610e-03
5.864674754353815800e-03
1.272619490800603465e-02
-1.468627441210790946e-02
-4.963834761506609461e-02
-2.306318715994111826e-02
8.657764103861473326e-03
1.197990136363523417e-02
1.558605769939647688e-02
7.927072650677428889e-03
4.529000247420315612e-04
-1.168861330850130267e-03
-9.201240727548408091e-03
-1.104888289027614739e-02
-9.447586801801004935e-03
-6.684994116352656335e-03
2.288495397478687316e-03
1.106580671896390672e-02
1.414947327646112925e-02
7.917713343346633945e-03
3.401732547173125145e-03
5.456622835724780560e-03
1.777832542035784119e-03
-3.331651824723514451e-03
-6.401012851349746104e-03
-1.082935357898123091e-02
-8.694284870881929111e-03
-2.005817321423760020e-03
2.228115525142699421e-03
4.204723990066947317e-03
-9.697801068153657448e-04
-7.563622816909165193e-03
-5.814416831466033379e-03
-3.813322687750007618e-03
-1.052454098353587187e-03
6.607776030368836019e-03
7.191858455844420996e-03
5.166901855689659540e-03
9.182928329898407127e-03
6.349549148935547394e-03
2.586189997554996529e-03
7.298443867401688614e-03
5.574691992252812575e-03
1.712591286166571412e-03
2.036442228096618269e-03
1.192558985382596078e-03
3.106947036546648614e-03
1.870545891167973334e-03
5.812928160331118366e-03
1.150885467245183792e-02
9.374350795276809077e-05
-1.625105547451039531e-03
-2.533445607336226070e-03
-1.067866815733949960e-02
6.538689261510764522e-04
-2.267766653172224173e-02
-5.712816813150272538e-02
-2.425504296651573299e-02
6.372234695732200208e-03
7.017205040115666315e-03
1.437240129731871471e-02
9.846140782555036150e-03
4.576711443429217624e-03
4.799107759700571053e-03
2.909203774903265812e-05
1.027205914209272522e-05
3.866736322613149694e-03
8.253396002157310438e-03
4.902155292576297445e-03
8.347776800893965624e-04
1.128790955318201240e-03
-2.506152997431386822e-03
4.054599872073419106e-04
3.011680084658650402e-04
-3.801420057414452332e-03
2.063104350749865850e-03
5.194321187022383698e-03
7.720775099117431310e-03
8.743173470845400780e-03
6.902556398183710626e-03
9.481875719968583735e-03
1.937461699667116476e-03
-2.713520294650256966e-03
3.489820029394316223e-03
-2.299108322317799415e-03
-8.377709816836964932e-03
-5.196196321073019882e-03
-1.658509317841871380e-03
2.962628802222785733e-03
4.788916557926443159e-04
-9.493838544686437550e-03
-1.279475400299159848e-02
-9.432458975096837811e-03
-4.385811793525686876e-03
3.782794254387148412e-03
7.144023490945622043e-03
5.496287754839021024e-03
8.932331670556119263e-03
1.011270804309001049e-02
6.508418755450283248e-03
2.757514506862385369e-03
2.870967182301375261e-03
1.202432276040142460e-02
1.247054659411707921e-02
1.345070683858888647e-03
-5.489148619800522655e-03
-4.470841119801226803e-03
6.728494234737521749e-03
3.018517000915042856e-03
-1.402060443005307029e-02
-8.449607403135075273e-03
-3.430447362487903506e-03
-9.930584278781040899e-03
-7.302690819107630384e-03
-5.617670803311379177e-03
-3.208583221010521611e-03
9.189231912150694782e-04
3.995431437583504722e-04
1.395548508975950289e-03
-7.034923707149744578e-04
-5.207341994064302107e-03
-7.250150047576622674e-03
-7.870922156811930442e-03
-6.397450040953467018e-03
-5.309598909421624387e-03
1.860328826574186769e-03
1.808553300940821118e-02
3.527854960234483306e-02
4.582706165761333411e-02
4.510038632403332026e-02
4.055106925292009667e-02
3.277907096319570418e-02
1.906715407067183232e-02
4.504930475753809484e-03
-1.692655451013476767e-02
-3.896578677629219944e-02
-5.070654720393769077e-02
-5.864977128578649501e-02
-6.237033390264233590e-02
-6.042622273005981287e-02
-5.340297428819627823e-02
-4.530586973042315807e-02
-3.901152500887120067e-02
-1.864550580158041287e-02
7.070908062506101738e-03
1.809762309941148270e-02
3.711460399561034712e-02
7.008336154022869191e-02
8.943230949397774909e-02
8.898582636959594117e-02
7.100287160922372220e-02
4.287235148607014545e-02
1.754844930440571660e-02
-1.322564332598444477e-02
-4.350238524646935639e-02
-5.524561775687301945e-02
-6.411404870061460093e-02
-7.934679154155994951e-02
-9.102862204891280784e-02
-9.701000761503872361e-02
-9.063995921049501636e-02
-6.815571160509457938e-02
-3.614669316004173044e-02
1.672865789917657702e-05
4.322999145443988389e-02
9.019682864892257512e-02
1.181234784711850949e-01
1.245485699288470666e-01
1.194042416647313060e-01
9.777849240227312611e-02
8.353082060241144580e-02
9.079767033817705280e-02
7.473011156617734296e-02
1.434924215969551192e-02
-3.729453957393452646e-02
-3.994202319699609316e-02
-3.735249842089936878e-02
-6.454948138152712123e-02
-8.922496433278111205e-02
-8.387296081992386132e-02
-2.141151483448880052e-02
8.443981293788557774e-02
1.379716065616254650e-01
1.321197047668911939e-01
1.355640027969214345e-01
8.833255107872267642e-02
-8.980520655846067901e-02
-2.950190532105885222e-01
-3.720742994677807003e-01
-3.398647053536821283e-01
-2.929200261319801490e-01
-2.290163675833787604e-01
-1.182256285332043688e-01
4.201969651492479252e-02
1.977511179160139909e-01
2.723149062472265403e-01
3.075044739155965434e-01
3.078007841643824460e-01
2.043168055705750219e-01
8.919878926731329705e-02
2.896650172239293927e-02
-2.073526186962549797e-02
-2.239451375464085806e-02
1.592496510377916508e-02
3.350459439198969630e-02
1.562529671696256950e-02
-7.143939011093530800e-02
-1.814722137750703623e-01
-2.172353869461703113e-01
-1.809477643687692483e-01
-9.513817590457730733e-02
1.145675284123092580e-02
7.623264151301856195e-02
8.397673715543928219e-02
6.976560708734425020e-02
9.350359017059788058e-02
1.501608371013945786e-01
1.228053872611487712e-01
4.574568457553036122e-02
6.648717559408448552e-02
8.613198055605549019e-02
-5.820395523513647272e-03
-9.556440569555345321e-02
-1.355118454924989502e-01
-1.551503680285729048e-01
-1.174888347874892269e-01
-2.739260845785377804e-02
3.341563168349089008e-02
4.345270388848285897e-02
6.705620786868249361e-02
7.854182368605021336e-02
1.299868230742588088e-02
-7.012708766396477666e-02
-1.077157990388705744e-01
-1.129702257062666915e-01
-1.201021658816519150e-01
-9.744983663877283819e-02
4.746516559823211762e-04
6.549290919709957470e-02
4.887953245151026305e-02
4.797914211107880134e-02
5.220082098320546343e-02
4.522634763390072365e-02
6.203102148823273071e-02
7.591161364798144906e-02
8.603116000226390669e-02
1.010110113493201123e-01
1.056200325180905314e-01
9.851907121839198478e-02
6.999358603696860526e-02
3.028030338178033798e-02
-1.028426675549516667e-02
-5.176324304680091776e-02
-7.660877654079183141e-02
-1.108384175279484157e-01
-1.501684604832067005e-01
-1.240974284065733263e-01
-7.508507137183748070e-02
-7.609078003169496285e-02
-7.612907703589516517e-02
-3.911798095901277555e-02
-6.062784757383146532e-03
-3.181761892741647585e-02
-9.718243995745852459e-02
-1.177615032295101227e-01
-9.476438287675305328e-02
-1.284646618063613188e-02
1.341720989762091865e-01
2.024933049960614129e-01
1.999130619629727323e-01
2.071263414732927577e-01
1.402479979205860094e-01
4.931363141808973310e-02
2.526987892057147925e-02
6.554680081242140847e-03
-9.765828444707509368e-03
-5.377603031380726907e-03
-6.217391429525912297e-03
-1.272931811085189699e-02
-1.947833047623504649e-02
-2.217950444871490470e-02
-2.797993464802566929e-02
-3.457474460514445985e-02
-2.641172220398727358e-02
-1.232194372698692739e-02
-5.270933565420364390e-03
-9.197757418977318966e-03
-1.681129576334891226e-02
-2.227767396568296546e-02
-3.410384109422766319e-02
-4.618672955511816253e-02
-4.821195238680787976e-02
-4.910793243656301488e-02
-4.875297356061735615e-02
-2.977018902107858925e-02
-7.383792107459362722e-03
-4.406968893764017479e-03
5.595921719554936696e-03
2.715027962487342322e-02
3.342050583364452460e-02
2.999190709797676380e-02
2.629735400587731448e-02
2.382051354151801595e-02
2.162816296076373879e-02
1.509457594733475995e-02
9.205420492062589208e-03
8.408851186634074687e-03
1.171585341776816211e-02
1.016910448207760005e-02
4.716510832986213139e-03
2.320545068383137073e-03
-4.870935322995499986e-03
-9.569140615912043873e-03
-1.009504317955187830e-02
-1.182263700797341402e-02
-2.769593417444292122e-03
3.266542934147741249e-03
-2.517392832869147696e-05
2.530962515461178397e-03
3.678677799603015733e-03
1.443853377338369902e-03
-3.304876308262567810e-03
-8.095712954907356013e-03
-5.280323253392069441e-03
-6.204293387006036206e-03
-1.204274231075812968e-02
-1.336548869129383123e-02
-9.634885705679226142e-03
-3.738755776516537125e-03
-1.413125693066762936e-03
-2.606161763527281398e-03
-6.294081754062538954e-03
-4.813176020638387440e-03
1.917712478043946895e-03
4.286014848143417794e-03
1.305742034932600749e-02
1.545920447714661632e-02
-2.556360808934077418e-03
-1.055371166357623423e-02
-7.375533574746244610e-03
-4.699018373988888587e-03
3.980773324622716679e-03
8.976261045986732787e-03
1.424024324839001654e-02
2.230654088616573424e-02
2.262082124046430054e-02
2.550360967281890476e-02
3.105398411903084743e-02
2.186135739214505741e-02
-8.221157421132083403e-04
-1.837359133339282191e-02
-2.220030837251912512e-02
-2.078571651766872308e-02
-1.718256659515653151e-02
-1.002464948790184399e-02
-3.815906361735620610e-03
1.950196099743987878e-04
2.377027560463253371e-03
-5.398904990359853964e-04
-4.378774244659631304e-03
-9.267838132292140381e-04
-5.503201284145853647e-04
-6.309795339200937291e-03
-4.319310435085653085e-03
-5.880442815566974679e-03
-1.248734988381333330e-02
-6.230708555466136361e-03
-9.457782351787863136e-05
7.788949611498208929e-04
4.002854582030215824e-03
1.627856779507935205e-03
-1.232723028083109048e-04
-8.514763034315857293e-04
-4.917246634880356737e-03
-2.529470479745660541e-03
1.396598959927069887e-04
3.674673224527315405e-03
9.988871826561484049e-03
8.848739412915765379e-03
1.134078889319415848e-02
1.014989243551273415e-02
-3.170773788358701448e-04
3.551240190496809512e-03
5.325189539811953088e-03
-3.334692953262408457e-03
-1.618499150653745361e-03
6.092979296648048460e-04
1.637731151404598837e-03
5.036725584971654159e-03
1.584232617183626126e-03
-4.688271819634146943e-03
-5.984674678886516171e-03
-1.359313326735924355e-03
-2.586486680164085897e-03
-5.181014399718987355e-03
-8.302753393665766174e-04
-2.193400067647143555e-05
7.382148509576282915e-03
1.168231034414079182e-02
8.354748090302161964e-03
9.534506648829200320e-03
-2.373033332425528857e-02
-5.064743082522318168e-02
-1.390062298390049023e-02
8.889468369780568341e-03
9.611828303296698081e-04
4.598829574302141024e-03
3.263097722685668212e-03
1.861383145135352612e-03
3.025138637276891980e-03
1.380077934944748527e-03
9.599620497477543216e-03
1.639856357965065181e-02
1.037262262028311281e-02
4.143383575832070660e-04
-1.174098621482332332e-03
-3.981243492703694445e-03
-1.437518959091963963e-02
-9.717592073941091688e-03
1.378641084158384474e-04
-1.323100670314948961e-03
1.451191498346629050e-03
8.431043542174674124e-03
1.259550261182714424e-02
9.412462800102662855e-03
1.199302860610690098e-03
-1.056344599489172627e-04
-2.346855916699559699e-04
-1.109006818807712659e-03
-1.534855583790907226e-03
-9.902524796965716733e-03
-1.508072325090783518e-02
-8.535658597656564650e-03
-2.181539907197925423e-03
5.291996358134547825e-04
3.757624576881444731e-03
7.036745443242073753e-03
8.870193594797525644e-03
1.025209893353253542e-02
1.205074060916325532e-02
9.536034126293342628e-03
2.190876299364004527e-03
-3.404665522741367849e-03
-7.054198953454968862e-03
-8.724311455742032873e-03
-9.813870793435246903e-03
-9.138734483328248004e-03
7.074120548431251515e-03
2.435089425789803419e-02
1.735996126211818841e-02
-1.860262871354811877e-04
-1.407373394379339560e-02
-1.848779251228567858e-02
-1.730719165905931708e-02
-2.648696689088224712e-02
-2.667946347614920041e-02
-1.334687141465271815e-02
-8.667250488491283489e-03
3.579130251019304980e-03
1.545618615907851448e-02
7.626624675539935005e-03
1.111095971839979810e-02
1.856725424513903239e-02
4.163040859677476571e-03
-4.505288702949316465e-03
-2.734247355060202573e-03
-4.552523224271418437e-03
3.447895193917611435e-03
1.405940121677385149e-02
1.475500753972417041e-02
1.178514466106692776e-02
7.156769192271268676e-03
6.965427605977131051e-03
8.928653873820946094e-03
6.463737389404029636e-03
7.426835929255604443e-03
7.402899956194549866e-03
-3.471811741491584273e-03
-1.846611640141175223e-02
-2.626958499073137401e-02
-2.405911923718305132e-02
-1.608368016168669479e-02
-5.137829745275430786e-03
2.774631200849129488e-03
6.899637510556513864e-03
1.068782152557709759e-02
8.428107512509330768e-03
5.555039739274239378e-03
6.234595704467599600e-03
4.040494823010891585e-03
3.209624009705587793e-03
1.326868941309444164e-03
-4.033384306512598390e-03
-6.444006139393926476e-03
-6.444593460180694094e-03
-2.423226430087140493e-03
2.564384931551018463e-03
2.961764530651852297e-03
2.440495141478096590e-03
4.400601558505294608e-03
9.130050168547849954e-03
9.064968407121735267e-03
3.065899458279979038e-03
-2.696309075298477988e-04
-3.432304621994859434e-03
-8.607230837699550788e-03
-9.750036433761630900e-03
-2.970867108455800629e-03
1.885179598667743590e-04
-1.044209085250566264e-02
-1.842431725174668161e-02
-2.026714656017213068e-02
-2.464578291544967936e-02
-2.164329345534841270e-02
-9.695819633998270168e-03
7.195943503628187549e-03
2.153115637462646448e-02
2.142729567399073373e-02
1.786174488762196089e-02
1.960302734300138974e-02
1.638215919504412352e-02
6.794262232057247247e-03
2.826392506339568851e-03
4.886204751762098647e-03
1.294163492563846565e-03
-4.177779914796212585e-04
4.807607853407339787e-03
5.810745000774901817e-03
6.660757213886659041e-03
8.188361332227341027e-03
3.673495445062312671e-03
-1.767699346532564976e-03
-2.663682475884744921e-03
8.272693091607838303e-04
3.621290664987794530e-03
5.630773201997398350e-03
5.200730902616146518e-03
-1.074562399516059601e-03
-4.879716156925177802e-03
-1.116740102804278725e-02
-2.046251613461108274e-02
-1.925595778720084333e-02
-1.587404126227873885e-02
-1.176183511191799744e-02
-3.039367579768092326e-03
-3.763890590409988031e-03
-1.217477492122166771e-02
-1.435242794582276826e-02
-7.666814333579598933e-03
2.136595775471388306e-03
1.081346832387310858e-02
1.415899202012111356e-02
8.916259281651345639e-03
5.681567807189030241e-03
5.001037232079033786e-03
1.312486410708332656e-03
3.290335153168420356e-03
1.382551760707836875e-03
-4.552796276413214813e-03
4.615659676808149710e-03
1.350399734199454228e-02
1.143559484393529349e-02
1.001737272119455034e-02
5.174818341032665081e-03
1.044186340698109164e-03
1.843859238801726867e-03
-4.151365100593404876e-03
-1.038608710812058064e-02
-7.992807159487269955e-03
-5.075106504819909201e-03
-3.184429665965210834e-03
-1.785285610773970416e-03
-3.173942197762577057e-03
-4.861905704178325592e-03
-5.223798534960810008e-03
-2.794251137284778364e-03
-1.454447477749796960e-03
-4.384599452269061920e-03
-1.022977255046684077e-03
8.011262027809483779e-03
8.757726152235476361e-03
5.930258430528012430e-03
8.431294081467836585e-03
6.934366616195608395e-03
1.207677929457776685e-03
1.233802184923693101e-03
1.787865744050710394e-03
3.366633489852131900e-03
6.079141912422745576e-03
1.595042379379484282e-03
-1.403487240297191462e-04
-1.710124372242217234e-03
-4.759452250021573710e-03
1.065382722107547503e-03
-1.026598989288978738e-03
-1.471843988379346055e-03
-4.908382229654026895e-03
-3.776926709318767506e-02
-3.614710204430398449e-02
7.107145999002043024e-03
1.247966255501563489e-02
4.143027563147038089e-04
2.026440097791689363e-04
-3.830171093330734904e-03
-2.225554833227929175e-03
-4.239818518725260027e-05
6.576547747395588856e-04
5.986872755496820339e-03
1.043218154082666861e-02
1.501132005327868169e-02
1.337803584438494731e-02
7.560674709755338570e-03
4.607387814986118636e-03
8.490934724947747344e-04
-1.670877535131948819e-03
-4.037953531150497224e-03
-2.973763954413350796e-03
1.146408170711799750e-03
2.853119085153886319e-04
1.236423640686682042e-03
2.820801153503692781e-03
1.739833553035338969e-03
2.025463759929350700e-03
9.438328055279526351e-05
5.979399984804053127e-05
-4.762241650777369883e-04
-6.071319739508246674e-03
-6.768897476734859336e-03
-3.630734467683694334e-03
-4.274385040850459312e-04
6.913657632082858412e-04
-4.147828573895519753e-03
-7.137836596033756038e-03
-6.265592802432546141e-03
-4.671701331352313968e-03
-1.025180260738415118e-03
2.237566357459846306e-03
2.306947575420335243e-03
-1.173840196681679403e-03
-5.419974654955988895e-04
3.754451213840035752e-03
7.316801049236409168e-04
4.855007663225347631e-04
8.252400295566748173e-03
1.302534910129387290e-02
1.242029090323488495e-02
-2.574783036348821065e-04
-1.175019391114588696e-02
-4.142411315108208980e-03
-3.565781840014640384e-03
-1.137067139518714923e-02
-3.517733536811181762e-03
1.445247424721896089e-03
-2.903138830762782771e-03
-2.139560298211434265e-03
7.153410777835871688e-05
3.317717260432419962e-03
1.508965222174758975e-03
-3.134886037875772753e-03
2.727028757275142597e-03
6.153466371761309034e-03
4.542071938703778726e-03
5.993836326043898259e-03
3.829154212412149479e-03
2.452497533265849544e-03
-1.608327294842260523e-03
-6.851414698066129322e-03
2.265572958594765617e-03
9.711382815299190313e-03
6.620567424402560783e-03
4.397156378178658682e-03
-4.111914427314740817e-04
-6.124219310230926208e-03
-9.958836542682807103e-03
-9.913590447712977705e-03
-4.034988758437808853e-03
-2.500602483371756456e-03
-3.091579026659184524e-03
4.698101550113882498e-04
1.913683909287410782e-03
-4.163162399120039084e-04
-1.883436072050350329e-03
2.658921380140419214e-04
9.522307543794166634e-05
-3.387443230797109253e-03
-5.341757870888631972e-03
-7.953152278144774365e-03
-5.196241513703919561e-03
2.551292515661756927e-03
6.388766365426386783e-03
9.478137775240473573e-03
7.109389910444928462e-03
-1.494838589400305433e-04
-1.431508990960342603e-03
-2.338676513623097215e-03
-4.569795277033101080e-03
-3.241020948489125621e-03
3.995238919850788335e-04
4.537968309083822635e-03
2.375811858358487828e-03
-2.001971392263085254e-03
1.888301902888051866e-03
5.850866491667460791e-03
4.766032298473682309e-03
4.679931056488483183e-03
1.559303567226696116e-03
-5.109317455513663619e-03
-4.698346716160085174e-03
7.244636399733752436e-04
2.805005382741738214e-03
4.141702449252890675e-03
4.176241147557610035e-03
-6.107630778481205891e-04
-4.960073344576787849e-03
-5.716586996976867445e-03
-3.744652439792716357e-03
1.224889623597085701e-03
2.293013742664955137e-03
-2.445916496672703201e-03
5.731124863769939889e-05
4.617403676957617525e-03
-3.231938325435435716e-03
-9.388549830968611135e-03
-6.899537040076484523e-03
-7.253352680628604061e-03
-6.954090758388700375e-03
-3.890899285227223964e-03
-1.047679030290105421e-03
4.141670687628827216e-03
9.713475371834225797e-03
1.083107778733525053e-02
3.277286239718404763e-03
-3.539457428263596220e-03
1.455855722555807002e-04
3.264795756876990793e-04
-4.304903257542521712e-03
-1.667547719657781844e-03
2.236755722751273753e-03
5.544594628262836632e-03
9.539736720043269849e-03
8.540349826065931835e-03
5.308201912437394976e-03
3.330252914255700677e-04
-5.239579491249020046e-03
-3.984801975441773850e-03
-3.199148540570511713e-03
-6.727910420812464008e-03
-4.118052764307815472e-03
6.968327467348192552e-04
3.016995400455461506e-03
5.430965783038395681e-03
4.394481015362704376e-04
-8.386565473432869636e-03
-1.167450438825583074e-02
-1.298863231877046137e-02
-8.800490750027829129e-03
-9.203908597770014272e-05
2.529657721679462110e-03
1.581029655371115738e-03
1.072926384873331210e-03
3.323006960448463692e-03
8.203662004953923143e-03
8.780931237468533185e-03
8.870875388302279507e-03
1.194935329750651185e-02
1.263339838265479208e-02
6.363857213372638676e-03
-7.463135824631106537e-03
-1.305856237787712294e-02
-7.271519142464349938e-03
-5.628232151023847447e-03
-4.887651727635813383e-03
-5.196728443653971484e-03
-6.566541864470781809e-03
-1.736877380875828929e-04
3.841125364696178993e-03
2.971569728947066630e-03
1.377763373248974644e-03
-1.095779491945526266e-03
1.782280151190284052e-03
2.367372075682988922e-03
1.238759927507954856e-03
3.355194930668158569e-03
3.893659895965260586e-04
-1.023120146314475268e-03
-1.786456705767861322e-03
-3.664529595365885635e-03
2.369686587783505650e-03
5.967237636572680221e-03
4.872751304827918802e-03
4.839840364196674322e-03
5.413171799615141503e-04
-6.360128833557725930e-03
-8.116231992595228026e-03
-3.700005334908926247e-03
-7.112659024281364371e-04
4.180811092246363748e-03
8.000965972655378622e-03
3.432126943464434803e-03
4.746656254668414968e-03
-3.900230410840877134e-04
-1.581836252607634122e-02
-1.233370522920664361e-02
-2.424525074998560171e-03
-3.330024976334658416e-04
9.681766026867313132e-04
1.856507136716578350e-04
1.438515404993868322e-03
3.273350799418366965e-03
6.012346001390813689e-03
7.507990586516112563e-03
5.177269892790136926e-03
4.694591998654699429e-03
2.291965208882040979e-03
6.516170362196308701e-04
-2.961688617964119193e-03
1.005410064533019754e-03
8.254427650489013293e-03
-2.384745832760188505e-02
-4.205767155143847608e-02
-5.282238510200445124e-03
1.037897857731073098e-02
4.513209246087740260e-03
7.922425460696365038e-03
7.057867601400802209e-03
8.946749926316830900e-03
4.685395903746071219e-03
-1.286061353925684134e-03
3.372425841189637119e-03
6.842538705357915745e-03
9.804504417265734462e-03
5.619723797615692323e-03
-1.483257326781492903e-03
-6.716171375070016658e-04
-3.669336562819901400e-03
-5.772698765284523838e-03
-1.261432768504147954e-03
-1.052389572897340173e-03
-5.613502805800567146e-03
-5.338533651570912149e-03
8.188059377378420533e-05
2.713655747268337633e-03
2.678428472577447719e-03
-3.456212317492447978e-04
-2.888274306243674653e-03
-2.627458874279031600e-03
-6.300308674709960768e-03
-5.707600717344895463e-03
-5.917017267506705265e-04
6.552491519419071904e-04
3.782365126832107956e-03
3.843948411497587116e-03
-2.225655770487207992e-04
1.014850314703828402e-03
1.513887027730679733e-03
-5.661495944042423557e-04
2.902166210391431567e-03
2.848996805427412606e-03
-4.160057782782564453e-03
2.183388907379112142e-04
9.192932186619403104e-03
9.189277932864918161e-03
7.912373980873025486e-03
4.809540087462000485e-03
2.881253754742248152e-03
-1.269424452615705123e-04
-2.784830270740802464e-03
3.315439907936832374e-03
2.732993686787465407e-03
8.392146973360839479e-03
5.057473098361138508e-03
-4.078833591467695419e-02
-5.158366933388847109e-02
-1.256628104166219312e-02
-5.893579599788588723e-04
2.439475355151808546e-03
1.028608476984865794e-02
5.494836357008639136e-03
4.050664515194164067e-03
3.349950538863121635e-03
3.680495800527596676e-03
3.268994135414289483e-03
-3.197028860273564387e-03
9.942744482193811677e-04
9.039109787161807991e-03
7.341817582776970393e-03
1.427997058912155179e-03
-2.978419437768840654e-03
1.497155601769620259e-04
7.195505544130996814e-03
1.193518191039461517e-02
1.074044457971670523e-02
5.750379352037002754e-03
6.735885628607086138e-03
2.427011592473522252e-03
-9.098536439262408515e-03
-5.988650747279313825e-03
3.834097343237047144e-03
7.026568560461121486e-03
7.636285087790883538e-03
3.787037971768606598e-03
3.562790167866659516e-03
4.319666563375504018e-03
-1.020735821058467441e-02
-2.349174480803123410e-02
-2.067959440446169236e-02
-1.264758255863711323e-02
-4.172161552694342301e-03
2.591560162282949362e-04
-3.601188836301608869e-04
9.125465828295117312e-04
2.014276855572339712e-03
-6.106096021807790042e-04
-4.551184588990322445e-03
-4.380821419881110804e-03
-1.797485079234532163e-04
7.242596849527279919e-04
-6.978120089519291702e-04
-4.939358125336523742e-04
2.772776142257453013e-03
8.902545224668935789e-03
7.360242554641504946e-03
-8.096959914250063603e-04
-2.202090906648943719e-03
-1.084375158625242985e-03
-1.161194519581321269e-03
2.149000286332461570e-04
1.078115374391143671e-03
8.848955246797324259e-03
1.700468572556370489e-02
1.070422354715585417e-02
2.673973498924470376e-03
-7.739159637492189041e-04
-4.657632604527518413e-03
-5.209505583610026316e-03
-7.462261080501130482e-03
-8.988207037627756607e-03
-5.080164303742725276e-03
-3.060405095969171395e-03
8.401345333895777080e-04
6.058769537115283980e-03
5.037230076338049777e-03
1.310967109361101026e-03
7.759519044519434458e-04
4.138463548267878357e-03
2.357640093352730316e-03
-2.531799798414094329e-03
-2.077720286849701024e-03
-2.896111222739482932e-03
1.267430063441537776e-03
7.418977797906287260e-03
-1.267572407557604648e-03
-4.351880367885226433e-03
4.389491190277168726e-03
5.168666681526508768e-04
-7.476740091659984239e-03
-7.977039943955059956e-03
-5.980527780172470269e-03
-2.482548901492972505e-03
-8.695899122940519733e-04
-2.980762979796189901e-04
-1.460720432121478778e-03
-3.457189457296192502e-03
-1.664881963984131668e-03
-1.581797403374139667e-03
-1.372861699589755227e-03
-3.310097916866303167e-04
-2.047218867679916152e-03
2.260214631479187924e-03
9.979389596771052681e-03
1.260820131045685584e-02
1.007551286332360185e-02
2.476379401487474683e-03
-3.331272917835470960e-03
-4.391237336843089104e-03
-6.203665900272218453e-03
-8.669029380356914338e-03
-6.264508070426813915e-03
6.679626489545203560e-04
4.485097293828848794e-03
4.107658033987797962e-03
1.137740244879645139e-03
-3.097205362550012591e-03
-4.230187310168611985e-03
-2.375896842306512470e-03
-1.002461237057231764e-03
-3.571256066579921347e-03
-3.775565105434859885e-03
1.304253017551893108e-03
4.465386646906638508e-03
8.289653774517749540e-03
6.757318277495630646e-03
1.118954883138552001e-03
3.695920022245729238e-03
2.985116527967360267e-03
2.368185745721927433e-04
2.543925462860326288e-03
1.346731149744172240e-03
-2.539459461293352462e-04
7.659536917369436483e-04
2.976965024243265201e-03
2.683084245052062920e-03
5.710122355009539762e-03
1.207364643186490533e-02
7.810756169361230197e-03
5.708280478257706479e-03
1.191295895039988072e-03
2.254005569833232581e-03
1.763774461880964622e-02
-1.288570213609825828e-02
-3.643359416684720242e-02
-8.202620314939382609e-03
-4.020503946048215038e-02
-7.269873645756175229e-02
-1.792819368810183098e-02
1.613982297240568534e-02
1.389065174466237902e-02
1.909251180266310910e-02
1.308142381199848235e-02
8.534245098760245840e-03
9.863294849375842110e-03
8.878657687857911124e-03
7.924480887202692628e-03
3.068795828240412481e-03
2.765660458121447758e-04
1.615360218888062770e-03
8.386467345778347241e-04
-2.224999210148960807e-03
7.253306119028289124e-04
9.381187574569871748e-03
1.318014923611190818e-02
1.278976018798093708e-02
8.243193185182346241e-03
3.286448881065781938e-03
2.675736259747612915e-03
-5.710368546622205787e-04
-1.736110149454509009e-03
-1.393438312588228404e-03
-6.857641282203247139e-03
-8.508887609591845452e-03
-5.868061433906360432e-03
-6.324323444074180824e-03
-6.297528912067346281e-03
-3.919219115845739079e-03
-2.784283873653204712e-03
-3.081753316856637292e-03
-3.509629621508113858e-03
-3.125770920017045557e-03
2.593471928494937590e-03
8.424627889055244859e-03
7.219668546973209179e-03
6.681749707403247807e-03
6.152543764669487353e-03
1.624398148608969519e-03
-2.064256369505599285e-03
-5.467428509361493827e-03
-4.192773720008009276e-03
6.337044576684396210e-04
-4.350695571862511248e-03
-1.037107591294865461e-02
-4.760285220322120307e-03
-1.082045301374703200e-03
-3.119888347975683339e-03
4.049893938459151041e-04
1.246719498766227403e-03
-5.945169595872833862e-03
-6.665209465776386275e-03
-1.583495483284844086e-04
4.397857774967976752e-03
7.773553322432571848e-03
9.379917598812473334e-03
6.865357882480540783e-03
2.767781766832712320e-03
-9.693484538453693566e-04
-4.480304523064910019e-03
-5.204381013311024269e-03
-2.085410556630737811e-03
5.610466342752849040e-04
1.379736556033282465e-03
2.688022300280496629e-03
3.149125427826687720e-03
3.123679236174487384e-03
3.070267281678887034e-03
1.048003026276007020e-03
7.515838814234593974e-04
-6.945146407170467179e-04
-6.729114005054433016e-03
-6.953450600328084895e-03
-2.138139800906910075e-03
8.622583139149786165e-04
3.483742432577506976e-03
3.707878866582509699e-03
1.506897946792237156e-03
-3.307936009399297782e-03
-7.246165617125019213e-03
-4.490102002028046289e-03
-1.494477935526013776e-04
5.160908507757802459e-03
6.752071659780929658e-03
5.956408054376808887e-04
1.011287926967500625e-03
5.901832932920780643e-03
7.229330433772221225e-03
9.055172842494473712e-03
7.279319919075750642e-03
4.904031382598465598e-03
3.257048744828416626e-03
-3.922848951058508470e-03
-1.061715332699240955e-02
-1.366372213810386135e-02
-1.021216747299236345e-02
2.260846697022842280e-04
3.829918981234382239e-03
-2.637125688688574630e-03
-7.889720105944920611e-03
-5.757243762770665636e-03
-1.511230054389658484e-03
-2.603461381557600025e-04
-8.895206537892968784e-04
-3.544655567017618910e-03
-1.250367491325288238e-03
4.344264752573353920e-03
-1.025988013265643171e-03
-7.604591186967985320e-03
-3.206638421946592186e-03
-2.800093951856431158e-04
-3.772744758079108352e-03
-4.747553832913600780e-03
-2.876037100256918777e-04
5.053197527649585206e-03
6.760018714043602474e-03
7.157399251286550648e-03
8.987358316149593462e-03
8.333336666420968972e-03
5.326294035786259019e-03
3.527222103386279568e-03
3.047398265975624111e-03
5.492206232836941912e-03
8.086604817215096649e-03
6.393085604512593369e-03
3.287246316952799254e-03
3.777534247554747569e-04
-3.525036539563252639e-03
-8.874572577089468936e-03
-1.180585781806445418e-02
-1.001811831094100332e-02
-1.067549813284932210e-02
-1.303138185711552599e-02
-9.738071398803074818e-03
-1.303061612519119949e-03
6.656709566538947936e-03
8.842008467758188245e-03
9.084863827414229459e-03
1.091727332085224399e-02
1.129970786503184908e-02
9.734145270241498921e-03
9.888206028051519519e-03
1.469086911253517612e-02
1.230872766280962857e-02
5.852294008765095493e-04
-5.523378989941127130e-03
-9.278651900161132005e-03
-1.473409745066746671e-02
-2.195406914662266853e-02
-2.879688386672291794e-02
-2.573174990585522584e-02
-2.067314535130265751e-02
-1.634387434386649213e-02
-1.036162341712307949e-02
-3.669310800166798552e-03
6.824965278093446386e-03
9.477020715567927023e-03
1.557374297289179296e-02
2.422307358332127097e-02
1.799788670083941888e-02
2.553711012362193389e-02
1.829169062996204714e-02
