-2.473863751838870431e-04
1.003771916488759366e-02
1.125999853605049068e-02
1.362459925116781510e-02
2.074299331355853801e-02
1.878909089352173017e-02
1.581234139052500876e-02
1.266874859265226284e-02
2.408104110871225716e-03
-3.603393654934024855e-03
-7.721686592153296190e-03
-1.640065290368965603e-02
-1.652196909925192359e-02
-1.658831876757707949e-02
-2.738790425367122056e-02
-2.987495662087060258e-02
-2.740616325162542957e-02
-2.890904089118002604e-02
-1.910745087305334988e-02
-5.874867308842466121e-03
-1.505997360329203562e-03
3.501631753567410136e-03
1.256994635445210159e-02
1.834972286403293087e-02
1.657824934600115804e-02
1.662859401963662567e-02
1.903026323613646320e-02
1.540997073445247653e-02
1.161535658236607753e-02
6.357727851798503776e-03
-1.226703024746598645e-05
2.629825181381672291e-04
6.447441407558614397e-04
-3.447186362814106970e-03
-9.613653529277269363e-03
-1.229514338558621717e-02
-1.316007424344364449e-02
-1.671580363338487710e-02
-1.099866882663825401e-02
7.349989164847697473e-04
4.118197957588742332e-03
7.717674185532604359e-04
1.578798183135091474e-03
1.205857012285921001e-02
1.238954683543239642e-02
5.349464333507888796e-03
8.636646820302823491e-03
4.950553018034486129e-03
-3.466218660150783074e-04
1.392366645364602224e-04
-2.546928520961733340e-03
1.273119233881195300e-03
3.132624089889224513e-04
-2.326673622085685504e-03
4.067383503795915511e-03
-5.030946342714981076e-04
-6.246488968927756298e-03
-5.147336667486732305e-03
-4.687640326095050131e-03
7.547926935427477606e-04
3.859001339629718804e-03
3.594320836423840586e-03
6.670905766871417907e-05
-3.608777539590532057e-03
1.066867833851768655e-03
4.778384261580633885e-04
-2.521358836706920348e-03
-2.915974233062206683e-03
-7.954960558759941597e-03
-6.810444866529632470e-03
-4.501590187189279460e-03
-5.233454934812203571e-03
5.973901409724235653e-04
5.647531563340812272e-03
6.703315915465887613e-03
4.851324609869520077e-03
3.869376472844954923e-04
-4.529368759042834316e-04
2.424314577977406716e-03
3.067461375614662263e-03
-4.377312655743943043e-05
2.574543475842990328e-03
7.072542476549209187e-03
3.238739991417799446e-03
1.020928761952465689e-03
-1.660507870696112300e-03
-9.003476982186434455e-03
-8.186177351812103098e-03
-3.148245812007501639e-03
-6.317604510576617979e-04
4.198224489453002833e-03
6.610074988440642341e-03
2.501475742614677616e-03
4.103867128303477518e-04
1.985124958647050200e-03
-1.040901055892855774e-03
-5.087289012547896797e-03
-6.199904507090086940e-03
-7.152327536420964062e-03
-2.675253551338452156e-03
1.723025735751485118e-03
-2.302542001932060284e-03
-2.699887638176027421e-03
4.447806749025185954e-03
7.750591920711077075e-03
5.702723268762603138e-03
3.320866523797165806e-03
-4.016413615860263105e-04
-4.584759353802697959e-03
-5.954932493044504983e-03
-6.383586969952688601e-03
-1.999851697449208168e-03
7.604213071725787060e-03
9.176620205115032514e-03
4.665882520856463531e-03
4.632901150289954993e-03
1.906444188451439977e-03
-5.546144874509519734e-03
-6.544736151369573776e-03
-2.909651898043133966e-04
3.685411736544414851e-03
2.680037277481024834e-03
2.867402309936602440e-04
-3.250289008697667542e-03
-3.594357068007822745e-03
-1.868021640630294564e-04
-3.580201315894597242e-03
-8.272434219004913547e-03
-3.242613915107979503e-03
2.613915713415175535e-03
3.347719729875666718e-03
2.628570173226613821e-03
1.540394350079013356e-03
4.030145126349467082e-03
7.751046850955842400e-03
1.822190801855967050e-03
-6.467843690501027046e-03
-4.813516602489117946e-03
-3.157967020257380214e-03
-2.080940868030939535e-03
3.270874535095125331e-03
1.360404897804485006e-03
-5.302081822984827360e-05
2.402184129726912722e-03
-5.322729273401270375e-03
-8.443310935143666374e-03
3.038190565266950401e-04
1.095407976154511671e-03
-5.900042588567247330e-03
-3.570638792910381561e-03
5.745363649363401451e-03
7.810439002567552691e-03
9.928820490642295549e-03
1.194432892093567553e-02
3.106283452838967760e-03
-1.923610100295195620e-03
-1.828797828999368128e-03
-3.707888402322325090e-03
-1.439313965464974251e-03
8.788896002971752436e-04
3.995593912727979542e-03
4.854952547850448219e-03
2.050401953489699829e-03
9.428011996570723977e-04
-6.491829701613193067e-03
-9.675478086896671659e-03
-2.739611733014779820e-03
2.972603715107969679e-03
4.259882177646278321e-03
-1.131735030851009627e-02
-2.313872074427711020e-02
-8.228465864778433669e-03
5.456027256405766857e-03
7.150437412554315302e-03
1.373551574336541632e-03
-5.520499837212429484e-03
-1.658908730710298863e-03
2.464994641562257179e-03
4.087570805939045974e-03
5.558804759768064957e-03
5.885034780506016514e-03
7.994816514875900670e-03
2.472386616547477597e-03
-3.631780738347256850e-03
-1.757708047128759199e-03
-1.218338045149738565e-03
1.073828292469909760e-04
-1.201683540086969282e-04
-9.618955903328002674e-04
3.464316287461314137e-03
2.848656183922325044e-03
4.561005614949589001e-04
3.352255191867219326e-03
4.810603531755630081e-03
5.825506281777162627e-03
2.632236869681594572e-03
-5.763349590804089755e-03
-4.013680407086506370e-03
2.345035515605387467e-03
-1.689992441265404178e-03
-4.131419811871534301e-03
1.218399140751049705e-03
9.643710362873057339e-04
-3.800782763313781485e-03
-4.094222816636280092e-03
-4.787102652357545264e-03
-7.185693112347126335e-03
-2.807243137530981893e-03
1.123990566761185351e-03
-3.441390830991533731e-03
-4.297391945096738948e-03
1.416978335098796312e-03
6.498419913701183361e-03
8.607858317126232742e-03
4.471654532297433815e-03
-1.849919903575336731e-03
-3.864630370051973414e-03
-4.859630010774186539e-04
1.626855736397309201e-03
-1.189138288413667255e-03
2.799071926769557128e-03
6.116794754855282498e-03
-9.639984708133775239e-04
-1.462388689522969984e-03
4.577402251979983158e-04
-3.720928212166865756e-03
-4.286705364298805561e-03
-3.271064194756515778e-03
-2.182866116658267568e-03
-3.003165043983202845e-03
-3.049115973088579578e-03
6.470532815618947574e-03
1.047865597245146128e-02
3.540792351414209001e-03
1.987507022569426265e-03
3.634687749796847601e-03
-2.148912375858838195e-03
-8.408551911404365392e-03
-4.001334679768727039e-03
4.380621930273416367e-04
-1.400256908872354877e-03
3.276663268192549737e-03
8.323450798825921676e-03
4.530929568166318193e-03
-2.732818011937457239e-03
-7.582543212742665246e-03
-3.228407149523989956e-03
-1.628365078730456181e-04
-5.156659107315902761e-03
-5.435211999123584770e-03
-2.347074879600448243e-03
2.245014959032763397e-03
7.148976564845910091e-03
5.064985789467318054e-03
3.606299014769066488e-03
5.036497013261491754e-03
2.843371952431418808e-03
-1.993143375952002340e-03
-6.291327192712354958e-03
-4.014476536352222513e-03
3.740333759968470298e-03
7.725203764987846437e-03
4.246567454444708997e-03
-2.355137563721505008e-03
-4.360120610138172072e-03
-1.063327640248885571e-03
2.077734238811277528e-03
1.539567713334263552e-03
-1.610332541761113311e-03
-5.619783715607890376e-03
-7.221541408066712089e-03
-2.193984773333783247e-03
3.348935393315611892e-04
-1.802702990780773173e-03
1.078586494273444957e-03
1.875188935545751834e-03
-1.175605606250946285e-03
-3.911784248474382310e-03
-8.302016076755409923e-03
-5.330163665110264348e-03
1.224535671356029917e-03
7.026426461105823125e-04
1.703658097197499870e-03
6.147168166623920120e-03
5.716055257652303406e-03
3.810131551647728387e-03
4.584078882519382336e-03
-9.145601214494466624e-04
-6.864232501684290957e-03
-2.504379265396800610e-03
4.243890455646065095e-04
3.790394669587143425e-03
8.940421226875484156e-03
5.093471056725894404e-03
2.835836456097576806e-03
2.999277564834616858e-03
-8.551744002219698179e-04
-3.455890049619437122e-03
-3.262721782037050246e-03
1.755185725492586181e-03
3.597477788634922957e-03
6.230888680518050730e-04
-1.450409317057478088e-03
-4.663087569659545017e-03
-9.137207001581327788e-04
2.343412762507450422e-03
-1.700842957321328265e-03
-1.958007651070219329e-03
-3.881759929899614159e-03
-5.866919939849855013e-03
-3.917621316692952715e-03
2.448806347004490991e-04
6.510756736139882914e-03
4.670577397714277719e-03
3.006620699381512551e-03
1.510104891375292548e-03
-6.768463014661875617e-03
-3.975432121230340100e-03
1.446725895903789140e-03
1.811900869448992805e-03
2.963973871028863141e-03
2.951837240538758523e-05
2.775619728566788499e-03
1.960020552987582626e-03
-6.279623891016657827e-03
-4.810491766900073032e-03
-4.276990220218282457e-03
-6.636657127759379264e-03
-7.519993165103093513e-03
-6.451995799840780713e-03
1.630474462095951810e-03
5.716562431016946645e-03
1.079881587411814746e-02
1.412899015452579767e-02
3.339087208061429762e-03
3.944810104899693190e-04
2.732628339503083165e-03
-5.472371524629275098e-03
-9.363015560584270550e-03
-3.214083168761909786e-03
4.942143625105104368e-03
6.250630788641205367e-03
2.104747003948261551e-03
4.429611682952243985e-04
-2.198497203867763160e-03
-5.093787687230049571e-03
-4.059204672370218814e-03
-2.477760465813532570e-03
-2.702126363451078268e-03
-2.580413636762193472e-03
-1.799370887436436191e-03
-8.670927370146530545e-04
2.833689546357342093e-03
5.157219256766441655e-03
6.905033988557840278e-03
9.444445936079057247e-03
4.643725208263079114e-03
2.067774004307824150e-03
2.301284029226574948e-03
-2.452702680425813096e-03
2.115469150679032974e-04
2.421657194118105507e-03
-1.329419451497095873e-03
9.733383613523157157e-04
1.607150490468459147e-03
-4.588496974068896140e-04
-7.177349977402612156e-04
-3.342092236324225012e-03
-4.984308345349630631e-03
-1.016134104663357027e-04
4.127949287186320412e-03
-9.805496358202601612e-03
-2.353464967593628734e-02
-1.132684938256734407e-02
2.425090871837244730e-03
4.024047250025196074e-03
7.653125338312851463e-04
-4.002146893670040576e-03
4.432892028295863825e-04
4.346470404427544253e-03
3.292663989323396569e-03
5.475218882662938845e-03
2.779196427736625036e-03
2.765645982608541577e-03
5.083604376732707777e-03
-4.136941232158385280e-03
-8.926057721517419857e-03
-3.269584887988968673e-03
6.464775073789731565e-04
5.242182073798398560e-03
7.944298788613286463e-03
3.941434638673555618e-03
2.943212992493979101e-03
7.844700978810646708e-03
7.464083552152212669e-03
2.403499721555374391e-03
1.461447298579313667e-03
-1.952873130829494526e-03
-5.932228465861482530e-03
5.130783275111322917e-04
2.176430089587776031e-03
-6.334567357225921735e-03
-6.247383527005393768e-03
-8.381844562108076938e-04
9.179290194574365840e-04
9.016995653216668127e-04
-3.059550244862868662e-04
-5.853223766616068432e-04
-4.787423021132167049e-03
-7.841044382095291310e-03
-3.619599537835378050e-03
-3.196117054402172492e-03
2.851802792267652594e-03
1.296498792085889508e-02
6.785517030038186806e-03
-1.787165494777862300e-04
-1.165028953855347816e-03
-5.005732552176101434e-03
-4.823090549447382053e-03
-4.259242431095641712e-03
-1.591959170207720310e-03
5.204627456546051696e-03
4.904376277660344591e-03
1.278868495470078222e-03
1.150249222424423821e-03
1.626588551357885121e-03
-3.464481757754785292e-03
-7.979578581476864246e-03
-2.511013517985357605e-03
-1.324148788708639233e-03
-2.677575168684442463e-03
4.615047416456678764e-03
7.832382236845861212e-03
7.182292965738948723e-03
5.837948544556921179e-03
2.072060926083565003e-03
-9.538687543908416474e-04
-8.291767684812788308e-03
-1.186207670130315188e-02
-5.413467198068384542e-03
4.312361260742690258e-03
1.049049414732943289e-02
8.937882655200221627e-04
-5.880432263114136922e-03
1.642684293529545012e-03
-5.587899660794374418e-04
-3.004667174772406545e-03
-1.330217383130781299e-03
-6.812119831421293084e-03
-5.657598084203411398e-03
-2.570741889779831930e-03
1.162538664171140681e-03
1.052512084661226706e-02
9.508165002358187276e-03
3.733738169797956412e-03
3.628255426691579248e-04
-2.256845080008982023e-03
7.015950764745884421e-04
1.110388368166663519e-04
-1.423109253015734758e-03
2.297654804438322915e-03
1.863927350226899596e-03
1.092480865653148829e-03
2.477294993036342936e-03
1.047216991020990433e-03
1.183564914591270353e-03
2.526639772444358271e-03
-5.009851378475988024e-04
-5.348916192629823117e-03
-6.522806022806386904e-03
-6.013493769905530785e-03
-5.364464035409390909e-03
8.568463292974901838e-05
5.575876919211003764e-03
3.584095176478884273e-03
-3.467401888538107404e-04
-2.024352064149166110e-03
-2.876928216112812492e-03
-1.964384512906038396e-03
-4.949074492493347240e-04
1.364010823910600688e-03
2.900734974205764101e-03
1.036021802262268371e-03
2.525239638279638214e-03
8.092479158912920661e-03
4.873057724349672340e-03
-5.261119466469107130e-03
-8.895492001168249160e-03
-5.453638984390668173e-03
-3.950509239864391856e-03
-3.175383377546695668e-03
6.359613828414002832e-04
1.180494076446435585e-03
1.131387864759992971e-03
3.598766612677469293e-03
3.173061350076574090e-03
1.170514663978042356e-03
-2.987057699818474864e-03
-5.305945218658173444e-03
8.516602325695076664e-04
7.329568879545512658e-03
4.884951632396519923e-03
-1.254841059045675713e-03
2.078069145895125938e-03
3.338967652179269767e-03
-6.451307060122887446e-03
-5.619000632456325889e-03
-1.566536069775412328e-03
-2.473131480306475522e-03
3.523146145680429529e-03
3.754804684711742207e-03
3.626806046040137628e-03
8.840392180281290632e-03
5.856222741887386930e-03
4.175212707309680638e-03
3.029959111096167026e-03
-1.073667800085058473e-03
-1.755172371570683015e-03
-4.968527697621617084e-03
-6.202369386327676558e-03
-1.857680326712798317e-03
1.222077787439090294e-03
-3.600303930622763106e-04
-1.449582421769160870e-03
4.864355697693158349e-04
-5.532040810541272342e-03
-9.589285683433671978e-03
-5.722055801687129205e-03
-7.566879844307806274e-03
-6.789696077518976060e-03
-2.771644664851101014e-03
8.141879003211926688e-04
6.187860397738816597e-03
6.630586500430901524e-03
8.726777690702496731e-03
7.671377410405666973e-03
1.242497378600963148e-04
-1.543284387455099056e-03
-5.516813586703988746e-04
3.094169765687634303e-03
1.854111148853103538e-03
-3.871841635865223754e-03
5.754902722901649240e-04
8.230791526127728946e-04
-4.221383127440366846e-03
-4.083469180985222630e-03
-1.093840120815240194e-03
5.044416786349625523e-03
2.522651965830929009e-03
-1.969804006857128493e-03
-7.834647565081234982e-04
-3.446682518426086306e-03
1.483218280046872534e-03
8.296447129142396626e-03
8.012470521706761828e-03
6.111471921966731523e-03
-3.938535104359930372e-03
-7.334402948585663426e-03
-1.563103621877079386e-04
2.222679326328048759e-03
4.262109232001403368e-03
1.399730564814961149e-03
-1.465826338596112020e-03
3.761561608456393847e-03
1.171803825274737995e-03
-3.845728753591276701e-03
-2.263167657864153300e-03
-4.178211218153751391e-03
-4.860560915348024688e-03
8.539524537264079522e-04
1.934717393912553044e-03
-1.506989552998060132e-03
-8.763163231103780022e-04
-6.681158593229480705e-03
-1.816042262783281944e-02
-1.138501270021899207e-02
6.077125432225357130e-03
1.022402407189307305e-02
4.782369041213227132e-03
-7.955617627455342355e-04
-1.022662100778705613e-03
6.281997009152024726e-03
8.465525971680883111e-03
3.508616422684227455e-03
4.008005024504547077e-03
3.156201978628754394e-03
-3.044920995588180478e-03
-2.763500808651611716e-03
-2.847882064703193689e-03
-6.448986171675412903e-03
-2.609716823341404375e-03
4.054753180756099674e-03
5.601307218976445297e-03
5.216671483855780944e-04
-3.528891172644087974e-04
6.211060579765274869e-03
1.311316648062067422e-03
-4.645605210643896990e-03
-2.152189256323604801e-03
-7.040369117631073599e-03
-5.972750953678485769e-03
1.676433814274663498e-03
1.692335954231649533e-03
4.862418769468749430e-03
3.192839200572116041e-03
-6.493911939892888126e-03
-8.544865031572385777e-03
-6.236711174746000473e-03
-1.814266137735527011e-06
6.819523318519329046e-03
6.760433700631529076e-03
6.812950136193765376e-03
6.124799707431189365e-03
3.139889770846686270e-03
3.603864480723441115e-03
5.345743627492917892e-03
1.749000739974996329e-03
-6.557220309455986766e-03
-8.103922924647503911e-03
-3.086643487208209566e-03
1.665900985813775607e-04
4.531323093909625163e-03
6.438043148952124137e-03
2.380400899233518774e-03
-2.456093132746336831e-03
-5.076409184194577602e-03
-5.047139870097583358e-03
-6.127182041941328997e-03
-5.963490305797140324e-03
-6.766741691231438136e-03
-9.894511287171526073e-03
-3.666308556679723652e-03
-7.600455522499886775e-04
-2.331588487617396871e-03
8.173697339233678208e-03
8.325052590869991276e-03
-4.297841623797909322e-04
2.372703657630803424e-03
2.691543174773416893e-03
2.179312256420786170e-03
3.240393732722122392e-03
3.045586722893818890e-03
7.048792260708243960e-03
2.927985241690316768e-03
-1.035989565455247476e-04
5.243183619380506304e-03
1.369079017312409361e-03
-2.183442382264649904e-03
-3.408713156643246398e-03
-7.164202844025856741e-03
-3.414080512357902959e-03
-4.484435550874452765e-04
2.736128946121996284e-03
6.795236423097476830e-03
2.817248256136366084e-03
4.595329170087578130e-03
4.145380341870366810e-03
-9.095632583960639589e-03
-1.027404763478754861e-02
-2.112932862561531840e-03
-1.965765706577663093e-03
-1.474671341545018060e-03
1.451378490444468154e-03
2.390994366671804917e-03
1.025415903300431640e-03
-4.302171985811161468e-03
-7.350566695797249896e-03
-4.091325810720719547e-03
-2.511457495564604903e-03
-3.498899112020720584e-03
-1.773185007754657198e-03
5.469626662479141642e-04
4.762628868932859347e-03
1.076614143062063281e-02
9.260689245363251318e-03
3.189581943163450478e-03
2.160052180600270828e-03
1.971912986950619898e-03
-2.152949284548281127e-03
-6.530025731984244984e-03
-6.138304026615919347e-03
7.852331377635374298e-04
7.443847735459575149e-03
5.821805159476037619e-03
1.076060480698640826e-03
1.315597200340423234e-04
-9.940533573159619253e-04
-2.342814275163043747e-03
-3.015280218677847271e-04
-1.784125617528837648e-03
-8.458713447536859650e-03
-7.118424789983451850e-03
3.787390398485934208e-03
8.262193465171669554e-03
3.442817615002456439e-03
1.445066166692938591e-03
3.545715154367030074e-03
9.673454174580137840e-04
-4.849976510934598216e-03
-3.817663120805171208e-03
1.127760963692262496e-03
1.014358635224098075e-03
-1.358466449218566005e-03
-3.441704946145346822e-03
-3.719894973083743422e-03
-1.407482544421551291e-03
-1.088343695829528841e-03
-2.792389687262359591e-04
-1.070559926884200692e-03
-4.219201233757978800e-03
1.084969234069609479e-03
5.394645152157206969e-03
1.835677415171220938e-03
1.994293995822521946e-03
7.271555453720328528e-04
-1.856405062890200634e-03
8.577952482282937777e-04
-2.090137590200429702e-04
-1.996910551888146472e-03
7.940909345037536855e-04
3.458913282846541527e-04
4.653224766874455398e-04
6.202907691345225551e-03
8.005040881474098299e-03
2.329079104079330616e-03
-2.221170707990013579e-03
-2.622973086535914083e-03
-2.812317517017551977e-03
-2.719310109237415510e-03
-1.127314648821006390e-03
-6.231538920781604617e-04
-1.154975524753113283e-03
-4.424368395933010690e-04
-8.481252148155218450e-04
-5.947713810704900652e-04
2.330230478590909066e-03
2.758855137243497110e-03
1.841678763199362670e-03
-8.336495879131686692e-04
-3.527013817087001641e-03
2.996358849819272859e-03
8.699543620318514123e-03
5.280526206098118402e-03
-9.338598923143183461e-04
-8.107623479319812573e-03
-7.736968726291391062e-03
-2.523833431013859218e-03
-4.582836238544453142e-03
-6.995708299063266127e-03
-4.095990799186858058e-03
1.315227949196410900e-03
2.532478958985985573e-03
-2.157227109823495626e-03
-6.094511105140055021e-04
5.191348505317764338e-03
4.444772788703850105e-03
8.065399631243136977e-04
5.658352923836231646e-04
2.177281775611620597e-03
7.693543310380876552e-04
3.301942798042864740e-04
4.314136942685337442e-03
5.781849912836743190e-03
3.716900886546397036e-03
2.733816334329514184e-03
1.224762389138064770e-03
-2.498942348262628461e-03
-2.740179598538249918e-03
-1.661424268904995163e-03
-5.121099554938939903e-03
-4.272647970732397320e-03
7.287423575076472891e-04
1.366797109295265437e-03
1.960424003199950395e-03
6.138022005873860348e-03
9.613853613932294220e-03
6.919196137974412131e-03
1.625533821461008343e-03
-8.269708273784252828e-03
-2.321497648656835680e-02
-1.746603432377348206e-02
2.844747359291278487e-03
7.319800055839154052e-03
4.437108549071913308e-03
2.117033939811007164e-03
-1.049728825357729850e-03
-2.801717698995914545e-03
-5.509125402270300537e-03
-2.124255390330749733e-03
2.384872938096783100e-03
8.270636455775373435e-04
1.344484417730226668e-03
2.725206240639733383e-03
3.874552371512413138e-03
6.249651603188468088e-03
6.525112790096404547e-03
2.467600930405697713e-03
-3.247553846204949239e-03
-2.837064847553593967e-03
1.835851711873538142e-05
3.981474708221164911e-04
3.264620557304395970e-04
5.361363212631354430e-04
3.324921478246970451e-03
2.349516813844973896e-03
-4.366187264213708093e-04
-4.336894040766821768e-04
-6.721845830827789109e-03
-9.354904260430575366e-03
-5.010679520510785169e-03
-6.007118851781231145e-03
-4.570905393267848948e-03
1.767709365968605801e-03
5.969102707039259173e-03
3.933085594659258694e-03
-4.727441428023879556e-04
3.626454470651264365e-03
4.633363290245139272e-03
-4.568102570408152127e-05
3.330254595184776404e-03
4.190765962248974887e-03
3.428775758608928938e-03
8.897873224241422893e-03
6.722967970715592809e-03
2.915347394279352538e-04
-3.686819852730962264e-04
-2.780541365434971435e-03
-5.240240022258784401e-03
-2.381155695079131222e-03
-1.548661421781397140e-03
-3.069625939703758254e-03
-2.978431523656898793e-03
-4.584650733628937991e-03
-1.744487907674943097e-03
5.030800983013823321e-03
6.913577262201700199e-03
9.401764403311925478e-03
-1.007744295688754819e-03
-2.570924429810860640e-02
-2.329321010690474023e-02
-2.957046706964373394e-03
1.677214929332035594e-03
5.313283631575518688e-03
6.857050557925243282e-03
1.883360672177563115e-03
5.645247867462318062e-03
5.556649277903577197e-03
2.589759581787950352e-05
1.187799508876545085e-03
2.001026935716500744e-03
1.910518352571351393e-03
-1.373239322472138892e-03
-4.348013429413639594e-03
2.073028374351425923e-03
7.901553928056512244e-03
1.203979214503100859e-02
1.283848709388459366e-02
6.317412880019272411e-03
3.805742826349659685e-03
3.665939272869278174e-04
-3.232382942311514307e-04
9.673264973716117279e-03
1.086318454460168982e-02
6.662208871883276706e-03
4.857090204260827541e-03
-4.183867835248948966e-03
-9.991437827782131617e-03
-1.141366418182858736e-02
-1.641655468640609850e-02
-1.808497437294679169e-02
-1.503088551806047550e-02
-1.021122092241809332e-02
-7.353125683739381371e-03
-6.624325430052958007e-03
-4.247218363270727388e-03
2.006044654970322565e-04
7.938912914127292317e-03
1.174466072000575519e-02
9.232142474788448613e-03
8.923731726154460198e-03
7.654690468038933583e-03
5.621897613804671852e-03
6.984498704842705477e-03
6.772504367905871937e-03
7.742050768519727344e-04
-1.075412145328861861e-02
-1.762545669778962584e-02
-1.799512229065244537e-02
-2.134963215915666387e-02
-2.251785763530453691e-02
-2.199145144136111993e-02
-2.206834560017172792e-02
-1.206434067825407248e-02
3.342910308603762488e-03
1.368235292511435323e-02
1.744538076701815377e-02
1.887797496469667546e-02
2.441482121151789669e-02
2.781918973976523282e-02
2.489740305074411575e-02
1.986676188125808748e-02
1.425450286484382205e-02
1.019960575163458144e-02
5.586290335803287786e-03
-3.136246194311693991e-03
-1.273678865001122949e-02
-1.117226215442481199e-02
1.457766303983104193e-03
7.912232126731699733e-03
1.146904840272641724e-02
1.652261597257313058e-02
1.961675472984753671e-02
2.671518434020771562e-02
2.700747885377587088e-02
2.371101306529310726e-02
1.664495559730905586e-02
-1.714871750942629364e-02
-4.419680269759935359e-02
-4.188442876045364582e-02
-4.331677687268581378e-02
-4.887756960214131169e-02
-5.109207323943489726e-02
-5.479453224813027323e-02
-5.412438346725360894e-02
-4.039452027453570987e-02
-1.110603398945865343e-02
7.508573384044396268e-03
1.500629963947176272e-02
4.268772724455221351e-02
6.914233576339731679e-02
7.229961566124966377e-02
5.968912113628080385e-02
1.767448146253507504e-02
-2.492189844328628057e-02
-2.350524850935776025e-02
-2.295682416183505992e-02
-4.166122352635319437e-02
-3.610445051374032432e-02
-2.122023686477974777e-02
2.177398436635378555e-03
4.212018239338807118e-02
5.851085588126452020e-02
6.133010607038958534e-02
5.051915621841804316e-02
1.742123090578149083e-02
-1.959127311630320251e-03
-3.015591440084102598e-02
-5.720699047101867468e-02
-3.943493927079949612e-02
-1.239161858421106502e-02
9.894715533125870597e-05
-9.488090778704938444e-03
-1.126479307027402656e-02
2.893235774805602220e-02
5.008190612874030556e-02
3.663135982534367063e-02
1.011301210947320242e-02
-2.156452248934475138e-02
-1.032405348622996051e-02
1.924901396805160647e-02
2.746191889889581725e-02
3.206548297913204559e-02
2.011437606135638850e-02
-9.958800418858477707e-03
-3.659294482534247717e-02
-3.814355690961074297e-02
-2.473856174502949562e-02
-3.371415248928571334e-02
-3.513578251218176657e-02
-1.760319201186339930e-02
-1.062327663198576674e-02
4.824680745632801407e-04
-4.705910839444764349e-03
-3.062153446567250983e-02
-2.796888832909475223e-02
-2.103448952101878711e-02
-3.650812052085476711e-02
-3.173454068416007440e-02
-4.481368090279243613e-03
7.740650548244501841e-03
1.324708015212441338e-02
2.963302706116378513e-02
4.188214770285490079e-02
5.313808287001188513e-02
6.621631612647810305e-02
5.049696168410201108e-02
1.207539569043571820e-02
-8.856827347946740273e-03
-1.063342100436566288e-02
-1.045651980462681575e-02
-9.209946450982225627e-03
-8.432212794887065585e-03
-4.969058737400398711e-03
7.337647559246608317e-03
1.495117498256329919e-02
1.550544601993793410e-02
2.038020264845011309e-02
2.552700695501921441e-02
2.902170469615871634e-02
1.586914538536297881e-02
-1.487284307987762899e-02
-1.517989861858715789e-02
1.500945029630865526e-03
-1.244507112574101682e-02
-9.275488621913921539e-03
3.431701741777740122e-02
4.562825248637834147e-02
6.428087748393053989e-03
-2.622094151528493039e-02
-3.311767098853894004e-02
-3.464134652360772310e-02
-2.578102331637254288e-02
-1.538096282726517799e-02
-2.973172425830606855e-02
-2.745709421357620320e-02
6.026385672900052941e-03
-2.374767905193388411e-03
-4.630715718544325954e-02
-5.480031764657863208e-02
-4.611795245691762551e-02
-6.742070134897169831e-02
-8.337185703071330056e-02
-4.387291752336644479e-02
7.232415492795809218e-03
1.577371666997139446e-02
3.319518150709403759e-02
8.369825039269609968e-02
8.130945339677038419e-02
2.898013985905232778e-02
2.863769755887508872e-02
6.457176951643463225e-02
6.539176905545877883e-02
4.560826355911556246e-02
3.534342257485269950e-02
3.347934456982371715e-02
2.723817521478840570e-02
1.922561326191755612e-02
2.102211483846663440e-02
1.743810741906639747e-02
5.588088299891627760e-03
-7.982765703087268266e-03
-2.364974962507892034e-02
-2.638018135114911580e-02
-2.866183748037758397e-02
-3.964825101780346944e-02
-3.852274458384657985e-02
-3.601243648427684962e-02
-4.093961511613050663e-02
-3.983028462447065626e-02
-3.316906332067425661e-02
-3.006162125334125787e-02
-2.706758863544679594e-02
-7.568197163746469107e-03
1.594086811065673071e-02
2.344375031168898990e-02
2.115298846824912801e-02
1.151862919572971093e-02
5.052160184971185922e-03
4.522277291528017766e-03
3.056089640447715483e-04
5.873244668864279622e-03
1.729680910165124971e-02
1.382301200212822379e-02
5.084124268917602357e-03
9.117472777071113782e-03
1.230973709845609859e-02
2.683521180473886179e-03
2.206087132890001759e-03
4.526730080787787561e-03
-5.887041834935646638e-03
-1.594892700577582242e-02
-3.583593880889070910e-02
-5.227437024622333395e-02
-3.920239696466809587e-02
-2.444560365566564655e-02
-1.795477286537574060e-02
2.086330615624422055e-03
3.324489766393037143e-02
4.317173074008082145e-02
2.512604305110135647e-02
2.203730225277093085e-02
3.335337197813530857e-02
3.222195310957586684e-02
2.765893200930624046e-02
1.618343552684196190e-02
5.514223359406360964e-03
7.851707527115529481e-03
3.362878566798488920e-03
-3.299066454954909054e-03
-8.078247414593773580e-04
-5.762529207574369544e-04
-3.114266561037045897e-03
-3.058013381026929677e-03
-7.263615510420255066e-04
-2.601658684544165350e-04
-2.205027688766133566e-03
-3.571162701221740950e-03
-6.542590886277952107e-03
-9.528752734523969134e-03
-1.018430936722806296e-02
-9.628225229947143596e-03
-7.210042199635796449e-03
-7.003069844199604974e-03
-1.514419223115644371e-02
-2.878954181846907559e-02
-3.586070794151204055e-02
-3.239358610273425365e-02
-2.572643850811639696e-02
-1.503086092881140111e-02
-2.223208144906863211e-04
1.150192386681376730e-02
1.930814194124384070e-02
2.409421244263927966e-02
2.699386398452825395e-02
2.722320972473464898e-02
2.075514069177543733e-02
1.224158718515276634e-02
8.010566087358101869e-03
5.762516958016286606e-03
-8.914904322624377488e-04
-7.534728331103166671e-03
-2.976844700913070831e-03
2.359508481386678527e-03
2.029060015857706706e-03
5.202641202309038482e-03
3.229510344271489027e-03
-1.573973008388803536e-03
-1.154939154844180889e-03
-3.944902153122630158e-03
-1.806632507772222345e-03
2.511192894981964172e-03
-1.681451217986725498e-03
-2.257839698934099165e-03
-7.051869668094391547e-04
4.999840141907578106e-04
2.618101251209287161e-03
-1.475085288008219598e-03
-2.112629503368781102e-03
-6.931819801876523603e-04
-5.676464813510436087e-03
-7.734211433278784763e-03
-7.400921464610877958e-03
-4.146510492153102079e-03
4.795214698437118804e-03
8.247757770029071414e-03
4.465536240973138130e-03
2.501380295259917957e-04
-3.981553047379945975e-03
-6.235533598163586939e-03
-3.435152969025875944e-03
-1.130332857606808437e-03
-2.922964337025449333e-03
-3.965747667810355995e-03
-2.683576827225285684e-03
2.027536886129244122e-03
6.729689995784651421e-03
5.049885685970859593e-03
3.192233353557836269e-03
3.123293496871952946e-03
1.596377577090129000e-04
-6.528949948538577148e-04
1.915361939652186546e-03
9.402846413746998762e-04
-2.236287668998682403e-03
-5.430931354489089511e-04
2.026057812713614667e-03
9.668959373102230942e-05
-2.557493127570651618e-03
-5.229878157504113355e-03
-4.787034016641530075e-03
-3.127858825338282380e-04
-7.124133302896065484e-05
-1.697255500650427526e-03
4.034539407145998195e-04
3.542748542467089555e-03
4.283298790214484612e-03
1.744231788119766013e-03
1.446666209466590872e-03
5.068608282046313009e-03
3.318825220652985540e-03
-1.569730946624451869e-03
2.522497078665595152e-03
5.187732116141892565e-03
1.575462381045292237e-03
6.148599624433953581e-03
5.780205134891971790e-03
-1.616875796432590707e-03
-3.776865659858798696e-04
-2.263341411738093150e-03
-2.411469178079783844e-03
-9.913826949572782099e-04
-5.807322926118548348e-03
2.817971738802007697e-03
6.082065056315652876e-04
-2.138644147478201488e-02
-1.488339698405607807e-02
7.170532969925209020e-03
8.372147104767139331e-03
-5.488179264259853514e-05
-4.680683391907595504e-03
-5.515910830603419981e-03
-7.497693646321809593e-04
7.199846400265122459e-03
6.535815570449729495e-03
2.428969843937403041e-03
1.976407276680957996e-03
-2.637197988462635506e-03
-4.662773604562762964e-03
-3.903903098928107260e-03
-5.525575136973642949e-03
-4.075066809406173614e-03
-2.051792450380955819e-03
3.596519977393901335e-03
1.066528624149528336e-02
1.026877121354620101e-02
5.524489130608646777e-03
2.659012046174803225e-04
-1.769502431536073856e-03
-6.094314632896911076e-03
-1.064890365161817731e-02
-5.115507519485665462e-03
-7.640057510137348174e-04
1.460030320431932255e-03
5.853096385431348636e-03
3.883202392279200537e-03
2.369563363343045199e-03
5.965146607119792103e-03
6.022319155654193464e-03
1.789648920489948607e-03
1.509889650815781411e-03
4.897911715033047113e-03
4.369855332339717992e-03
2.702569765087828205e-04
-4.537623810983664081e-03
-2.938699244067827926e-03
2.115325303374367225e-03
2.225537322336808375e-03
3.936187881057870604e-03
-4.170230490597976554e-05
-8.089902546288220767e-03
-7.357709998518254663e-03
-6.272257925645740445e-03
-1.653144153578088669e-03
5.462722031326096815e-03
7.604457826879604081e-03
4.818243825175453840e-03
-3.217840232367774785e-03
-5.966731715135501998e-05
-8.136001579829557975e-03
-3.279216832300895640e-02
-1.838618841875807805e-02
1.628815727303855416e-03
-7.638245152441627134e-03
4.466078149296737795e-04
1.371353981704117805e-02
1.270009232609780464e-02
1.217772102419861606e-02
7.287565436153579587e-03
5.663794801498450715e-03
6.096571133514278040e-03
6.721138389792752745e-04
2.120481063410513617e-04
3.216992530267046750e-04
2.187957814146003249e-04
6.741591738535895537e-03
7.210216291708131803e-03
-9.719347793125752283e-04
-5.149173053619830742e-03
-4.804069511147408475e-03
-2.327904656708257650e-03
-1.666167055094169380e-04
-2.733965660010960474e-03
-2.854323562009317746e-03
5.489758895505254116e-04
2.326781579142441891e-03
6.094245776537243232e-03
5.348525299595712629e-03
-1.126157374292711434e-03
-5.109334116407307502e-03
-9.967857048543280613e-03
-1.049987802297926848e-02
-4.632900568876048390e-03
-2.517035063965641743e-03
8.709499259093119892e-04
8.287110760930796113e-03
9.740589415494166001e-03
3.182751620501439449e-03
-1.970474667476089427e-03
-4.334116898927047870e-04
-2.157813666096597329e-03
-7.233503491669045389e-03
-3.377654802583755431e-03
1.773405545745830505e-03
-2.372299188684171608e-03
-5.105959903244920023e-03
3.146262431174826676e-04
5.758454320978374612e-03
7.666786689183111708e-03
7.856728154869974806e-03
3.644899832971311340e-03
-3.878118178695977563e-03
-5.419814224858795874e-03
-1.335503902807732039e-03
-2.427058794441671469e-03
-5.218596002559513190e-03
1.280145592994963574e-03
1.027780188397181375e-02
1.076222689961672807e-02
4.786387510921837410e-03
-2.873774754829709968e-03
-6.830015183503855385e-03
-3.362570711057385336e-03
2.214286348778004730e-04
1.260879132485843166e-03
4.573507742700560000e-03
5.175089894629644575e-03
4.241813506289751103e-03
5.797890559186192130e-03
1.702589301176283144e-03
-4.750470855110718038e-03
-6.475916576392576861e-03
-7.301250949648838313e-03
-5.917405994032974570e-03
-1.964148841544508320e-03
-1.886091574133799643e-03
-5.728822763447460366e-03
-5.216861111871955864e-03
-3.375703805667653115e-03
-8.289337379750948490e-03
-8.635488111554420407e-03
-3.975876049453364730e-03
-4.323782632926985101e-03
1.340921309991755265e-03
8.282941044318758994e-03
6.870125604726332741e-03
1.086211238468143443e-02
1.327357075630798862e-02
3.474505836651968320e-03
-2.529425862832591042e-03
3.771913090666988567e-04
2.468550648174001796e-03
1.942905815086282953e-03
2.924253777025552763e-03
4.935813401737560585e-03
7.322038125182431592e-03
1.084411622806016537e-02
8.067528692964009984e-03
1.345045065310703685e-03
-2.042695315587975211e-03
-7.237974720334599578e-03
-8.891853738951170996e-03
-6.442846003180504807e-03
-8.021373697180634449e-03
-4.844778234790432861e-03
-1.756497674397785756e-03
-2.522947684529435082e-03
4.071926357585567945e-03
3.385943752102825530e-03
-2.443622183256526602e-03
-3.050581350470383092e-04
-6.796315458953384667e-03
-7.857546061902443216e-03
3.063232711880367522e-03
1.364154492614369236e-03
2.787289335743422733e-03
5.178610928598003336e-03
-5.987086148227305400e-03
-5.388216681551035586e-03
-5.835848128362598362e-04
-3.618681932052049584e-03
-1.408691839660743605e-03
-1.174343836161987741e-03
1.024997811617324060e-03
5.190357566480924278e-03
3.226605180284934779e-04
1.021122312618012598e-03
6.030779509328332982e-03
3.753674917913576992e-03
2.301333691173026389e-03
-8.762111468776462254e-04
-7.057323010659730805e-03
-3.403759416277889888e-03
6.223821762691213177e-03
1.131429725583174041e-02
1.178695709068135547e-02
4.389700452072572805e-03
-1.573213793094097729e-03
8.399936662015527241e-04
-5.443935883611156039e-03
-1.006336480008774605e-02
-1.544036388975788794e-03
1.981898402352601490e-03
3.984868794299743083e-03
2.418075720391655724e-04
-1.143587329547215807e-02
-5.258582010716555608e-03
7.740622142346586729e-03
8.607932316680130466e-03
4.411318463079272854e-03
2.178574524352671921e-03
2.727399719009341358e-03
-1.000679978603371927e-02
-2.048714682417605848e-02
-3.515540314612952168e-03
7.109603449066849608e-03
-1.349155645903403998e-05
-8.251655088325098638e-04
-1.040832750422850377e-03
-5.207185705502866656e-03
-4.138870894107014343e-03
1.703554914102113800e-03
1.449357601808210329e-03
-1.510538283372407642e-03
7.268521955213038017e-03
1.380250637123185166e-02
7.364738533936290160e-03
3.563742124098419860e-03
3.916900695021421561e-03
2.088705836786926805e-03
-5.865424003555948229e-04
-4.467225782197781388e-03
-7.217333554107432068e-03
-4.258949508661943884e-03
-2.031122442613252262e-03
-8.353892196601733072e-03
-1.023944875658315025e-02
-1.356139154752987680e-03
1.699994187129102389e-03
-2.362936770810965779e-03
-1.324396257880915443e-03
2.167557569082489109e-03
-3.608461259170142360e-04
-5.809130759165977284e-04
8.671055661545501100e-03
1.090458746585015737e-02
4.428303654481567653e-03
2.811741381131548610e-03
2.650978171175614063e-03
3.168976491203599928e-03
1.582399910883465835e-03
-2.595015990275696943e-03
-3.120523012497855879e-04
3.755806871075675446e-04
9.422967255380951170e-04
6.336778499777068197e-03
5.988529334596379497e-03
5.431051636376309395e-03
3.890628969641545584e-03
-5.593267477287868373e-04
1.324710783144703865e-04
-1.449759605833670240e-03
-5.862879596734245878e-03
-1.855800871624301712e-02
-3.420522553692260936e-02
-2.404614937183957579e-02
-5.067363454362179900e-03
4.014452919868662095e-03
1.278927569648676509e-02
1.060304198321799368e-02
3.432033937353891253e-03
3.500345529704536503e-03
3.498552140345136813e-03
2.474214311453316450e-03
1.803984026059188457e-03
5.175746750432038724e-03
6.424487824988248282e-03
2.562305146459852457e-03
2.022228314085483362e-03
-2.520417412731994038e-03
-4.536114862359431205e-03
1.269542416631581688e-03
-1.624232751582449573e-04
-3.021812568148799297e-03
8.337966585712636419e-04
7.268031347343645483e-03
8.389455426901152105e-03
4.790171538062147107e-03
6.074346288781530372e-03
2.587569750853801077e-03
-3.601620602000713857e-03
-3.111668188661483297e-03
-4.109707194627158777e-03
-1.871769313186989053e-03
1.790187284131519252e-05
-2.762696712628819051e-03
-7.217220472659712470e-04
8.759649167818110748e-04
-5.493411323691933627e-04
-4.638106589569737127e-03
-6.869380444860937601e-03
-2.934696169887826122e-03
-3.138367481916074734e-03
-1.341559192370979370e-03
4.739375872704979127e-03
4.884463574098745452e-03
3.476963400984639605e-03
2.141388213669389619e-03
3.110897874134156823e-04
-3.566606566783607837e-03
-5.798257274829024359e-03
-2.269019464006536910e-03
-1.925958774745427718e-03
-2.247507859450397774e-04
1.915708874974348308e-03
3.632462967548057446e-04
6.110108717486404436e-04
-6.090888051344421801e-03
-5.052417666636158620e-03
6.762439387611645335e-03
3.273221479551322033e-03
-1.289884773332875667e-05
2.973709132383125023e-03
9.738586726396194311e-05
6.445262504306423440e-04
2.582006805569116593e-03
4.587587343760760050e-03
4.576749368058559940e-03
1.617485222145610062e-04
-6.503112647262543605e-04
-1.421885479456265174e-03
-1.220069985700560295e-03
5.041502245663692736e-04
7.479841922344406457e-04
1.993546245022905297e-03
6.050191179050274726e-04
3.223974019890748013e-03
4.695530248346175065e-03
-5.104851680407887678e-03
-7.686972273565284390e-03
-5.848481139481558240e-04
3.247752117055727542e-03
6.153373198971055303e-06
-6.842049014756634503e-03
-5.548990607888321450e-03
3.560037280550151740e-04
4.579629276334440564e-03
5.179315000141981352e-03
-1.099824021601926959e-03
-2.402620852397194338e-03
-2.704466024263242445e-05
-3.102080953107216529e-03
-1.734727324807662464e-03
5.510739960038456460e-03
6.872655210872277189e-03
1.156852131548308585e-03
-3.826163527522831779e-04
-1.109219554611491545e-03
-5.963758296643357874e-03
-2.548237121379981658e-03
-1.220309782482467426e-03
-6.191635744173950781e-03
-1.795096203584525905e-03
-2.555857238926871697e-03
-8.654326663223271821e-03
-1.104232234450841683e-03
9.520030651188010271e-03
1.185897085286788909e-02
8.939809164211214021e-03
6.368597901749512881e-03
2.891126832880252118e-03
-3.349603626956615572e-03
-4.066875123475327362e-03
-1.013950895718600427e-03
1.794774588906909198e-03
4.027231357331398018e-03
-1.402055889952348719e-04
-6.423939708745918763e-03
-8.062907884970731479e-03
-4.771034498144027282e-03
-7.137063111505122974e-04
-5.761644190592075769e-04
-2.610371381112626919e-03
-5.072721424527101494e-03
-3.074573358042964350e-03
2.709880468876595008e-04
4.123591758926890860e-04
4.776528102163229636e-03
5.578232817195969556e-03
3.281064356706700838e-03
4.578697362853989539e-03
-1.713578900211943506e-04
-9.658769766154686777e-04
1.042376827334808758e-03
-4.242474266444020911e-04
6.878418659783090000e-03
7.944532608404572191e-03
2.399698288692082414e-03
1.467570850533128374e-03
-2.810433310449865236e-03
-1.349937184103359349e-03
-1.667783442298365515e-04
-2.351667610258601458e-03
1.258901049010354573e-03
-1.869600735252056846e-03
-1.570620553160138790e-03
3.452945488099373218e-03
2.065936175081779357e-03
6.149511479003448751e-03
2.297413413095568922e-03
-1.220170655440385755e-02
-2.080564381287140774e-02
-2.130600013176547555e-02
-3.755797031259910847e-03
1.243097671843510638e-02
8.529355771609910264e-03
6.364015441670122994e-03
4.353323230076890787e-03
-4.199622122157899325e-03
-4.455187282681617907e-03
6.938515549940643722e-04
-3.355563426331893825e-04
-2.413595475634572243e-03
9.213128033830691403e-04
2.217116401078181830e-03
9.933048512545104326e-04
3.369511152468850426e-03
4.986854139456112223e-03
5.201532511047102236e-03
4.618542576068944937e-03
2.803573884335087323e-04
-3.239909472701425763e-03
-2.813978588973700505e-03
-2.769450362253596384e-04
4.276333938098971117e-03
7.593591386986748432e-03
3.835908421505272378e-03
-1.973370517442668906e-03
-2.856801906145083839e-03
-4.851726237148201899e-03
-6.925654525485032062e-03
-4.640395661425305435e-03
-4.984187400934414307e-03
-4.006155454467581582e-03
3.561815716264197119e-04
-6.824781240502127361e-04
2.658631830034762118e-03
1.257629865825556775e-02
9.924925178365259434e-03
-1.258403188264453458e-03
-4.583218213447861830e-03
-2.260355072387763668e-03
-5.404036391455847204e-04
-7.477468674519034729e-04
-3.617235351242865634e-04
1.255125967745426710e-03
-1.146009646830554638e-04
-2.131565780582119103e-03
-1.773205818881635597e-03
-1.468198137678323372e-03
-2.792762889422015053e-03
-3.630302019260622359e-03
-1.690753063142076337e-03
-1.333911368297228776e-03
-2.049523364773790256e-04
2.229815998512423361e-03
-1.830632089612902174e-03
-5.995549265298276594e-04
7.076000275183362033e-03
6.215523379916982130e-03
3.148575533796611325e-03
-2.219950425784150282e-04
-2.631793971608853162e-03
7.149597177777187009e-04
1.780178337217885225e-03
4.698651301897621355e-03
6.970049426916907070e-03
2.771318186935491654e-04
-2.474772718596612853e-03
-1.857269159949668244e-04
-3.302727396546118951e-03
-9.272818464155197296e-03
-1.046981991516311890e-02
-6.283957750552962400e-03
-2.967590756335633864e-03
-1.252776782873059715e-03
2.380155757780229742e-04
1.131628717152298675e-03
2.723821966625027385e-04
-3.607066285911985954e-04
4.198794796863374382e-03
2.746311672137515328e-03
-3.710829684680217160e-03
1.987621923254693579e-04
1.207332129358723149e-03
-1.073281682840857357e-03
6.449569658611537318e-03
9.468743785884338460e-03
6.056920465997698254e-03
5.187237931011593264e-03
2.085780498191673431e-03
-2.662483095560842002e-03
-4.190640174328256508e-03
-1.465754989494862017e-03
2.320992403498350638e-03
4.523145500444485448e-03
5.916358282662050050e-03
4.594101082337027561e-03
-3.209482591390349282e-05
-3.031432189413261688e-03
-2.703001213299959741e-03
-4.948706947196376653e-03
-7.107082696737149555e-03
-3.225502949496192925e-03
-1.029564213296417161e-03
-1.380643205811573921e-03
-5.699037819156919926e-04
1.425720393915013893e-04
9.827410326589082132e-04
-6.433675177746581153e-03
-1.237536376845729466e-02
-2.377160051817398152e-03
2.824637157080618112e-03
-1.391277926266744954e-03
-4.665872552673123574e-04
2.236644395376535203e-03
5.148783399807350947e-03
6.108109122911832209e-03
3.239235558590758315e-03
7.012463566736608627e-04
-1.639736509077033928e-03
-2.633239171724280521e-03
-1.935330743334852084e-03
1.149444953081820179e-03
4.374062571046729610e-03
3.774051607257233702e-03
3.507817342846477650e-03
1.358549797426163207e-03
-2.195607820612113445e-03
-3.179082292617115609e-03
-6.564311666221238524e-03
-7.224896217371429633e-03
-2.202962408487976233e-03
7.222962184469789142e-04
-3.989663662719352549e-04
-7.734468180883708171e-04
5.256818360052871973e-03
8.094336187747550732e-03
5.053932046725616994e-03
6.073118264253320360e-03
2.421644342202198142e-03
-3.490040017642733871e-03
-5.617374914717816531e-04
3.338689383753552526e-03
3.959820792772033964e-03
2.305566114149261436e-03
1.483262114381876315e-03
2.089484285859157485e-03
-4.469130640334726518e-04
-4.951810179057038359e-03
-9.075947926037046531e-03
-5.111297853545785155e-03
1.412594802682211152e-03
-1.963947530339047592e-03
-2.786361693585462720e-03
1.499108076559789947e-04
2.061353793904578940e-03
6.269223317261958008e-03
1.714853611375202324e-03
-3.331703986614459063e-03
-1.950903093927605636e-03
-5.139215384039638561e-03
-3.801978338962648009e-03
-1.956575529885181200e-03
-5.728642786085401568e-03
-1.497206599499716854e-03
3.385918032375271215e-03
3.012954265289523835e-03
2.381976875130103425e-03
-1.054469005421102305e-03
-2.011915061536668960e-03
-1.269673444542732512e-03
-2.780820657828853709e-03
-1.025692479671954423e-03
3.038400540863031357e-04
6.591029551835959075e-04
5.465728141760079796e-03
5.952428716723299693e-03
1.124399096474409075e-04
-1.653104742119792343e-03
-2.032224896316825891e-03
-3.211133859122664198e-03
-9.337793881221462169e-04
-3.981325562707986186e-04
3.596511345780944394e-04
4.815202281070492599e-03
7.135997375808364289e-03
7.056079617852028911e-03
2.891303853187482484e-03
-6.327292727618927769e-04
-2.449770620299680855e-04
-2.829740464710433622e-03
-1.179216857836482371e-04
1.792772720024745975e-03
-4.686814236951989364e-03
-2.186655368897134650e-03
2.576154269054183434e-04
-1.032090935863338478e-03
5.780328865545664163e-03
5.966275914858975953e-03
-9.285915884489505780e-04
-4.747096393141914117e-03
-8.305819466137881642e-04
5.979667768925263013e-03
7.419155509196224225e-04
5.547513007550798321e-04
8.902536259629662777e-04
-1.503662338149161330e-02
-1.299688265687865170e-02
-3.857249039840021242e-04
-5.351716153903655730e-03
-7.945397201226308062e-03
-2.028309997520673109e-03
5.498986208951043946e-03
6.159766743422123887e-03
-1.625654232983786158e-03
1.632239759504128165e-04
6.423519392581094299e-03
5.280997940057164004e-03
8.826081503104953908e-04
6.027677372753938775e-04
5.020664296975318672e-03
-3.798813771303436002e-04
-4.860685227995937240e-03
4.652198442245732840e-03
6.618631584313124615e-03
3.739064639805403378e-03
5.128499421791627572e-03
-1.391039716144660231e-03
-8.022691584456223199e-03
-8.652314656028423784e-03
-9.444172537286601304e-03
-6.062847363447193029e-03
1.916339010645549739e-04
1.007888090191617382e-03
-2.316573915071194756e-03
-1.840674699059141779e-03
3.515011954747036382e-03
7.702733140651047902e-03
6.310859838289677518e-03
3.086079738989588417e-04
-5.380314488746336561e-04
3.269529683594122466e-03
6.703753145078989633e-04
1.924201762807781191e-04
3.479478496661535507e-03
6.881146005628137590e-04
2.318983914047596014e-03
5.030067902679092977e-03
-1.522150326154869063e-03
-4.192546579601575188e-03
-1.932430899032399263e-03
-2.685691453813191486e-03
-5.441022304716955013e-03
-4.785125206527350225e-03
3.473277031762296227e-03
6.936829408842049016e-03
2.756559921584264203e-03
2.491072434377179616e-03
2.216681536068496744e-03
-3.235979920087255889e-03
-9.559214058535317124e-03
-8.770176583001294129e-03
-1.858227245059339630e-03
1.303581541655035548e-03
2.099149027712957170e-03
2.982572453258655609e-03
2.976869098144804826e-03
2.247037609814765864e-03
1.680307609312358622e-03
2.152130132430891268e-03
-1.634232683217123720e-03
-2.747233775587382045e-03
-1.199830042734000620e-03
-7.451925443896459389e-03
-4.906542316880793154e-03
4.601876130342756957e-03
4.253454529708059796e-03
2.767853211828460828e-03
1.652357725386829727e-03
1.410342157868982619e-03
3.112530781093316616e-04
-4.971478601799295821e-03
-4.212264750961995131e-03
-3.952484893558464232e-03
-2.992276686067318284e-03
5.343465834982794212e-03
5.927421801126856252e-03
3.045946366268333701e-03
2.621347116556813680e-03
7.881877883421351504e-05
2.135315511364482594e-04
-2.902996475493431223e-03
-8.105121519940892277e-03
-4.855055277991644075e-03
1.665868157326661284e-03
3.753188340707776412e-03
3.025617547153226783e-03
4.962941590945841967e-03
6.008148739608862483e-03
2.642660935479176996e-03
6.333202638872653797e-04
-1.248832418502698492e-03
-4.568203818200010195e-03
-3.331553007868753944e-03
2.738692748516568642e-03
5.589156283716501319e-03
2.333645336540094480e-03
-1.053050349485003256e-03
-3.283018123553572715e-03
-5.991974686027853186e-03
-7.668113850456819390e-03
-6.060619315006736570e-03
-1.398693306200749116e-03
-1.411747267279362793e-03
-3.550589447854555786e-03
2.162524749218877780e-03
7.253693709838574498e-03
5.761109062129459064e-03
5.082546823931535264e-03
3.419485029963391463e-03
-2.003322553482016818e-03
-2.801034985691929543e-03
1.927352970185176786e-03
3.461869703884939281e-03
3.112651265866072346e-03
1.045986852265802904e-03
-6.526644361060393237e-03
-8.587394196435312391e-03
-2.042482077772273408e-03
3.985273206919688312e-04
-1.108773733116789678e-03
-8.204289517944635558e-04
-7.573232133169423026e-05
1.939563683501541007e-03
3.938529514290511728e-03
3.139732600459153866e-03
3.521096772914071756e-03
2.163111294240804578e-03
-3.777109694083159285e-03
-4.358185785147744226e-03
-4.640578516806448568e-03
-9.607582411261902933e-03
-5.986525404009622117e-03
5.990667177109532636e-04
2.379257288305904831e-03
4.718597382067031380e-03
3.869629127757306768e-03
2.501524672647670831e-03
6.030951641821483654e-03
6.632940672489098625e-03
2.679080305293059846e-03
2.120061365521799367e-03
3.250830481203763160e-03
2.478758254899307567e-03
4.982802095815540115e-03
5.495662474530318801e-03
-7.954851876885427314e-04
-4.951598556531892383e-03
-6.351016651091567072e-03
-9.146572871834585811e-03
-1.314573823491321965e-02
-1.336875343887482942e-02
-9.052209413287449699e-03
-8.127305139844692716e-03
-2.970400389647509781e-03
8.506415783670128600e-03
1.242276271187957824e-02
1.212114605164845219e-02
1.100534841771026381e-02
8.864198170746949781e-03
1.009936715266707488e-02
9.189030955175484655e-03
8.038442262156298215e-03
9.973532057187766905e-03
4.179030270529070744e-03
-4.643010179135177544e-03
-5.957247918454065989e-03
-1.040652161041226431e-02
-1.673281601013312456e-02
-1.922838640762205772e-02
-2.655418427517821853e-02
-2.522941609932849091e-02
-1.581133103788942215e-02
-1.382217156906667688e-02
-4.910812280283864337e-03
4.233100230875975513e-03
6.888079130330738466e-03
1.422157432090043888e-02
1.904107427543478767e-02
2.540847601532614936e-02
2.625806884360821700e-02
1.883886544669387611e-02
1.575731028510496401e-02
9.214053576425214678e-03
8.824798993503493033e-03
7.450658765018039129e-04
-1.617254716377490575e-02
-1.314262818680125497e-02
-2.676121364232169481e-02
-2.464293396083691579e-02
