1.620594595413264727e-02
2.457093646437469303e-02
1.389984126564001825e-02
2.143752980077194212e-02
1.140353925440563271e-02
5.469125528661029044e-03
6.211362105922837995e-03
-8.290645532768502191e-03
-1.614601397345966083e-02
-1.808011028579969287e-02
-1.991721295338629016e-02
-1.792027329214889927e-02
-1.573072062147979830e-02
-1.189742336817523928e-02
-6.853773646525299947e-03
4.165106286941283251e-03
1.334866996231963074e-02
1.411033349987691338e-02
2.099257892594784403e-02
2.632500088300690141e-02
2.152611158705582464e-02
1.532200676325457846e-02
7.400010521305703734e-03
2.188793196627054991e-03
1.071159099903250733e-03
-1.271318098116215904e-03
-3.793576759057080104e-03
-8.537499751163831266e-03
-1.244026384499190632e-02
-1.267939607643612555e-02
-1.396286169869787215e-02
-1.362228413341525467e-02
-1.416903997353129337e-02
-1.683670424258411000e-02
-9.989842790890395355e-03
8.392261694949753378e-04
4.331621327240860186e-03
5.710137253653995056e-03
5.388946210283918244e-03
2.675047075503428438e-03
5.093647985905315478e-03
1.173309032086605752e-02
1.381810437582294861e-02
1.203828304136645398e-02
1.118207595202684763e-02
3.476814849500067892e-03
-9.209690637220562318e-03
-1.162880127891647783e-02
-8.318491916779052753e-03
-5.592138067457091966e-03
-1.550050405895428461e-03
-3.114863757156679635e-03
-6.415447798155745826e-03
-1.251027287683638238e-03
8.644803666209255680e-03
1.429857664862825388e-02
1.328229460564526489e-02
1.116879389424619423e-02
5.185526037033016608e-03
-7.467929372053157266e-03
-1.458323269121618651e-02
-1.438933402111307151e-02
-1.148178910126682918e-02
-3.537427142412013278e-03
2.161660519301697708e-03
1.662163568373552572e-03
1.119662680833570078e-03
-1.372097910396024808e-04
-4.476387632144902362e-04
5.662220589374309049e-04
-2.013439366753933327e-03
-1.404073728833746867e-03
1.891044825002746168e-03
1.640006405855483178e-03
8.556172653505344367e-03
1.638746093942891613e-02
9.978328880555938779e-03
4.466486489334801392e-03
4.635306373082115176e-03
-4.730366591624797501e-03
-1.491209624856801481e-02
-1.239898944141324538e-02
-3.868105339838181621e-03
8.735930000759526814e-04
-2.217706521663318723e-03
-6.888806923681774219e-03
-4.773757203899785077e-03
5.613594643031320644e-05
3.106196982453918436e-03
4.878077324138624556e-03
5.547121636621528407e-03
5.768128977568363035e-03
2.740725803831038036e-03
-8.763813959053926407e-04
5.359735064807990591e-04
-1.054082298982627740e-03
-5.713579158340548886e-03
-1.707448698544993849e-03
2.584168648829682224e-03
-2.703061987312911640e-03
-7.221126828175696011e-03
-7.301962005038301756e-03
-6.454178408110178115e-03
-1.398181014640687177e-03
5.131469510962924363e-03
6.305933759478061715e-03
4.977644275814207230e-03
5.761159757459079905e-03
2.680690475268340204e-03
-4.038916853400007813e-03
-2.720717844201045107e-03
7.880221125375681162e-04
-9.108989857510427961e-04
6.535402426669944436e-04
1.534374190958702000e-03
-1.797501213573429518e-03
-2.295034879146858227e-03
1.384344785870552904e-03
6.814107407918226778e-03
4.185082497803637412e-03
-3.721079734821124922e-03
-4.128527268789530455e-03
-2.260641214022301483e-03
7.490933548866738050e-04
5.273408761699661072e-03
4.460242329263545795e-03
3.121035374455662526e-03
4.021644063599155022e-03
2.975074846686600466e-03
-2.466931009957386810e-03
-8.000241123824643197e-03
-7.989164911641638903e-03
-1.015252207226637580e-02
-1.432488053217926931e-02
-1.151677645660709355e-02
-1.496469780657711706e-03
1.136725662039120115e-02
1.436543450711297645e-02
9.616037875594347917e-03
8.960607748261979061e-03
4.714246660999011664e-03
-1.854099565100800467e-03
-2.789976175310866519e-03
-2.536149974065548835e-03
-3.166638917930617199e-03
-5.120946306183471290e-03
-5.591780663885062563e-03
-1.718245782399973774e-03
2.283441579341756195e-03
3.914759177109279793e-03
5.853315287258094475e-03
7.584303476068263508e-03
1.647552414895117655e-03
-4.952195538813279098e-03
-1.594473465355080756e-03
1.162722828488753010e-03
1.875758161525854480e-04
-1.135495243035488256e-03
-6.053274513854829328e-03
-8.608867799629806028e-03
-6.580249589199887485e-03
-6.392069000715957898e-03
-8.873643894281548622e-03
-6.355926544946778264e-03
3.349637412500958665e-03
9.696097151701894845e-03
1.128700323991493892e-02
1.002670028672785624e-02
5.678064828242066105e-03
6.975350062802433346e-03
7.447277919135093099e-03
-9.856530591507632437e-04
-5.830094602284101139e-03
-4.397776834619231308e-03
-2.554463672403542440e-03
1.645276472859735946e-03
7.178326375189282051e-03
7.420800731565635293e-03
1.303603095687892472e-03
-4.019493498399042374e-03
-6.635723382086530439e-03
-8.867434575740032465e-03
-7.447168560457923664e-03
-3.723602197005557168e-03
-3.095809448104192355e-03
-1.453300790303816781e-03
2.907385015864470939e-03
4.164090225712428414e-03
4.333814917308454091e-03
2.096958255948373068e-03
-4.269459094307971776e-03
-3.708643814600818406e-03
1.259447823947691561e-04
-1.322790629062789826e-03
-2.519778106318185020e-03
-2.369367522046304016e-03
2.161308770043648877e-03
6.403230318242941754e-03
9.636645711990435032e-04
-4.213696173102313147e-03
-5.527856781747852478e-03
-4.464981422706663754e-03
1.010467279443180537e-03
3.320494360373439213e-03
2.603735288765155701e-03
2.691034046066159268e-03
5.568939429794606336e-03
9.104958143635370760e-03
2.370109458628945169e-03
-5.885326527125294555e-03
-5.132533080637753306e-03
-2.210503357220746853e-03
1.678867737940533452e-03
2.409199620681998309e-03
1.101560424451203044e-03
5.309958422514393303e-03
7.242600254691239532e-03
3.513557730425927693e-03
9.464502632662103116e-04
-9.989146925857997437e-04
-5.428626627193230275e-03
-6.767047540615946967e-03
-3.203036834817624568e-03
-4.279864264914339141e-03
-5.984684722149326112e-03
-1.840217242913997839e-03
2.129657003927698522e-03
5.174615406470202579e-03
3.189721919991113201e-03
-1.173533697865094746e-03
8.068359732209674610e-04
-6.033156050289149820e-04
-6.447088779489365540e-03
-7.541688258350630336e-03
-6.310233249217008303e-03
-2.357962628876223571e-03
4.119971698679359209e-03
7.445673321010243435e-03
6.367188711662459186e-03
2.634786803533224839e-03
3.009185681821124241e-04
-3.031537848809115823e-04
-2.789389124613463836e-03
-2.889288666117856459e-03
9.382770868987867253e-04
1.534934214781079808e-03
7.016756742931262378e-04
2.343407639299404689e-03
3.536518950690790194e-03
4.078538304919995978e-03
3.395562027182869209e-03
2.052233728289584551e-03
4.935261099779317002e-04
-4.889579893012257691e-03
-9.381556181662696267e-03
-5.526713322982364750e-03
2.173197598152000996e-03
2.500910694676395686e-03
-4.314474106971797306e-03
-7.800311115023333616e-03
-7.952993842042940797e-03
-7.111084579296352362e-03
-3.747952982305091576e-03
8.663955940680703998e-04
5.539617751711145739e-03
5.929517503491438246e-03
4.767830128370943894e-03
6.081333291908027662e-03
6.501150260485292001e-03
8.209881003976507094e-03
8.183944438856038603e-03
4.453850577947675478e-03
7.069091674783193301e-04
-3.264601182966090850e-03
-1.602716476756137079e-03
2.298546537024149378e-03
2.124969544083833966e-03
2.954625488695435467e-03
4.395335970018040064e-03
3.038164941069767568e-03
-1.173188812707901332e-03
-2.182870856250823666e-03
-3.694468116151353523e-03
-2.299330113605901199e-03
1.115829597487760783e-02
-6.196850773233073331e-03
-4.416031089891779560e-02
-3.147913502459986218e-02
-2.713703497174453118e-03
2.043314283136108377e-03
6.029765469220537723e-03
4.704100033125487718e-03
4.492002768611290213e-03
7.562042388416484462e-03
3.562296652237846150e-03
6.124791862162975650e-03
7.452906497504428740e-03
2.235184968857775560e-03
2.880822415610565825e-03
3.144547193884890922e-03
6.658016118771237744e-05
-9.058871381268165934e-05
-2.646685931734203429e-04
-1.768728398554756916e-03
3.277815317275571596e-03
6.934106782288654638e-03
2.245293941879479560e-03
2.528936459062308423e-03
1.880072060634640748e-03
-2.320204705509530761e-03
-2.279216868718195285e-04
1.633818604716433330e-04
-1.922354907098204526e-03
-6.172767318042576661e-03
-8.840127918474568677e-03
-2.675965149121674411e-03
1.886382174573125086e-03
4.834463731641549210e-03
4.041208790394164307e-03
-1.597804547429895663e-03
-4.892614632218384406e-04
-1.684104710654083176e-03
-3.437905232308919277e-03
1.319561275086854031e-03
2.248185224836928356e-03
2.167684361552627264e-03
1.899199627493066691e-03
1.914889749119020636e-03
5.844333044428808022e-03
6.307071538307684050e-03
1.888007097171572361e-03
-1.288400209090600178e-03
-8.243674592421143922e-04
-3.822001072087745279e-03
-5.796452817487118478e-03
2.192594863915992530e-03
5.737646437099721761e-03
1.688099344675005964e-03
-5.937551393876348317e-03
-1.521532941719117016e-02
-1.257502058435475308e-02
-7.032199834129298013e-03
-6.383593215184206297e-03
-6.908681598534527129e-04
3.498224066767116874e-03
2.866685857487300676e-03
3.511495609928633101e-03
5.956462270892921851e-03
7.798713007944455509e-03
5.684654767639322689e-03
9.136355733267364446e-04
-1.812339656020896510e-03
-2.550094197530647800e-03
-4.648164602442645885e-03
-4.191596081594109631e-03
-9.410822343146018872e-04
1.643498618137285896e-03
6.452277788093527255e-03
4.742376248121587048e-03
-1.777317499771171542e-03
-9.422989959724458429e-04
-1.199073207123739536e-03
-1.611606793185321046e-03
1.623062849067036933e-03
2.388937226512432774e-03
4.330050115480607066e-03
5.552923351440912370e-03
3.919728862657875616e-03
3.223588699157204241e-03
3.637806959995245996e-03
2.720279270613362374e-03
-4.530432220077679423e-04
-7.407635705058803529e-04
-1.165772805265597915e-04
-1.029538566989938921e-03
-2.250935032029247659e-03
1.588606108355609318e-04
8.028999591457473481e-03
4.815979998797347526e-03
4.195032974445404590e-04
2.475020162167758907e-03
-4.617025107256892899e-03
-1.250534482625350685e-03
-1.206938559579408439e-02
-4.651750662214654275e-02
-3.248959040970036266e-02
3.062156010163078184e-03
8.015307039195616531e-03
1.090335677297108764e-02
1.168271866845639433e-02
7.272867429721579201e-03
4.714200511316797917e-03
1.016060133208246570e-03
2.072096562504563162e-03
7.670635576479029093e-04
1.359988496733185743e-03
9.109709088165067817e-03
1.103747707406348144e-02
7.919634826206792266e-03
4.168687455243894578e-03
-5.627377552422632625e-04
-5.409188368240813380e-03
-4.996472311718459271e-03
-6.674846569711511812e-04
-1.011667748196421216e-03
-1.409101213564346172e-04
3.232091343007225358e-04
-2.419780873117427164e-03
9.880949068401781617e-04
4.694937709858956927e-03
3.451480229123564131e-03
-8.446967917152814736e-04
-4.727695009557669401e-03
-4.649649598902783759e-03
-8.130621233491319363e-03
-1.037421523488388404e-02
-3.842509406793855574e-03
1.703671280619611450e-03
3.150950966837901858e-03
3.059947146662942135e-03
2.001709242589422028e-03
1.587028835110617254e-03
1.271330024070447227e-03
1.959804448793457145e-03
4.374296993385422272e-03
5.474240205061270924e-03
5.636822320444379898e-03
6.067918960232321877e-03
2.693985203208416543e-03
-6.090022346885548121e-04
-2.477960891264726490e-03
-7.595608707753340530e-03
-7.764003026240279270e-03
-6.492811269103206974e-03
-5.281813823262413755e-03
2.804573846084613704e-03
3.339059422630891779e-04
-4.573960619124521794e-03
3.304938387818818178e-03
3.754150719471206071e-03
4.109742640619288298e-05
-1.973837801189739106e-03
-7.446121393942840144e-03
-4.640354152921102177e-03
7.573869806593039539e-04
4.463926144012143578e-04
1.946069176283024994e-03
5.781950706201892214e-03
5.413722714395731092e-03
2.178293437483617024e-03
4.369087539796571822e-03
4.272618524771894070e-03
9.803462331469071575e-04
2.099322176654813861e-03
-2.588131356856903861e-03
-3.337870058137888327e-03
5.989358876916076393e-03
6.511664366756967151e-03
2.114464676744361865e-03
-1.014650430856809185e-03
-3.252069320850650962e-03
-3.073674905090306286e-03
-6.180390822723795356e-03
-6.195618202565293491e-03
-3.859628965241718081e-03
-6.060549356944395193e-03
-3.931250649739422703e-03
1.954401601495769566e-03
3.835932549640533405e-03
3.701013939791826784e-04
-2.982819701942227703e-03
-7.189170040723541228e-04
1.967317469479415958e-03
2.096680907317760925e-03
-4.843478065110313970e-04
-2.069551358581598211e-03
1.746815714246126305e-03
4.074808368335937347e-03
3.118567625081692610e-03
-1.204692109877524009e-03
-5.059125564168893280e-03
-1.344484853823314308e-03
-4.535951853008404777e-05
3.818121719077723422e-04
4.294586066959722899e-03
2.380373870612594901e-03
1.792071832541984686e-03
4.549316428843240730e-03
5.007281845598916120e-03
3.775828305628999276e-03
-1.868796374453274636e-04
1.591328089732337589e-03
4.484657178500312154e-03
-9.747937642697001009e-04
-5.325062064153233271e-03
-6.339003464355373769e-03
-3.341001077622418602e-03
1.528457035476783830e-03
2.804715695235433185e-03
3.376600754249422902e-03
-2.031045935621747164e-03
-8.214576661102625244e-03
-7.213009968119761701e-03
-7.724124370521415379e-03
-5.745946593804957502e-03
-9.635171452171256484e-04
-5.238877679691490014e-04
1.519289960005835950e-03
5.150653367348127440e-03
5.696100842388572907e-03
3.051432983071409623e-03
3.095758275569628743e-04
-1.564486140348337467e-03
-3.441158011481842971e-03
-1.286333449504848021e-04
4.031022770418416119e-03
3.701751081180977825e-03
5.144403302336594645e-03
6.733973584104426154e-03
4.900556995112674043e-03
1.530686093808285428e-03
-1.322377619333662277e-03
-3.013094600182122332e-03
-5.287717933554558249e-03
-6.063738357120740906e-03
-4.695586696281418664e-03
-2.528437427294695419e-03
1.367656095434385192e-04
1.852005283285031167e-03
4.418123614678614794e-03
5.413622056296044961e-03
2.325687129583023025e-03
1.877239422909930005e-04
-1.381786417924290092e-03
-4.640298603666922171e-03
-5.892343234222066628e-03
-1.858298998420896504e-03
2.549111678613585636e-03
3.548156732454684371e-03
4.593932921443596995e-03
3.066415142072803027e-03
2.878989556437897153e-04
-2.257177907668409152e-03
-6.835206139649696241e-03
-3.602831974359651038e-03
9.638570188710174173e-04
-1.503085515229518479e-03
1.011331673638652968e-03
3.808631090562492657e-03
4.337324058704661832e-03
5.285694092414760376e-03
-8.271362812819998793e-04
-4.055606512692900949e-03
-1.804131887573722686e-03
-5.032091300701316966e-03
-7.909475068283124827e-03
-3.173085762598581473e-03
3.753377347646150598e-03
3.435148373796780268e-03
-1.524326590060651708e-03
-4.312962294985691301e-03
-4.778358244971117087e-03
-2.655597748089793229e-03
-3.926474653284404981e-03
-5.860233234935434236e-03
6.314314806471762001e-05
5.365261742898893085e-03
5.720576285850749974e-03
5.966361807788703869e-03
8.120512867039166027e-03
9.575975368168810134e-03
6.426664339148524703e-03
4.003783770937095754e-03
3.353442527853865533e-03
4.359040303921531828e-05
-2.295232754290757807e-03
7.198295024187548836e-04
5.378021408206683923e-03
4.287106302130945859e-03
2.138905808394921722e-03
2.048375644059758933e-03
-1.460077434309420838e-03
-5.392346621484074391e-03
-6.307904637542894807e-03
-1.031842485393343159e-04
3.543824741655036970e-03
1.892334162270689201e-04
6.703880463896070598e-03
-7.023258351631042097e-03
-4.026852255038680661e-02
-2.495801475899133565e-02
9.110303974764413434e-03
4.688146114807893901e-03
-4.552094417231962106e-03
-1.871628951837305335e-03
-9.861633560309286672e-04
2.467151295813911453e-03
9.345565218806781843e-03
1.200228081346273179e-02
6.602596001243974180e-03
2.390481635305146887e-03
1.096890076519990535e-03
-4.045323857036007241e-03
-4.877609979604179656e-03
5.118576776329383706e-04
4.336171039423824224e-03
5.787088030986776641e-03
4.082822871235276471e-03
2.861941214469963714e-03
4.202415828651200752e-03
1.680817933158471533e-03
-3.209999282606508888e-04
2.225015146368110666e-03
1.248163306370313284e-03
-9.592296747225177939e-04
-7.458348218552827372e-04
-4.251372470114162232e-04
2.739206557548734284e-03
2.413700149485459127e-03
-4.471039027302389085e-03
-7.303005505772848516e-03
-5.969921620130736253e-03
-5.661120821869696819e-03
-5.344000167703389162e-03
-2.890499786564788062e-03
7.899530239462329399e-04
2.365129192572484971e-03
2.489857560075070357e-03
3.108916327071646439e-03
4.609360190762102141e-03
5.791412164741827941e-03
5.453483563856814827e-03
2.967898433679346405e-03
-1.278208051894449103e-03
-1.278198973348490487e-03
-9.172708391376734418e-05
-2.131054529868634927e-03
6.219067498231090714e-04
3.926762126869137032e-03
1.503309259962454323e-03
-1.823259855691473875e-03
-2.781829521606152787e-03
-4.870027827221509037e-03
-1.477087734957210907e-02
-1.448195109628856031e-02
9.128834309699973950e-04
4.441537510620119714e-03
3.388824172959911934e-03
4.690065573920278695e-03
-7.839914713188511847e-05
3.010025699315060227e-03
6.801432437243315823e-03
1.273416453909318857e-03
-1.966469618270510512e-03
-2.277688903112810598e-03
-2.433497534352282651e-03
-3.268843378815432590e-03
-1.068796617355847762e-03
3.566569181710057494e-03
3.506790970376882227e-03
2.817903299364997709e-03
5.384412449335884568e-04
-2.476133630643832882e-03
-1.090264072671695995e-03
1.829898804268377505e-05
2.768989117438200136e-03
4.432843793690483675e-03
1.769023253116294844e-03
3.141311898670921463e-03
5.564276330347514912e-03
3.192615005033874569e-03
-2.517831351214402935e-03
-6.554442312496645481e-03
-3.786233875367594776e-03
-2.121625640836751099e-03
-5.509230188027065649e-03
-1.870232172830677388e-03
7.137786210425091545e-03
8.036141668977040547e-03
6.462564955366550262e-03
4.910043323965182158e-03
-3.234071907511877099e-03
-5.518761128628182390e-03
-4.687101444331740613e-03
-8.622521590826567536e-03
-3.837518746121614845e-03
-8.055048174542647245e-04
-2.628312493701066409e-03
2.886941008805725319e-03
2.049931195038312819e-03
-7.093407547485153491e-04
2.532524549660919184e-03
2.110667128679043648e-03
2.353159183456257197e-03
-1.264269444591763518e-03
-7.892347928808047045e-03
-4.926154267655765036e-03
4.369850652780660791e-04
3.086717915187910805e-03
3.458556530247563088e-03
1.656080799141364723e-03
3.541476885542290103e-04
-2.698837461565258174e-03
-3.541400805888140612e-03
2.809290979968479614e-04
3.742800267762583493e-03
2.975545195216089834e-03
-8.326763744203682666e-04
1.090385863581157244e-03
3.218848902556715845e-03
5.589518068697073554e-04
4.174366793618633151e-03
5.737325589483225838e-03
3.021354521981394273e-04
2.786676901322027622e-04
9.286569311425963303e-04
-1.151175503673416284e-05
4.016179903646371202e-03
6.232672177432556360e-03
4.913216150676358958e-04
-6.478355726733747710e-03
-7.022621927994223724e-03
-4.711282917545189797e-03
-5.565651072653307434e-03
-6.436043215196025728e-03
-2.863414767522426147e-03
3.049925994216971434e-04
-2.065178823074397679e-03
-1.451702856533473515e-03
3.404298709026067071e-03
2.178007358261518141e-03
2.309600824866465799e-04
2.497647970571139492e-03
2.336100628127841215e-03
2.683243855826669927e-04
-6.999372513151788221e-04
-2.580789388294578240e-04
2.165833542969600525e-03
4.192887593029172820e-03
1.886221833760592242e-03
-1.622592817450022127e-04
3.487454645190516973e-03
4.109360794539504771e-03
-1.014609158331854872e-03
-3.135675217099994326e-03
-1.215113474294156120e-03
1.485965020768318821e-03
1.408186236271449961e-03
1.498711993908983121e-03
3.505135577693679286e-03
-7.447840935278149041e-04
-3.593443256791073633e-03
4.559959311033123992e-04
-1.181258834642298985e-03
-5.438080741673338714e-03
-4.297040438311403900e-03
-1.911837949141400456e-03
-9.724528062525882987e-04
6.225448329959164338e-04
2.656043116084893727e-03
1.231587418284135977e-03
-9.277186164400867035e-04
-3.292695537163026730e-03
-5.947880412302503778e-03
-1.674694279231573419e-03
1.573064572173171792e-03
-6.959994660122351910e-04
-2.545270706117890914e-04
-8.283361549424426030e-04
-2.015302098670619917e-04
3.744033167414969818e-03
3.841566412921327157e-03
2.584360902956748824e-03
2.204451658443219719e-03
1.909693166642569820e-03
2.623255827333691474e-04
-1.808956279798296747e-03
1.793618627975655062e-03
6.219671268181477426e-03
6.702723749558121141e-03
5.547341659675090499e-03
1.152928818792495940e-03
-3.510256080602346639e-03
-4.537596349559015058e-03
-2.729501196756437160e-03
8.792191909257881860e-04
2.316858044557787780e-03
-1.585719237680498737e-03
-3.725437159891619322e-03
2.948785747383896299e-03
9.014260231400676032e-03
6.194120366888392071e-03
-2.343246416887921971e-03
-9.248070161166202507e-03
-7.946290283924128950e-03
-6.093819433982493490e-03
-1.488561947149877633e-03
9.066096324951304630e-03
9.228203026591365321e-03
1.026980225794046388e-02
4.094055940274117338e-03
-3.025188832227669600e-02
-3.703470433360216835e-02
-7.010992926112809449e-03
1.582778749562586875e-03
1.260845458318094218e-03
8.161722070190360195e-03
7.594572229840139063e-03
7.224907991755858024e-03
6.107169296616425831e-03
3.195323447321511343e-03
3.103965700626567809e-03
2.327890002483093586e-03
3.728907385034712502e-03
3.062723566693300627e-03
-2.723361428731115811e-03
-2.090405524582487733e-03
5.492899824251202753e-03
6.945442405063667092e-03
8.460115582467685018e-04
1.039045715342783865e-03
6.711080766701477823e-03
3.782748540566374922e-03
-4.503681466453806834e-03
-7.464480756869353549e-03
-3.130173003950216006e-03
2.853675349391648387e-03
1.836205650799083936e-03
-2.461206819620645296e-03
-4.699424626542385904e-04
2.064140900422955713e-03
-2.373067656797693895e-03
-4.768571492554381057e-03
-6.223299660188356952e-04
4.468099473580528424e-04
-2.498337165751133952e-03
-3.507220959105421948e-03
-1.107396590140843819e-03
3.918173956612707939e-03
5.579763786622064965e-03
1.516964157834418047e-03
-2.489293907412505006e-03
-4.294298117981941269e-03
-4.697341775065136914e-03
-2.869100514440139221e-03
1.738125019706422561e-03
6.185245941247552795e-03
4.791352156332507294e-03
-9.823242209922623813e-04
-1.798731692893944939e-03
2.947600203941054889e-03
4.623956320960901333e-03
2.140842025628100775e-03
-4.132321202637713464e-03
-1.069453396339144040e-02
-6.538494757128659844e-03
3.487848185670201426e-04
2.452835300732647116e-03
7.567893276549435277e-03
5.609669144743163055e-03
-2.443625391171445112e-03
-1.647230655099857135e-03
-1.352524058001050491e-03
-4.069054757815496019e-03
-3.066992784522065956e-03
-1.269141962260622635e-03
1.229695032128472025e-03
2.801740469705660047e-05
-1.884751841769229672e-03
1.962655316956526345e-03
2.687034286228758614e-03
1.576109153401437837e-03
3.686083268819653324e-03
2.892476709972819412e-03
-4.342048378153866121e-07
-9.485503579413452277e-04
5.589005568856872819e-04
2.331048364485793604e-03
2.874639600806287547e-03
3.424875977524536978e-03
1.252062333803487422e-03
-2.271830187463482528e-03
-3.167461382125042000e-03
-4.377774726240617198e-03
-5.029710824631215479e-03
-2.227702389819209705e-03
1.790573930096115254e-04
-1.286218659486925786e-03
-2.358558654679725978e-03
2.752161651597045348e-03
6.709379007865861298e-03
2.709847178662787726e-03
1.793777657779736801e-03
6.131859071666603996e-03
4.241041563176010248e-03
-2.259268055260429085e-03
-5.249683291968135213e-03
-2.224627023496892437e-04
7.606107336140169491e-03
7.172973795903092586e-03
5.458784552558328465e-03
5.259926464311846621e-03
-2.178077039184809528e-03
-7.727008308983746195e-03
-4.921132825041968709e-03
1.209035721605271211e-03
2.775094670322763961e-03
-1.950494247106134482e-03
2.108744733928330506e-03
7.652596621990536557e-03
2.267878733037260747e-03
4.966297235194495983e-04
9.503235186048692145e-04
-1.547582174208342884e-03
-2.831928216959053203e-03
-4.398218800629133049e-03
-2.266293702658057560e-05
5.741703671845703114e-03
5.819339986835299870e-03
8.291564929036565959e-03
1.146098509653373926e-02
9.424829332503520396e-03
5.240052418541492514e-03
3.347661023692851540e-03
7.488814409887902587e-04
-2.344484476870174836e-03
-7.027612088533042147e-04
-3.241801935299928536e-03
-8.222965011905883012e-03
-6.847758544487633596e-03
-7.369336856935677568e-03
-7.227439967751056807e-03
-4.886774979926501901e-03
-4.091366998165222278e-03
2.004834497185756150e-03
6.029246397587145756e-03
4.579972549153893228e-03
8.781321915630030048e-03
1.113791918995136847e-02
2.091250969516417462e-03
-7.262201131072093530e-03
-1.273991358475590890e-02
-2.416295521069763974e-02
-3.524359618112825332e-02
-3.544799966686815185e-02
-2.995469328593320171e-02
-2.587235740868232964e-02
-2.334666092746082167e-02
-1.398944303758442240e-02
1.483308844686794057e-04
5.508468594383707923e-03
8.241268597099497828e-03
1.554681186718899141e-02
1.844551078772559832e-02
1.492836992560458639e-02
8.726147848986618924e-03
4.450451257594926525e-03
5.316936910221867034e-03
4.322942161348920960e-03
1.588303977899006240e-05
-3.335868026274001175e-04
-2.597494868961831849e-04
-1.842550556985825608e-03
1.594497434338771388e-03
2.601822247311995698e-03
-4.626315238640032849e-03
-3.731522339587460720e-03
9.722105470818856107e-03
2.224876211371822760e-02
3.350568584538370087e-02
4.196617753766630765e-02
4.470437369580128328e-02
5.733936406239314998e-02
7.366882045319647632e-02
7.523207138212976985e-02
7.150925033315119750e-02
5.828440810795701421e-02
2.577771872113085797e-02
-6.532749934670448698e-03
-3.026252115159293321e-02
-6.059927190094292759e-02
-9.264206841539576742e-02
-1.066499097844583605e-01
-1.088245446839872510e-01
-7.967538062748676098e-02
-1.018358074612216516e-02
2.480754926790344067e-02
4.709711162168056520e-02
1.274372399151406932e-01
1.730665303672213606e-01
1.039993276824454083e-01
-4.128697661159020510e-02
-1.822092326547024022e-01
-2.607098245320079166e-01
-3.035812173395130986e-01
-3.043989171066445176e-01
-2.366147193271950777e-01
-1.138342520351491582e-01
3.272751703608717255e-02
9.293405770225890428e-02
9.702706591842939765e-02
1.703630466717098169e-01
2.327555679550232237e-01
2.414148337599363037e-01
2.049203563656419314e-01
6.140679468780135819e-02
-9.470983709446385845e-02
-1.486683696708752944e-01
-1.168661502099095223e-01
-5.328599667272289342e-02
-1.366534527443971983e-02
5.594829395972177044e-02
2.281478394119610120e-01
3.897046848205559244e-01
3.680668815049932263e-01
1.936543236226451470e-01
4.789464146964719088e-02
-2.424743933204314209e-02
-7.765218684528119031e-02
-1.158182596355631228e-01
-1.441615531610155043e-01
-1.504270608527648323e-01
-1.226464920145577675e-01
-7.894131586986401217e-02
-1.828627344095122911e-02
3.394804255703539470e-02
4.447307989901132241e-02
2.344015792210137755e-02
-1.955492659824970350e-02
-9.508260142654202662e-02
-1.859798184391870390e-01
-2.338908752812522696e-01
-2.369552710141579754e-01
-2.104662829849422712e-01
-1.344611437768515050e-01
-6.764959253757307778e-02
-1.651859955351384079e-02
9.447826887977210653e-02
1.927816270226233308e-01
1.994666275116897258e-01
1.552935867529225966e-01
9.519847694681714267e-02
4.713199716067983241e-02
5.566639589116772688e-03
-3.326102831508899460e-02
-3.535382961204609070e-02
-3.111281293176691720e-02
-2.367334593834588899e-02
2.433991728682255093e-02
7.086425006634809731e-02
1.106590176534275743e-01
1.538885878345674085e-01
1.359304904330943253e-01
7.194767902944732008e-02
3.080242509630833764e-02
1.949286447706639934e-03
-2.682107991283445847e-02
-3.855545133898306137e-02
-4.223334713095628495e-02
-4.662322886975561742e-02
-4.639247343081415176e-02
-4.544544350521831366e-02
-4.130166696362104484e-02
-2.941712953541744668e-02
-1.717614875296081048e-02
-8.466888283328748155e-03
-1.078847256313183317e-02
-2.072154429165583983e-02
-2.524390660750800569e-02
-2.551395868043580123e-02
-1.911082021481830609e-02
-1.680308979782079923e-02
-1.330087937814800406e-02
2.403443722240092978e-02
5.187611054843430797e-02
2.604509015800153537e-02
-4.531471204154468961e-03
-1.302055368162201993e-02
-1.044973515277190096e-02
-3.167633868384045221e-03
-5.683665535433321883e-03
-8.294644207281962750e-03
-2.348717393929479914e-03
-1.473693079458349283e-03
-1.121634143312465887e-03
1.432157772554912929e-03
-2.740272559190074213e-03
-9.197722622894295361e-03
-1.060294990499252576e-02
-6.274359746463416439e-03
-2.988798583851171053e-04
8.402787216490580774e-04
-9.836106640673920008e-05
9.033977050119306601e-03
2.425715098087962568e-02
2.125696751070144455e-02
3.788182296192467435e-04
-1.085987384790555906e-02
-5.463164692929125925e-03
7.248558767190271812e-03
1.808686805286279994e-02
1.706612719877761628e-02
1.065006162602859068e-02
8.227270435729834228e-03
7.397356152322835665e-03
8.603574422214058104e-03
1.090685841844628648e-02
1.156815321826296095e-02
9.480267194865983280e-03
5.265564301096581183e-03
1.139751536587069094e-03
-5.846186057323709759e-03
-1.107188657590034431e-02
-1.118758909070089076e-02
-9.385367227632068071e-03
-7.419211581643585501e-04
-5.596673067532502086e-04
-1.316012102008434770e-02
-1.129099476955018264e-02
-6.806429807903677243e-03
-1.744558104538858692e-02
-2.900233856312729036e-02
-3.948831750948343655e-02
-4.266946442609128448e-02
-3.375490409486182897e-02
-3.026378551452777246e-02
-2.409257673069538710e-02
9.018143750780039866e-03
4.310425583305082381e-02
4.372540079738455876e-02
3.676905451060296509e-02
3.723598544221512485e-02
2.068306007570041433e-02
-5.960840055707097157e-03
-2.205329084939519277e-02
-2.394941221495821768e-02
-1.479772707342926798e-02
5.232250365877239885e-03
3.326630650374930859e-02
3.793550624551596945e-02
2.198639441843890444e-02
2.206655389077246190e-02
1.825249280883817563e-02
1.872222884487124593e-03
-1.452630707316312185e-03
8.804757155353258981e-05
9.640519059908489148e-04
-4.808978834842447337e-04
-9.244736201766565187e-03
-1.232202941666415974e-02
-9.905490757722745093e-03
-8.001495598919680305e-03
-4.246744662095182712e-03
-2.531719927276946183e-03
-7.435647507659298369e-03
-1.903977889588244488e-02
-2.626505989365021665e-02
-2.310145994710986403e-02
-1.407429421587395348e-02
-1.354855641259585224e-03
4.659624661021280478e-03
7.033513134772422307e-03
1.336261794185669184e-02
8.386496630809876784e-03
-2.090422143660286558e-03
-2.099743619274335856e-05
8.306956826622221082e-03
1.302646926361096351e-02
1.036105207790811826e-02
6.532418675502322386e-03
7.360278223569807245e-03
4.892437670163386071e-03
-1.314890099001056033e-03
-1.067615375325509011e-03
3.440570883201617310e-03
-3.912289957841928712e-04
-6.050011830502146325e-03
-3.677221112349199437e-03
-2.935674448018355150e-03
-1.336297418226655527e-03
3.467149140563520124e-03
1.692013036067581671e-03
-2.852043875757811608e-03
-6.066733587517409224e-03
-4.538512321090887140e-03
-6.092507918673724376e-04
-2.327665816063453821e-03
-2.334434544622604642e-03
1.219796521414517020e-03
5.361774134134475803e-03
7.850763890963018826e-03
5.871628858315144049e-03
6.657108769050897740e-03
5.853981202955317771e-03
2.661946662811536229e-03
2.394304491686888997e-03
8.229649101896025377e-04
6.775193067243673567e-05
-3.279758357553438485e-03
8.130605185433805414e-05
9.648955875243869426e-03
6.053479063133175402e-03
3.138510422130987021e-03
-5.892168105741744065e-03
-1.202812220622051509e-02
4.726635326804443614e-03
-1.650273971605333706e-02
-4.954662660381230904e-02
-1.997517046988071115e-02
8.321644008832628642e-03
4.994319174384534259e-03
6.911363841017251729e-03
5.261184351206125293e-03
2.683326027404244439e-03
5.629507587576744812e-03
7.908395984840369333e-03
7.578587257603224686e-03
2.197871522876112746e-03
5.661023276824216598e-03
1.299854240721294400e-02
8.339861002418061039e-03
2.646970055114212898e-03
3.998392326472901908e-04
-3.096622973824984457e-04
-1.563690444611192873e-03
-4.170072090120245829e-03
-1.080045793634751847e-03
-8.847078423890299354e-04
-1.850432900893670589e-03
1.449138863947903224e-03
-2.320442842993428786e-03
-3.092522875458057503e-03
-3.496547021698882297e-03
-1.102294458585456084e-02
-8.537177262668893540e-03
-4.625325112455703179e-03
-4.678094588364284205e-03
-1.411873045141596094e-03
2.203740961241900786e-03
8.021505240601373848e-03
7.784304939807215259e-03
6.392511723422811265e-03
8.444675865020834921e-03
4.968707141630701249e-03
3.118228237549129905e-03
1.222001861251177700e-03
3.762972777569641332e-03
6.514426465624708305e-03
5.466439065472327666e-04
3.559657320193433758e-03
5.221330288063418326e-03
5.095538961739312471e-03
5.822812338607128574e-03
2.555439349817760324e-04
6.197469079913586754e-03
1.289902920293581898e-03
1.200372085909313198e-03
6.985486347717441598e-03
-2.429012043872566529e-02
-2.566535498450273414e-02
-2.068732242374115779e-02
-3.229722717295167161e-02
1.114898939770376726e-02
-2.976672432170845636e-03
-4.880073162852503060e-02
-7.157354162186464665e-04
1.916320695324242804e-02
6.307357332162592117e-03
2.000182401022245968e-02
9.346060581856420468e-03
3.041236959236270822e-03
3.227319646820965473e-03
-1.351125987418909337e-03
2.044101158129519018e-03
-2.164688181189761661e-03
1.347029723346249890e-03
9.565757747675499023e-04
-5.089529536617393504e-03
3.937268365239872045e-03
1.038985801628562744e-02
1.613784925380955942e-02
1.689769703816805177e-02
1.095993807135799483e-02
8.361832658057651371e-03
-1.224257740170742485e-03
-3.899605445669910696e-03
1.801962797696277465e-04
-2.052258058171048220e-03
-2.167281784386823791e-03
-2.198407828123342348e-03
1.653223887375798598e-03
5.694380699262978872e-03
2.356525214300918530e-03
2.617928257919743557e-03
8.260505172294723211e-03
1.176375883394739814e-02
1.537625722515982953e-03
-1.418992909885825708e-02
-1.471519298275929602e-02
-7.569315826390882011e-03
-3.547489247626659653e-03
-5.500170471068253387e-03
-1.006770789940398571e-02
-9.263352078051468805e-03
-9.299641454916700647e-03
-1.237537782454840515e-02
-1.266101115224339650e-02
-8.195653675120293663e-03
-2.824872127236831287e-03
-2.307463564937589813e-03
-3.716795226444755801e-04
2.781178698946554749e-03
1.632349883707223236e-03
2.440406693186050226e-03
3.579889067039378550e-03
2.153559694886687022e-03
1.178186296157499036e-03
2.635192505305990803e-03
1.276593513145344444e-02
2.275310360856978159e-02
1.862727258603068606e-02
1.290305432623911619e-02
1.206367311052207285e-02
3.850460327400535496e-03
-4.596128207242551784e-03
-5.260955812762252784e-03
-6.093737770380426230e-03
-4.719443295522037646e-03
7.868226082391574549e-05
3.749725930385048277e-03
7.963623917928690926e-03
5.178148200182097934e-03
-6.207339170541393593e-03
-1.152907035347857864e-02
-8.914766318438705275e-03
-5.374095836719153772e-03
-4.666528319511429115e-03
-5.465746667190085790e-03
-3.846012200922685823e-03
-3.765017156497277220e-03
-3.305074588872872849e-05
4.893508871726432764e-03
-4.940964012828865520e-03
-9.992065857613344551e-03
-9.756776375859145013e-04
-1.966172918441554552e-04
1.510087484486645265e-03
6.665248057402738298e-03
-1.177030663912210931e-03
-9.908670010118723198e-03
-6.889749647193145130e-03
3.692226303989219055e-03
1.248070715545401485e-02
1.453594854579992775e-02
1.226062585078522595e-02
5.873720313052656523e-03
2.176154445666348899e-03
-9.450076937204498866e-04
-7.845704878066262281e-03
-3.812931588646637383e-03
2.686375146410597582e-03
4.484552938339052882e-04
2.281977193916468090e-03
1.528849079205206723e-03
-1.716011784447136514e-03
1.608276633128589983e-03
-7.733953410185502760e-04
-4.731146123070637324e-03
-3.660504287588561660e-03
-3.730337127081718215e-03
-4.245911672513190101e-04
1.192227489025118273e-03
-7.450117780309438833e-05
3.828030031737194531e-03
2.164405449318847208e-03
-3.995972557945361332e-03
-3.244279250972698873e-03
-4.242243661786298213e-03
-6.746813676091069356e-03
-7.282898967987418409e-04
5.793614233760685170e-03
3.494395964552306916e-03
-1.248287752643458242e-03
-4.807734708892872494e-03
-7.145759578177260200e-03
-2.607994667793978733e-03
1.649268056206666232e-03
5.047362388561756020e-04
1.642306069036503788e-03
4.515257515983988994e-03
1.009398756401792656e-02
9.710915346624453617e-03
-5.685027826914047702e-04
-1.796483098101466381e-03
-1.966622192074400123e-03
-4.687149785146931674e-03
2.108445756998128702e-03
1.442012388405589053e-03
-1.784620701579746989e-03
4.180928426279184248e-03
5.448517332497679506e-03
4.438546948768034434e-03
2.735745640277105570e-03
-2.893540911608621490e-03
-8.008995225284556291e-03
-8.985712312800838916e-03
-4.313982147415080202e-03
-4.544900869147818433e-04
5.867201597517642192e-04
-5.033068467333410602e-03
-9.371929538728488232e-03
1.356779297761140195e-03
5.799648883712257147e-03
1.912742156184844182e-03
4.581333715981883090e-03
5.447225740187301192e-03
4.736578026560266975e-03
-2.122713755515084552e-03
-7.540937927234810795e-03
1.165092383660003891e-03
8.038871715820673086e-03
1.052575888732000531e-02
8.184249979031851460e-03
4.017934855307274465e-04
-4.844785642994770165e-03
-8.499285634355483593e-03
-4.499048067750703768e-03
2.243476460248410888e-03
9.649709442753196323e-03
1.357832229398881971e-02
6.392351874087223718e-03
8.701079935188392456e-03
-8.840901891567365042e-03
-4.553585246481824111e-02
-2.840498651151912926e-02
4.723665990176333443e-03
5.808550176368605482e-03
4.794807189452540350e-03
-9.788874199281999140e-05
-8.719345655948672639e-04
7.674588685151192274e-03
7.065154865499751434e-03
4.020962439466558083e-03
1.824687864716520360e-03
-6.464055501721677676e-04
-4.558658094049592921e-03
-6.303319291325496648e-03
2.501149839267274313e-04
-6.009912012920916031e-06
-3.740442310799269206e-03
3.599256230372649239e-03
1.332042551630727156e-02
1.683319350965147704e-02
1.349708091544783543e-02
5.753667358961348129e-03
-3.733217525469607976e-03
-6.200858218173909558e-03
-2.114338496408154928e-03
-4.773500938641436243e-03
-5.347705603167517141e-03
-6.051165012944340754e-04
-1.179138191245008259e-03
-8.257278487771395597e-04
-6.139350495070366228e-04
-5.428271291688934429e-03
-8.996324295247833114e-03
-8.539944355848785168e-03
-6.889791325053113910e-03
-7.104345009259126209e-03
-5.315791589173383958e-03
7.839991894100994344e-04
6.198356042436700339e-03
6.905843763512910065e-03
5.627037855448917963e-03
6.965949896933597632e-03
5.359448550002412701e-03
6.749366017054109776e-04
-2.138281655683461208e-03
-3.993332196766909668e-03
1.339878961487774240e-03
1.021809580555649299e-02
1.074167209600329631e-02
4.945281389336663759e-03
3.542248844755509912e-03
1.066673779569662917e-02
4.433175674730393222e-03
-1.376437448870944553e-02
-8.536468537866910913e-03
2.811338102752046920e-03
-5.314140232704786179e-03
-9.553551801144545205e-03
-5.876254329792140671e-03
-6.779302740417592760e-03
-6.327431334585580276e-03
-9.471397162517261690e-04
5.389967066790358682e-03
5.317884415488748594e-03
-1.345929104976583248e-03
-1.969484028780322388e-03
3.448831766164138501e-03
4.442696849669998740e-03
1.940786754935510923e-03
-1.361169369104731335e-03
-7.433256893673458217e-03
-1.589870151219868050e-02
-1.824028918973759003e-02
-4.705597995043797090e-03
1.233990826811318629e-02
1.593660106894508044e-02
1.137148670989140097e-02
7.228332615877605498e-03
5.220062756836229244e-03
3.082716047079701784e-03
7.250011071238526145e-04
3.769345878311880700e-04
-3.060925358084018964e-03
-5.898774300064132253e-03
-5.380326443277529645e-03
-7.153446622540223301e-03
-2.713172608181665425e-03
4.407253696643564748e-03
4.878196194152835743e-03
5.703251844620410398e-03
2.440521825662357678e-03
-2.267225737702698290e-03
-1.643040254707364483e-03
-6.063670953218712467e-03
-7.806186177502246956e-03
-1.313224514816963625e-04
2.814651149232165299e-03
1.730807304862968209e-03
4.258689450804251965e-03
6.086956369043806069e-03
3.663326022404578362e-03
1.825650534684940913e-03
3.359230939667277090e-03
3.014799062685603100e-03
-2.201477633148025623e-03
-6.039242726800933027e-03
-5.818539079413536253e-04
5.913771989107348935e-03
2.981148142613293875e-03
-1.054435612172015604e-03
-3.733420983461625819e-03
-7.566228321232343172e-03
-6.798035836056573814e-03
-4.498327639535197250e-03
-3.137359412086016940e-03
-3.019440691802134321e-04
1.619623597736839131e-03
3.555538091466498886e-03
4.658815115646705932e-03
-8.429762064725472310e-05
-5.648397658672739928e-03
-3.020590984880622016e-03
2.084873917279158554e-03
1.840522253915196412e-03
1.181531443088697881e-03
2.443119254869161473e-03
4.519426368973047427e-03
5.722841761963567107e-03
1.793356004680074977e-03
-2.635007019623641228e-03
-5.227084488761626554e-03
-7.977368390946098717e-03
-3.881697477299055239e-03
1.163558267589101568e-03
-2.093365299362146426e-03
-2.334520553374333420e-03
2.460654611387461110e-03
2.282039234950195613e-03
1.870836412014544297e-03
4.402013979372412789e-03
2.685827497550492132e-03
1.081992337227694273e-03
2.282540922327571092e-03
-9.290548118433793190e-04
-3.150503225518960088e-03
-3.258239039062658070e-03
-4.251293371711525881e-03
2.153602463715762957e-03
7.742654362390480327e-03
4.368603027262591039e-03
5.438893657517000681e-04
-1.789484385043160373e-03
-1.789119146129079796e-03
-3.703128936722171159e-03
-8.258534054202243055e-03
-5.558139166351069339e-03
-1.272076205773197766e-03
-6.729686064251030842e-04
9.519361812760679560e-04
2.121396672162500358e-03
1.199362561288352426e-03
5.019831982909924665e-04
1.941418778805680846e-03
1.439418837138668099e-03
2.438590528253032654e-04
2.242599444683090332e-03
5.750975288963755885e-03
1.233059630720996502e-02
1.136131840246756147e-02
4.088064770807143568e-03
3.837149710389666565e-03
-9.986771576553179521e-04
-5.893652174640163534e-03
-5.472369911179346749e-03
-7.025694347520154877e-03
-1.056832031570801916e-03
2.348882532210109370e-03
3.069532142412342585e-03
7.471169397364923678e-03
3.653509466684424275e-03
1.548183467580478961e-03
-3.539333209606201729e-03
-1.878030078908835779e-03
4.543407895479249087e-03
-3.254641309521301429e-02
-5.210272617094913877e-02
-1.006122151218334301e-02
1.063296554841100180e-02
9.026052322608821288e-03
1.188814739029189597e-02
1.735147777739142437e-03
-4.355082599091944159e-03
-5.791521007974891576e-03
-5.057485562245291576e-03
3.701562055361914093e-03
6.817451852637607633e-03
7.636383658440437650e-03
1.020516516577041864e-02
9.933102541677091279e-03
6.916782506449997182e-03
4.621831641385834057e-03
7.051470182389401112e-03
5.825219212919463714e-03
2.608756598196302224e-03
3.595836085341125050e-03
2.015873126495049735e-03
-7.415779840687968731e-05
-1.350896348552993464e-04
1.774922079203085888e-03
5.959767488641025575e-03
4.779156497675019800e-03
-2.242607911404505012e-03
-6.201897774030230154e-03
-4.617902623310372184e-03
-4.568946506180699731e-03
-6.776816168859407970e-03
-5.619930026764930961e-03
-3.553840029120403088e-03
-2.179322954932041024e-03
-9.116492972822010793e-04
3.171608551181434826e-04
1.215857372556352180e-03
-6.476347011945536060e-04
-1.678973835731966974e-03
-1.507364004916703516e-03
-2.244114474997487268e-03
-6.150328649477503073e-04
1.218763898885681478e-03
1.454782430902212516e-03
2.341074182107653889e-03
2.165158197103577743e-03
-3.533527845489778298e-03
-1.017491585262471181e-02
-9.427522766224390172e-03
-5.191211187648096977e-03
1.431611691464134599e-03
4.463821810468877535e-03
-2.289476343515275177e-03
-1.291147831731105297e-03
2.746113723110890290e-03
-3.099230249422135850e-03
-2.846198969141025548e-03
1.598227518286743842e-03
3.434245267103165807e-03
3.687097891940169150e-03
-1.058886770834408875e-03
4.413007136264947283e-03
1.366550908033551358e-02
6.274753861142457791e-03
6.691478577611038262e-04
4.078612482882973747e-03
5.296182659917898078e-03
8.043341262050165280e-03
4.874480653394324368e-03
-3.729478488912903698e-03
-6.387224026493158735e-03
-7.418494034019632900e-03
-1.412816301384315406e-03
5.041965249396261270e-03
-8.718099890295371700e-04
-2.819378673501390931e-04
3.901440361783760011e-03
2.766481558166316765e-04
5.622001752219612939e-04
5.654144627005059254e-04
-1.536331483933287044e-03
-2.817964305733371404e-03
9.057368438094025353e-04
1.114396541332822628e-02
9.191795097979883755e-03
6.580757905257596761e-03
-2.702400923443536683e-03
-4.257133284420967778e-02
-5.219700366504870931e-02
-1.465211003922580087e-02
6.639077743344812092e-03
9.746420244478845585e-03
1.096181495165519243e-02
1.057561212227177763e-02
1.106778396641669784e-02
5.034616419996121653e-03
2.654039154759014162e-03
6.045038131449314948e-03
2.692452344473673237e-03
-1.846120098799342545e-03
-3.121865593919851811e-03
-4.394353949326219345e-03
-4.444120641611432575e-03
4.055528728315831014e-04
4.210371561531098608e-03
4.552295044063685465e-03
7.882491586562923383e-03
5.798864299081154736e-03
8.943538593900058481e-04
3.009954435807770095e-03
2.131670526392554551e-03
-6.661918858292226967e-04
-1.179206081938528471e-04
1.380401438158607771e-03
4.178120026743647672e-03
3.127989396870708462e-03
-2.349810596003326906e-04
-2.039937335669725869e-03
-3.589488382269973108e-03
-3.072709672790465991e-03
-4.481484358568215906e-03
-5.803443868576066249e-03
5.246130370811709787e-04
6.808346014939586736e-03
8.396552282946320722e-03
7.846750700255564898e-03
-2.431189911321328129e-03
-1.517379366564660173e-02
-1.265827493338702800e-02
-5.086473095029322294e-03
-1.792739821737453481e-03
3.176739242535021076e-04
-2.135896700211582268e-03
-7.713076437965498636e-04
3.481773621230263051e-03
2.251875386747514193e-03
1.799380199690648512e-03
-1.289447150972165747e-03
-9.843511979319176635e-04
7.242639940453597528e-04
-1.095111657330126616e-02
-9.706190512168602624e-03
5.544725496000841442e-03
7.090958422161076566e-03
6.890068178606602659e-03
5.063718646272339502e-03
-8.279611271671874755e-04
1.300773655281042612e-03
-2.432602480531703150e-05
-2.365827291771856276e-03
2.226187276890962546e-03
2.743880528124229435e-03
1.583328732575599307e-03
2.961399355889336640e-03
3.516501473970311785e-03
3.580139529607120723e-03
3.147006608058667589e-03
2.122582461262777567e-03
1.404957755728155266e-03
1.583681638961256495e-03
-3.485839047560075794e-03
-9.764792365486038572e-03
-2.566106831686504677e-03
4.376842266045149164e-03
2.637844299692018030e-03
4.466041879690726968e-03
-1.182766813281880235e-03
-1.012331118209615528e-02
-8.262806264729211786e-03
-7.950416421430529443e-03
-4.911002164501883718e-03
-4.306325710850832144e-04
-3.292005320881394130e-03
3.268365965609012092e-03
1.081751697424431467e-02
6.112501934160938059e-03
8.868326371645368937e-04
-3.078454309225962544e-03
-2.655551273172463735e-03
-1.666473441746512004e-04
-1.490514079977038305e-03
-7.834304901259830922e-04
-1.032842958623960555e-03
1.295125354542086171e-04
3.130208454155874141e-03
2.830916437606813361e-04
-9.417187103549324537e-04
-2.156190363882324983e-03
-4.956445878627591985e-03
-1.524546562956930742e-03
-1.524370154297286688e-03
-3.082181831887014813e-03
4.228203666234184831e-03
9.084500069741487452e-03
7.371711035936214483e-03
4.369780252408648862e-03
1.219662718885003438e-03
2.457781626865610664e-03
2.453045832559020041e-03
3.130006867197381677e-04
3.815260342397499681e-03
1.390949536860611353e-03
-3.409564054511092165e-03
2.597839979969600050e-03
7.992654538660619659e-03
9.275191141007830750e-03
1.770376700229673228e-03
-9.777769826415132898e-03
-7.902781217847681949e-03
-5.860060866431119828e-03
-2.348347475565321692e-03
2.685467097106601381e-03
3.296942061179375556e-04
8.308528706065014535e-03
-7.660636345703225776e-03
-4.237656642972920107e-02
-2.452415002415578651e-02
3.596102943185412043e-03
2.624134948640483630e-03
7.866815252265249581e-03
5.973996485218393757e-03
-2.743579808455273543e-03
2.005992034972583268e-03
7.905484783977101068e-03
1.038015574376345215e-02
8.955656686923248525e-03
2.986280562601149272e-03
-3.026620815232623860e-03
-5.812413819149615107e-03
-2.927461740786483930e-03
2.940212786637179648e-03
6.800370060765673769e-03
3.813083284415098341e-03
1.753112510731203453e-03
5.563370533309039065e-03
4.366103465197241490e-03
1.953038174452531020e-03
2.754545351124757045e-03
9.510684984707458087e-04
-8.526933249751774812e-04
-2.896768191622690457e-03
-4.674108977325293346e-03
-2.125986667992199597e-03
1.968407782419266780e-04
3.857181740443873098e-04
2.038357531160497286e-03
1.879679946290606623e-03
-2.478564246917382748e-03
-6.244402038945416795e-03
-6.511239218576913776e-03
-2.182492683512320380e-03
1.498413194203155599e-03
1.518272670190948508e-03
2.852253112122771477e-03
3.632822114939437594e-04
-2.720294615070254548e-03
-9.651505030752803409e-05
2.545054159080626321e-04
1.089657452811825314e-03
1.194686433016234990e-03
-1.246361474973362374e-03
-1.318989033559199919e-03
-1.504483534140736668e-03
3.792536054161194190e-03
3.931528435376018329e-03
-2.436836713595819538e-03
1.233533027902714626e-05
-9.503124533056963100e-03
-1.829176073705017849e-02
-5.017650462933927538e-03
1.910456052604564414e-03
4.273512734672029953e-03
4.864716019935711767e-03
6.938867780198767175e-04
8.380615951863706892e-03
1.037261070064075981e-02
2.237057460482444037e-03
-1.021350063737264243e-03
-2.437053915188237916e-03
-2.568729665059011941e-04
-8.509605159738733255e-04
-1.422537883646992143e-03
2.845465805922472134e-03
2.106849219742748351e-03
3.362617834259242888e-03
3.433083251547983366e-03
-2.037985951993905118e-03
-3.997873049608651266e-03
-6.235993936310417658e-03
-5.737042827526052380e-03
-4.292503678650541610e-03
-4.398506609224053093e-03
7.192666631596302722e-04
1.519560895576053299e-03
1.034501222735540252e-03
3.497844242959177469e-03
1.527848147357029843e-03
3.511647285616076048e-03
5.556799505109950681e-03
3.357868633519902734e-03
1.053816364657988872e-03
-5.094499574510015678e-03
-4.914884989543715638e-03
8.564154947050968934e-05
1.967585820013298143e-03
6.777700907950649778e-03
4.786903340438293346e-03
-2.094378276623266432e-03
-9.458148242171923346e-04
6.560045847970162212e-04
5.340765439791038145e-04
2.721208896104365216e-04
-2.289867116660039819e-03
-2.392165336095661201e-03
-2.291186491220155766e-04
-1.076130743893608400e-03
-2.520337374739773598e-03
-1.207219918285681046e-03
-3.044706241122668595e-03
-7.078684475152455594e-03
-5.673790406880511658e-03
-1.029885432244262650e-03
3.465398290474119326e-03
3.595149344600652441e-03
2.273249431944464327e-03
6.319538707099833959e-03
5.214597921419488954e-03
-1.049654668341892154e-03
-2.584483588531770459e-03
-5.272472781624170171e-03
-4.651084426056207449e-03
3.712624927590620939e-03
7.247994675303110097e-03
6.182179157215625387e-03
6.746196068837762190e-03
5.436181824628242426e-03
1.886085012252660276e-03
-1.548875411792825438e-03
-4.762255929228328792e-03
-6.388641221458999167e-03
-7.736876371819982959e-03
-1.082572200336723127e-02
-1.053976728967445306e-02
-5.121662425984423866e-03
1.491607070823554749e-03
7.411328829538528160e-03
8.507037082045558127e-03
5.169796908219329544e-03
2.680447054221072375e-03
3.176814919991980193e-03
7.155835107770722181e-03
9.246858870246368184e-03
6.920360279507751546e-03
2.328114092134829765e-03
-3.989248666954440387e-03
-6.069456425947820401e-03
-8.774620599353572317e-03
-1.646461999741924420e-02
-1.746506856405263819e-02
-1.669676954134849747e-02
-1.763401525735726338e-02
-1.361752466341342727e-02
-1.064441507370563790e-02
-2.292660054085379154e-03
1.244536048769914922e-02
2.003386053640247161e-02
2.141517671217404994e-02
1.662199027451740502e-02
1.380676691022596561e-02
1.938464424373693290e-02
2.072745974553219864e-02
1.817582734343317630e-02
1.446697234751630895e-02
1.103940391451373529e-02
7.734621136060835025e-03
-3.008169752204713655e-03
-1.126765187203102384e-02
-1.618760013019511501e-02
-1.770042962346726756e-02
-1.258316599304402754e-02
-1.922149548793528409e-02
-1.312030489179268934e-02
