-2.052714116772773670e-02
-2.590958958853624081e-02
-1.162440306635996456e-02
-3.922664401287515555e-03
1.051466363273055593e-02
1.576927887586240112e-02
1.642178021225534912e-02
1.904644705518819536e-02
1.792042073712133213e-02
1.920166293062384316e-02
1.510169343299571677e-02
1.029869319310592647e-02
8.313157425095116931e-03
1.945936405846478926e-04
-5.272432167551649278e-03
-1.013121017276962660e-02
-1.969202382415108366e-02
-2.532460168405921766e-02
-2.526165878080377861e-02
-2.271822518680696040e-02
-1.964166766714737014e-02
-1.347209564643027380e-02
-5.921086634787395275e-03
-1.403508828589857677e-03
3.739112813099480705e-03
9.109177685881182998e-03
1.313173822743319424e-02
1.401720091418526097e-02
9.066469468824781691e-03
6.553193925512779822e-03
9.175604822446522743e-03
9.791529305916842410e-03
7.576741917595465441e-03
2.974257077291371770e-03
-2.177935561997098365e-03
-4.224045001089949368e-03
-6.740212353001356210e-03
-1.110930640583565263e-02
-1.025211626734641099e-02
-5.376052426095573843e-03
-5.570914278973985133e-03
-7.250450691467505947e-03
-1.112147282038891336e-03
4.980122771608751740e-03
8.916024715006409590e-04
-3.379624138286334550e-03
-1.537544745174049265e-03
5.303920351683196182e-04
5.476169581545828335e-03
1.030916232597452534e-02
8.513680713704535608e-03
6.280269239515194786e-03
3.250041997869041691e-03
-2.535416377408603907e-03
-2.846558619760736122e-03
1.168301466800857795e-03
5.168321506777423654e-04
-5.826706759345800938e-04
3.461657928050422897e-03
3.005316107435753066e-03
-4.376392653096896116e-04
5.071176015728736178e-03
1.511551825423088601e-02
2.028163862086448943e-02
1.393014278003897564e-02
6.233520507854423652e-03
9.934058173538458728e-03
2.693251641862690407e-03
-2.304903390088836393e-02
-3.859663743638519495e-02
-3.147668047665065638e-02
-1.217913303632585202e-02
-2.101442961502590460e-03
-4.551155818741235703e-03
-2.670927407559809709e-03
-5.476205346510716436e-04
-2.210536337050126449e-03
-1.523754479165825067e-03
-1.253032745248743854e-03
-7.467134521202750067e-04
-1.935407717676964831e-03
-3.765524236060817289e-03
1.162115481797320595e-03
8.838443560344237671e-03
1.212353728684092101e-02
8.608664879732620331e-03
5.206521024193288411e-03
5.649610159282077333e-03
2.372240114030519688e-03
-1.213862586140504419e-04
2.258827981728117346e-03
2.845754175515533783e-03
-5.883331036224381241e-04
-4.488226818303348367e-03
-4.078215249350882333e-04
6.709562606181088476e-03
5.682409211666483197e-03
2.183976961233691835e-03
4.624105372565006939e-04
-1.021150943485654152e-03
-1.467483089663279734e-03
-2.070837415882607717e-03
-2.315593710706414631e-03
1.597716940284739720e-03
5.117528669296003696e-03
2.585571929825711919e-04
-3.274287136966336567e-03
-4.328732638108319722e-03
-9.619683486974180131e-03
-4.343357624186063894e-03
3.491771525646532662e-03
1.015659425251478482e-03
1.435067792896004869e-03
6.519334333174571592e-04
1.636194669833756707e-03
8.888122834526945848e-03
9.814266378090357942e-03
8.649773095398563538e-03
5.792123362341029293e-03
6.627560406512643214e-03
-1.248258382064701194e-05
-3.719407274061328761e-02
-4.644576847369619177e-02
-6.185357309660800308e-03
1.203152868809917279e-02
7.335601811936808339e-03
6.292640000211034701e-03
1.317300096864698969e-03
2.274772175276043237e-03
2.700979227448378327e-03
-3.198932540767470767e-04
3.969988447291185676e-03
2.494330092796521667e-03
-8.601162672933039890e-04
1.572737137137164088e-03
1.666175126814426789e-03
3.860258715296913806e-03
2.087849098734503774e-03
-4.076449855102630415e-03
-1.605136102467346736e-03
-6.301339648471734629e-04
-2.145816123521496893e-03
2.159509243156116764e-03
4.447855962059317318e-03
3.095764992057549805e-03
-1.498188404895158107e-03
-3.389565044183397158e-03
-4.942124693303319265e-04
-4.550484866696083430e-03
-5.759481031187793122e-03
-2.310461944408266361e-04
2.081777336416565111e-03
7.624665718467813109e-03
1.029043985692928292e-02
8.191647764089596967e-03
1.032730886856989168e-02
7.205289672735837661e-03
-1.807273933178929828e-03
-7.096916430613597719e-03
-6.388060848932008984e-03
-4.421029148860796017e-03
-5.273213204710659567e-03
-3.088607253212060852e-03
1.724657607433139912e-03
6.863891270982324690e-03
8.640767893428373536e-03
4.369779448586866288e-03
3.345671651365832947e-03
-9.238427356329937789e-04
-9.193609076207611558e-03
-1.217623126625586721e-02
-1.361118443141042314e-02
-4.633582346984185980e-03
-8.859303333716227842e-04
-1.147911588691307577e-02
-3.538997024721077939e-03
5.592586356752117516e-03
1.260932873670314244e-03
4.104136161860021462e-03
7.682852124069702209e-04
-3.059267329841664895e-03
1.046300477385774148e-03
-1.824558231721209057e-03
-2.859153464335077244e-04
6.466688033289640092e-03
7.220037083752666590e-03
5.263675136145006504e-03
2.633785398310207332e-03
7.483912146808727401e-04
-3.430044351832238839e-03
-5.381091985612871872e-03
-5.331048365816780610e-05
2.955042867199248564e-04
-3.851001574501288285e-03
-1.587545307316516087e-03
3.220875193733585811e-03
3.936673445997116751e-03
3.288577865609742731e-03
4.262747467381066031e-03
4.602059258470631541e-03
4.740580027655992394e-03
4.242794276415994513e-03
2.424162817025371508e-03
4.196369013333443865e-03
8.788938863740707041e-03
6.334951248603616115e-03
-5.128901232644781857e-03
-9.309076932791076481e-03
-6.061225575648771652e-03
-1.084678633192466893e-02
-9.437239964548416876e-03
7.265869119900460757e-04
-4.109894451847570648e-04
-3.696478222556605527e-03
-9.711008865686359109e-04
1.872088572445826035e-03
3.816614070106176797e-03
1.543397107584425264e-03
-1.229269875228291165e-03
-1.796079433290229121e-03
-2.819036413443976128e-03
-4.503383747991381199e-03
-5.641098410651686039e-03
-1.547920198813057101e-03
1.619899413191969086e-03
-6.476759738620575194e-04
-3.171782736341506484e-04
5.979661870558460870e-04
3.180252004026324145e-04
2.070473529060076322e-03
2.977434569908280881e-03
2.175274713693589514e-03
3.801621481253091017e-03
9.169710083363938335e-03
8.827604583176886302e-03
3.374984394379269403e-03
4.700603745700303836e-03
4.293700186906420149e-03
-1.579144489707245882e-03
-2.312398689627677677e-03
-6.062125791738752489e-03
-1.234176698003189646e-02
-6.361836093128953387e-03
2.129251246567915798e-03
3.142727411595306990e-03
3.122351189993582271e-03
8.696294248197826687e-04
-1.956481309390908224e-03
-3.114584325442995138e-03
-7.161514889199018137e-03
-6.550082711635863558e-03
-1.872842124778850877e-03
-2.980068630028418972e-03
-3.286395466840396316e-03
-1.562087486352325798e-03
-1.681427591810692778e-04
3.809744199493988927e-03
5.893451891781021496e-03
9.100526319459624827e-03
1.291426701355246655e-02
1.030378973957806962e-02
9.946956974873364180e-03
9.379432870524499755e-03
-3.854642142363820740e-04
-7.263637382396352302e-03
-5.887856452703730745e-03
-4.781246067659627313e-03
-4.977051001660025113e-03
-2.622485350487374720e-03
-2.973228182630597780e-03
-8.076648887209093158e-03
-5.146347183031172584e-03
6.546526048303599830e-04
-2.347263868413522990e-03
-2.367076461164047130e-03
6.039722334641969056e-04
-5.147526986509537612e-04
7.646951518594036559e-04
1.559190020968638946e-03
-8.449121667201341893e-04
-2.382879204740092575e-03
-4.022714237087841697e-03
-3.798888889047599693e-03
3.755535181727327363e-04
5.270145950404752679e-03
6.284664117313040928e-03
2.075479811680339560e-03
-1.088338450595242651e-03
-1.837454471140829992e-03
-5.329830675878819736e-03
-4.599203248984226090e-03
2.483072925158701615e-03
3.905927265582128782e-03
2.576534277023149761e-03
4.019167092518039809e-03
5.501802852308011575e-03
7.328293760173092489e-03
3.805495387987675292e-03
1.623126361601900675e-03
3.781157945476086579e-03
-1.835673975263837476e-03
-1.415379420000903226e-03
3.076502072271277560e-03
-7.672988860754363562e-04
1.634287549244104300e-03
2.972708235788393272e-03
1.782689561398052239e-03
2.234922925068329527e-03
-3.952308747692234378e-03
-1.886333900183643792e-03
3.478285328125072266e-04
-9.977363259974418672e-04
2.831809066090000895e-03
-2.369080372807933800e-03
3.339439379849165612e-03
-1.436172944119326654e-03
-3.756485284043874912e-02
-3.364810541509706543e-02
-3.166577805453704882e-03
2.808784412272801768e-03
7.320068673812526495e-03
7.193603841452267042e-03
3.820705523527168426e-03
6.171739550041341338e-03
4.842808561461954715e-03
7.502167407746587920e-03
7.009755564171121604e-03
1.327784376889172254e-03
-1.775586487281072485e-03
-3.376313849880737978e-03
1.242192652762720432e-03
3.505640806218946609e-03
3.280410371156148447e-03
4.119824485966191129e-03
2.342853802868146741e-03
8.390157677267320868e-03
9.772458700101734758e-03
-1.237897554528309728e-03
-2.836806366255031821e-03
2.229371031519777630e-03
2.399728915917248573e-03
6.796806960853868113e-04
-8.634162388376392158e-04
-1.473430849395972360e-03
1.780441111280250651e-03
4.496516508775417510e-03
-1.544616480227180462e-03
-5.328394293766110582e-03
-3.761052835013543524e-03
-7.480564874658078046e-03
-7.755448031131323937e-03
-3.707094725406539278e-03
-2.086559170177865272e-03
-2.883592834407148770e-05
5.086276342582073638e-04
3.319229249349089049e-03
5.460522038252981283e-03
2.974933453216846782e-04
3.006259326413234932e-04
3.053183007784010528e-03
-3.575311937303979077e-03
-8.650363431408920195e-03
-7.860797857620671625e-03
-8.322096689056677349e-03
-4.221004189544244438e-03
2.716909146782028363e-03
2.970592538320200246e-03
1.694699432796884734e-03
7.406250592619110975e-04
-1.681282677471022296e-03
-1.366971345533708011e-04
3.127119519039178643e-03
4.678928905142365306e-03
4.212903599244957956e-03
1.690691561689669194e-03
2.688110531558987864e-03
4.948375070696398904e-03
2.645252817832149071e-03
1.664435041276941200e-03
5.309260463375412367e-03
5.759747855545701949e-03
1.859086821042576349e-04
-2.943142280898955292e-03
-3.215498682355965579e-04
2.789167487960683093e-03
4.315794160774977933e-03
3.331853560871311272e-03
-5.308574142598308961e-04
-4.570379375979565471e-03
-7.402169201951429647e-03
-8.236025862653897217e-03
-6.089112939702628902e-03
-1.690784571573329979e-03
1.454529336913399935e-03
1.772838377156380667e-03
3.848669574125541254e-03
5.740184635543335578e-03
2.210194097020538699e-03
-7.083958356706761142e-04
2.689655077413731130e-05
-3.445384271340335195e-04
-3.327803478378929189e-03
-6.188239284163886758e-03
-3.693753602249923683e-03
1.500527688396961594e-03
3.638740093016010809e-03
5.280616084139146300e-03
4.038696799044743171e-03
-1.884465616181610391e-03
-5.532159661739635345e-03
-7.465974935708121450e-03
-7.689156773727843890e-03
-3.330077727884013777e-03
-2.293593336879632284e-03
-3.946464158698629113e-03
2.508700560202055526e-04
3.990302787623464971e-03
3.540402054817403006e-03
5.179098060510914890e-03
8.314495466747642144e-03
9.621343907035381782e-03
5.879300814893047636e-03
-3.218118131080423706e-03
-7.798528524340023541e-03
-2.704835359715327021e-03
5.439814828759315796e-03
8.438031141701463414e-03
3.526502509772232608e-03
-2.458923162464140243e-03
-3.635082323550948170e-03
-1.451563964813329822e-03
1.395720812651467420e-03
1.966981985871444401e-03
1.108070887440450614e-03
1.057120129802099776e-03
1.155763850187821809e-03
1.092494921831124299e-03
-1.040600438867789364e-03
-3.623645048202135850e-03
-2.242056079182317904e-03
-2.274152411603408679e-03
-7.591038864913703631e-03
-9.303777992135402533e-03
-3.603432639244017258e-03
1.932259493240284743e-03
4.024879002118831456e-03
4.116246928951024231e-03
1.901383721409754830e-03
-1.412223064902641957e-04
-1.022566771973344333e-03
-2.732418791921276732e-03
-1.875683486239147855e-03
2.149216363299570783e-03
2.020135809936153028e-03
-7.523212938975932422e-04
2.322767308264937769e-03
5.174364921261395169e-03
1.894023571030668601e-03
2.215329210142106230e-03
4.368969129848352881e-03
1.306182934531817299e-03
5.580644267825022849e-04
2.228258535107940919e-03
1.729399406842082113e-03
3.223738912908066714e-03
4.700317874709865167e-03
1.740736966577158913e-03
-1.570445782289256118e-03
-4.246781688576053634e-03
-9.279297403982027237e-03
-1.210117011343953518e-02
-9.414026638245897791e-03
-4.509522702318631386e-03
-8.795452742909502190e-04
-1.844550221654103631e-03
-7.962618137619021947e-04
5.083548220340269701e-03
4.511706948828015165e-03
1.787549658855606179e-03
2.081153168260570924e-03
-5.302769039048839828e-04
7.299665695823093475e-04
3.887225375400026831e-03
2.686900279393368129e-03
5.700358633503771130e-03
7.653433045643660143e-03
2.449393107911401399e-03
5.208563946459301812e-04
7.500154716390799309e-04
-3.208140579456137970e-03
-5.384479166093710141e-03
-3.933446440061237614e-03
-2.666623525467800692e-03
-6.991592754479775563e-04
1.679806385372890334e-03
4.546191240732857901e-03
5.919704191456637461e-03
2.166642925161040099e-03
-5.020850818219987086e-05
3.977315276601435154e-04
-1.613354086830585694e-03
-2.902884312841824601e-03
-3.240855492792547171e-03
-1.250949049118649584e-03
1.870995573824507955e-03
-4.701161063745562139e-04
-2.212701849690388006e-03
-1.062329114703425238e-03
-4.159855528376913032e-03
-8.997457131758122145e-03
-8.575618296242443900e-03
-3.894424827466591837e-03
-1.809434617759075404e-03
-3.201973580675887467e-04
4.745617767522893049e-03
8.860200737891073264e-03
9.031325067774542692e-03
7.645932594493148535e-03
5.705575712502924772e-03
-2.105505813008509176e-03
-6.814365928262637942e-03
-3.465444312527454903e-05
-5.555474816520232772e-05
-1.027430175618383734e-03
7.681267582363232593e-03
6.598122976966921092e-03
7.581789193927481081e-04
1.483150793443125358e-03
3.545478403663899960e-03
1.688777300315613770e-03
-5.913582013649876928e-03
-4.680692203809895362e-03
9.236543642006839238e-04
3.628678610019257528e-03
8.399948177720851020e-03
2.758540885218543730e-03
4.999374525531638178e-03
4.326673557335074423e-03
-3.234487834005678880e-02
-4.059020972791520243e-02
-5.439486507805462931e-03
5.771529350150100823e-03
2.400613656376100399e-03
6.317085718701291250e-03
8.685700045205978909e-03
1.221760640059330050e-02
1.244990679842540235e-02
6.828205667478496471e-03
3.335221497736450338e-04
-1.874475214431447871e-03
-2.646772773028277168e-03
-5.326299762860863506e-03
-1.334022098861643510e-03
1.028549700139904733e-03
-4.012422208326336080e-03
-7.969292543687216557e-04
6.363462558845912539e-03
6.520072487041826161e-03
4.613872864741630497e-03
1.433121416154812958e-03
-5.888169372298932306e-04
1.175944304009004984e-03
-2.982379288250233858e-03
-7.663151908394292069e-03
-2.211931528558601714e-03
2.041831302882243890e-04
-9.630666731383882894e-04
2.214415969894312393e-03
6.067001885055325287e-05
-7.028262696766347274e-03
-1.043318762201093236e-02
-5.665669323647076934e-03
2.795446877188810346e-03
4.448166568795029231e-03
5.566701087064169530e-03
8.607985400018986974e-03
5.804102705796510865e-03
1.802987092958310356e-03
6.149585697099942171e-04
8.857055688585654821e-05
-9.585058492409686843e-05
-7.079193320497515146e-04
-4.013383004460449946e-03
-2.249083664659268841e-03
6.891244706829864966e-03
5.782531518496398203e-03
2.280215735154668519e-04
4.565725389771005047e-04
-3.796910873840917723e-03
-4.473779753837224191e-03
-5.138667079029142146e-03
-1.143688677632062785e-02
-7.792607072747822529e-03
-4.705549324448690847e-03
-3.361352514321552104e-03
5.729428338112203985e-03
6.224474556596413730e-03
2.471429591634350699e-03
4.303219145429066847e-03
4.466305343291294104e-03
5.960736698621364217e-03
6.044751077230423562e-03
-4.822971766488558828e-04
-3.624970750991467726e-03
9.649408907317265100e-04
4.675297977905164097e-03
2.881694848594773192e-03
3.795056061939031588e-04
9.946061997525503136e-04
-5.224467774005707617e-04
-5.563020293567573146e-03
-7.196465767387721923e-03
-6.737694809312204727e-03
-3.909526237457812935e-03
1.049886001758339009e-03
1.743163786237624316e-04
1.974352772321880025e-03
5.506534875305583651e-03
-5.555615021834538810e-04
-1.935811586994987512e-03
1.968257523429684745e-03
3.850952594055063105e-04
-1.423255617384698926e-03
-2.036147804749552891e-03
1.178780849264417403e-03
4.206328831070260850e-03
3.326332249872237037e-03
4.847774846540635341e-03
1.600569277523372809e-03
-4.156623294834647063e-03
-4.287318251869886090e-03
-5.183275408758022430e-03
-2.008862594125841988e-03
5.349866687446424435e-03
5.102920731815175671e-03
1.486457252779017826e-03
1.083119310516345501e-03
1.074120805188289547e-03
1.329872710310822052e-03
1.419266114323832276e-03
-8.452936712030965742e-04
-3.310707775445879790e-03
-6.276928329263486463e-03
-7.229463554579195275e-03
-3.096373137019515446e-03
-1.236061218892873332e-03
8.435712442698929323e-04
4.243727052313649162e-03
1.670968714883363983e-03
9.633413197871445099e-04
9.859174176466374887e-05
-3.750570283290850359e-03
-2.105918938031106158e-04
2.491155110401869609e-03
1.208952915783478681e-03
2.918497843254659174e-03
2.845332733435489755e-03
3.848992875134678564e-04
-1.292249475220664124e-03
-2.795906365487186001e-04
8.124300547711623766e-04
4.843098205635724268e-04
2.008349935928954114e-03
-2.062244977045880152e-04
-2.536949277715382523e-03
2.625595044337805228e-03
6.996283250435787401e-03
5.212039547582807131e-03
-1.207884231978879463e-03
-4.453674386411213271e-03
-2.972148072684652545e-03
-5.079181789957803485e-03
-3.952962917762720824e-03
5.486402004946975370e-04
-7.180331505160343977e-04
-6.751198080981583340e-04
2.050205289836294544e-03
3.210805185472623106e-03
3.217435874806254606e-03
3.498173724620148861e-04
-6.634912130048008574e-04
2.858040528429694376e-04
-3.488174101966301423e-03
-7.089159073697281176e-03
-3.907229763825211324e-03
2.176190627631747077e-03
3.935655208503174504e-03
1.585033540843440360e-03
5.309925135586781014e-04
-4.525783771528806790e-04
-3.292712895028264333e-03
-4.416686552634279880e-03
-2.732673872352147683e-03
5.431645624025749830e-04
3.573383655330648109e-03
3.777758606349972820e-03
2.893567076515717474e-03
2.238813401554138553e-03
3.049598453756769724e-03
4.403030150285465981e-03
2.501447555497494967e-04
-2.390066919221775672e-03
9.949380151655074205e-04
7.938295573460871614e-04
4.507015082647797852e-04
2.737075050004945335e-03
3.708442530630174511e-03
4.882054479621577951e-03
1.132085553989309410e-03
-4.373821235063386249e-03
-3.644867845268460246e-03
-3.524515757921489658e-03
-5.032956068866555575e-03
-3.309624639291003107e-03
-2.379196658773212285e-03
-3.382884997907495417e-03
-1.134927845604395084e-03
-1.028231860809187929e-03
-6.583141271040548331e-03
-4.088518907052968512e-03
2.224506039333644207e-03
-1.834378464416208676e-04
-7.605962986751059083e-04
-5.874792094715040706e-04
-3.884478392294086341e-03
2.993236336076800317e-03
1.033026250181814931e-02
4.412966754559508563e-03
2.329169509023713228e-03
5.174088230677837373e-03
1.136482069782243642e-03
-7.716930615783514666e-05
1.020925282483364392e-03
1.203205162182076089e-03
1.852138753642899524e-03
-3.633981130494860681e-03
2.718481278603406318e-04
1.051846342311821107e-02
7.133198326521065710e-03
4.511958117844141504e-03
2.844764706098937626e-03
1.434642566692906221e-03
1.645082412939437603e-03
-6.481079724458383741e-03
-1.110449753051078858e-03
6.377194102230713570e-03
3.412871989989307159e-03
4.602731422302006395e-03
-2.387936765933189320e-02
-4.735061006635188363e-02
-1.790783254823047344e-02
1.535206076512601056e-03
1.079393138876700610e-03
8.303854150271109194e-03
7.558415565099855550e-03
5.548001683392555540e-03
5.872184921804595240e-03
2.790492325830989679e-03
-1.460905185952790465e-03
-1.520228439203059109e-03
5.743312437333406018e-03
7.249352280309272895e-03
4.573511493202175870e-03
1.263532713870915442e-03
-2.124828313399045477e-03
4.527721167803588909e-03
8.066484108540810521e-03
7.337671294708480313e-03
9.236201858187995800e-03
2.485569946097851077e-03
-2.512438794021264622e-03
-3.339474108218297432e-03
-6.962778533513252002e-03
-4.033824616337508030e-03
-5.125450426326397073e-04
-1.633161750718112835e-03
-2.656994173733448397e-03
-3.062051023423529271e-03
-2.564861370599969860e-03
-4.273218753476317432e-03
-3.695725478671266218e-03
9.929787810958664186e-04
1.007851004506998219e-03
-1.472360289343910191e-03
-2.555603280906713296e-03
-2.259857770988801980e-03
2.559889364903070088e-03
7.531798104621342110e-03
6.214858895503889979e-03
1.288179682189864467e-03
-1.311209845335527518e-03
-6.090766853348119660e-04
-4.721844248193246335e-05
-5.379778313550197000e-05
4.012389097545432338e-04
5.434836068456999798e-04
-1.639330337446714492e-04
-1.587815476159705648e-03
-7.519714597977313975e-04
1.524806725378379836e-03
2.597704006493115666e-04
-3.379458549891924644e-03
-5.876197631896277161e-03
-3.569440451283077860e-03
4.342787201734798976e-04
2.020800916708508695e-03
7.245848877620489348e-03
5.993540509292507798e-03
-5.380458828281670103e-03
-5.800205336028341555e-03
-1.502616662869683210e-03
-3.729668784631369211e-03
-4.755740543064257246e-03
-4.416611597247549134e-03
6.147132875431606360e-04
4.605813782145311459e-03
2.940374997861728516e-03
5.840071235762469941e-03
6.630692485862639714e-03
2.961550064526743617e-03
2.442698571670139703e-03
1.150346259521391797e-03
-1.261206584634939811e-03
-3.146838055315155560e-03
-3.505407013775929063e-03
-9.229756309026035214e-04
3.191019612248724175e-03
6.068255669759137737e-03
3.563764673154896489e-03
-1.428235118984568755e-04
-2.653891561180384950e-03
-7.045079075182677890e-03
-8.677447632758940321e-03
-4.928026722468404827e-03
1.011965866477837050e-03
3.005979031491634590e-03
1.476992199361578566e-03
3.507563006916629596e-03
5.829579484973075251e-03
5.817149852282559389e-03
3.844729751669075796e-03
-4.798742479531576061e-04
-2.627599343437191006e-03
-4.517745721817548535e-03
-5.886771657565045661e-03
-2.443979629444792932e-03
2.913276492080120808e-03
6.440929883684485581e-03
2.559176790190175257e-03
-5.187754701604517689e-03
-6.570114542461785723e-03
-5.522996872918680550e-03
-5.791356793190823894e-03
-1.812299833380862004e-03
5.468814143091930459e-03
7.093848880356155850e-03
3.186587052424211079e-03
9.374044835483585523e-04
-1.480062275525666823e-03
-1.747505643604161610e-03
2.837597211408291777e-03
3.928266857943029690e-03
3.805733404411548032e-03
6.254448936928037883e-03
7.577579798443922175e-03
1.097347213150540353e-02
1.444343323241394604e-02
1.350457623000094441e-02
9.022765368244768311e-03
4.053298653844526365e-04
-5.192793147177281014e-03
-5.019603451010556244e-03
-6.947988824780551576e-03
-7.716201153963010533e-03
-5.138780301968855213e-03
-4.098027143376654045e-03
-2.332179100738262113e-03
4.389183049047196920e-04
3.372936323736403126e-03
7.200246185843580532e-03
1.051880543883431350e-02
1.132127679901353060e-02
8.495592362383098950e-03
9.038824063176431958e-03
1.344200976657104404e-02
1.357304940146420759e-02
1.378968946844562338e-02
1.315865255454075691e-02
6.488322770185808719e-03
4.193810408682982493e-04
-8.434984569775323682e-03
-2.096651287852180703e-02
-2.667705894082073731e-02
-2.888395993151020302e-02
-3.165259148274512935e-02
-3.406051427742715076e-02
-3.442333829496223296e-02
-2.676927247598860984e-02
-2.048426552547228524e-02
-1.963909785268798738e-02
-1.296969206565734382e-02
-6.266191493078407046e-03
-1.811297259419038458e-03
3.071997243225246289e-03
4.112545341116431545e-03
8.077888353281839628e-03
1.080905928021738682e-02
6.633193908839205184e-03
3.270979693186619464e-03
-3.523227336642285098e-03
-1.033100648484661099e-02
-1.013487508701327831e-02
-1.004788887048705531e-02
-7.479795091872722991e-03
1.539414998631184923e-03
8.451257846108537614e-03
8.600896478487397509e-03
8.005283065162578648e-03
8.165516512231634980e-03
7.699348014050627804e-03
1.122161664382359363e-02
1.117826539119769723e-02
5.899306345970075499e-03
3.469887461993095747e-03
-1.642294887176096565e-03
2.523056019235456193e-03
1.566226214185442375e-02
1.528961970962192628e-02
1.994841993366610819e-02
4.204174185353605486e-02
8.259642900259626941e-02
1.322218175974990417e-01
1.215247626857967334e-01
7.592388103743219485e-02
8.703389709395216445e-02
1.029590083529437206e-01
8.373505960377432278e-02
6.160602449719205370e-02
2.400099129098733075e-02
-9.389068986842269773e-03
-3.477200682570814882e-02
-7.126998425813563243e-02
-1.045927478959418205e-01
-1.687942046589292477e-01
-2.216513702639561489e-01
-1.889859386998772595e-01
-1.586205559500832030e-01
-1.967508338831490677e-01
-2.497900515686625467e-01
-2.231456524790249862e-01
-1.060568863486434504e-01
-3.491430238388684715e-02
-2.172919228908140946e-02
2.567134736834729772e-02
7.662041931414940998e-02
1.143150873439005288e-01
1.384390747226805218e-01
9.840431271436690663e-02
1.339363044137428446e-02
-3.461359737423788663e-02
-8.107910202135453631e-03
3.789949939833939241e-02
4.435834953696196625e-02
3.800568256132066947e-02
8.698127340188931134e-02
1.977012149682444153e-01
2.680855122668345802e-01
2.559318737016109679e-01
2.422120670642931850e-01
2.300543483236247022e-01
1.535214598571585376e-01
3.204449532866456007e-02
-5.327023331527251659e-02
-7.706782888250925112e-02
-9.491384332710740834e-02
-1.338234377776600093e-01
-1.472563212171294489e-01
-1.022263701891670817e-01
-4.461659605217604269e-02
-3.666858147732944551e-02
-4.630118066333961668e-02
-1.785663167157135189e-02
2.621509888388573808e-03
-3.132095893100751011e-02
-7.147016255997484802e-02
-7.015570126257016093e-02
-2.763560276327105270e-02
1.342585786269664093e-02
6.938086091420068990e-03
-6.244267990619931097e-03
-9.808448137594062005e-03
-6.979902962550851853e-02
-1.714692136057957284e-01
-2.407021760924099030e-01
-2.431138758265232735e-01
-2.083080955946126911e-01
-1.553333115934933395e-01
-3.920579571425997917e-02
7.419125918089219951e-02
1.343916116699048202e-01
2.353896024058036995e-01
3.009527514648817625e-01
2.241549925167102553e-01
1.185038461001695631e-01
5.786434471085816211e-02
9.372024696297854077e-03
-2.631115557589713133e-02
-3.099874534168110471e-02
-2.338952149077627371e-02
-1.075249778572692771e-02
1.929641300413705018e-02
3.443010712431410908e-02
5.054849882343892542e-02
8.380864287362099763e-02
6.552919725591971334e-02
2.174326323639387895e-02
1.114917678541619585e-02
1.075174277594303368e-02
1.543610738094476804e-02
1.388892754479901549e-02
-3.323948181129978818e-03
-1.501483082555405378e-02
-2.148924029461195609e-02
-3.201422416699933882e-02
-4.617018534236965593e-02
-5.002221329138634848e-02
-4.375822007115953011e-02
-4.680776397304343972e-02
-5.052479351057281853e-02
-4.548001600604503064e-02
-3.836456783651414487e-02
-1.617895740129093873e-02
2.651669518887975197e-02
4.668037084609488047e-02
2.529380944958227809e-02
1.558099779680358586e-02
2.799005745166899609e-02
2.109569063345004616e-02
4.022465616799871836e-03
-1.171964607697185273e-02
-3.999578852455182298e-02
-6.237996255444996918e-02
-6.568441029199403869e-02
-6.335486566413607579e-02
-4.777721345761564570e-02
-2.363789609242170769e-02
-9.610214560418876839e-03
2.214096879292716188e-02
6.224176689979483285e-02
6.075558296475089270e-02
4.733194832447371048e-02
4.355764393583935745e-02
2.764703193693269709e-02
2.155837105022602104e-02
2.879694966829259017e-02
2.834470093241548555e-02
1.929268501789394713e-02
8.303177998396612039e-03
1.267992940237615621e-02
9.521014058384158138e-03
-2.455828836588519123e-02
-5.616295463064166493e-02
-7.797988175017576962e-02
-8.758435050495963492e-02
-7.736402808799688890e-02
-6.615831552259360260e-02
-1.899244884090215205e-02
6.494163994760131231e-02
1.013539509905439645e-01
8.429982813485870086e-02
5.745428457429238578e-02
3.389945406598551814e-02
2.318049267134095551e-02
1.682928208147014063e-02
9.817065250694225614e-03
2.781410083856238145e-03
-6.248065157851656788e-03
-5.279160370364097653e-03
-4.398193502155936518e-03
-1.011300215926129280e-02
-7.623133493846519920e-03
-3.886019545302491201e-03
-4.978925248058113477e-03
-7.677024356345095966e-03
-1.008298711640840534e-02
-7.664593084629970493e-03
-2.457432263784251666e-03
1.705659950053719717e-03
-8.018180416853265199e-03
-3.297763672194480022e-02
-5.318217539676901168e-02
-7.061071998311012343e-02
-8.711620361459203321e-02
-8.530858594841442266e-02
-6.480366436442376588e-02
-3.783536421394609328e-02
-1.470417097601229304e-03
5.888925287364588090e-02
1.134388093434956502e-01
1.064919484475030931e-01
6.355332853237981305e-02
4.278503311099965400e-02
3.793730508532710405e-02
3.139987921737038418e-02
2.592431134620004629e-02
2.022761891959228356e-02
1.735920914116857727e-02
1.900702144019631931e-02
1.750027422250902825e-02
7.925013490876164218e-03
-9.787920709517835410e-04
-3.227467893576844819e-03
-1.645784417536318850e-02
-3.707413506232764416e-02
-3.681145274847045373e-02
-2.651217874338389346e-02
-1.853442609773208946e-02
-4.994960244731800475e-03
6.000007928298350425e-04
5.981399360011367596e-04
4.293019301230707394e-03
-1.081009573339550625e-02
-4.271291608729767264e-02
-5.843681882896938073e-02
-5.532723283298644074e-02
-4.612478144516177908e-02
-2.115340269944677651e-02
6.120003634802549664e-03
1.310984357464616001e-02
3.215849359774652916e-02
6.015713346879696111e-02
4.788714362128750068e-02
1.745156537667869046e-02
4.599207665443564089e-03
2.075619808172207009e-03
3.438734813270252939e-03
1.766554540758957076e-04
-2.824954561182934504e-03
2.157105270888725387e-03
-4.259381993406459867e-04
-2.413187306332865555e-03
1.379635404758394225e-02
2.459720510229952348e-02
1.455315488949227715e-02
3.892875757962085525e-03
-3.810655436156023873e-04
-2.058997177637494035e-03
4.853830946350605143e-04
2.550816529772367489e-03
4.165746744378977413e-03
4.554340705946989705e-03
4.686861312514079133e-04
-4.260989785587713553e-03
-7.577974098645806275e-03
-7.124660668301243012e-03
-7.808218212129511455e-03
-9.979294053896105993e-03
-5.883766260077249143e-03
-3.920658516292738205e-03
-4.546341104526483573e-03
-3.236139972065696455e-03
-2.010269985029672704e-03
1.278670962462657729e-03
2.523155802271721294e-03
3.981067617983703733e-03
1.108508326511882221e-03
1.268720486964598727e-03
8.531712237676191551e-03
-2.077510750448251578e-02
-4.377947822891573026e-02
-9.513151489631299987e-03
6.094099906164228680e-04
-1.100995963902600197e-02
4.098623238410691386e-03
6.181453405645690596e-03
4.079408977686755852e-03
7.181250906557924349e-03
1.364100142509860718e-03
6.784887169192790717e-03
9.931979293682866722e-03
6.302350849638607699e-03
8.431572954467454750e-03
5.920945747604140427e-03
3.288704335371184749e-03
2.096431119602436624e-03
3.199563806136160315e-03
8.807205943036583093e-03
9.796347651804065970e-03
1.009781356644823616e-02
9.254602883550884160e-03
5.634756287744050254e-03
4.883290218002886776e-03
8.682280058081736805e-04
-7.916882246576811138e-03
-1.229723425241350220e-02
-7.900492047468623061e-03
-4.263558465418148223e-03
-5.918388505837762423e-03
-5.216699262759076638e-03
-4.800402137894365685e-03
-3.640135289560687566e-03
-8.656606828806414407e-04
-2.291058109121408854e-03
-2.438109401448204910e-03
-1.827737230910038554e-03
-1.868697841630414342e-03
1.138061109213529603e-03
5.399126187372284107e-03
8.823834111614024464e-03
5.860911655039830435e-03
1.508505644459543502e-03
2.333721353440056708e-04
-3.332386463227533270e-03
-5.757496208043695086e-03
-6.618704283646509486e-03
-1.360707941907852124e-03
4.152861772743948569e-03
3.903804844446291189e-04
5.067363758791050034e-03
8.985149710126842312e-03
2.158806160477194560e-03
1.023917214850962381e-03
-1.379126258603420845e-03
-5.672212002419737414e-03
-1.002262738555096191e-02
-3.472225899659866794e-03
1.133912261835894227e-02
-1.550105940032012186e-02
-3.743819560206821523e-02
1.827465313706971872e-04
1.914729134286815432e-02
6.602976829751547837e-03
6.446257863634560076e-03
2.226425468186779034e-03
1.315252678055902431e-04
1.130754635132813143e-02
1.554419937171620802e-02
2.336086146537255225e-03
-7.542384014001991474e-03
4.628165322954427147e-03
1.325401749510572540e-02
8.303266499527570468e-03
2.939827282406690372e-03
-7.346177570564734090e-03
-1.310003403011485851e-02
-9.466797434572129036e-03
-5.640575037713386336e-03
8.472723448749348591e-04
6.685160172142989854e-03
6.561265890641735862e-03
2.760994001626949131e-03
-2.793582624781919960e-03
-7.354417163307153636e-03
-6.109835290804482150e-03
-7.988370584363827355e-04
4.995014598643873066e-04
-8.590869183054371792e-05
1.089612778387909035e-03
1.801782003716558347e-03
2.126607801714387562e-03
4.244636784021139225e-04
-1.257375866345738884e-03
-1.824412881111009323e-03
-3.982987440699603879e-03
-4.714824083713975260e-03
-1.967234674838236070e-03
3.858199005571247113e-03
7.746731448150222417e-03
4.985093198339550849e-03
4.359417103595182976e-04
-2.154369713147714221e-03
-3.015880203228767445e-03
-4.174673263597579800e-03
-5.829510008558943905e-03
-6.086758333879569230e-03
-6.069509412572990370e-03
-4.774986811818676680e-03
-2.889337294284559897e-03
-4.380194741343351413e-04
4.579366654951414796e-03
8.012421980891757181e-03
9.939090943671308881e-03
1.292358609925928388e-02
1.345720399624435008e-02
8.382186979706876193e-03
3.555477008870624751e-03
6.638365290947494633e-03
7.458840851810062157e-03
2.550855813831983884e-03
3.795692476795556412e-04
-5.554988324349617763e-03
-1.028065870695799543e-02
-5.947536055661438795e-03
-3.082486884130553224e-03
-2.796151681516424216e-03
-3.240163523596394004e-03
-7.382166793669939567e-03
-9.549832864726390605e-03
-5.009044965378971898e-03
-5.819943557437952733e-04
-2.020817949568183905e-03
-2.093257343013024945e-03
1.211503457800099321e-03
3.736180302382988844e-03
3.496781647490524760e-03
-2.754675761614842205e-03
-3.582281065845453749e-03
2.581644428802458945e-03
-3.658865819003781971e-04
-4.583075919350888643e-03
-2.859918863867736381e-03
-2.202895107986146354e-03
-2.810452508173601899e-03
-4.934949957915082432e-03
-2.878777111016591218e-03
3.198290214222156407e-03
4.641377090933112952e-03
6.189753581369517726e-03
1.064582550821019033e-02
1.222282370597817421e-02
9.079923418995274401e-03
2.292111940903148251e-03
-6.348792901953380710e-03
-1.184940597605963104e-02
-1.201320528852822464e-02
-1.199855664677364903e-02
-9.883151655945915381e-03
-3.389304572171769267e-03
3.200797343182736586e-03
1.047714021207205200e-02
1.553165126536636478e-02
1.732997955790620270e-02
1.776961640955483993e-02
1.369370020396334584e-02
6.744469693335460557e-03
7.409738923718152447e-04
-1.082129537981631716e-03
-3.898295572478462610e-03
-7.119231917287243729e-03
-2.182597847041241931e-03
-3.371128695704315482e-03
-1.456807622049998167e-03
1.704416735035326272e-02
1.785820844484762790e-02
1.260896921287515743e-05
-1.735239976082547306e-02
-3.065880373937255807e-02
-2.174679361455290200e-02
-5.993425124596347270e-03
-3.684746492472135582e-03
-4.758895271323825352e-03
-4.654476297659988944e-03
2.319163754492065349e-06
6.960010540265296891e-04
4.869350783461094331e-03
9.326215955565594212e-03
-2.265800951378285286e-02
-4.168448127397437336e-02
-2.192586628654835494e-03
3.074583873822957919e-02
2.873407177780152796e-02
1.325687056905832176e-02
-3.892466829365746027e-03
-8.804813309743503291e-03
-7.157032761598159341e-03
-5.608985830067382376e-03
-4.093241242194926507e-03
-4.874644772367564896e-03
-3.595837215123227990e-03
-1.640969067441555530e-03
2.340174348722771566e-03
8.134389032838047068e-03
1.142027110138656674e-02
1.628360934423455156e-02
1.845221686585530457e-02
1.191520968001796334e-02
5.678266034019885389e-04
-8.700374902605679736e-03
-1.162106065358614083e-02
-9.842080624588722335e-03
-3.480633299117783831e-03
3.752766773380974540e-03
1.220044317885015175e-02
2.424748536303111476e-02
2.379476317168816371e-02
8.610806372665546354e-03
-1.349952525785589946e-03
1.837104585931930789e-03
8.887169883446873267e-03
4.748055857306450814e-03
-7.510588587761154317e-03
-1.362305167112352368e-02
-1.210644729266441462e-02
-8.963041324400655360e-03
-2.502638954510655583e-03
1.076931268426708013e-02
9.908273992603406147e-03
-1.732273830913163420e-02
-4.196471831530300400e-02
-4.341993274515275336e-02
-3.537008622572860445e-02
-3.107864914770451167e-02
-1.544257675699894396e-02
1.414281398276351007e-02
3.399436146541206377e-02
3.891343242480531373e-02
2.425819554254388111e-02
6.205229678859566257e-03
1.633578840431179277e-02
2.505479090359861299e-02
1.897239119732935589e-02
2.531686474163385298e-02
2.003204100684153124e-02
-2.001386402615478247e-02
-6.345903278517353585e-02
-7.243052719295185737e-02
-5.088675482241352549e-02
-2.889267358340114056e-02
-1.077674297202083943e-02
1.223191428239023618e-02
4.260421895653686286e-02
7.055165530482274128e-02
6.759833897576200679e-02
3.286349684565543355e-02
-1.910541888400378195e-03
-2.013089773181298697e-02
-2.230852044199590350e-02
-1.747629322353225212e-02
-1.661732812253468444e-02
-1.006994878600716257e-02
4.652816247851122161e-03
9.913099537833910957e-03
1.260380712915388189e-02
1.450613319471705243e-02
8.913560443485171389e-03
1.282906069886774643e-02
1.729997836836219896e-02
1.587216870731617338e-02
1.664940378359456782e-02
7.219837905071551341e-03
-2.364583323945532688e-03
-9.714538994110824902e-03
-1.195846778104983285e-02
-9.824225742751132098e-03
-4.751666720054077697e-02
-7.772341391754271356e-02
-4.408760404772576330e-02
-1.494291819419516984e-02
-1.008989969042918371e-02
-2.070242709985251062e-03
3.848369244942511508e-03
1.121974756480837929e-02
1.440272728822586043e-02
1.306447811519228890e-02
1.197486760696078734e-02
1.289447668631651250e-02
1.957530443775994111e-02
1.987279086151591545e-02
1.833221524638602856e-02
1.996505996245897044e-02
1.807992881390023399e-02
1.604121392031407703e-02
6.660338066765885377e-03
-3.911977179506307897e-03
-3.292802770338667910e-03
8.784017706317480932e-04
1.942778770271199511e-03
-1.616757280287530948e-03
-6.812809637192802394e-03
-1.616242975976035084e-02
-1.629499760599017327e-02
1.825632904556863650e-03
2.255884273971026956e-03
-1.317126126798151900e-02
-1.644203421671696502e-02
-1.748933223010680840e-02
-1.958373646838038745e-02
-2.226997277277623782e-02
-1.672253589072528190e-02
6.072327662145987973e-03
1.747142343049006355e-02
1.094574185013602423e-02
3.994315630940770134e-03
-1.832577401307650036e-03
1.015170111134025728e-03
7.818264170464587007e-03
9.517826434359966462e-03
1.709483951615703781e-02
2.172302031261216793e-02
1.050887922439187362e-02
2.706177372679302497e-03
1.693510462932178119e-03
-6.534968958065955069e-03
-1.051330621902067317e-02
-5.973928466768893379e-03
-4.024439578676901634e-04
6.033473650597351301e-03
-4.534535535170883215e-04
-1.162857322545963502e-02
-4.281439076296303207e-03
2.401194548981273793e-03
-1.621981899581501291e-03
2.809174036285133646e-04
2.417885310786405551e-03
2.323040755700452476e-03
7.103087572008654968e-03
8.960202970742608269e-03
5.110840508418490642e-03
3.005205459809812130e-04
-2.274740498927614422e-04
5.374917135703689494e-03
3.259612775534863165e-03
-4.837729275632914744e-03
-6.565079140928162943e-03
-9.261560064604473091e-03
-9.427312894230594278e-03
-3.150283520397314033e-03
-2.080614183590669304e-03
-3.105074854645351219e-03
-2.337887143824572776e-03
-3.386461270118053691e-03
-4.304335024682632085e-03
-5.789713894655071531e-03
-6.286168037925666044e-03
-4.004575300033714688e-03
-4.748643181279431878e-03
-6.746574529633800332e-03
-3.986558500892956741e-03
-9.679484882097138089e-04
1.587511433345768557e-03
6.925034235106680702e-03
8.281066825626881220e-03
4.833057938317490525e-03
2.099237589138927638e-03
3.420786411008304093e-04
3.700561725682351231e-03
9.783736046990215013e-03
6.753280927260836217e-03
-1.531766412471640987e-03
-1.426467138692823558e-03
2.769361649649693981e-03
8.800325829592689584e-04
8.910952543814485826e-04
8.029578232257427589e-03
1.003001322225271531e-02
-1.011495950442300226e-03
-1.047155928355968275e-02
-1.757390001524525031e-03
8.015399073939593472e-03
4.543742316282802819e-03
1.464688337347327604e-03
-4.239885571199458053e-04
-6.026407398292390506e-03
-1.133851937652228213e-02
-7.866427788989714329e-03
2.572958542572017018e-03
3.921556162492005615e-03
3.880458876593152924e-03
3.194337560707458112e-03
-2.071977170394935595e-03
2.700941789916939256e-03
1.649695220485212187e-03
1.187953407745626381e-03
8.285338938732466491e-03
-3.273809576578124792e-04
1.344048757399044555e-03
-9.937369475064131846e-03
-4.689601611018204275e-02
-2.744505465506930780e-02
1.330488237187774439e-02
1.498212390744576086e-02
1.653797044259315216e-02
1.368578690401613292e-02
3.383092495789255766e-04
-9.972053830556014409e-03
-1.648138472917556885e-02
-5.091727695800091040e-03
6.095031495301563539e-03
5.484620284772321122e-03
8.298536431913142858e-03
8.896719932837629172e-03
6.258957451671195993e-03
3.632402259803732200e-03
2.305973934221063580e-03
2.335230468017132199e-03
-2.719887640861129614e-03
-6.135078228698971625e-03
-5.269189156405019656e-03
-6.320834792566450838e-03
-5.158934152050079561e-03
6.498724478662481173e-04
6.268757520975615748e-03
5.570787164309058334e-03
-3.719078019462384080e-04
-3.100290525402619318e-03
-9.033004537058197687e-05
1.838478979217114239e-03
-1.911657433883974522e-03
-4.072183313173445562e-03
-5.948186278690188169e-04
-4.479449236285916111e-05
-2.994056498022348769e-03
-1.109001266072612811e-03
3.320456386383943345e-03
4.852101935796743204e-03
4.808595652454939612e-03
3.530915629492681427e-03
3.924558824668176495e-03
6.938485988754060710e-03
7.000152927169226748e-03
4.668874922530130353e-03
-8.423826722660447252e-04
-9.132470338636353505e-03
-1.268506150293438606e-02
-1.121291657551987814e-02
-4.959800593182281392e-03
2.726948558645480984e-04
-3.074198099302745922e-03
-2.975530684022645485e-03
3.092089700662199389e-03
1.963645217694161716e-03
-3.701776565334363028e-03
-2.837149568594867985e-03
2.638952897936003728e-03
2.266803834731163057e-03
-1.059649637994533686e-03
-1.451434676418163379e-03
-9.616550233484764260e-04
5.111172449704220674e-03
9.865606047876816082e-03
3.459479806467171369e-03
-1.196992844627266369e-03
-1.849308405312656079e-04
-2.553820600354770286e-03
-6.283350292523249593e-03
-7.633520417885178259e-03
-5.073205786712740861e-03
-3.500771670726452313e-04
1.959689786317873742e-04
-1.322346927098786047e-03
-4.596743584017012516e-04
4.987763273288843037e-04
1.847177084438894655e-03
4.733050421783761494e-03
6.665419152837129789e-03
3.497155133663768043e-03
-3.321525123401269756e-03
-3.243836493170907699e-03
5.340108404108393977e-03
1.166009004789289941e-02
9.459015627694215486e-03
3.470484531076950888e-03
-2.354074437486462583e-04
-6.102677906384588839e-03
-1.091571711560955678e-02
-4.077366587002716203e-03
3.769475163357277787e-03
2.335407541014791841e-03
-3.558908787740363774e-04
-3.797481235225697873e-04
-8.406539189555694257e-04
-2.506988029605846345e-03
-2.256158906856540677e-03
-1.763486525181721335e-03
-3.747202853801851960e-03
-3.149835781901980797e-03
-1.779221896975515015e-03
-2.266269308664141131e-03
-7.957499086372223215e-04
2.215183664982246477e-04
-5.137692112346674191e-04
-1.720863784348265584e-03
-3.700134964081547555e-03
-5.836242215824109618e-03
-6.573676606610804642e-03
-2.334073915409633389e-03
3.298801328965342890e-03
5.398176164409868721e-03
5.860062270415651760e-03
5.100424328605929029e-03
4.176807417518422876e-03
2.113818703852712606e-03
1.646577853984464504e-03
6.476017018208612280e-03
4.985520009755952352e-03
-2.212970614786301596e-03
-1.567997903090225442e-03
2.690886559257576853e-03
4.524882001115731675e-03
5.080112951735520598e-03
6.491344608503413043e-03
8.141440513113695418e-03
2.604744889172215441e-03
-7.011242300277564961e-03
-1.194689205466317218e-02
-1.123195778864218876e-02
-6.524807140305461349e-03
-3.115078836596632105e-03
-1.114082743100756889e-03
-1.025393685168329231e-04
-1.403927160318564106e-03
-1.039615380325972565e-03
-2.890714391863867701e-03
-4.925726376767039505e-03
-1.049663790181278424e-03
-1.573479367776332849e-03
-5.053709518005261060e-03
-3.411198581303104445e-03
-1.787712058583528114e-03
1.669998762213166076e-03
4.909795830800949522e-03
2.646337314515978707e-03
1.695172855272573031e-03
5.137556394045350323e-04
-1.972146010053072666e-03
1.258317169940508396e-03
6.559363680396916238e-03
1.135757141965388663e-02
1.481685125613098168e-02
1.151459353273451280e-02
3.420228131151534061e-03
-4.552834908570400733e-03
-8.015364662922748462e-03
-7.852521287380722845e-03
-9.261736645353152442e-03
-8.979893128610749731e-03
-6.950091568893868033e-03
-5.633756510087229580e-03
-1.015234570798140583e-03
6.672987945107381261e-03
9.902912738089532027e-03
2.601654241428110262e-03
-3.460247312380951897e-03
-1.101121056835510084e-03
-1.384123957255066137e-03
-1.558367652764619006e-03
-9.016630716823501902e-04
-7.273248634953962842e-04
3.324746083792318521e-03
1.964889934556733261e-03
2.274901988425470992e-03
6.120973105575676712e-03
3.047820209794221621e-03
4.339054188713778286e-03
3.200659610013705577e-03
-9.459918754913181982e-04
2.170882047327214910e-03
1.646942943989280605e-03
6.177631479680548154e-03
1.131067347960776348e-02
8.345626228532404892e-03
-2.018444099540208855e-03
-3.740995629844715703e-02
-4.808522072610364739e-02
-9.473022420973718771e-03
5.293033467009470097e-03
-1.168157885974882614e-03
3.039804637750627165e-03
1.211662989264298803e-03
1.034210376162438905e-03
3.968558651765861402e-03
3.990621002489829275e-03
6.496102045915682840e-03
8.143284355336670444e-03
8.858157497951898648e-03
6.337055041732696584e-03
2.817419875163970633e-03
2.393537163040201400e-03
2.957321090233988418e-03
7.184530367114489585e-03
7.780284431149338611e-03
2.872426942847671871e-03
7.297209278452909415e-04
-3.527985316118716682e-03
-8.457945877747164581e-03
-6.299008303859870463e-03
-9.978007553767961283e-04
6.623140629814649885e-04
-4.120402091115662980e-04
-6.632523614768468532e-05
-5.516212471968698220e-05
-1.711762491339644671e-03
-3.603343334996295631e-03
-4.476266281277395918e-03
-3.170728366555468965e-03
-3.508302962345965972e-03
-6.185651642394022869e-03
-4.021508404250511565e-03
3.014024929630423552e-03
4.976715379804303070e-03
3.062396537482306273e-03
4.741612693897873272e-03
2.918925109831418865e-03
-1.736573202502734569e-03
-1.380145361714160733e-03
6.668561761369049879e-05
2.222355751160753901e-03
5.567431335166950473e-05
-5.359093319705995721e-03
-1.116805460664559678e-03
1.654959539872209121e-03
-1.362279835703624885e-03
4.063303254026745699e-03
1.153645368339176885e-02
9.077364803289810630e-03
-2.697952188568317200e-03
-8.399913851020117395e-03
-3.818326301095481372e-03
-7.625509411042069238e-03
-1.205574931956666061e-02
-5.023832694619992378e-03
4.757842766314689630e-04
3.700665019786149399e-03
4.486884273205728885e-03
9.905472473039121997e-04
1.636080391197588255e-03
4.505672971572650953e-03
8.934781917961209796e-03
1.241443551395203689e-02
5.578747338002882847e-03
-2.313369390433230033e-03
-2.318106139909523970e-03
4.400335402779661305e-04
1.845708530068474081e-03
1.463104250721318500e-03
9.881427677385450602e-04
-2.576052898336823015e-03
-6.349573601081232380e-03
-3.915269411094565374e-03
-1.380229781445731219e-03
-1.804795419394913860e-03
-4.649594888955015451e-03
-8.779957469222181635e-03
-9.898181401518799799e-03
-1.112585655053609408e-02
-1.191310844828895495e-02
-8.405607496394068914e-03
-3.458784625790400306e-03
2.074794542281736798e-05
9.638243512825187594e-04
2.905744095106319123e-03
4.938627491927554368e-03
5.024175342390906941e-03
7.095082472065384130e-03
4.780937991964704682e-03
-9.931909257442743388e-04
-8.253327392899235688e-04
1.134174928775496995e-03
5.383303694525352900e-03
1.337013347997275531e-02
2.001652014851515102e-02
2.483580029190243441e-02
2.339330457753780595e-02
1.746640069797104206e-02
1.697183365711594713e-02
1.250959117166615397e-02
-9.491174914533991730e-03
-3.099749957990232188e-02
-3.249372764392976370e-02
-2.245339322969406096e-02
-7.153560171785458034e-03
1.318013189639498156e-03
-6.037590588063576798e-03
-7.112627573597441084e-03
-5.156967275597751366e-03
-1.227586373907416963e-02
-1.110957850449594518e-02
-6.793930933114730557e-03
-3.472874527974497381e-03
3.719557233695356107e-03
2.792259629036092372e-03
1.444627808959812959e-03
1.904575135406501264e-03
-3.546323515716771468e-03
-3.779946399780309291e-03
-1.912970878081492665e-03
-9.358735560769252185e-04
5.320712079054752339e-03
7.958538382446651849e-03
6.358586638358854765e-03
9.324452670127525086e-03
1.370379403301727646e-02
1.269723678483077739e-02
8.631632512590626388e-03
5.897035269976115372e-03
3.338125214287378587e-03
-1.884463706594742690e-04
-5.479662269426310850e-03
-6.251750979909704957e-03
-4.073862134113757352e-04
-7.641404042962422760e-04
-4.841140878053798793e-03
-5.722602524922756548e-03
-7.539765941473601692e-03
-6.274480738203816466e-03
-6.854583328232337174e-03
-1.098101285994275943e-02
-4.599173375408969339e-03
4.896371118193540081e-03
6.912413991863683264e-03
7.782125872555820112e-03
7.309688650560784012e-03
5.564381149035085676e-03
4.362351022883836742e-03
1.800660347544400311e-03
5.374584817357945824e-04
-3.044014622340300222e-03
-8.985498931829755467e-03
-5.605993949926610549e-03
8.229511755631678874e-04
2.479907878370440563e-03
5.618371372399154524e-03
3.227554079011393448e-03
-2.760598066019322346e-03
-1.984802717996161578e-03
-3.936348805641495460e-03
-4.360677527463661593e-03
2.204167612265288314e-03
1.173737659968689508e-03
-2.137120490522126555e-03
-8.736072163639823805e-05
5.591312362495186837e-04
1.099096646168786807e-03
2.283305090316513342e-04
-2.381344525842564019e-03
-2.335757657629556217e-03
-1.918303700509083141e-03
-1.934663935580547807e-03
1.131614544783619879e-03
4.974298426282795782e-03
4.204035324586166168e-03
2.312071271142960259e-03
5.996848279911844723e-04
-4.534373002673052280e-03
-6.538554245168149044e-03
-4.685749136818194265e-03
-3.467522457451114540e-03
-6.535904304813130398e-04
-6.312765347310476949e-04
-1.103745861694136344e-03
3.703681228228382707e-03
3.349786050679572948e-03
-5.012375473120839718e-04
2.751208213598633785e-03
2.510012994886212309e-03
-3.261242482096766721e-03
-1.981352510159253410e-03
-1.193311403760520528e-03
-3.801345268988809770e-03
2.948288329084061080e-04
1.400899926018943321e-03
-2.021389821601927723e-03
1.141783389752467877e-03
2.437718718809340351e-03
1.984645931416422013e-03
5.988856763085973617e-03
1.480117896464204063e-03
-5.778540535904663940e-03
1.438335159035228350e-03
9.195434360437232738e-03
8.165216715624725591e-03
9.124222604438743389e-03
9.088458543915016105e-03
4.400123034375499551e-03
-4.086113732588662201e-03
-1.514398293193970277e-02
-1.762898676960299865e-02
-1.147311619356786855e-02
-4.446717883599519278e-03
1.409206722548832702e-04
5.365887687253843852e-03
1.481707819585239769e-02
1.287711364528526525e-02
7.597410685015244802e-03
1.149889408270647097e-02
7.163992196881995185e-03
9.194521808978797783e-03
1.354303537202501684e-02
7.889097104409482225e-03
1.267608413668826380e-02
-9.919601296353284040e-03
-4.579021905517088875e-02
-3.360438896270086934e-02
-2.181890128837205012e-02
-2.388038534955714068e-02
-1.409742710806112000e-02
-1.874233103755520644e-02
-2.069908887436648637e-02
-1.000639187999374791e-02
-3.193677889929645401e-03
6.882062011682990067e-03
1.151542073690449766e-02
1.200318651675607445e-02
1.720844998681477639e-02
2.174354038865288982e-02
2.281824723078985581e-02
1.777894818786832434e-02
1.557148597962869363e-02
1.165999180820292969e-02
-2.045368126646096053e-03
