-1.344530397513464537e-02
-1.121538471948145023e-02
-5.585688346498344451e-04
-1.871745555751149924e-03
3.593935732086380591e-03
8.225925119217762649e-03
8.510752602074131770e-03
1.199068594551585230e-02
9.318465484801670765e-03
7.681948144174028693e-03
1.183487417788600844e-02
8.073335812018170646e-03
-6.951192701681648684e-04
-7.385958309976145206e-03
-1.216123916259064484e-02
-1.241816075305934679e-02
-1.476186305359908704e-02
-1.916994269531266393e-02
-1.254889961437773323e-02
-1.031345936028518285e-03
2.011368253252009998e-03
3.428596813327687326e-04
1.219647801175601908e-03
3.698302446021788613e-03
2.177091591744443298e-03
-1.995783278686687982e-03
8.567590088423169756e-04
1.097404896234478039e-02
1.355918320265640103e-02
5.430059806572881502e-03
6.597674360081553753e-04
8.649212063880647823e-04
1.526993816942744716e-03
7.190291640598716347e-04
-5.246981466057825533e-03
-8.214665776506714298e-03
-5.972310622614441546e-03
-4.453004286828415176e-03
-1.946779031311534139e-03
-1.534540486271058829e-03
-1.538274546213105626e-03
1.852163992633840345e-03
3.069350632292944334e-03
4.763963523765211072e-04
-1.185569262191948307e-03
1.964792062267429421e-03
3.722817263652363623e-03
2.886903143237012654e-03
3.247018349305081340e-03
7.264102535180584673e-04
4.448694934491948666e-03
1.134116101234726448e-02
5.723661123353431315e-03
-1.888225842838675474e-03
-4.771936573670513930e-03
-3.761188896745339388e-03
-2.364296989848446370e-04
-2.122760637114869987e-03
-5.451287891325514237e-03
-1.043475311715731831e-02
-1.560738674121862381e-02
-1.023538453653304384e-02
-1.198292938107850840e-03
9.375638688584359177e-04
1.283395166111113471e-03
6.505782748406656844e-03
6.409303804425671783e-03
2.828297999645128843e-03
7.469932987821943475e-03
4.460218956410284472e-03
-1.483646668307113782e-03
2.817816736302990697e-03
1.993414620907906463e-03
1.983056931026786450e-03
4.869463179724827125e-03
3.985767711100249300e-03
7.185733222721021884e-03
3.745328701268724105e-03
-3.674095393290954543e-03
-2.608798272814164768e-03
-3.317616010013432802e-04
4.339631079879705325e-03
8.199302932663998442e-03
4.842202337177649828e-03
-1.614532155097258073e-03
-1.087636239964258691e-02
-1.690600537158478203e-02
-1.253230994545659512e-02
-7.153442096398932547e-03
-8.592560037941947282e-03
-6.869941666814366812e-03
-2.668151948083417879e-03
-4.891299794753924991e-03
-3.822374289371418665e-03
3.136854470429977426e-06
5.802394766696685521e-04
2.874930578566118559e-03
2.058991774438248372e-03
2.926598690860428200e-03
8.337227409205142867e-03
6.236089028007087316e-03
5.382335251975061720e-03
1.236012666362717831e-02
1.526831900262565732e-02
1.077868701952757434e-02
2.759321110075890586e-03
2.306948035918964597e-04
3.746990088721891335e-03
-6.050322272158801477e-04
-6.770046796552232210e-03
-4.084597310410370725e-03
-3.057098844653031826e-03
-7.354385998049604075e-04
3.603179424269669934e-03
-3.849807750431001423e-03
-8.396926185836553480e-03
-3.635461626037464044e-03
-5.761966704532799598e-03
-8.264475628554953171e-03
-7.524304756666149764e-03
-5.750050403821621581e-03
5.904834697258414932e-04
2.750080283061554897e-03
2.085360672307084919e-04
-6.615837686470966940e-04
1.452372437302247099e-03
5.370930424357890295e-03
4.770151210565896568e-03
2.276502996227223238e-03
-7.408295721851034746e-04
-5.185290798562703328e-03
-3.209116276785157432e-03
1.049611467638359233e-03
3.040170056400586917e-03
4.880982584304664404e-03
1.435614017534474294e-03
-1.722339815257349725e-03
4.604866468005102548e-04
1.223432599074290817e-03
4.633212347532486564e-03
6.965842926873734749e-03
-1.146170696468864960e-03
-3.494708558115669581e-03
3.287134923490976548e-03
1.956331346104489208e-03
-3.958912633953125433e-03
-7.126668073932377646e-03
-6.189497344565125098e-03
-2.483291074202658225e-03
-1.679364425954661764e-03
6.054881214621910543e-04
3.029487961306286288e-03
2.850958774441100883e-03
1.783980110123710395e-03
-2.744161815736157178e-05
7.071454457511578556e-03
8.051203044023326483e-03
-2.675056631397303240e-03
2.633688483135681116e-03
8.029051457480404844e-03
1.381758979176040238e-03
-2.939719326800986805e-03
-1.075520675239589018e-02
-1.111418214804424896e-02
-7.170122543581341525e-03
-8.045645307151242515e-03
6.391603723583354083e-04
1.791525286791289043e-03
-2.477799098286476761e-03
6.167377891646121449e-03
8.409650541618856820e-03
6.905189065124959190e-03
7.236914323306364860e-03
-1.195227995331072431e-03
-6.116680141723021547e-03
-2.322922354499085736e-03
9.396342913110896809e-04
-4.973687444549088369e-04
-3.084017828575070629e-03
4.678306104286304658e-04
3.307237037635377651e-03
-3.610960101683133349e-04
-2.329959568283167855e-03
-2.316969475429897594e-03
-3.376725920063580570e-03
-1.024607871998478494e-03
2.734182899373715191e-04
-8.070850139046739907e-04
5.343643162058395700e-03
7.155047070318718179e-03
-2.048197244616664463e-03
-3.407583098513664727e-03
-1.491025487491956297e-04
-3.575517411716042180e-03
-4.779577326227704703e-03
-2.501000298039459183e-03
-5.464371920740375421e-03
-6.914931440776984385e-03
4.005323930807639168e-03
1.042932051494277479e-02
4.402368419849241564e-03
6.459223519001851092e-03
1.121497321972015314e-02
6.540241596364387150e-03
1.582225989766497315e-03
-3.570270236122194234e-03
-7.372234336248828339e-03
-4.061584938861570980e-03
-1.333152855344034741e-03
-2.669628589562809875e-03
-1.796068608368333415e-03
-8.571041584241501261e-04
-2.607539055683003211e-03
-1.218850066949132491e-03
7.955148547313449330e-04
1.361429658833896014e-03
3.666244319614510132e-03
1.093017897748426977e-03
-2.336178307988541307e-03
1.776941347057408834e-03
4.419886568271874476e-03
3.662642423649463516e-04
-3.199498199186474445e-03
4.313379707395785176e-04
4.108615517024813077e-03
6.055723133394224104e-04
-2.643225527158145610e-03
-4.305421736010292023e-03
-4.251903932603611110e-03
-1.324093986475111812e-03
-2.419080517568443500e-03
-4.894503527940725560e-03
-3.721697341967332862e-03
-1.065761812645077671e-03
9.746177625115082493e-04
3.280672725322441533e-03
5.734685591797785038e-03
1.355050545241464829e-03
-3.872162141543538348e-03
-1.350370925465207549e-03
1.576689043569343921e-03
2.659782874902245561e-03
1.205079771569279564e-03
-7.113021344630885865e-04
1.737732058450757984e-03
4.070345669780314063e-03
4.786746251453237282e-03
1.121082739327304480e-03
-3.786834113297354778e-03
-2.450992297632710072e-03
1.518303740830874654e-04
3.487587282122481518e-03
3.882019287228876108e-03
1.728723216758048728e-03
6.604401841003745138e-03
9.026356023559462677e-03
5.450014208508864241e-03
-2.588348782927987930e-03
-1.484706991489301992e-02
-1.457442327717519033e-02
-6.772554629254734331e-03
-2.566015854145254575e-03
3.164758236077893933e-03
5.045652205602118093e-03
5.089136573334357601e-03
6.643538846293161031e-04
-1.112256029895494942e-02
-9.651687297136606059e-03
-2.351465526972878594e-03
-4.156792432885155972e-03
1.179071240677909312e-03
7.774146539525025358e-03
3.704518505107510032e-03
3.453785684313019459e-03
5.351797394757212313e-03
-7.091889229590673822e-04
-5.481074491497925534e-03
-2.938976079320096760e-03
2.196381978212813557e-03
4.394720301083386051e-03
3.958097550712917807e-03
5.993792284344853609e-03
6.843532269107987023e-03
4.133268899619456024e-03
2.771338359463694631e-04
-5.233609377075495138e-03
-3.151593734581726453e-03
2.680319716282024596e-03
-3.395382424339531136e-03
-7.342220695181858256e-03
-4.055511976582176271e-04
1.865141349095445107e-03
4.948786434230707104e-04
2.482646211264940249e-03
4.681852173114631373e-03
3.008677782828793508e-03
-5.183827606253717593e-03
-9.682193169669783828e-03
-4.240005462256622552e-03
-1.392766820908586910e-03
-3.874108191566262983e-04
3.058976295733849878e-03
6.930671599474563316e-05
-5.270410005368086730e-04
4.808558024081920589e-03
2.414543517448354461e-03
-7.453990530841206460e-04
-4.752430743995741513e-04
-2.609980774527229704e-04
1.875422585491996101e-03
-4.736356232767761389e-03
-9.844271024045768773e-03
5.442539783577784399e-04
5.752969882462748846e-03
3.912372663114007179e-03
6.231865001359562263e-03
8.957643948290343328e-03
9.703684871380759830e-03
-2.131480803177476183e-03
-1.627977204945455295e-02
-1.002504607764355751e-02
5.328702523710489303e-04
3.516949665148965537e-03
5.424066665978546573e-03
2.419066529421638571e-03
-2.805415476504566179e-03
-5.524829938521391877e-03
-3.022814614169001650e-03
1.663364048674866079e-03
-1.803532614098137844e-03
-5.413086713171002401e-03
-2.646798330712562923e-03
5.857140662485618493e-04
3.379692045327697437e-03
2.236609406666794937e-03
2.900148245697809282e-03
6.675389560687220065e-03
1.577091811513422733e-03
-2.357601574078448808e-03
1.953209655862066935e-03
4.139296569118430108e-03
4.256256803605010589e-03
1.053267926867507099e-03
-4.450469058705885071e-03
-2.991010308976624343e-03
9.397883487687774167e-04
-5.701595629193033886e-04
-2.332061317285957672e-04
4.559426656512695006e-03
3.018431740392738677e-03
-2.392647470145330569e-03
-3.982010716908061798e-03
-4.673359260478866968e-03
-2.504584820099763944e-03
-1.576780038325899594e-03
-6.160362913934516564e-03
-4.630671317432356708e-03
2.442092138992039974e-03
4.437045051742218721e-03
9.088661727443528206e-04
-1.915722734599319436e-03
-6.770088303370409258e-05
4.291285569978817659e-04
-2.150049618198349947e-03
-1.582763538509207330e-03
3.236719209984074280e-03
8.807761366982198858e-03
8.459983711677410492e-03
1.732904805214956082e-03
-4.455111101872934881e-03
-4.980950167550585866e-03
-1.107010757245595290e-03
-3.269134258311230407e-04
-5.978994982082342594e-04
3.172327665387565752e-03
4.611141283507280177e-03
4.967725796210199427e-04
-2.187185462332368480e-03
-6.338735567099939346e-04
-2.808262818422523066e-03
-1.741461108763199105e-03
7.535242489332434103e-03
4.182757877230150120e-03
-1.998855867576328389e-03
1.306207470503729495e-03
-5.232400140605659826e-03
-8.378294387105649291e-03
-3.565850592101839312e-04
8.114906273770240274e-04
-1.835626734793943280e-03
-6.761244026002664886e-03
-8.097945997066731752e-03
-2.496621262142378200e-03
-9.768809954098435933e-04
-1.005418797542147018e-03
8.882120023727774162e-04
8.719272534245732856e-03
1.222011801194713108e-02
2.188978829897604474e-03
2.652042255715746609e-03
4.159714983588694986e-03
-4.358439351747051167e-03
7.346242849389739106e-04
4.513055613495068306e-03
-2.811114307898018470e-04
2.386605603543478626e-03
2.299537849413261885e-03
-6.119220996349423189e-04
5.163559794060836039e-04
9.336502077571468342e-04
-2.261017691984372729e-03
-6.311220204685361740e-03
-3.817854972501853218e-03
9.035919255508009611e-04
2.838218761773647191e-03
3.639049983921662998e-03
1.288631176871237643e-03
-1.030310088498531196e-03
-2.822771177780735406e-03
-5.399383256063657044e-03
-4.804379524898828510e-03
-1.801633098432017495e-03
-8.760644030149703203e-04
-3.307812987910076045e-03
-4.019335632377653462e-03
-2.133163376943215776e-03
1.117172824842417502e-03
5.632396678414777064e-03
2.506156296278858921e-03
-3.096586156128417183e-03
7.308024815308408230e-04
5.319438705525238176e-03
4.540718617734984704e-03
2.262058296344596816e-03
2.838461921757642892e-03
2.860158143994877885e-03
-3.584035735585433882e-03
-4.044437461373780011e-03
8.995093782840971313e-04
-3.487443689126928058e-03
-5.030610086610032110e-03
3.960746795979096235e-03
1.003518486887667802e-02
6.498446371503155232e-03
-1.985269693476656317e-03
-3.100286164393401944e-03
1.769111872117204920e-03
1.735791538446755482e-03
1.600941382442089321e-03
1.030812457354074625e-03
-4.864942935081158042e-03
-7.845756939545745628e-03
-6.101815294573939043e-03
-2.798419105350799605e-03
1.236340186064087149e-03
6.887678585667516163e-04
-1.266136910351920754e-03
1.685663328333871815e-03
2.086952475076381437e-03
-3.442848952334424950e-03
-1.662004821183742445e-03
9.022155783162889159e-03
8.910251757525744498e-03
-2.254258100111405146e-03
-3.952464540544295239e-03
1.339833882702056757e-03
1.753958456667923001e-03
1.333093090166900460e-03
-1.950162397957699422e-03
-8.632913366053235338e-03
-5.884494719922565668e-03
-2.609630492879859800e-04
-2.328109009017182481e-03
-4.832456731309955358e-04
4.841789310121714755e-03
5.983714845469576514e-03
5.723798498686955005e-03
3.519373351574120196e-03
1.330781699807122472e-03
-1.685810597069401558e-03
-3.905121775816138008e-03
-1.272667296875920661e-03
-6.139523175941518436e-05
4.653416002342287451e-03
5.159752792890224919e-03
-6.712006671710525271e-03
-5.409391544342867161e-03
-2.080118655969062972e-04
-5.093918245085868497e-03
4.141716694504654563e-05
2.923912628354986831e-03
-1.549089330358171179e-03
4.656471946422533468e-04
1.267556781339355173e-03
3.670707824716815722e-03
8.436226211008436213e-03
6.539773904419292523e-03
-1.099109573275548367e-03
-7.483957870797487352e-03
-4.528813100786154185e-03
-2.648470769972284273e-03
-4.928274034831670383e-03
5.123987367072218744e-04
2.408347372397738433e-03
-2.152863258178649118e-03
-1.774017340623273531e-04
3.424088331854100234e-03
2.319907670692130264e-03
-8.260118304790802293e-04
-3.156501119401992992e-03
-5.036924819507612727e-03
-6.340760457030736146e-03
-1.699771306963498334e-03
5.181232398092593637e-03
5.000656961970835479e-03
3.001342983022605316e-03
2.924307071561004640e-03
-6.886777181482661757e-04
-1.547391646672449704e-03
1.987550109921753377e-03
1.030884353877006181e-03
9.112866689839138135e-04
3.508914671940142112e-03
3.159730665802086558e-03
2.694516400229253050e-03
1.343619014293274787e-03
-2.951174067559595490e-04
4.191982660652684165e-04
-3.067269249545146229e-04
-2.963256410448132563e-03
-6.072497869771421170e-03
-6.873842152013348757e-03
-2.490749864823990634e-03
1.771625730783375199e-03
1.647332920230714596e-03
1.271763665577264500e-03
2.158610910427004662e-03
5.440985511857280481e-04
-1.747945687935469321e-03
-2.882784930625198212e-03
-3.520845014393385233e-03
1.314453281902618152e-03
5.859465095295612880e-03
1.668776685285831406e-03
-4.736279172292845604e-04
1.887737891240526700e-03
-1.144140562203140466e-03
-3.393728968345632781e-03
1.021779842210095938e-03
3.282435658346257931e-03
1.178367213136274514e-03
-2.858073551646265597e-03
-6.301127156553773534e-03
-1.810810333366018321e-03
4.301165207647826907e-03
3.707874609647795680e-03
3.168876617675172452e-03
2.065905555794633232e-03
-2.549021734670750723e-03
-6.854374272068437975e-03
-7.809089385661201720e-03
7.080212619973422000e-05
7.642753584122054071e-03
1.809802926913795830e-03
-3.438516513089020891e-03
6.248438328176563437e-04
1.623137084876344642e-03
-3.071185661166911732e-04
-2.724236712491336326e-05
7.123372845335889172e-04
5.180833702735834073e-03
6.548654310296221116e-03
-6.560600437498738174e-04
-3.034549921885364154e-03
5.115862708788257354e-04
2.326228900916902775e-03
3.984673545112203522e-04
-4.686801366386794156e-03
-5.820550185292469592e-03
-7.363172217743073865e-03
-5.564853488613185316e-03
7.390725823086765310e-03
9.737893360701918924e-03
2.992555298149328618e-03
2.652770075010097133e-03
-3.774212135526733378e-04
-1.475492403737654976e-03
-1.221586796168910947e-03
-3.142411654600933257e-03
1.873080053866241603e-03
1.893827928693261236e-03
-2.580233588038860579e-03
-2.115228347047079255e-03
-6.232563149234974197e-03
-3.903917881736498289e-03
8.004284627136561830e-03
7.558557723749003039e-03
7.016468664735151135e-04
-4.052143791254734064e-04
-2.160454869175220532e-03
-2.153887190390585404e-03
1.738520530936693011e-04
-1.674327201375158712e-03
-1.862653889667433395e-03
8.012554121237432927e-04
-1.501784856637897268e-04
-1.240054800027530317e-03
-1.837825278317374317e-03
-3.212557105782015525e-03
-2.377920303148307185e-03
-3.058583428659865985e-03
-5.722514612833556197e-03
-4.588719591154988460e-03
-1.137880041736092279e-04
3.848407295261876016e-03
6.911034602903241147e-03
9.732429231412660642e-03
8.265864150198374075e-03
2.930117544890031844e-03
-1.715202997381074738e-04
-8.916972368804124182e-05
4.641724772583079826e-03
7.804351114617784184e-03
6.893421218798857558e-04
-5.242230152338263165e-03
-3.712658923286506034e-03
-1.716860034523080315e-03
8.672214106472293793e-04
1.787428743518692771e-03
1.641135308041655064e-03
1.146472473500688254e-03
-6.321210555899299532e-03
-9.777829879168630292e-03
-1.981562180572347953e-03
2.093679361675191732e-03
1.378172606252780824e-03
8.787845601218073014e-04
-1.154520823467082308e-03
-2.232747604514720603e-03
-4.148022167388302345e-03
-4.047181337520791219e-03
1.900197969938924487e-03
5.473552042774057318e-03
3.086578967332180481e-03
-2.110278836861804834e-03
-4.327256323612275676e-03
-2.588339637189809427e-03
-1.866812975884038755e-03
1.008444832455125065e-03
1.383963864919261853e-03
-4.852578764747327716e-03
-5.736402718658402573e-03
-1.784224775808338848e-03
1.975109741461813020e-03
5.382856230439367340e-03
4.386494900774613216e-03
2.501583276202699532e-03
1.367439253828419896e-03
1.129648074616235306e-03
2.886095428389230753e-03
3.308958119279077365e-03
5.299586477521639645e-03
4.791964219528192619e-03
2.368144119778960166e-03
5.379199100919469269e-03
1.211809028240450449e-03
-3.034475309367717227e-03
2.868790120516923232e-03
-1.799628670363585554e-03
-8.652022154509525498e-03
-3.498153427534472174e-03
-2.063185091488965207e-03
-2.354904727302624488e-03
1.845706654170553140e-03
2.859456321745762648e-03
3.325230528760166927e-03
4.505528439685198804e-03
-8.832914389170286144e-04
-3.824336403890163296e-03
-7.480972142858097760e-04
-1.110955893142307783e-02
-1.885730543909593798e-02
-5.937356929005214307e-03
-7.559486260594398517e-04
-9.088528927019515636e-04
6.637646547236330553e-03
8.565721844032384014e-03
7.719173079155484431e-03
2.907569652388881237e-03
-6.923081850922436012e-04
2.032364321867514024e-03
-3.163586969599206829e-03
-4.382818989072924387e-03
-6.936244714698564808e-05
-2.636208811243895972e-04
4.726476371602532020e-03
3.594885189675971898e-03
-2.872099454988871151e-03
-8.785242021925280132e-04
-2.778372040868143595e-04
-1.607276717142564664e-03
1.322434817264112441e-04
6.036838992105879320e-03
9.001781104149337090e-03
2.448072956650076785e-03
1.033187272681127325e-03
2.546263715220501312e-03
-6.827053157645661093e-04
3.478515554214175586e-04
-3.789764841664753020e-05
-4.855535381366743973e-03
-6.462003566749037475e-03
-4.470523645954489235e-03
-1.983308203629072404e-03
7.251513008565725615e-04
5.979366768951208111e-03
7.554264019614290865e-03
1.015042402575111555e-03
-4.918926476391793749e-03
-3.928804752742687777e-03
-3.433767787529780867e-03
-7.046026943564026764e-03
-2.179084413649359959e-03
3.581098187994189233e-03
1.339622378858991870e-04
7.352279028927262688e-04
-4.891215846406201176e-04
-2.296473013609084176e-03
3.222054990349598573e-03
3.479078069748304386e-04
-2.462965297536838169e-03
-3.859878317541119448e-04
-5.199450332878437914e-03
-6.049407998153296696e-03
-3.685171658316791811e-03
-2.141490139029222017e-04
8.279606032919250777e-03
1.012770902097298066e-02
5.813535122115553663e-03
-2.550925986762010104e-05
-3.240432738553214800e-03
2.233937334909143896e-03
4.325491307469711035e-03
-6.980591085874248921e-05
-8.137013797731300520e-04
1.900008029618600446e-03
3.063756331138111667e-03
-1.191902579243045131e-03
-4.306740161340119957e-03
-1.076761547430779174e-03
1.511330044577595486e-03
3.063052758589005983e-03
1.090874400492613172e-03
-5.916493655535438531e-03
-2.555208613100451703e-03
5.500600445665025304e-03
-1.094113120014160358e-03
-5.704526113593320208e-03
-5.503913374549086442e-04
-5.275724689575648184e-03
-8.245631154844855482e-03
2.373398342304799177e-03
7.303712108371681819e-03
5.177481645862911167e-03
4.568734651078238708e-03
-1.139338704267836100e-04
-4.625415238191960855e-03
-2.114252155489387483e-03
9.796106756089563200e-05
-6.608098859473031991e-04
-2.019151988115649044e-03
-4.339349321904207440e-03
-1.697195998465117093e-03
2.837058554544105455e-03
1.772468967737063795e-03
2.978970297894035883e-03
5.608684968901530253e-03
3.828156860294962098e-03
1.430002161538850101e-03
-9.743901373113598736e-04
-8.393005194055379661e-04
7.684930630922592572e-04
3.084495920258023029e-03
4.394774050293439281e-03
-6.133051954849319011e-03
-1.231284958667141875e-02
-2.269083226379632785e-03
-2.264558075457794321e-04
-3.468283887435597620e-03
1.204174148497022751e-03
1.388457561016199918e-03
-4.331414836132860442e-03
-7.431117099206061005e-03
-1.087425618580366120e-03
9.303473129749566597e-03
8.042259023637119558e-03
5.155192288336026343e-03
5.921829041077899744e-03
-1.806766545437957618e-03
-4.477871987485546913e-03
-1.029636516873326264e-03
-4.023494306412554039e-03
-2.015666528208515362e-05
4.685377226802457142e-03
-2.152991939933051571e-05
1.345108283038664145e-03
3.228108650083856470e-03
4.557047423489661792e-04
-4.560799669419451550e-05
-1.133609389298321493e-03
1.785275087241682858e-03
1.510501593237599267e-03
-5.721443643355495282e-03
-3.201292303175116202e-03
1.178982559298209602e-03
-1.445170111638749313e-04
-2.272711075953701945e-04
-1.494541374737952313e-03
7.523889686221118742e-04
5.396386138323266014e-04
-5.260635290258899865e-03
1.006027267478211721e-03
7.423308480252196508e-03
2.538063978090082141e-03
3.310471907406823018e-03
4.767470805456809103e-03
2.540371409669982001e-03
4.454935926186062885e-03
2.024936520509063986e-03
-8.254349631722640579e-04
6.731859686278979151e-04
-2.507663620109562910e-03
-4.191830259944817963e-03
-3.225008962230224013e-03
-3.891974478819712480e-03
-2.275323050504132662e-03
-8.696830189109728323e-04
1.447909830345738610e-03
1.971116064035494542e-03
-3.464737283753081213e-03
-5.268502315707992295e-03
-7.404201541091625944e-04
3.652387975241798337e-03
1.820044263641553296e-03
8.393761147361396106e-04
6.316863857656064909e-03
5.123620811950481413e-03
4.409522368588787017e-03
5.797488237107840253e-03
-2.737190486790632565e-03
-3.160672795715142435e-03
-1.012909168074076563e-03
-9.020447209163543270e-03
-1.001370953647249054e-02
-6.627220256246337156e-03
-3.481327708083886436e-03
-7.142339399339715095e-03
-1.694818090412586464e-02
-1.149327511816338257e-02
-4.903696097160881694e-03
-3.069976835085733505e-03
3.736633002975065128e-03
2.882095254291454963e-03
9.609225998215280284e-03
1.915673921313189310e-02
1.187392685741914602e-02
1.523728482841974277e-02
2.333980317689447401e-02
1.974896309469433703e-02
2.272798571490218869e-02
1.613311462516790751e-02
-9.206083179614612567e-04
5.583705413709323315e-04
-1.492399000573657814e-03
-1.638481798143140780e-02
-1.608883355557620687e-02
-8.574545741402463117e-03
-3.625863126333844430e-03
1.192131330186346067e-03
-6.633024052781377094e-04
-3.778609285480608385e-03
-9.987015875405607507e-03
-1.386915918013691476e-02
-7.822447347391636024e-03
-9.047866095545845436e-03
-1.113130488565080081e-02
-6.861926655587166114e-03
-5.187944371647990917e-03
-1.995036093814182496e-03
-8.606663288491811243e-04
4.397761464306161258e-03
1.067109649342500369e-02
-8.167740368772956339e-04
-9.884536531617693633e-03
4.365222218454293049e-03
3.021937259807516013e-02
4.158079940772181626e-02
2.700338436023360517e-02
-5.130352165974035429e-04
-3.244859787504883464e-02
-5.070923757250201530e-02
-5.616892969288572041e-02
-6.671860781475541513e-02
-5.686142899837551973e-02
-2.960863298493853282e-02
-2.531648911328640561e-02
-3.575662051670743663e-02
-1.871184615775389748e-02
2.859929293986173890e-02
5.151550953114266557e-02
4.895611064276916835e-02
7.216996648876435050e-02
1.090061060778623331e-01
1.225134620549609560e-01
1.008355203839582381e-01
6.416161222707536527e-02
4.548511678666542629e-02
3.301870330534485004e-02
4.960687274128204594e-03
-2.025645747717479822e-02
-1.421965454545945189e-02
-1.307279910658430515e-02
-5.130183719037677975e-02
-7.514738998858970509e-02
-7.799518595286858424e-02
-7.560954638085116974e-02
-4.503799288472974671e-02
-2.036342551926606861e-02
1.246496750314696894e-02
6.211446008265727320e-02
2.558658506830219226e-02
-8.887912123587153601e-02
-1.767551016572794231e-01
-2.162704198317705329e-01
-2.054403135271569980e-01
-1.173812045279430116e-01
6.533147824784197102e-03
7.375006819142949921e-02
8.360226885271450359e-02
7.786413349379227300e-02
7.154482367261839892e-02
1.131947983873339836e-01
2.022190436048236228e-01
2.636157335606259533e-01
2.449879006199172649e-01
1.542572939683712896e-01
6.153039808434118685e-02
1.696463668106297160e-02
7.465891030380167673e-03
-2.783022308758859725e-02
-1.221054043031795794e-01
-1.745484780722783291e-01
-1.373817568140507928e-01
-1.287051815601004401e-01
-1.687159685237925588e-01
-1.401112783959227448e-01
-1.550155094639251753e-02
9.668856262269413804e-02
1.044751825727062711e-01
7.234689399136501331e-02
1.004578857805847464e-01
1.079331036387538162e-01
2.745675910866505424e-03
-1.221237100609340182e-01
-2.001299851765332427e-01
-2.451204700501953271e-01
-2.326506248266518584e-01
-1.611446661357517907e-01
-4.062774891208374012e-02
9.341963599858933709e-02
1.873272609126689081e-01
2.636013637960905043e-01
2.978141223540304861e-01
2.308693125415133551e-01
1.189363776267718525e-01
2.686523663351248620e-02
-4.042579865976920345e-02
-8.365385830655780453e-02
-1.014829454621512528e-01
-9.215368730608029801e-02
-6.381506617455091901e-02
-4.866999214638932647e-02
-4.430465492527817933e-02
7.547887350265833351e-03
6.546278211388126267e-02
4.877339366365594092e-02
1.590772391624418677e-02
5.270604106819935623e-03
-4.201331883215455622e-03
-1.656024451212289184e-03
-6.533621849251830191e-03
-2.079191785570268930e-02
-2.354619128414716517e-02
-1.636573931397243553e-02
-6.873827186009469001e-03
-1.913679177033401554e-02
-3.212387149019857446e-02
-2.138513616380041671e-02
-2.194103362571840285e-02
-3.339143176307767663e-02
-2.901171536151765651e-02
-1.449510232018075793e-02
3.413782304768577750e-03
3.098885909139674835e-02
4.313368850960386247e-02
1.955568088113600334e-02
3.631553409623163552e-03
1.150238576169362262e-03
-6.382157704941209854e-03
-7.032091187109341772e-03
-1.096501227689584100e-02
1.120321980282971974e-02
4.553191766830567977e-02
2.561666441532613539e-02
3.024744996414183585e-03
2.460689380200258708e-03
-5.486042575491949236e-03
1.661473329294497168e-03
3.928083729277338787e-03
-1.785359754947424922e-03
7.813257926537973616e-03
9.568793449096685971e-03
7.589368663891390629e-03
1.314004299706515722e-02
1.519148567740496135e-02
1.294993237228154320e-02
6.485798006679149505e-03
-8.222912888084522561e-04
-4.893468404978909558e-03
-7.134134054802801495e-03
-1.482966772297998961e-02
-2.492894087229986441e-02
-2.317093924269222893e-02
-1.410797022285783554e-02
-5.912113773452487044e-03
-1.714325076625725129e-03
-1.776433280213935827e-03
1.195085590370306055e-03
5.213187774502282823e-03
7.267803505404722177e-03
4.903839458515963159e-03
-2.663455873703841816e-03
-5.395738521239910358e-03
-4.463830782606180610e-03
-4.668331458646005246e-03
-5.338220840694947109e-03
-8.055608907446002581e-03
-7.761717646850476403e-03
-5.140152852758822152e-03
-2.950122777027177311e-03
3.984840024933392066e-03
7.150400210526631183e-03
1.792329493500914236e-03
-5.332493565144478360e-05
1.622051834478231312e-03
3.323606745063182807e-03
6.096114575041720537e-03
4.704011932427507731e-03
2.039367780095178388e-03
-8.935176119638412861e-04
-8.576720354002548979e-03
-9.503851367308146364e-03
-7.013022774545263154e-05
8.374790092484783732e-03
9.573096109666542897e-03
5.069576652291455342e-03
6.891755365957069612e-03
1.303468384004711350e-02
1.513831155536113533e-02
1.996270704622689351e-02
1.441353929812917191e-02
-8.837601943999944670e-03
-2.321724629076045432e-02
-2.281727658324737146e-02
-1.752963728109374272e-02
-3.781463492612819558e-03
1.344185065790703612e-02
2.216798257298627228e-02
1.559996356280756065e-02
-5.962842722365895715e-03
-2.421730866335939161e-02
-2.265067396881267556e-02
-9.721062417401411110e-03
2.145449075535659552e-03
6.860201219338124719e-03
2.686955119094296476e-03
-2.080507913123673131e-03
-3.807148346658886708e-03
-4.531001476406183379e-03
-2.796107404680813532e-03
-9.205568964664693089e-04
-2.419422964825264995e-04
4.220611779978254599e-04
2.020286801353225140e-03
5.415489086398964265e-03
4.797239632340765704e-03
1.548454094018360911e-03
5.408433149080817820e-03
7.559443869009131040e-03
-5.534198420259038445e-04
-3.720437664472582909e-03
-5.357538155515905939e-04
-2.962097730045372586e-03
1.275983086573887176e-04
7.878923136484833334e-03
3.567078732882581881e-03
2.267283567278554571e-03
1.071956230885193033e-02
1.011829023791190572e-02
8.244050717897272174e-03
1.026985128404466451e-02
-7.899450984429945465e-04
-1.795636340779240003e-02
-2.336628929068499533e-02
-1.468097554151124966e-02
-4.248972842801374428e-04
6.558182472331046745e-03
5.679016739644978350e-03
4.389997663979647823e-03
3.926485085709505857e-03
-1.406249321531199384e-04
-5.444204919199886576e-03
2.572614085089722029e-04
7.732709607503151887e-03
2.702487500241889523e-03
-2.297479680684044994e-03
-1.720104746653171443e-03
-3.699381878178995518e-03
-1.079074864417520901e-02
-1.332233569750233305e-02
-4.955740594411685816e-03
-4.864053754939084463e-03
-1.205741428810542040e-02
-7.827788814689462180e-03
-1.498417188994441559e-03
4.413201439960821523e-03
1.095259665709680773e-02
1.026301147086784021e-02
9.354563018538770980e-03
8.824282307704517381e-03
2.837331983496593855e-03
-4.316900845573557605e-03
-3.589523389894896162e-03
4.744837360181268504e-03
9.113656767638211170e-03
1.163026542732655336e-02
1.248971384985033545e-02
7.333873826043676471e-03
7.259101066116139048e-03
8.342379244531145793e-03
4.632585793982341507e-03
6.823600042041713838e-03
8.327941624520605532e-03
-3.336338770515564437e-04
-1.149602397960101420e-02
-2.252300933636630295e-02
-2.765562172070117064e-02
-1.586137995217953151e-02
-1.557662272309913573e-03
2.475387245064417010e-03
1.454678409003062585e-03
-4.698881917388721650e-03
-4.813260155108230708e-03
-3.197557652818207655e-03
-9.121578269987114240e-03
-6.385203954769162055e-03
-1.020741997147897769e-02
-1.745927211300320192e-02
-3.222733866548398770e-03
6.792638166545335830e-03
1.307663078326802043e-02
2.129451729605818383e-02
1.082846533786153281e-02
2.759441172272449842e-03
3.240342046210403348e-03
-3.798951312021749648e-03
-9.769440250539149218e-03
-6.195147366417405772e-03
6.969452637859321897e-03
1.676835297984122924e-02
1.320580232433962546e-02
1.232598097889097983e-03
-6.138048559090933387e-03
-2.058690208479253998e-03
-3.219929198937856595e-05
9.094931050766742915e-04
2.282478023706279672e-03
-3.394342630840800450e-03
-5.377639232382245421e-03
-5.525504360650845652e-03
-1.644703232698749122e-03
8.562816393750701319e-03
5.467283828766304581e-03
1.068202296456693045e-03
9.049763519257470953e-03
1.238107262930023857e-02
9.068786222412833498e-03
9.106223875225361031e-03
6.989772032294596683e-03
-6.052467026268711775e-03
-1.627371822537591883e-02
-1.537936864852424909e-02
-9.727686931887339142e-03
4.310652113739279166e-04
3.194605735519348219e-03
4.426505743806851030e-04
1.105203282591179104e-03
-5.885616328979727772e-03
-1.169571090236100515e-02
-1.130496690700209632e-02
-1.593399637201539307e-02
-2.009493331530150251e-02
-1.829442266178832668e-02
-1.034162173071408175e-02
1.484423242132012751e-04
1.183699657559725629e-02
1.887988596593703425e-02
1.034359733056607576e-02
3.865988592894042779e-03
7.187099119003284402e-03
8.423744410386698953e-03
1.168994055630850903e-02
6.694812640183184747e-03
-5.736396802914979672e-03
-1.414601248980415634e-03
8.467825270536230575e-03
3.890368007113596555e-03
-1.502581020690978023e-03
4.254030148821114944e-03
7.103137699128022654e-03
5.089121832775897122e-03
8.985461251155344928e-03
6.753920270595751597e-03
-1.205132931644203875e-03
-2.734149503328434008e-03
-4.136452650965727167e-03
-2.692073709531474495e-03
-5.477337246637831343e-03
-1.605979790422145184e-02
-9.445299064493584834e-03
2.463425376924435663e-03
-4.533734333692964196e-04
-1.471310890159395609e-03
6.553401834558968738e-04
1.761244935476453380e-03
4.637514253432006850e-03
2.168941886458466278e-03
-1.611804876927837521e-03
-4.855828891783570025e-04
-6.826431491342664897e-04
-5.735526410625794123e-03
-9.921310429941574555e-03
-8.966149752464637121e-03
-8.689464092329826986e-03
-9.519806268052112205e-03
-5.921279802469587086e-03
-2.625946383454711222e-03
-5.435788572379762068e-04
5.521283420012046070e-03
8.191998666577344351e-03
2.164575978219013350e-03
-2.642711943053117213e-03
6.385204929539894285e-04
8.304047072012573152e-03
1.069394443226968916e-02
6.328838171138732351e-03
5.758999684069588190e-03
3.917289951265490872e-03
-1.230983434198285563e-03
2.673197827688029212e-03
3.192202643304412665e-03
-3.733816541325987552e-03
-3.343989809024719949e-03
6.878277302519848714e-04
8.020374379945580459e-03
1.457639215526633850e-02
1.297827984022540543e-02
7.498087250880117530e-03
-4.106576553508731707e-03
-1.074381002777009819e-02
-7.705638833532827726e-03
-1.009953814625230532e-02
-1.113416537683500039e-02
-6.206923165964482215e-03
-2.626302208254751181e-03
-8.249917152471598555e-04
-1.179396510624400709e-03
-1.037228153526705303e-03
2.541703305957435577e-05
7.552494861075512850e-04
-3.327186982766426604e-03
-1.007529862482073844e-02
-9.986771554561228725e-03
-8.807565622562043423e-03
-2.115092488813417101e-03
7.579381209971748808e-03
6.015805948026180933e-03
8.761846428892531083e-03
9.562126913577341167e-03
-1.214918400433957855e-03
-1.506974184099784579e-03
6.641226760653668381e-04
9.807746309239738849e-04
9.031197565327307025e-03
1.151057688133621387e-02
8.250444638930690480e-03
2.343746363607863287e-03
-7.066157978253079230e-03
-6.793007563036603663e-03
1.906412771370825194e-03
2.869331657615780545e-03
-2.199575555636197263e-03
-2.014898709607594249e-03
-2.511629508408126394e-03
-7.159210524828344031e-03
-1.030484162233364157e-02
-9.387114579139519549e-03
4.562720607872959035e-04
3.926696037476602903e-03
-8.293469324228786108e-04
9.692579595843455950e-03
1.432953896326361054e-02
-5.055817801544907697e-04
-8.475581503707321773e-03
-1.007790273586392851e-02
-1.006314259454507871e-02
-5.156962573852994815e-03
-1.694745889148975256e-03
3.334539029678054364e-03
9.930037778403962012e-03
1.066254053241121047e-02
8.210965241158909439e-03
7.767797715906901365e-03
6.750726240286943416e-03
1.128814254182820744e-03
-6.897962499623229611e-03
-7.963617128134219472e-03
2.608364790850659651e-04
2.196649920486943783e-03
-3.271212756033507404e-03
-1.372391263266660357e-03
9.200050632040957096e-04
-3.559021646962593193e-03
-6.356323955993633743e-03
-4.575446438983499231e-03
-1.128436343583459666e-03
2.566704504228723609e-04
-1.953490547419697680e-03
-3.780352116368000150e-03
3.965515622479445779e-03
1.548545571869709356e-02
1.000143323395008207e-02
-6.997396016187847415e-03
-1.535625359013911666e-02
-1.186467533617396874e-02
-4.002246742217858456e-03
-1.593088720966091343e-05
1.141237773154401853e-03
1.392518259891317592e-03
3.159311585757735869e-04
-1.794856138405085408e-03
-4.268810537469097492e-03
7.765704468653803925e-04
6.178185695676146130e-03
5.737289165372917200e-03
9.708042118153251132e-03
9.315154223487304153e-03
3.553272744945031991e-03
1.279547906129512480e-05
-5.635584504743533334e-03
-4.632862086287350273e-03
-3.123385841518415505e-03
-7.092911340562280988e-03
-2.529092026557012377e-03
-5.583690293334208580e-04
-3.990367383685735833e-03
9.563242297799529187e-04
6.181798158226990171e-03
5.920987096189115652e-03
2.745976624178045854e-03
1.286938186773509477e-03
1.885223307532569829e-03
-3.410643936272645012e-03
-4.349305377871953704e-03
3.051370225552948144e-03
2.870019260768848484e-03
2.538872783651275559e-04
-1.913727882701339101e-04
-5.299802440515489696e-03
-5.811764164964851320e-03
-1.568389072917158750e-03
-1.614590427683265867e-04
8.016818800039351165e-04
-1.347934738075767672e-03
-3.510600822214713420e-03
-1.813648419327831525e-03
-1.687834636534092723e-04
2.861199273710896863e-03
3.725265890484886089e-03
9.111569389271179011e-04
-1.172839987775228104e-03
-7.008620432923873744e-04
4.777807871338924858e-03
4.981280821265365866e-03
-6.685398512463575863e-04
9.451647047090338226e-04
7.504087531745298398e-04
-3.649169732811313217e-03
-2.468883417611740603e-03
-6.978162977690797672e-04
-1.638559445723826490e-03
-3.019760867245846990e-03
-1.719953326909883905e-03
1.606875625550970195e-03
2.483294828004793675e-03
1.866954047564219586e-03
3.913748000662836202e-04
7.412241557544342694e-04
2.134773608478363581e-03
-4.307634478965781930e-04
-8.305888017047194805e-04
1.436216953704269345e-03
-1.587325524408443427e-03
-4.486774592273297911e-03
-3.736570460618060118e-04
3.120061492148465680e-04
-4.894496564164521439e-03
-1.608452110447834108e-04
5.741829449789064010e-03
4.546564507483941272e-04
3.319978392565635502e-04
1.851509164752556747e-03
-5.250168724557960007e-03
-6.123847991154165657e-03
-1.505120473655214642e-03
-2.731559858649232602e-03
-1.740769057025671378e-03
4.545427437461713009e-03
4.120736373773958676e-03
8.791271355873446838e-04
3.370609214355823995e-03
9.272170295107651792e-04
-3.266636871368008843e-03
1.233013303188391745e-03
3.900944395262267300e-03
3.622293033093569505e-03
5.454327429431449735e-03
3.323098217403507547e-03
-1.332604307729581220e-03
-2.669547258204291694e-03
-8.387479079149268721e-04
-8.689140317993272050e-04
-3.997775522742827610e-03
-2.638332351964696280e-03
3.124369375577402182e-03
3.992670940853891570e-03
-1.097009938850387542e-03
-3.371397936407738612e-03
-1.646855592638453956e-03
-2.835576864537115317e-03
-1.038860952964220947e-03
3.108603137180558293e-03
-2.267547841773381433e-03
-5.511212865096720530e-03
-2.747946354477813664e-03
-4.405348252124539031e-03
-2.321091862219975491e-03
-3.402294413856908530e-04
-4.564594780452857449e-05
6.343971547079221666e-03
3.412010676665125017e-03
-2.768852685359215592e-03
4.257186899133700371e-04
-1.622106437885994720e-03
-7.650390860023185665e-04
8.939973908934830543e-03
8.266434288422956980e-03
-1.678181493994806051e-04
-1.681285227318184703e-03
1.760851849868564321e-04
-1.706234444901098216e-03
-8.882730415702469982e-04
2.156988077698593093e-03
4.200430841057026981e-04
1.311321047040270391e-03
2.632140227614843033e-03
-3.215347295838584443e-04
-4.884042560585569615e-04
-3.346432815694638883e-03
-5.773781420634677662e-03
-1.307218626841525917e-03
-2.423142282190215730e-03
-2.247867162095582363e-03
6.675598836623847059e-03
5.066350045108671853e-03
-1.954958948611049650e-03
7.920529037660184425e-05
-4.045342268294350660e-03
-9.471538855932970166e-03
-1.145648297383771016e-03
4.859184489703904063e-03
6.535715516951677746e-03
7.025185680930884358e-03
-1.209877062387208291e-03
-2.954301635296439910e-03
2.826201633297352467e-03
4.493040463137581465e-03
3.355229877236134799e-03
-5.320083550176987058e-03
-8.317820579710559145e-03
-1.718495481300628372e-04
-2.433188336704037238e-03
-7.779227631902977530e-03
-4.667481748069740068e-03
-4.177970549894363152e-03
-7.026599584202139481e-03
-2.595184464828245718e-03
7.670917221390606555e-03
6.296282758501831923e-03
-1.161114414629945812e-03
1.138721878346364916e-03
1.261722169700617985e-03
-3.092111025581141190e-04
4.300135829702089220e-03
6.478483477821508213e-03
6.430569449769734172e-03
4.458848903696758549e-03
1.898106881769321070e-03
9.374156429224912148e-04
-2.175806714469513681e-03
1.345103058385789963e-03
9.865864238237674610e-03
1.062380808906301585e-02
3.477456896411129650e-03
-9.923003838342762950e-03
-1.625064434081443035e-02
-9.000506328681372181e-03
-1.550353265933147222e-03
4.283082706015711727e-03
5.621009260173670530e-03
8.389622028215422303e-05
-5.791701544637210125e-03
-1.164678660454494807e-02
-8.623627478426798207e-03
-1.095360015705364827e-04
-6.753410689913660978e-04
9.951837259272575033e-04
7.037712773913574506e-03
7.472623397657622395e-03
6.399755465468955073e-03
1.980121367662654279e-03
-3.858248054855948229e-03
-4.734113806355933277e-03
-6.312017292984213775e-03
-6.572096263873858021e-03
2.262687136738833460e-04
5.610684212549024719e-03
3.806112728266673045e-03
2.216240785271106784e-03
2.263438499020963435e-03
-4.053562307770456393e-04
4.266205948235594447e-04
3.776983968185349851e-03
-1.564345485259680554e-04
-2.833970830350726871e-03
1.631232552285213477e-03
-7.348333687648718861e-04
-6.485066219913837408e-03
-2.554725595406512166e-03
9.115452890845515861e-04
-7.891739484337274976e-04
9.593178493765304850e-04
4.349688402620060547e-03
5.158087419098811646e-03
1.047730054738298068e-03
-2.529103917784587905e-03
1.928932535897780263e-04
-7.331970627951048302e-04
-2.216886502069234221e-03
4.365686314245807893e-03
6.060602443838694967e-03
-6.141820723105199942e-04
-3.653304428979238863e-03
-1.296270907622725866e-03
1.431111743417339509e-03
4.762090040546066577e-03
4.870601376105264564e-03
-2.293905091490799041e-03
-5.797709612358963732e-03
-5.067578508616457644e-03
-5.270020935327064324e-03
-8.648297465438466083e-04
-1.382530980347763342e-03
-4.335160694794778363e-03
2.441218789838820857e-03
3.772910596644451272e-03
4.572862357922941089e-06
2.396341716877031444e-03
3.548732388669208117e-03
1.319626424976703960e-03
-2.935741962226840699e-03
-4.203850228928801558e-03
-1.772254530117632967e-03
-3.130196483537140469e-03
5.514485822258769496e-05
6.920472616695777339e-03
5.746527429336819107e-03
2.264779378670737312e-03
1.724572019668536502e-03
3.687127040815761907e-03
6.794304355203807915e-04
-7.932063305327665542e-03
-6.103197347565072518e-03
-2.691223968408939377e-03
-6.784545529061957771e-03
-3.927091253616754943e-03
3.615871221327502218e-04
1.414609212008471374e-03
4.266248403247437440e-03
3.873072405432860001e-03
5.250430279585881731e-03
6.907181462978227021e-03
1.729299136325478580e-03
-1.569800052537731212e-03
-3.426724393501089268e-03
-4.866997133203132195e-03
1.659124809408514057e-03
6.373149117211617844e-03
1.029905186358351073e-03
-2.672151687430167257e-03
-9.608494599254518379e-04
-1.910376722623171241e-03
-3.923332700473265190e-03
-2.855283438569353703e-03
3.759530059143553196e-04
2.828927924410108100e-03
1.188132736163329895e-03
1.916234283232729971e-03
5.246634176981349734e-03
1.643431818095964772e-03
-2.581272981474133209e-03
-3.153369373072456225e-03
-4.560067566365158878e-03
-2.444778770176346192e-03
1.518511033058103730e-03
3.397677716854601493e-04
-2.620005433948486857e-03
-1.564551151402939248e-05
5.647100214191987447e-03
6.184834212018445500e-03
2.460323831993863064e-03
-1.985164378692158560e-03
-5.115881295071195850e-03
-3.932229362541714290e-03
-1.265511838988913696e-04
3.150738420123536370e-04
-3.812840980468178934e-03
-2.101046204775527775e-03
1.635737340950323918e-03
-1.042732345857502567e-03
2.623136114344794354e-03
3.752146683448921629e-03
-3.355915934591502392e-03
8.112884480778522357e-04
3.150169515922937591e-03
-1.060209361852989737e-03
3.015417641958445874e-03
3.487314599838656215e-03
-9.858968897280384451e-05
1.083821759674475889e-03
3.912495228716617902e-03
2.732587977497342915e-03
-3.681639236206322736e-03
-4.762383584655549584e-04
3.523438354549272584e-03
-7.371160487407355660e-03
-9.815250329304903848e-03
-1.563231879085389764e-03
-1.085034240321322433e-05
6.676395327517241742e-04
1.666347479104529150e-03
7.912516463526493311e-04
1.470592202411453650e-03
3.670701105855494247e-03
4.935160116069186448e-03
1.413381103479656930e-03
-1.501014552682350791e-03
6.971004019943447439e-05
9.378180714079907250e-04
1.934735128872885597e-03
1.145203424303913205e-03
-2.117130638961209083e-03
-2.042394389662349156e-03
-8.646776204983108293e-04
-1.601591986047718927e-04
-2.610652750510514611e-03
-8.101396290515086238e-03
-4.629597766394741992e-03
4.040021469360288026e-03
9.216578897320004335e-03
1.042711012201720175e-02
4.070374561064998148e-03
1.093346580754886053e-03
-1.569777657411753138e-03
-1.595927088163377403e-02
-1.801624189655780597e-02
-3.748353758322363078e-03
3.562169434986540290e-03
4.099078369593737482e-03
1.803299287759197074e-03
-1.578205492975183520e-03
-1.388255122266510849e-03
4.014012958807876806e-03
8.467984311719580284e-03
2.279305709178855530e-03
-1.109333580109421761e-03
4.849428772038766496e-03
4.116158923442666921e-03
-4.844232604655860502e-04
-2.192194141216500906e-03
-3.058289026345167427e-03
-2.533688652520977008e-03
-8.065815317489623618e-04
3.462259484570265940e-03
4.411523254812960322e-03
-8.947647328854348896e-04
-2.914361148662276794e-03
2.545284722557048136e-03
6.917485615335012238e-03
1.688161251936318467e-04
-5.296117568523406663e-03
-1.084356246863204002e-03
-3.160449828035634488e-03
-5.459023919751638913e-03
1.653499009298937386e-03
5.800335735787079047e-03
5.757099116250657435e-03
1.193031362594252796e-03
-6.194985117641454812e-03
-4.696679106410675889e-03
-1.142889154087772287e-03
-2.262686935844743577e-03
-1.339525822074936600e-03
-9.538500142211124707e-04
-8.193883458214055787e-04
3.182749673697741599e-03
5.573441291390841303e-03
5.412090273635341425e-03
4.960162769899761730e-03
3.414537391358525922e-03
4.470449819169497788e-04
-5.931096572421274728e-03
-9.018736887875045474e-03
-4.076336361247833578e-03
-1.130493353593295261e-03
-2.359325885090529304e-03
-5.380300058896795613e-03
-8.334157211123219625e-03
-2.559600115307630180e-03
5.645684077677084155e-03
5.721395657983499930e-03
2.226196907498832322e-03
-1.154882277952213416e-03
-4.015514212099345441e-04
3.682462247695132262e-03
2.230091945267677084e-03
1.003477164372615577e-03
4.021900795123835824e-03
2.959688457260081557e-05
-3.601012456567175783e-03
1.806117196671576906e-03
1.191569032460698587e-03
-2.223019059425373600e-03
6.708188292206650064e-04
-6.539785721869542223e-04
-9.865414355341381187e-04
3.136960880397102712e-03
3.698078377546578678e-03
5.627551962128935284e-03
5.368237326026297634e-03
9.238728322607807526e-04
1.636797729648508662e-03
3.995510424125369234e-03
1.939230844445194880e-03
-3.093140324161872123e-03
-4.251168003537468543e-03
-7.788994733716137961e-05
2.000606685819873373e-03
1.498449965915655407e-03
-2.153202852357902469e-03
-5.518481282025054779e-03
-3.870927232778912166e-03
-5.447282856422267644e-03
-5.874118130434025781e-03
-6.124067217879573290e-04
-7.560917407116547403e-04
-4.843131382889507945e-03
-7.197457505838127448e-03
-3.183738349957663735e-03
6.053706958708698210e-03
4.752544837793433626e-03
-1.840245385108697437e-03
-2.616855377097807803e-04
-1.414907191011894856e-05
-1.507831650585792112e-03
1.342469363479837589e-03
-4.239023756642083265e-04
-4.696328286202772033e-03
-3.490451928012671149e-04
4.814055111660966307e-03
3.333217671773521223e-03
2.773882758658495484e-03
3.201116628229010858e-03
2.435041071767350945e-03
4.292519809842947759e-03
4.008525281167144884e-03
4.255748696331940304e-04
4.935624793663517774e-05
3.130654093766757889e-03
7.487813676192622142e-03
7.627161527261774529e-03
1.643807956085981603e-03
-4.189569389857638985e-03
-7.501325186865135872e-03
-5.653272989069697656e-03
-1.392437092536608697e-04
2.563205713347069606e-03
3.517347896989031324e-03
1.894252029558296697e-03
-1.725204574881268604e-03
-1.991297998811329163e-03
-2.675370526461135368e-03
-4.999724696121705947e-03
-2.074101852377980768e-03
1.246405671339993054e-03
-5.567426436283060345e-03
-1.122522749270359055e-02
-5.252829539255236477e-03
-2.066737814572547349e-03
-7.613207601291606332e-05
6.077927737296325884e-03
2.018003571224719853e-03
-2.237312475586334184e-03
1.462716272369408684e-03
9.251094463487616847e-04
2.337843063126707893e-03
4.452418053891217531e-03
1.992536278012729204e-03
3.967306700467893195e-03
3.990351181889817064e-03
-9.268356498463555318e-04
-1.375142422647914701e-03
1.899270873582518981e-04
1.328595269946072997e-03
1.758481544300417344e-03
-1.102399923862668442e-03
-1.169375515991390299e-03
3.166900267255830150e-03
3.945143161997109217e-03
2.351968218673103784e-03
-2.748753054580168448e-04
-3.208254874323732998e-03
4.258153430385145473e-04
1.910079307159869661e-03
-3.981221295980157115e-03
-4.717447582952034348e-03
-1.903387962415656375e-03
-6.370042995796283995e-04
9.252971543352552430e-04
2.421452619647667098e-03
3.034538191857808105e-03
-9.640006643822590735e-04
-2.440975866766667297e-03
3.800393488561868154e-04
-1.983888053822565820e-03
-1.676869883289966662e-03
-1.652910812759161244e-03
-4.644877290013898694e-03
2.459181434318102270e-03
4.730060114058595375e-03
-2.759451159226783239e-03
-2.724617674926101477e-03
5.459640810007008495e-04
1.943061902058937796e-03
1.626894095896303308e-03
2.237939818881581888e-03
4.380883901080048597e-03
1.696393434149269953e-04
-2.303138592380109088e-03
8.321971000551245737e-04
2.174302842165376851e-03
2.443937883102965513e-03
-1.974599509894679002e-04
3.391560227768060116e-04
1.725351086520411463e-03
-5.481802251432740976e-03
-6.964219440173211040e-03
-2.910871851213905123e-03
-2.819732444391191521e-03
1.658329331777497889e-03
5.064325254802205974e-03
5.957490966814532260e-04
-2.216938537076976537e-03
-1.179232199622236603e-03
-4.303069943777223984e-04
4.001092922088984524e-03
6.637939184157797337e-03
-1.166400237736770970e-03
-1.840962887708022565e-03
4.428252338812874167e-03
-9.089651951006591209e-04
-5.238694455600640017e-03
-3.488392791193896739e-03
-1.567289832847071178e-03
8.146943064087315339e-04
-7.983622624950451746e-04
1.057657387239295792e-03
3.160798638990442843e-03
2.588815385697526388e-03
4.046429501133284000e-03
-7.382211794974738017e-04
1.993555814005137320e-03
7.833668160685723636e-03
3.169377647133751340e-05
-2.648132895380869798e-03
-2.281446289830912650e-03
1.991901088620315861e-03
7.299069679456250855e-03
-7.232485872227449424e-03
-1.036951173264541795e-02
3.484152450179618752e-03
3.492062727353477565e-03
8.714750412533461442e-04
1.106228388442526036e-04
-1.781913037673954654e-03
-3.192947403260369774e-03
-6.960095456243793090e-03
-6.981238966761826696e-03
-4.941090623626775633e-03
-4.985614855911224465e-04
1.754894450495685142e-03
-2.571707186638530918e-03
-1.133659943465549361e-03
1.639945137751466558e-03
1.095761678192675630e-03
-7.679011798990198132e-04
-3.535400801933668517e-03
1.693771152014886955e-03
3.568925724613012957e-03
-1.232062101679835689e-03
1.105987394865192959e-03
3.267391622135788765e-04
-2.803846388334625770e-03
3.080273158285473829e-03
7.114721410203914305e-03
4.013802236711615061e-03
3.099153897002814365e-03
5.727143670641697201e-03
5.340368319714843860e-03
3.898118460137685228e-03
5.764909709140932093e-03
5.433571992389203686e-03
-2.662265116087335630e-04
-3.520272228497569461e-03
-2.526458745796712670e-03
-5.023775917214934501e-03
-5.666921298465100836e-03
-2.577704451508212868e-03
-5.207135010232397283e-03
-6.166343995523100065e-03
-3.194246574451769117e-03
-1.568430326382707967e-03
6.039974956135830270e-03
1.517438757025432738e-02
1.520896936708696599e-02
1.071460053732312817e-02
7.796210000801291791e-03
2.487699819448652063e-03
3.996144914456734487e-04
5.503349202072336556e-03
-5.615562550783614187e-03
-2.306663912628225191e-02
-1.997133635808783295e-02
-1.850178961411311912e-02
-2.134114052351809149e-02
-1.503513918564528852e-02
-1.319162633246103757e-02
-1.188557099136538196e-02
-6.178381286289862627e-03
-1.956891058931179480e-03
1.285067894665918586e-03
5.297500167004117258e-03
1.433286774137723478e-02
1.849702602534138846e-02
1.499747086718930707e-02
1.417518870648010534e-02
9.885179180486146008e-03
4.924389572852644163e-03
3.792968431258997991e-03
1.302812016733041365e-04
