1.066063970263239104e-02
1.782809336331724753e-02
7.206527654715372960e-03
9.916872430600036717e-03
6.155557004354780294e-03
4.780545513541457382e-03
3.364699508235078230e-03
-7.893911703328313975e-03
-9.428522605411238447e-03
-1.207069335510788273e-02
-1.781361095666992786e-02
-1.768971573107279774e-02
-1.546855799672808285e-02
-5.212696211796525800e-03
2.098523811314737322e-03
4.622667258272841924e-03
6.055527056908296436e-03
2.194242709472306319e-03
9.394998588994519714e-03
1.738484227642597343e-02
1.524453071051062002e-02
1.587212557870356505e-02
9.425942073514513575e-03
8.437991532583765872e-04
-8.605427473991695197e-04
-3.447145505901576690e-03
-1.920696052640497161e-03
-2.526460547549327180e-04
-2.508278768524555696e-03
-7.678151665537633064e-03
-1.535601354627498527e-02
-1.475199922785179994e-02
-1.210082084680611479e-02
-1.096711701890821199e-02
-3.865427310371621471e-03
-7.669629556144747515e-04
4.900860252400866422e-04
4.027790970323089081e-03
1.802099329199174796e-03
2.703877210720540339e-03
1.002464528946157493e-02
1.334088393768208258e-02
1.017623203279080686e-02
2.698292551379492983e-03
-2.296245998177185582e-03
-2.248781384104387229e-03
-1.656603664430299173e-03
1.037549652523800858e-03
4.314557705205578075e-03
2.207548649427521891e-03
-1.775455336635527615e-03
-1.723503728448761959e-03
5.827138576289006252e-04
2.233206776259872954e-03
4.171307001660810344e-03
3.664335789582642226e-03
-1.790207187733946917e-03
-2.961740628551676885e-03
-4.443799855387220920e-04
-5.963828236986336816e-03
-8.303851144088564978e-03
-1.570503673529982007e-03
-2.187302393792247418e-03
-4.707943009034006206e-03
-2.054764893050603730e-04
1.149743063494188151e-03
8.679881636033749725e-04
4.793546113537820730e-03
6.901827929700727129e-03
1.496635124437532827e-03
-3.544562081286006805e-03
-5.484709331223305015e-04
-5.213075519378046658e-05
-1.019458057087337674e-03
2.366340596354195823e-03
-1.420840597162534573e-04
-1.974542797572392382e-03
3.710688562123659324e-04
-1.127672179149901213e-03
1.333806841236427187e-03
2.283224893569985731e-03
-5.516807477308914923e-03
-9.861366620667423588e-03
-7.883562463117032779e-03
-3.865501611051212153e-03
-4.565204542778518535e-04
1.007902765139033268e-03
8.599211151259684733e-04
2.369374881304098755e-03
7.463010721347086186e-03
6.976110246559355174e-03
4.051478304307754193e-03
4.523750475415188113e-03
-2.099189080807203650e-04
-2.455103111366334703e-03
1.520209074657816834e-03
1.827311426272159797e-03
1.941736633889329378e-03
2.850566173038781778e-03
6.668576341030700485e-04
-2.292872014288815409e-03
9.424272800608911663e-04
7.793281781466349090e-03
7.181568917105961639e-03
6.260272181969609405e-03
4.447906651170352617e-03
-7.979517674744338734e-03
-1.558836087883446950e-02
-1.135826840713283041e-02
-6.030791035216927221e-03
-2.745267765862780332e-03
1.977003926761216886e-04
8.103222445972059181e-04
-1.892267471136982503e-03
-6.371588418361742029e-04
-7.596148097962080988e-05
-2.264887553954629713e-03
1.628200170366762151e-03
1.927147065525759879e-03
5.794252992701025718e-04
4.232205388949078842e-03
3.072317402288921116e-03
-1.014180533892581780e-03
-8.082715846432390189e-03
-9.174106083250156349e-03
1.723881867114652675e-03
5.013948645579104774e-03
3.830988215319029982e-03
1.333021176546248096e-03
-5.866580277530169564e-03
-3.131271286129470952e-03
2.094056434121931989e-04
-1.425142136655491295e-03
4.996343123335883485e-03
1.071327346582298494e-02
7.265855910471742153e-03
1.128453115985709066e-03
1.393814173183367876e-04
6.227361472005098469e-04
-3.343479163543626453e-03
-4.820883854067160509e-03
-5.687474670019738998e-03
-5.823057779328807623e-03
1.205307933823422531e-03
2.966284529065788163e-03
-1.854771259130349407e-03
3.995805667552596377e-03
1.521880385927525288e-02
1.380934088902645990e-02
2.054471192959005967e-03
-9.026705720475794795e-03
-1.359343057433913191e-02
-6.990862338296822444e-03
1.901608425066446178e-03
4.941825539816683058e-03
9.219682310732123937e-03
9.173699075372000744e-03
-6.741006809944846126e-04
-8.382062506053099618e-03
-1.053050285274553972e-02
-9.803025291321687193e-03
-4.468002350550593325e-03
1.966033778809536886e-04
-1.505085130397387956e-03
-2.662043414028097618e-03
-1.365460821942565857e-04
7.167678352766503535e-04
2.450726311735379557e-03
3.114261984537178892e-03
-4.839686167536085644e-04
-2.321430592639994565e-03
-3.154853711098450520e-03
-6.973595345746215913e-04
5.089457081800501624e-03
5.839001240954272941e-03
4.051429717895331344e-03
-2.964979084840784970e-03
-1.007912021537484340e-02
-3.172083054569506486e-03
1.431830567107173760e-03
-4.097752560442980948e-04
4.517180697969904075e-03
4.326059864842720162e-03
1.725489440327620123e-06
9.867845169905682928e-04
2.672043490986685584e-03
4.845612365338307359e-03
1.080638449167059967e-03
-1.532360453374817045e-03
4.816991960594285173e-03
7.049497598601056798e-04
-5.051531636049299764e-03
-8.399108877300600620e-04
-3.676026274044232392e-03
-4.657567466794567887e-03
1.063421707229915631e-03
4.575449220534808176e-04
-2.425771824502305149e-03
-2.689678458192990528e-03
2.814462982944906239e-03
6.626217667813279720e-03
2.733616746399809925e-03
1.966736218795599005e-03
-2.096696581824211366e-04
-3.249452768729898643e-03
1.291492988033878441e-03
4.756066964516250488e-03
3.141167090281101002e-03
-4.514618276645610689e-03
-1.061637395975978393e-02
-6.245538887172172662e-03
-1.828567208384353736e-03
1.327474338268021161e-03
3.822178395606042143e-03
1.884861599983104043e-03
1.748771772313370901e-03
1.373171581706472775e-03
4.953910635295986561e-04
1.584498916924822250e-03
1.282606146425534829e-04
-2.195467874293905060e-03
-4.843595000824566996e-03
-4.700467466926728892e-03
-6.743942652211961687e-04
-2.067110114182904926e-03
-3.905035430701902371e-03
4.701188220183746477e-04
2.261429487017894892e-03
9.741723733632163575e-04
3.225278358187349398e-03
5.609205840810017885e-03
3.461910022708666879e-03
5.547274497775569720e-04
2.123136790848940882e-03
5.027828950034137108e-03
1.355411022737456825e-03
-3.896810962081851369e-03
-4.505963637008197041e-03
-6.095543094732300271e-03
-3.335087800525702185e-03
4.106893229894523906e-03
1.835019363834744467e-03
-5.134123265386464526e-03
-5.417717975996856096e-03
-1.646345516719047121e-03
-8.464749476974001022e-04
-3.382842478110998329e-03
-2.243044771642492986e-03
1.183222249881903197e-03
6.021877455055826486e-03
8.960866513348802326e-03
4.616556363679257674e-03
8.323637446383511801e-03
1.540945402696721270e-02
7.107970510632125906e-03
-1.749396354152892626e-03
-4.816449697054411144e-03
-9.300733820264115576e-03
-8.891013806210662160e-03
-4.380212205092622220e-03
-3.111286825786627338e-04
5.270644412147031674e-04
-4.313330539208262877e-03
-7.741397933854456126e-03
-3.937668822780338723e-03
2.874615883668604939e-03
4.851044442207790020e-03
-4.033540300407205360e-04
-4.659367266203495207e-03
-1.567398036948669613e-03
3.605135919403540151e-04
-5.141308687258850339e-03
-5.848274550900921763e-03
1.781043377769049715e-03
3.288293153372304732e-03
1.499638680063661387e-03
5.489098191920332472e-03
5.446138510197914839e-03
2.697451538398349356e-03
4.307337096742501655e-03
2.095027293434003832e-03
-1.260108510087610406e-05
1.153516363463357548e-03
-2.411868214010343906e-03
-2.586463798796871313e-03
7.025984118205096845e-04
-1.158762742260812089e-03
6.309319393432698828e-04
2.827511128344205055e-03
-3.350631759957505527e-03
-4.082144143860423798e-03
-3.615547470778705287e-04
-6.718103927193899358e-03
-6.244865704570951546e-03
3.625759791589382684e-03
6.642038325663060820e-04
2.225381877538855618e-03
9.891110559114898310e-03
1.577126239462866512e-03
-1.288225501478965931e-04
6.147030875341060428e-03
1.168479295158604200e-03
-2.015324247556223979e-03
-6.196699017858102432e-05
1.972311517319485022e-03
-1.541707612379172778e-03
-4.430413365409459868e-03
3.595412967858359517e-03
8.404230635064135341e-04
-2.821717425222151823e-03
3.524292398542633407e-03
-1.149323816958863938e-02
-2.094840241658005309e-02
-2.802639883840116978e-03
3.196848380792913225e-03
-4.561684672648590893e-04
2.337306605869755340e-03
-7.317814761318100101e-04
-4.201967757401038617e-03
5.370190277798919014e-04
5.844628101294714086e-03
7.523054706141118174e-03
7.029050934702082455e-03
3.107364625773430516e-03
-7.437696006227724650e-04
-2.380455732555250960e-04
2.003283697548314049e-03
5.182967362566615749e-03
5.881066711471253337e-03
3.640951307500337603e-03
4.045248654814711554e-03
2.997418195464982699e-03
-1.758689552889844280e-03
-3.008759134973666965e-03
2.561579421832106164e-03
4.466654965055675587e-03
-1.771678129542792780e-03
-2.904048880597160948e-03
-9.130520586373728695e-03
-2.227540815452179121e-02
-1.387089960727804459e-02
6.716651312028876393e-04
3.221296306165675940e-03
6.178928915815679566e-03
1.551665162860301882e-03
-2.553390571903824645e-03
4.592977728035602114e-03
6.202798564281341090e-03
4.047899503589724376e-03
1.279181837963792000e-03
-3.988790449612540645e-03
-3.777744040295099269e-03
-1.733568409081540345e-03
1.000497478692736071e-04
4.422886154643702362e-03
7.011521936243663052e-03
4.471764854303694227e-03
-2.180344427935343703e-03
-5.921384253738727101e-03
-4.380642722748876935e-03
-1.471245575190808976e-03
-1.708639095181491022e-03
-6.035262605292319310e-03
-3.952825772659466011e-03
5.789486528588315851e-04
-3.078320789213736305e-03
-3.720020072183364093e-04
6.936922790695728390e-03
9.981963303763842586e-04
-4.755143994418633245e-03
8.636689817148845679e-04
5.883405238006307776e-03
7.704604412226049616e-03
8.766964160695066982e-03
8.578532482535565148e-03
1.022268598946728980e-02
9.571034566348038744e-03
8.573822755518983136e-04
-8.936819631548291454e-03
-7.785062852478295131e-03
9.105401042099863906e-04
-4.522849646662561725e-05
-5.892848813580706287e-03
-4.129100693973698950e-03
-4.805159302511012587e-03
-6.014502704454177846e-03
-2.893387257781002142e-03
-3.752252184623436956e-03
-1.059720711552418872e-03
1.752118755757446850e-03
-3.555302950752662998e-03
-4.090333511289020486e-03
-3.056333512267719182e-03
-4.368103009353781555e-03
5.095538705174865917e-04
4.679452749334748508e-03
3.121128184905982376e-03
-3.562228124426932048e-06
-1.103806571794722175e-03
8.825486733220978732e-04
1.529381573025562560e-03
4.651071938899486698e-04
1.816707397535838699e-04
1.359075535287872791e-03
3.524770886354177107e-03
1.980448394665901193e-03
-2.137880089215403717e-03
7.061190689861707864e-04
5.516053007700429632e-03
8.218573737881484931e-04
-9.030666134665536011e-04
7.744149523193257900e-04
-6.562658933878792733e-03
-3.514294768408845505e-03
4.998416766234197936e-03
7.832334643855743067e-04
3.371415511443396316e-03
5.223594218702306072e-03
-3.547812559516764965e-03
-5.255398605871042239e-03
-2.257165971185041455e-03
5.105647032212501379e-03
9.057942441469828826e-03
8.575842117462018381e-04
-1.389313117596186354e-03
4.059166534791181294e-04
-1.716889478536733115e-03
-1.924535302152003292e-03
-9.910509744849036254e-04
2.181661195175813982e-03
2.648956290425468884e-03
-2.222039830065746912e-03
-5.685529088161049571e-03
-3.776696018737978576e-03
3.214077168183352307e-03
4.703258992926359280e-03
8.365048101311722828e-04
6.600039365082734262e-04
1.592598724933314090e-04
-3.495129646670444654e-03
-6.917287130568617812e-03
-4.903856952587905965e-03
-4.216302661922627718e-03
-8.489766755859608563e-03
-3.803322668435301940e-03
1.242374123228577164e-03
-2.082914211004734898e-04
3.011854946284370314e-03
3.255420705885790113e-03
6.944604788590647481e-05
3.733572421377344473e-05
-7.754527798580154469e-04
-1.263436659635751346e-03
5.092408369606921548e-04
4.442406436698149302e-03
5.311295211792982189e-03
5.464263232048665458e-03
9.854332783942735749e-03
8.363191307161298854e-03
4.253561116011997205e-03
2.079480951767117679e-03
-4.664435473618617069e-04
2.702897639621838245e-03
5.652904253289805624e-04
-8.878516689268057052e-03
-8.315319403796938430e-03
-6.733305639539848356e-04
2.654527777178429526e-03
-1.048698123253026309e-03
-3.916402979022104089e-03
-2.015998244318280633e-03
-4.877759850501911694e-03
-6.629946962234053130e-03
2.593386385343378342e-04
1.954621695932882205e-03
-1.925092129432003519e-03
-1.545257717483923803e-04
-1.287831155571413089e-03
-4.463274737346142190e-03
4.433393153580357515e-04
1.302366332660165750e-04
-2.135646847003590688e-03
2.792116742120526792e-03
-3.124007983831707767e-04
-3.660556005803826309e-03
-2.094959013014682726e-04
2.067904027515079807e-03
7.724310747695373354e-03
1.043287455661677694e-02
1.156501737816791574e-02
1.297047781645837249e-02
3.649141490437412313e-03
-5.586978106956340742e-03
-8.554677545867136329e-03
-1.030883984431294441e-02
-1.151496724622085716e-02
-9.328791995715934524e-03
-1.026077503518642168e-03
-3.003755136314046736e-03
-5.749417390392274653e-03
3.571586236536862437e-03
2.002759179047712643e-03
2.060319228050738142e-03
7.325805705131212438e-03
-1.018978917579381211e-03
-1.635152444385266825e-03
4.452860495925478092e-03
4.599370686735888836e-03
6.068480392941531971e-03
4.530022620823099394e-03
1.811451425325578306e-03
-2.802322939619642829e-03
-3.663731969308628520e-03
4.266782407357234096e-03
4.433971964799414932e-03
2.199382284601227294e-03
3.659216616685614758e-04
-4.162973791676426172e-03
2.877290287757747547e-04
2.896769720828616407e-03
3.887979847393123727e-03
5.950747841210099996e-03
-6.924644977094938578e-03
-1.844974722534101913e-02
-1.472214274975131368e-02
-3.914264124696829016e-03
5.655206281611670042e-03
1.886318549603683203e-03
-3.781756514669349506e-03
-3.185553260222795825e-04
1.013873717892581523e-03
2.508436880083710291e-04
-1.270781250617494329e-03
-3.502099644648225697e-03
2.303650339530194727e-03
1.005705346163866115e-02
7.614925958380956011e-03
2.682041178411793177e-03
2.428823209917062124e-03
3.781585813412144999e-03
5.633034430678795015e-03
1.241776473159984708e-03
-6.079907642236983059e-03
-8.100871822715197124e-03
-1.302129118965744854e-02
-1.680027869444281063e-02
-9.951943042763028782e-03
5.321227492819814026e-03
1.744494127350026957e-02
1.017682776388694268e-02
2.546941278799985751e-03
6.983495367749986867e-03
7.989778108351404352e-04
-4.372712025778241474e-03
1.963571315730044432e-03
1.498738964977975024e-03
-4.677656083405967876e-04
1.258524518439350275e-03
-4.653647655039219819e-04
4.765939246667261989e-04
4.088475213171570942e-03
1.485981683389639516e-03
-6.748856198369857342e-04
8.381911267249355160e-04
-7.844035708812069222e-04
1.761034216028129710e-03
5.017816195154209229e-03
3.378407318876976845e-03
3.548752388333263619e-03
-2.981063779980318122e-03
-5.723337238704360314e-03
-2.268314265505209839e-03
-1.355912483893151506e-02
-1.527133691121146213e-02
-3.798554687850079839e-03
-2.863754203667718580e-03
1.641398220906040281e-03
3.828904499660439487e-03
-1.083316429441902361e-03
2.581348131620868087e-03
2.593942794829800624e-03
-4.155237501735568884e-03
-6.162004509256800364e-03
-3.973575485004992788e-03
-2.838686210384670176e-03
-4.187249369006630466e-03
2.918758099476835002e-04
8.800553810412821074e-03
1.158365270712675109e-02
8.162101055940163691e-03
3.450610072299287005e-03
2.636758510935616629e-03
3.005882674237693106e-03
1.908754699591322292e-03
-5.555564032686084123e-04
-6.014094819104783750e-05
7.698522477196350321e-03
9.226033383371710916e-03
3.703590227892823196e-03
2.562419107093035203e-03
6.430845930078246328e-04
-2.306582778012177849e-03
-5.426884206066479727e-03
-8.860046518190009893e-03
-7.746787519957091042e-03
-5.326188846886533920e-03
-3.600022631972548976e-04
5.693187594580075006e-03
5.160489334403694714e-03
4.304251202459543745e-04
-3.042135962445276752e-03
-3.348022508760930497e-03
-7.523848405480517733e-03
-1.047880768479365725e-02
-2.134043712132919872e-03
1.331840096983028746e-03
1.204910055306688274e-03
7.092487361298305260e-03
3.356670115845037522e-03
-3.868186005346254709e-03
-2.907242897601745955e-03
-1.761033791226256561e-03
-1.209789302623466610e-03
-3.209715009926131235e-03
-5.328188667904795901e-03
9.384669201387584774e-04
5.557901598695011609e-03
1.475732223149619007e-03
-1.494197993802650801e-04
1.669691653644122609e-04
-2.009829254547239059e-03
1.222486580334696590e-04
3.767456389501943476e-04
-1.031969533243957439e-03
5.688252331884478645e-03
6.870601423322558049e-03
4.597406535437119184e-03
8.752803447980194579e-03
3.377910175084678987e-03
-4.527827526792315392e-03
-2.653155456047700828e-03
1.336296128355289560e-03
8.123508379699658638e-03
9.091393288052430563e-03
-1.224636460853215916e-04
-4.748936645882818192e-03
-2.262776393396990961e-03
1.429175486071749233e-03
2.626536011353554877e-03
4.720409263634917888e-04
-3.810052177351976824e-03
-8.723956254106528946e-03
-8.987598665206035509e-03
-6.200452304255427670e-03
-2.495079144207721592e-03
2.475795150913419167e-03
-4.623352619244224426e-04
-7.422824819504409387e-03
-4.476035859210973807e-03
-4.817205561123591136e-04
-4.461122345934863745e-03
-2.562858943034593880e-03
4.672167656198252493e-03
1.158681050236588057e-03
-3.225079439951050037e-03
9.179877093430335215e-04
3.208446350273098935e-03
5.210942457157682027e-03
7.647088100045321656e-03
3.192912927340695126e-03
-1.959777618260986464e-03
2.022191706096692243e-04
3.107497519043159011e-03
2.194352892733356531e-03
3.303977272031869729e-03
2.697079496581135816e-03
1.256462492539425985e-03
4.087057815771257679e-03
-1.561534199246256485e-03
-7.101326721197745440e-03
-8.253923302566570789e-04
9.481856509245959515e-04
2.094709914520952610e-03
4.125865381145276192e-03
-2.395196153854887208e-03
-3.462874117076211906e-03
-2.358232684361842460e-04
-1.458178793365955475e-03
-8.925056053851680282e-04
-1.292104516390645821e-03
-1.468105621875877330e-03
5.795457226386633133e-04
-7.890901046978006633e-04
-1.221437832191278909e-03
1.294664076449515396e-03
1.591855669548034296e-03
3.549197729194252210e-04
-6.467731190254616966e-04
1.928943944517415472e-04
3.251283808417806866e-03
2.578112857262874428e-03
-2.133986929940190434e-03
-3.595339439743204003e-03
-2.422730536089318012e-03
-2.791961926232902798e-03
-3.342833806859811518e-03
-1.164505881997572124e-03
2.281323046093667976e-03
1.238153389118782418e-03
-1.339813217897540534e-03
7.911287782294725013e-04
1.967598698362879768e-03
-2.365437288011390689e-04
1.045926694701603725e-03
5.275725815452983122e-03
4.308574920560147119e-03
-2.398259220213225934e-03
-4.915462608917632245e-03
-5.637737082388014249e-04
2.269031703176075873e-03
1.456850339847408447e-03
1.124776473631711833e-03
6.316111276812661889e-04
-3.408840085904647332e-03
-8.487386922061768493e-03
-5.440907619310924627e-03
3.414614246294410058e-03
3.948609025676530840e-03
1.539854222866504987e-03
5.195253574388620371e-03
3.720446776918343110e-03
-5.901518255577235502e-05
9.035703353280237276e-04
-5.073697287976586430e-04
1.446658649712857054e-03
5.365540597340632926e-03
1.612906231379226214e-03
-1.940775740191963113e-03
-1.115049263273849454e-03
7.870595089431334061e-04
7.700940184775480809e-04
-2.171777947588866484e-03
-4.471427085104129513e-03
-5.533004158633596063e-03
-3.699348475548275110e-03
-3.462610369104546053e-03
-4.782340210757816089e-03
1.707541151345664653e-03
5.717986263906734562e-03
4.472676192605547045e-03
3.931564423748017817e-03
-2.333440311398195851e-03
-4.007832458029157371e-03
-4.596322896730170929e-05
-4.498595457076089740e-04
1.291413387124291543e-03
2.557161061118286283e-03
1.867003520850270140e-03
-2.718933063143117996e-04
-3.059196625174954044e-03
-6.991495642062507676e-04
-3.283495448086628556e-03
-1.242790764250394217e-03
8.870236254994031191e-03
1.204761930703949612e-03
-6.870586952376384060e-03
-2.824243001814383865e-03
-4.000105197828155226e-03
-1.534255462168641459e-03
4.586564794505896409e-03
5.854144585257545913e-03
2.622373486321316442e-03
-2.676697387652263171e-03
-7.567674061544681172e-04
1.103635239657578667e-03
-2.503660348448488162e-04
1.423148800530619823e-03
2.068634504055036176e-03
4.721760235702310293e-03
3.413152734587461198e-03
-1.970427498363477945e-03
-1.034526538071420775e-03
-1.043612762776060599e-03
2.687119697841176737e-03
4.083659040167594845e-03
-1.109971900725553393e-02
-1.442411952609717711e-02
6.405085238490506455e-04
6.971549602897866675e-03
4.430824378253278399e-03
-1.265370868143925707e-03
-5.028882834817598874e-03
-1.797014978496268376e-03
2.846939299470913716e-04
2.963839322485679450e-03
5.007551830259307328e-03
5.705416694619087990e-04
1.784666536375837049e-03
3.680647961954977478e-03
-8.560041075697596849e-04
3.760946223331350195e-03
6.198798890701641938e-03
-2.965134477207365983e-03
-3.989158354580556350e-03
1.101734435342675177e-04
-1.041247010828240350e-03
-3.476596063159852982e-03
-2.812441881935234637e-03
3.372508624428423654e-03
5.562205567099620489e-03
-1.775635328759958727e-04
-5.586177005636544513e-03
-8.069142188076791622e-03
-7.104501859149369748e-03
-3.920125733826034659e-03
4.988809736443858668e-04
3.382949756434094294e-03
2.728451444225654318e-03
2.070763687470892050e-03
-1.968224686857041050e-03
-5.908439041804794574e-03
-1.728121108594720453e-03
3.570277964022468796e-03
4.375346403850651281e-03
1.368534635750504351e-03
-1.629880988778876702e-03
-7.983632468640884834e-04
1.990623837870597514e-03
4.269162782378137927e-03
4.002706266381879201e-03
4.275183790682973196e-03
5.148238958371030398e-03
4.044197534020946630e-03
5.740124313817491185e-03
5.218530643467384281e-03
1.880417485702398769e-04
6.584516800287818763e-05
2.953177676732151626e-03
2.877557440375111148e-03
-1.635150779982238881e-03
-5.291072980342544085e-03
-1.764021375836223419e-03
3.242749558012212457e-03
4.788148494977515456e-03
3.358459113648864462e-03
3.968950005118183173e-04
1.723776172951131170e-04
2.734157511435353349e-03
2.482375589268703917e-03
-1.839280634632570448e-03
-4.436533724470088404e-03
-4.683507891347417698e-03
-5.203940090912564584e-03
-6.669205471743711033e-03
-8.288677931784015768e-03
-2.649720777905463943e-03
4.428067232967863691e-03
2.671444807930319250e-03
3.395863451716566762e-04
-2.721439145652257158e-03
-7.142887834312857190e-03
-4.911992677976603251e-03
-4.733849231382174314e-04
1.551896195154402929e-03
-6.902081869452690414e-04
-2.671395547311757566e-03
3.621276287763711826e-03
1.062531159684674230e-02
1.493255032358951559e-02
1.758079189580068896e-02
1.243366064043777489e-02
1.497547925394448901e-03
-8.532023507570912074e-03
-1.380221878782759634e-02
-1.743230744905368765e-02
-2.257463793313768327e-02
-2.153158006445993894e-02
-1.565898674186790365e-02
-1.297722523444301730e-02
-1.017255997413504635e-02
-8.518864121767926595e-03
-7.529777446646901407e-03
2.891758505957924344e-03
1.512853380040308539e-02
1.837804836651624543e-02
2.013562638526684295e-02
2.372437812567803131e-02
2.622384408288980229e-02
2.725550015871614981e-02
2.703396379730118107e-02
2.249542297407081115e-02
9.272059388598513641e-03
-4.439992214343854108e-04
-7.052792131544637598e-05
-2.651692093836460935e-03
-9.682547700374379701e-03
-1.986464390163347402e-02
-3.478216394394703648e-02
-4.995364618811960755e-02
-6.205541925284929067e-02
-6.369145334879053322e-02
-5.472483376635930291e-02
-3.854072495346933663e-02
-1.250917526812266554e-02
1.329371544850358085e-02
2.637336341915468355e-02
3.426930269773668936e-02
6.021686563451156965e-02
9.240010479296287271e-02
8.885363781843708120e-02
6.453503331158040590e-02
4.774275125511029394e-02
3.079956866184230951e-02
1.940137415082793595e-02
5.836446146074278883e-03
-8.501639809332401515e-03
6.444104361086760296e-03
3.472927609738064858e-02
4.767540546893892645e-02
4.005787277677856639e-02
4.063545648041651942e-02
8.072440014520949891e-02
8.044137795062014651e-02
-1.737165673523858797e-02
-1.395999896302824173e-01
-2.376993900975981067e-01
-2.838834482497649137e-01
-2.736311544596553569e-01
-2.528699874308671935e-01
-2.017670437812704443e-01
-1.040818131237936095e-01
-1.274038885055762613e-02
3.868831919131691249e-02
6.143997137612678544e-02
1.158539712389932003e-01
2.152068004464438855e-01
2.742219349907417114e-01
2.445686071250887661e-01
1.684591435410898452e-01
1.058808816340581493e-01
5.818268451320933454e-02
8.130545118763243470e-03
-2.448346646760376014e-02
-4.028086418726594536e-02
-3.581037190124174152e-02
3.533873515381007711e-03
3.825896256464933476e-02
5.161746233430794528e-02
6.795077824224869667e-02
5.860891457001633775e-02
1.814851605900892617e-02
5.278177265441788557e-04
-2.961204707482311543e-02
-1.020725361575010731e-01
-1.511375512275899557e-01
-1.801969837803459873e-01
-1.670996536176939939e-01
-9.672869516625900999e-02
-7.817499494047251696e-02
-4.480496336752706754e-02
7.683905165961758821e-02
1.329238533938664757e-01
1.100197626930279060e-01
8.661320378404979703e-02
4.907734048854198866e-02
2.323861294994149576e-02
4.369305494859958283e-02
8.210664087097604980e-02
6.120255141633412083e-02
7.770604930823778699e-04
-8.763801964493205671e-03
-4.601061107481511578e-03
-2.183158734464295953e-02
-4.512885314250326962e-02
-7.057219755311097686e-02
-7.516922639617674984e-02
-9.599095514687487618e-02
-1.467599149771840750e-01
-1.891308071580141692e-01
-2.041622161691982740e-01
-1.618316818857142014e-01
-9.927076657049305197e-02
5.465036646125401819e-03
2.014701589489331091e-01
2.844426982611149013e-01
1.603190910331387664e-01
6.841401764475522895e-02
1.064735631928143827e-01
1.339789641901855677e-01
9.135751514477000179e-02
4.755331467653089311e-02
3.699647322969786684e-02
3.381419510342542623e-02
2.336977782951463536e-02
1.604425048219257355e-02
2.232965377231627482e-02
1.402635850604457869e-02
-9.708061244248394547e-03
1.157624316403847026e-03
1.055292823129284387e-02
-3.215188229823099514e-02
-6.338341699811438079e-02
-4.792626571575014233e-02
-4.375887725006133433e-02
-6.994234839755945898e-02
-8.600793900439095141e-02
-8.491856521278125236e-02
-8.462635464748199943e-02
-7.518741529078359909e-02
-5.251909407873003172e-02
-3.153215196848952601e-02
-1.617227517183404337e-02
1.405941454601849182e-03
3.061810797870884171e-02
5.862904957078511614e-02
6.549158361476806189e-02
6.449103130387748295e-02
6.271493464037226906e-02
4.678140315016818956e-02
2.849657893683799417e-02
1.828049930769632195e-02
6.562188075588527673e-03
-3.049563500331688767e-03
-8.610983073149607037e-03
-1.589351061397807283e-02
-1.965673145167258148e-02
-1.918454631896227350e-02
-1.857267842793700746e-02
-1.278159579682168999e-02
-4.576812246059765860e-03
-4.980050416327960576e-03
-6.240359690427224083e-03
-1.236085469338627472e-03
-1.524538170699577498e-03
-3.481746216876766518e-03
-2.007518369545992568e-03
9.009528813529529704e-04
2.261861225548653445e-02
4.705689784590182112e-02
4.174343644991372615e-02
3.717045547436804986e-02
3.878472791798190378e-02
6.703700645229412371e-03
-3.142329456529153325e-02
-5.032278525484451537e-02
-6.567258666986500182e-02
-5.333085752694880638e-02
-2.703944803769561811e-02
-1.042802964936002420e-02
3.590990142117804484e-02
6.621843591758055925e-02
2.922999563090402861e-02
-2.403905263303620244e-03
-7.376477611546480330e-03
-1.393144651060067296e-02
-6.383445905215265337e-03
5.096340339852934408e-03
3.311702971352044073e-03
1.804854886429110069e-03
7.980485132909697190e-04
-2.004292506478574931e-02
-4.069094972546220129e-02
-2.964724349071924323e-02
-1.786412437596542752e-02
2.832751936203844155e-03
4.845150173059094290e-02
4.913114622587679697e-02
1.705020055011898655e-02
7.229798282946136960e-03
-3.089955559063076347e-03
-6.051792818502915901e-03
9.515114979521252167e-04
-2.473349268880612340e-03
-6.654580361608939190e-03
-1.824521039980838213e-02
-1.853329416307429936e-02
8.470566941871085151e-04
-4.823694199719230635e-03
-1.613927857720240042e-02
1.901688912024859183e-03
1.727231107922153064e-02
1.479101414872016282e-02
8.933719555526480408e-03
2.540622138541209080e-03
-6.544010983750602525e-04
1.412060340828703181e-04
-3.600337657443826705e-03
-8.863258863849574065e-03
-8.388548730844391094e-03
-2.930345214258371894e-03
5.586168897165802449e-03
1.011287306506884059e-02
9.712905946234794488e-03
5.844056779138202991e-03
-1.756880084863965625e-03
2.592190960508954783e-03
1.323544184688587970e-02
1.054922072274042458e-02
5.771846993638913084e-03
-6.202597742443924063e-04
-1.003798464357022642e-02
-5.450302304346438427e-03
-1.694054898446016328e-03
-9.429757506078467744e-03
-1.062243356891900796e-02
-1.280312767775973817e-02
-1.798084563626881766e-02
-8.356327102239871282e-03
-1.859044612487695345e-03
-9.636887153382981894e-03
-8.193229860084210239e-03
-6.386431031314722655e-04
1.690938219702929146e-03
6.317175411509465786e-03
9.982326015389751672e-03
9.643133728231535751e-03
1.003413879440217225e-02
1.237140650859876873e-02
1.157227323782741325e-02
1.581367571582250470e-03
-3.971212649871408429e-03
1.586420217606047825e-03
4.212776165375282586e-03
4.601696030034374899e-03
4.706726313633127767e-03
4.095428827329646547e-03
6.977964071730140619e-03
7.747233937617322395e-03
1.071161027800235366e-02
1.380141541217563828e-02
2.590985577936787913e-03
-4.121010374465085280e-03
-4.282554690844297181e-04
-1.214946974140379381e-02
-2.014710664661252190e-02
-5.376687338987896567e-03
-9.652025961933353613e-05
-7.080369820434558384e-03
-5.375561435161636814e-03
-2.771357669928369623e-03
-2.688003789283373475e-03
-3.589933437473483233e-03
-2.775264406439134027e-03
5.242526725750761528e-03
5.159522724672472790e-03
7.318361224055544741e-04
3.638960880304737636e-03
-2.044201084336955652e-03
-6.336303705457142950e-03
-2.586523943415755967e-03
-4.880477892739563950e-03
-1.707428150683138694e-03
-5.279195103974863856e-03
-2.176529002322638226e-02
-1.444684340154657118e-02
4.623330846384545063e-03
7.812643516830900317e-03
1.029634752811782114e-02
1.339682236769518774e-02
1.035935752570400076e-02
9.883890770068190848e-03
1.149896044714950050e-02
6.644646940931028985e-03
-3.277610866240285043e-03
-8.474626229826351387e-03
-7.431891461577872643e-03
-3.727310677291156490e-03
1.192399530735520737e-04
-2.885872482094410663e-03
-8.720636458348630243e-03
-3.730859887527151705e-04
1.779515596567197294e-02
1.946427748459530344e-02
4.792864131309515323e-03
-3.678860855848571643e-03
-5.911545444394337989e-03
-4.597480086543795710e-03
2.653695088860170276e-03
3.267057591339873630e-03
-4.514501154660097420e-04
-7.283265110060326876e-04
-2.318090387204717589e-03
-7.438326636636813458e-04
-3.116370672326726227e-03
-1.224088568481741454e-02
-9.384415041426251436e-03
-2.273752543394154738e-03
-3.941260926090293460e-04
3.570911470375283826e-03
4.706345313354364825e-03
7.849090618098871971e-03
1.158509906073103973e-02
4.092794271803793307e-03
-5.339721603103878868e-03
-1.364181187416164259e-02
-1.690898650217018823e-02
-8.477706383060654161e-03
-2.614337188821687016e-03
-1.562326291075622755e-03
-1.672943677414963620e-03
-1.521969095345833412e-03
4.915028203732129362e-03
5.866201897121950219e-03
5.215117354987450909e-03
8.320303762903795072e-03
-2.576878602181789137e-03
-1.124909054862953395e-02
-4.538645939018323174e-03
3.545248342855837013e-03
1.234812625203990377e-02
1.091564213563673245e-02
3.825544214913959625e-03
7.088259230223657378e-03
4.774728778792573618e-03
7.505787942074329012e-04
5.045235260521051257e-03
3.805037938266656906e-03
7.576427388750680029e-04
8.678585030337070258e-04
-8.600801066566615216e-04
-2.660034504879616769e-03
-2.842739888451528002e-03
-2.862758552566296074e-03
-6.096074562744044877e-03
-6.853155235725202910e-03
-2.327063908635912913e-03
-2.794380550667645985e-03
-7.168184289654049197e-03
-8.409781357476709546e-03
-5.236361515742173067e-03
1.986577140594232658e-03
6.721420005134202610e-03
3.583590905986677386e-03
-2.758996522019599960e-03
-4.150852731972680398e-03
7.897845808624177075e-04
5.284499105306594835e-03
4.287644009789809765e-03
2.956943861663765150e-03
3.412433012085365133e-03
8.197677443710767132e-04
1.083828628581349953e-03
1.220529875033033807e-03
-5.077465312644573181e-03
-5.557623174467881365e-03
-6.229318832423593778e-03
-1.024140036515449638e-02
-7.625499302415096430e-03
-7.375125277682689946e-03
6.101073349859471081e-04
1.465194522775018979e-02
1.186102380556110225e-02
7.205283171118247003e-03
3.481808574485103884e-03
-2.796191916469025623e-03
1.455211684473509430e-03
2.992892452060464618e-03
2.756768623135306528e-03
5.594947280292980087e-03
-1.311090660820497279e-03
-3.197537156132380324e-03
4.838333693643729477e-03
4.440984440016899903e-03
-3.580907296225794689e-03
-7.716832735966939159e-03
-2.780828218261901987e-03
4.477756963105239928e-03
4.243259555415872242e-03
9.692553044652839605e-04
4.959284111352357458e-03
1.061535598156945412e-02
6.208147281752149187e-03
-5.216463132836033148e-03
-1.871278286784964009e-02
-2.611790457513660929e-02
-1.836276893299590776e-02
-8.723065393836666737e-03
-6.878949065411896040e-03
-2.561978015557692199e-03
5.527316623112672571e-03
8.262173364308207993e-03
5.983832972745578224e-03
4.097736419555183390e-03
3.390800446825843056e-03
8.712284780471436438e-03
1.525685464902017639e-02
1.163453714033548837e-02
6.401470692967468380e-03
2.661251124033857732e-03
-2.320282424763509856e-03
-2.633663222130704518e-03
-3.133624202253266437e-03
-2.414253748213718732e-03
7.334677750650191261e-04
-1.125711198027319962e-03
1.041512852856056040e-03
5.755666313392540645e-03
2.408317711639980548e-03
1.625808121868007293e-03
4.474326656469453274e-03
-8.966433730592715447e-04
-7.381011116065380219e-03
-8.065133674724563051e-03
-1.103833077014908411e-02
-1.218108214164099687e-02
-8.069003292401512664e-03
-5.951592757694319086e-03
-1.287161057944806713e-03
1.927922597188683152e-03
2.077104778121250999e-04
2.180601796098159510e-03
-8.395228905291645055e-04
-4.617858834178564624e-03
2.329897923725333681e-03
6.009784560799777062e-03
4.672542200680221587e-03
4.022128590683749991e-03
3.204071504254901899e-03
8.094458907616876309e-03
1.191096664801115021e-02
6.849651012688772779e-03
1.925480769140299007e-03
3.631217805239055942e-04
-4.307286891394867222e-03
-9.858987285553512739e-03
-8.280201975761689384e-03
-3.476945296316209799e-03
-3.359504237460188801e-03
-4.470785084470582996e-03
-3.736941876301700174e-03
-6.029377997632650796e-03
-4.428597317407015864e-03
9.067619742115614473e-03
1.531213595157184318e-02
7.183282366896873161e-03
2.159668273801330571e-03
2.228304048624871886e-03
4.925667712988346207e-03
1.093572900747253381e-03
-1.144979326280254166e-02
-7.152422406909432658e-03
4.746693807594212604e-03
2.553272036249892938e-03
-3.226635972220932283e-04
-2.624423437594285754e-03
-2.412925283148654489e-03
3.165182402222542924e-03
-5.038821557256812494e-04
-4.656992173570130046e-03
-2.254028048014195798e-05
4.554539396335928296e-03
5.268244191296931472e-03
-1.525830507923042973e-03
-6.304207968388558618e-03
-4.695051632671171093e-03
-1.012530350684702485e-02
-1.029389849582153238e-02
3.223408901401588443e-03
6.786286518589087352e-03
1.451080956267494868e-03
7.451602676568864830e-04
-4.689731341194299311e-03
-9.550901203381529161e-03
-3.641957838223834881e-03
3.483888777677371373e-03
4.432038330739009220e-03
-5.714533357659019311e-04
-1.894877912050882732e-06
4.206586227873850871e-03
-9.632362248458873700e-04
-2.821787455878633751e-04
3.753247766447994401e-03
1.683179901920241271e-04
2.570754013391708497e-03
5.076696432357414527e-04
-3.382501075117427033e-03
4.154572632010217204e-03
3.560271976757790370e-03
-5.868131640014484290e-04
1.470853788228800203e-03
2.403868962689966783e-03
3.992965587248434138e-03
1.674292907170719154e-03
3.780532859500741055e-03
1.064887706236552697e-02
5.868575015545121620e-03
1.714380465707670935e-03
-4.181845174499390232e-05
-8.981873132813567029e-03
-1.148204578911560941e-02
-5.305651441333753167e-03
-4.729211361874355226e-04
5.752270415763970426e-04
-3.802887993845112781e-04
-1.832536994922480400e-03
-1.405733152806192985e-03
2.881663553100531974e-03
1.175991340063761801e-03
-5.173833375606287470e-03
-3.461458642469778489e-03
-2.381917994582101027e-03
-4.205337305792951688e-03
-3.105082927793970451e-03
-5.253695915544131026e-03
-4.090247612582522015e-03
-2.481366651553898548e-03
-1.070504922509518328e-02
-1.157104448053965576e-02
-2.634986900035195864e-03
2.080157813362799868e-03
5.352527062433399749e-03
9.264577541323225363e-03
1.492832819184943677e-02
1.656719787236096003e-02
6.646101606273267445e-03
-4.286058269810371670e-03
-9.084272640757869513e-03
-5.740504854614018881e-03
-5.427410904921372344e-04
-8.963865960584801269e-04
6.474570644423124910e-03
1.298310198996011425e-02
8.603906544380306165e-03
9.621872333632191382e-03
3.666800117377581620e-03
-1.103115223720282229e-02
-1.058580504474157871e-02
-4.952163713679390636e-03
-3.180522127883474940e-03
5.167422744885600758e-04
2.431588142443504193e-03
2.413170964796135850e-03
5.621936985081725296e-04
-6.024964726098736532e-04
8.696247286153259990e-04
-1.593009211360005067e-05
-8.101124521334359275e-04
-2.260184987848616427e-03
-4.859893956548956041e-03
2.871553849754478259e-04
2.850212322019549452e-03
-5.651174397415452237e-03
-5.521323759257990536e-03
3.117425806824337866e-03
4.029778816078473380e-03
2.663487776126893195e-03
9.551867195795904790e-04
-4.482625103787910188e-03
-8.106263823301027016e-03
-6.190211521449938935e-03
-1.693749966562827533e-04
6.429678399945963803e-04
-3.055332896192932378e-03
-5.710267522806795025e-03
-1.077192267216623214e-02
-7.621232376434112533e-03
3.160728336131038603e-03
6.992795712343262936e-03
6.041727542997211639e-03
2.926363059526547288e-03
4.287397400617056105e-03
6.850331821323574558e-03
1.651553493725564387e-03
2.607847241212026424e-03
6.508235779180905796e-03
5.773434339179166555e-03
5.674317139532960609e-03
7.721703852023628200e-04
4.521284079571438069e-04
5.159660921276816928e-03
1.776627675239246702e-03
-3.433474473535455692e-04
9.585064123911280019e-04
9.037201963286359664e-04
4.978509058566409854e-04
-3.367803236528658581e-04
-1.053325170290349017e-05
-1.104870792615009418e-03
8.247748363568534712e-04
1.216718854587544706e-03
-1.043274738014355642e-02
-1.846183634103687812e-02
-1.473346094722409981e-02
-7.065203982611049753e-03
-1.184946887820882439e-03
5.663513622881446736e-04
3.610714802017989025e-03
2.342147676524512778e-03
-6.087987151748140311e-04
4.385995590690878326e-03
5.611397905163260924e-03
4.953643892651075215e-03
6.459475915673122508e-03
4.573468515926073369e-03
3.251768434071866058e-03
-2.373101600425533367e-03
-5.299850522027700628e-03
1.093660076591415923e-03
1.362609210442877403e-03
-8.990781124715995117e-04
9.012520488715729770e-05
-1.825482308135580219e-03
-3.060007069222401687e-03
-1.952511054802358922e-03
1.394323787366036783e-03
4.982841229732821314e-03
1.923310203061379467e-03
-5.720445215153096077e-03
-7.960215223160701375e-03
-2.633346684758023672e-03
-4.412232209719552795e-04
-9.610725661783211214e-04
4.475322179214072729e-03
5.169667963312992061e-03
-1.173748498578731751e-03
-5.966897827545275014e-04
6.921173964719365673e-05
-1.952302128779858032e-03
5.019407583136168728e-03
7.727450343039550182e-03
4.238476117211756496e-04
-2.546586356197720396e-04
2.574599365313824662e-03
2.970314446983700427e-03
6.579768340565936508e-04
-3.860117207783848002e-03
-2.475380579486331865e-03
-2.401828437499085953e-03
-5.858351943665757004e-03
-4.432200811786874556e-03
-6.922045669160935798e-04
5.816181300861751440e-03
5.816551471530778498e-03
-5.012871701544961787e-04
-7.733799132023451602e-04
-3.606155046227492098e-03
-2.656609309963912924e-03
4.988776117687562274e-03
4.146562581091355060e-03
2.728059803263851828e-03
4.595478368777097464e-03
7.632156431907496930e-03
1.045134667662648946e-02
2.912020287291350838e-03
-9.670333424338818998e-03
-1.805954918960391703e-02
-1.897451251143661075e-02
-1.344518712470635542e-02
-4.375751055631868676e-03
5.163366160317764235e-03
4.116016625842953101e-03
3.003009529343683530e-03
6.888786538262268132e-03
-1.053122017449403553e-03
-4.808173892976032315e-03
1.728897545177531230e-03
2.370795886456652634e-03
4.086289265994648076e-03
6.609733520426215592e-03
4.979796568568250516e-03
3.589823646324407855e-03
2.069829135089440962e-03
-1.021702325201932369e-04
-1.220906237936830296e-03
1.993404638381870639e-03
3.269423650737172515e-03
-2.358165197754998966e-04
-2.063833170379334066e-03
-5.274735177592786844e-03
-5.102807010061080444e-03
-1.413341701295053854e-04
1.055911792322911363e-03
8.697073978788608800e-04
-3.622966477675185464e-03
-8.116917769556669660e-03
-4.889167505002245569e-03
-3.399347331440208658e-03
-1.310249407795458084e-03
2.481509036240271866e-03
2.150934416217519397e-04
3.761852530833454224e-04
4.116439001071468817e-03
4.640993478209461121e-03
5.282611479773796637e-03
3.900489490667792027e-03
6.702043849203290996e-04
1.405100524130644107e-03
1.102574294992911437e-03
8.773445531577502444e-04
6.071419550670344167e-03
8.294509299049551004e-03
5.091781354886869108e-03
7.586257549642256518e-04
-2.080067679325122310e-03
-2.732104960592514776e-03
-6.383213427155531861e-03
-6.075438638603419990e-03
-2.591948291354697481e-03
-5.853379492671730369e-03
-3.725179880581168217e-03
5.173586810020049933e-04
8.363346635099670138e-04
3.748021531500505751e-03
-5.584424217547118499e-03
-1.444561885837182362e-02
-3.752705648557549088e-03
5.619183878673428105e-03
7.701742188143065500e-03
3.522140987748694895e-03
-3.374504751287020401e-03
-8.229024788071716756e-04
1.685045252388892804e-03
4.194367320118868106e-03
6.388124422436823602e-03
-2.589987211998078138e-03
-6.711868732837936342e-03
-3.134420496682992652e-03
-2.790782532947977315e-03
1.291055735023053427e-03
4.291296952238030614e-03
2.677020448783766233e-03
2.100108868322260718e-03
-8.530904367877916242e-04
-2.218900687016652981e-03
4.083032228959822133e-04
1.107627114436903664e-03
1.460116462660199232e-03
1.373172776214384412e-03
-1.324775012606115628e-04
3.996211544206886262e-05
-3.654334214907818614e-04
3.802202548677940941e-04
3.974023873451006973e-03
3.898178523022959984e-03
2.024306943982576157e-03
-7.030497136860660527e-04
-4.068157732193431082e-03
9.902478211377375387e-04
5.743805631519220863e-03
2.918760789070621187e-03
6.264476650819590436e-04
-5.241281628801214634e-03
-7.027477157242996257e-03
1.094235472932595689e-03
2.112828308467934110e-03
-1.063576256541321928e-03
-3.048560642063238152e-03
-7.697543529299111752e-03
-6.656124635874397649e-03
-3.800387853860946914e-03
-3.481876157605865059e-03
4.813936969065678176e-04
2.534010403381613871e-03
1.077625305253113609e-03
2.045577702366630814e-03
1.894280429754385646e-03
-1.173445457575150470e-03
1.243591638889018566e-03
7.684693318915629401e-03
6.673524912009800268e-03
5.135505896934072106e-05
-4.316373148608967231e-03
-1.466262627256391653e-03
5.092344072045437708e-03
2.608879244171192959e-03
-1.775811581541083053e-03
-2.683094494423065007e-04
-3.054900549388265066e-03
-4.215092553807819192e-03
1.979384011313837285e-03
7.067634833983879074e-03
7.065483317478069882e-03
1.310867807906648114e-03
-1.961284535768170485e-03
1.544292984108372002e-04
-3.993572726501317793e-04
-1.321229913901924343e-03
4.699439500564959408e-04
2.381444571032102168e-03
3.393457822659152068e-03
3.873821045316942421e-03
1.937570970935109226e-03
-4.734583536423276132e-03
-7.514719181499799998e-03
-4.717468699982046987e-03
-4.971209512256801952e-03
-6.233189993770339547e-03
-7.840100809425173609e-03
-6.912459141893593367e-03
-3.035057771869025586e-03
-6.980557099119169551e-03
-6.365883599961433097e-03
6.660362666410289331e-03
1.015786363864766041e-02
5.395563329014841335e-03
3.812175471233937400e-03
-1.740824245694895175e-03
-3.815752379732772516e-03
3.571442715393432187e-03
3.642880269034560938e-03
2.192051440174740660e-04
5.684656564059998099e-03
5.399196551157619747e-03
5.258735307139089611e-04
2.800400200572541846e-03
3.300950642865870324e-03
3.907757213970390435e-03
4.497901564789802062e-03
1.172460051994063087e-03
5.596623349815500574e-03
1.024445966741521774e-02
6.459210400369674865e-03
-1.100394671648340225e-03
-1.166106763570595728e-02
-9.877977034675479093e-03
-2.122390471254212777e-03
-7.557024864716987110e-03
-8.350604479096730356e-03
-3.489335223158443640e-03
-5.235604310734360591e-03
-2.765976875271179605e-03
1.504765892812236824e-03
2.696708982644674749e-03
2.935494523618264063e-03
-5.982221161890694666e-04
-5.533383216494037332e-04
1.757097787234356695e-03
-4.140977842347187340e-03
-7.853288238434300017e-03
3.895085951969890783e-04
6.886515941126115578e-03
5.192515535714898635e-03
4.288284226853741367e-03
4.964192454756513129e-04
-4.415405195719552395e-03
-1.031533851122467919e-03
-5.277409367136561436e-04
-2.664634582487753704e-03
6.576389182600083901e-04
6.919324596156169703e-04
3.603045932119556920e-03
1.130524329293630149e-02
9.764311367635931591e-03
6.681804395903046846e-04
-6.044636366572115477e-03
-1.646038122334883818e-03
3.743634121326896904e-03
-1.141407477585810841e-03
-4.298882642581680104e-03
-8.817171407244974238e-03
-1.136660259838728586e-02
-2.457946327345430625e-03
-9.384104727190646124e-04
-1.588384975074919004e-03
4.502978770903924392e-03
3.553789507862030548e-03
4.113950021730098522e-03
8.408932532207882837e-03
5.453566904467887708e-03
-2.356083862181932321e-03
-5.840761823494962195e-03
-2.860357105878908943e-03
-6.614746074575490221e-03
-8.524012385531047273e-03
1.295404895646405999e-03
5.396320905809858133e-03
6.719601192429187561e-03
5.876073606380070175e-03
-5.756575124822755100e-04
-2.179163318347952024e-05
2.509460166790463635e-03
6.595613463613869687e-03
9.880264865484210055e-03
5.754188125188302791e-03
5.276075438951854761e-03
1.803821012945884322e-03
-2.991351245690004532e-03
-2.403449124503612058e-03
-5.323673487919153118e-03
-5.326943236863526838e-04
2.816065614128083865e-03
-4.138356877831874184e-03
-7.117276360548380719e-03
-1.559624970039318916e-02
-1.823499249087328841e-02
-6.854143092298410275e-03
-2.047415699368174830e-03
6.111304178261093081e-04
5.372332252172001658e-04
-3.026791869443327693e-03
-5.417826674776550543e-04
3.647101885877478827e-03
7.882629193919469396e-03
6.073662336642962276e-03
4.408282250284088939e-03
6.695135883218240359e-03
-1.601615909929811430e-03
-4.034505248320817763e-03
2.205383905995375506e-03
2.431660990188662386e-03
7.230020219298686178e-03
7.508880716772589961e-03
2.971704244948782103e-03
6.990320797489527928e-03
5.014532054448813010e-03
-4.979730827643130599e-04
5.029405626975417252e-05
-1.913939520618338289e-03
-7.628025149721710807e-03
-1.247139875564448781e-02
-1.077789634191061649e-02
-4.938807231001298738e-03
-3.307319978525355333e-04
3.094551605138798952e-03
9.861026136745323998e-04
-3.207192125426054728e-03
-3.289237435751344706e-03
-2.006714263766679171e-04
3.828022946729832052e-03
4.175666672870133496e-03
5.884387402593375775e-03
7.579963252564828752e-03
1.782839988360076112e-03
4.450370706366537678e-03
1.258794999050135213e-02
6.848537674234858076e-03
-8.972835658102463335e-04
-4.095441467504349481e-03
-6.401873458956895691e-03
-4.627937799966893445e-03
-6.975422000493429302e-03
-1.145567730407332820e-02
-5.653505411585617660e-03
4.319783123145377358e-03
6.090932058739632372e-03
1.418721120576363522e-03
-2.311926776718533413e-03
-7.465076053627167120e-03
-9.686219838041187913e-03
-2.330791266182402968e-03
2.269200012738586958e-03
2.396060324823360253e-03
2.200526823069493161e-03
-2.594201732214478258e-03
-1.502106474942544075e-03
3.709930757085130437e-03
2.546152043490903464e-03
2.737520313678572931e-03
1.250827793451359448e-03
-5.997042812099880786e-04
4.805921051396972073e-03
2.889765027836173773e-03
-1.769322858830637939e-03
4.364402866059606707e-03
4.856197396931899272e-03
-1.070467175297780925e-03
-7.820074954377080395e-04
5.805957703405566911e-04
9.318195744571517326e-04
-1.585117368998704025e-03
-3.780103771609447279e-03
-4.004966077074193756e-05
-1.051632171611024914e-03
-2.250777411546008022e-03
5.146618806400254454e-04
-4.134348341831714339e-03
-6.045153453329537262e-03
-1.156026181954936680e-03
4.071187381954239487e-03
8.266102079810530578e-03
4.728929121079626999e-03
3.915505279763587844e-03
3.830905037532097122e-03
-3.940448971128210007e-03
1.187369351212604106e-03
7.351807207399026038e-03
-2.059781673143776075e-03
-5.971258907212394738e-03
-1.647906182013339060e-03
4.591446746440342591e-03
5.570678109695073252e-03
-1.848349568196246346e-03
-1.214253185797536201e-03
9.166784541870385454e-04
-4.489940032182291110e-03
-8.688955962691155901e-03
-1.294213878700462006e-02
-1.148925967856366005e-02
-5.525886271448514526e-03
-5.514488211413010044e-03
-3.969750476864396249e-03
1.734161619425073422e-03
7.273232848557916776e-03
1.098764198958191926e-02
6.914702030338325603e-03
-1.744001675628233062e-03
-4.578158118047726682e-03
-3.485014519102646105e-03
-3.860758520718755166e-03
1.255431279238706805e-03
8.220711629703069540e-03
8.113665931153120695e-03
9.525959281624649458e-03
8.656182919698376596e-03
3.255249301196687806e-03
3.030215703987423209e-03
2.065350289108060548e-04
-6.786070824529488905e-04
4.210872249338704250e-03
1.796748089991137727e-03
7.774629221948379946e-04
3.931737792314302093e-03
2.967371890712579546e-03
1.675342104704729282e-03
-2.043073490521146122e-03
-8.438732199480767845e-03
-1.197821640134848903e-02
-9.432500991173113983e-03
-4.346524292932331217e-03
-5.483995156970869001e-04
4.703550780077643025e-03
2.061299562399896129e-03
-4.119325152093114215e-03
-2.037033965094905627e-03
-3.341856729425153345e-03
-1.984827003220103209e-03
2.495652932305784336e-03
-3.475240812571480254e-03
-5.398579707865694584e-03
-3.329086835641997203e-03
-4.807018281947962081e-03
-1.723322752903107052e-03
5.387672431873540436e-04
9.726210497820494787e-04
4.108668979084547160e-03
7.091249753462409641e-03
3.685185236656147046e-03
-5.291755792763432574e-03
-2.574096865487757093e-03
6.360256191314562178e-03
4.887487546580852014e-03
3.609619990721086441e-03
3.838769741361741650e-03
1.564991349904606543e-03
4.584711445331241496e-03
5.919685990380179827e-03
1.681984978024382701e-03
1.988017261107070336e-03
4.491517223429156679e-03
1.556370073700077353e-03
-2.268068691400416774e-03
1.374000325789388743e-04
5.828648902670968864e-03
5.637376326467899088e-03
-1.055869699380487846e-03
-6.991155831611988239e-03
-5.670707348663826634e-03
1.248763585449122514e-03
-1.717166454986886496e-03
-7.734299716406502732e-03
-1.032337598315641314e-03
-3.475847008216102936e-03
-9.147856835746164331e-03
1.313790742982767767e-03
-2.503738724399370060e-03
-1.518545615024572207e-02
-8.593732963909502323e-03
1.263706382531830071e-03
5.570932023665294344e-03
6.812746182846177168e-03
5.869392619202899210e-03
3.531392704996793100e-03
2.781077489725544802e-04
4.673052475526528332e-03
2.564169329361131074e-03
-9.114808679494641394e-03
-8.740580338823810552e-03
-6.255270795256622982e-03
-8.256541996604225414e-03
-7.708400317168319187e-03
-5.822917618791234769e-03
-2.170883697519285574e-04
1.803279218857658855e-03
4.580917370375208256e-03
1.091830837863576667e-02
7.838018448628950377e-03
9.267081726741279932e-03
1.796672155093504905e-02
1.919463677485951786e-02
1.808738313483705326e-02
1.558644768796871305e-02
1.148158317242659737e-02
5.533271803233882381e-03
5.420066054304185140e-04
-1.405342276955782923e-03
-1.559390581190032987e-02
-2.601873519194453088e-02
-2.139372728659585249e-02
-2.429994360208422716e-02
-1.226319906630441228e-02
