-3.233674499524187922e+03
-3.095703875747692564e+03
-2.455867273761763954e+03
-3.432151303470251605e+03
-3.181548267978586409e+03
-1.282999663438517018e+03
-1.182527808551463295e+03
9.489988005338152277e+01
2.550343275287296819e+03
2.986913808302799680e+03
2.087649496969236225e+03
-1.623444908049855030e+03
1.685584659857133374e+03
1.969750117031992204e+03
-1.572959230435944619e+03
-1.244458967583638469e+03
4.772009639421808060e+02
-6.201219027966178743e+01
-3.814200903639588347e+01
-1.397167145862973257e+03
-2.716068215190425235e+03
1.211176033560477094e+01
-2.528600120582887939e+03
-3.155184202788427228e+03
-1.518630633402829744e+03
7.471250450803964895e+02
-6.649180223635935363e+02
1.062720748864803681e+02
2.543742935265243887e+03
3.182525766780406229e+03
3.152627582098199582e+03
3.147074209086908468e+03
3.059838774138168446e+03
2.599944879031097116e+03
2.134399232733510416e+03
1.237208814899512845e+03
3.013120061017133366e+02
1.706599026621883013e+02
6.523055356133998828e+01
-1.989376627202130692e+02
-4.937943558673034659e+02
-7.873542487447218718e+02
-9.235163189071715806e+02
-4.542277944454421572e+02
-1.983950035541521970e+02
-1.901951346397563611e+02
1.885498920175001558e+02
6.618713896991689580e+02
1.176789207954686390e+03
1.712377405737945310e+03
2.304728055861726716e+03
2.469810348731183240e+03
2.325533734498072590e+03
1.961905904677451872e+03
2.748804946325759602e+02
-2.656599623510306174e+03
-1.306662859799203261e+03
-6.384197192555400306e+02
-7.172356871698414125e+02
-8.468129130170560757e+02
-1.248096547876637715e+03
-1.181045331328204838e+03
-7.537633666905772998e+02
-4.734579564837579255e+02
4.603439059633777219e+01
6.547916041780131309e+02
8.979019765427361790e+02
1.183119450150504463e+03
1.355262822013953610e+03
1.642853134575864033e+03
2.346128013722666310e+03
2.214737562374958998e+03
1.678251685004127012e+03
1.330867209606039978e+03
1.204647159278049003e+03
1.249649428302830756e+03
1.451810842170321848e+03
8.638114217981915317e+02
-3.182013112013445948e+02
-1.084374495642235615e+03
-1.063823152449784629e+03
-7.515791189603584144e+02
-1.021637809097432978e+03
-9.320215916247897212e+02
-5.887522891285709647e+02
3.251547919427557645e+02
7.126779168577596693e+02
1.126823294321077810e+03
2.338611256184195554e+03
3.226035463034168515e+03
3.006159472943626497e+03
2.911046876388064447e+03
3.016615019254989875e+03
2.702870715728263349e+03
2.138714899206865539e+03
2.424005748167389811e+03
2.142837825667916604e+03
5.991716555768094850e+02
-4.230456690755153772e+02
-7.278735925457909843e+02
-5.733816080373986779e+02
-8.246332910545182813e+02
-3.505717718578739550e+02
-1.321295607202922042e+02
7.461955969370052344e+01
8.037070169468908034e+02
1.629191391700528811e+03
1.972059706755466323e+03
2.115270321769227394e+03
2.098819287240778976e+03
2.757807606137444054e+03
2.624157313018751211e+03
9.276396601892690796e+01
-3.238289244302167390e+03
-4.953915237589443677e+03
-6.488161634016159951e+03
-7.539142294592412327e+03
-7.292893917968171081e+03
-4.462425528321665297e+03
-1.017668250553637222e+03
-1.282672898819502961e+03
-5.211502032238926404e+03
-7.701084202593978262e+03
-8.971493123307887799e+03
-9.052709527073595382e+03
-7.379724648855463784e+03
-6.312520322046704678e+03
-5.435093513993563647e+03
-2.918374660543263417e+03
1.730636684039774991e+03
3.581997589154311299e+03
3.668787585063516417e+03
3.442017725265071931e+03
3.506653061450632322e+03
3.174693853020782171e+03
1.846160792395248791e+03
3.350007414897087301e+02
-6.338362267837061381e+02
-1.031371781510243864e+03
-8.025571970190692355e+02
-1.773452341403272783e+02
-1.117476202328241186e+02
-1.757613377591315498e+02
-4.523925915546579972e+02
-3.245788961437662010e+02
-1.742046205754396055e+02
2.669030294009119686e+01
6.561085987054198085e+02
1.630119548022883691e+03
2.232841554689533496e+03
2.302338526362063021e+03
2.069598250427073708e+03
2.131632823174621990e+03
2.677464301756207533e+03
2.962112192475386564e+03
2.064579482275491046e+03
8.548162508842461875e+02
1.607816452824865223e+02
3.354719793307506848e+01
-4.884570039595994473e+01
-2.793444728872572682e+02
-8.759479419789098529e+02
-8.106745232849843887e+02
-3.224929478426682863e+02
-4.363702466488562095e+02
-3.802592857589414166e+02
-1.100097179511047443e+03
-1.594817724124387951e+03
4.159586797800767499e+01
1.688211381962145651e+03
2.852142608726660910e+03
3.842401694671971200e+03
4.204023162230993876e+03
4.339147417317651161e+03
3.413870606966057494e+03
2.389177380956133220e+03
1.165093255200675912e+03
2.896973229732388404e+02
1.570746667540339558e+02
-6.277766621448676005e+02
-1.097649325607563014e+03
-1.315138799928601202e+03
-1.760340846045520493e+03
-1.638944448340954978e+03
-1.084970016788746989e+03
-4.924651677528244136e+02
-9.137972813955374818e+01
-1.565663930010896649e+02
-3.190345275463309349e+02
-1.676308326778127622e+01
8.212562692294510498e+02
1.374092792715191308e+03
1.190784522954894328e+03
1.247382714589714624e+03
8.358842660413821477e+02
2.182634895258599670e+02
-2.751422183877393834e+01
-4.774166938760497487e+02
-1.572430770578675947e+03
-1.971623636960907334e+03
-2.280000092686873813e+03
-3.075576545500596239e+03
-3.810274136756944699e+03
-4.415076821773213851e+03
-3.472993265501581391e+03
-7.800349491219385527e+02
5.368587497150427907e+02
1.034680128563454900e+03
1.487466399737994834e+03
1.490213278683205544e+03
1.584958477480402053e+03
1.981770238156792402e+03
2.147671420872784893e+03
1.941720172895263659e+03
1.497845938067359384e+03
6.610383526715971811e+02
-3.756823258976071997e+02
-1.161358600514987074e+03
-1.458083321409813152e+03
-2.486885010040563884e+03
-3.441742234838203331e+03
-3.128701804449214251e+03
-2.085740445237110180e+03
-1.602933337226106687e+03
-8.112249139640576914e+02
-6.476303909812263555e+02
-3.102988847373873114e+02
1.708200143972904357e+02
3.798607561726192898e+02
1.210784412055015991e+03
1.847632461649842753e+03
2.271434791450538341e+03
2.084081004534810745e+03
1.796552683268834699e+03
1.168788689779504921e+03
-3.725991875053392022e+01
-6.995595463305728572e+02
-8.772256290286550211e+02
-1.184336718707449336e+03
-1.370006194814010996e+03
-1.065230052818455306e+03
-7.909513806065558583e+02
-8.081922296652750219e+02
-6.719539227657099900e+02
-1.382961839165546962e+02
2.587523191462850036e+02
4.171834312875723185e+02
3.348946547589031297e+02
8.742829186255796685e+02
1.702152463742520013e+03
2.380435516838986132e+03
2.859460373525073010e+03
2.405730343413549235e+03
1.977338813991833604e+03
1.958301619339539684e+03
1.223627319041682313e+03
7.694978013770005418e+02
1.031473058391830136e+03
7.392372180789158165e+02
1.398412841759875676e+02
-2.215172088978112583e+02
-3.281461924379730704e+02
-7.690429239703922804e+02
-6.630611947777230171e+02
-3.613331347692314921e+02
6.053423127607565846e+00
7.709765395797595602e+02
1.704357290387813919e+03
2.530851126379185189e+03
2.924569015900444356e+03
2.830889762620823603e+03
3.179091217889728341e+03
3.161689361008182004e+03
3.252871427004909037e+03
2.756623446900371164e+03
1.863794534765076378e+03
1.238435402879247931e+03
7.378149476419811208e+02
2.994188782831561184e+02
-2.692117777308217228e+02
-7.353060275455578676e+02
-6.901769985085298913e+02
-5.760864714669647810e+02
-2.154316750145710273e+02
4.956122822378807200e+02
1.275915141281718434e+03
1.576313085576119647e+03
1.834700171373751573e+03
2.019119677493165455e+03
2.364641441916885924e+03
3.057239866893421549e+03
3.619834171299480658e+03
3.313409138215387884e+03
2.475921785215461568e+03
1.419377864249279810e+03
6.198865222108207718e+02
2.075081374673831931e+02
7.912147877528032325e+01
-1.403949597875543702e+02
-1.079099100948104706e+03
-2.850042488839374528e+03
-5.945148404944352478e+03
-6.695391633947091577e+03
-7.188852914922235868e+03
-7.394576305558870445e+03
-6.888556325828812078e+03
-5.639802388389382031e+03
-4.698216537728484582e+03
-4.268675772129640791e+03
-3.904050988706836961e+03
-3.525393883535536133e+03
-2.231618700202046057e+03
-1.579532808386739134e+03
-1.587427691091439556e+03
-1.976137579050756585e+03
7.793294747661620931e+02
2.484000717746710052e+03
1.303894072924635338e+03
-1.420202494761752178e+03
-5.128477900390510513e+03
-6.698928624811676855e+03
-7.570519409596359765e+03
-7.150362342969273413e+03
-5.978429081969003164e+03
-5.402676090317411763e+03
-1.301028662769098673e+03
1.926494286851366269e+03
2.071908178820600369e+03
-1.617590427892942671e+03
-2.537884443685480619e+03
-2.408021752412122169e+03
-2.205007835741551844e+03
-2.068913092446483006e+03
-1.187720088453148492e+03
2.421689571565806091e+03
3.361636127233374737e+03
3.170399511835076282e+03
2.704894254933669799e+03
2.307875278627707303e+03
1.963374060180314245e+03
1.528551953674104197e+03
1.278414801979381537e+03
1.154800870717690486e+03
8.586498523156585634e+02
7.633453173825589602e+02
6.204835976552076318e+02
8.000197196427321842e+02
1.589748812028089787e+03
2.175434393966005246e+03
3.872858938804945865e+03
4.797931361353770626e+03
4.378797189229447213e+03
4.487440057314004662e+03
4.432858284743973854e+03
4.079062100418322188e+03
3.324890677476837027e+03
2.524338679397176747e+03
1.586692646072098569e+03
3.461085908290033331e+02
-2.859425708289555956e+01
-4.623232473230740425e+02
-7.420170187337777179e+02
-4.666813899829791694e+02
-6.943403973859462042e+01
-6.412518064709654197e+01
-3.093867783370930624e+02
7.420528565117308517e+02
1.492560725061064659e+03
1.185273109974744102e+03
1.328688254070275207e+03
2.197161317953340131e+03
2.976062708720226510e+03
3.113721387958215018e+03
2.508005348241418233e+03
1.866591554035633408e+03
1.847112808243567088e+03
1.621812243614743238e+03
8.327961889345895088e+02
8.441247982428685646e+02
4.465450454483973317e+02
1.254905399640958592e+02
1.804989768845012676e+01
-2.398965309917849424e+02
-7.153078492594371482e+02
-6.341195218045963884e+02
-5.405044432115868176e+02
-3.286016212357392874e+02
2.708808672525813677e+02
1.069881513519013652e+03
1.645354943392203268e+03
2.004281900764671491e+03
2.403720501269247507e+03
2.519754674994500874e+03
2.126442263791306686e+03
1.404796287706489920e+03
8.457355039241623444e+02
2.832288962340012972e+02
-1.857877101965446229e+02
-6.542748635017840115e+02
-1.463226417010130035e+03
-2.070646750047777005e+03
-2.000550208059673878e+03
-1.979875061098635342e+03
-1.906681804810078575e+03
-1.771957649667581109e+03
-1.439698014044940464e+03
-6.428686733194382441e+02
3.745724572593582593e+02
9.386773327135131240e+02
1.298411945139373074e+03
1.611741910861702763e+03
1.777701617576326498e+03
1.760336582667458288e+03
1.156677319149071991e+03
1.042708117925132228e+03
4.264421186010462748e+02
2.448528481051945391e+02
-1.620857490150549438e+02
-9.203351184205895379e+02
-1.301001298853487015e+03
-1.891129578030306220e+03
-2.241657066173718704e+03
-1.970616980009627014e+03
-1.526959511100731333e+03
-1.685645800711103448e+03
-1.987821194249538394e+03
-1.183529415259016787e+03
-4.117647778797335718e+02
-1.355499885863746670e+02
-4.898306224378820275e+02
-1.824599926034996770e+03
-4.847769242139654125e+03
-5.982331017457150665e+03
-6.528275186089623276e+03
-6.014633995289069389e+03
-5.276475745918003668e+03
-1.761766691014645176e+03
-6.504960614092636888e+02
-1.786656873327932544e+03
-1.850212337982155987e+03
-1.732191862137930229e+03
-1.915582754830402109e+03
-2.445338291459152970e+03
-1.404571840403410988e+03
-3.333345692759336885e+02
4.903716901070327481e+02
4.765184635291729478e+02
5.740265136032752480e+02
8.948705547531280899e+02
1.497105732103620767e+03
2.223716694047938745e+03
2.441706160628622911e+03
1.969083891322956788e+03
1.526853900017263641e+03
1.563107731139646148e+03
1.112882174432410011e+03
7.910967218779934456e+02
1.956803401613254891e+02
-7.536292661862326270e+01
-3.100160177136000925e+02
-6.832999650586421012e+02
-9.263681112333240435e+02
-6.284522072168329032e+02
-6.285164480674231982e+02
-4.255180546519941913e+02
-5.424285338895072073e+02
-7.692027862437649901e+02
-9.278803412444111700e+02
-3.984540907482578973e+02
6.350545813859183681e+02
1.122685998049917998e+03
1.309441930925608403e+03
2.074354551908092617e+03
2.451438131404414889e+03
1.885673665563203031e+03
8.809848220107350016e+02
3.343856934590340302e+02
7.387306770518253529e+01
3.434622912356738311e+01
-5.273086741600743608e+02
-4.960784546239978567e+02
1.129798302370423926e+02
-1.131130693457905494e+02
-8.773524667125304859e+02
-6.207168352048349789e+02
-1.616691704530753526e+01
9.632594928270631272e+02
2.446520663016402978e+03
2.934621623452235781e+03
3.168598030383979676e+03
3.110459655799007578e+03
3.074236859795995770e+03
3.281981036119134387e+03
3.503687734477628965e+03
3.641253901438967659e+03
3.006708615960727911e+03
1.604034518227377930e+03
3.831245880411258895e+02
-5.590119552661677744e+02
-1.373380044487285431e+03
-2.396992456810899967e+03
-3.195964245991734970e+03
-4.072311997555724702e+03
-6.788037952355107336e+03
-6.747075713474139775e+03
-6.103424271061994659e+03
-6.353116422845735542e+03
-2.789172863321080968e+03
-9.835865305233566005e+02
-1.864200004158833735e+03
-2.549774262625705887e+02
2.594959013532607514e+03
3.876644918621553188e+03
6.591062753064035860e+03
4.187106908739975552e+03
3.081793978112876175e+03
3.220113036319437470e+03
7.050158068602464709e+02
2.374788885987271385e+02
5.555452529825316788e+02
1.101160715910289582e+03
2.952268202811849733e+03
2.177849497600428094e+03
-1.126112304508874786e+03
8.083733385135985827e+02
-1.327681934195209806e+03
-9.782672567565297186e+02
-8.593518701382413383e+02
-3.445941008629880344e+03
-1.684016851049102115e+03
-1.583600877337960128e+03
-2.690667286788032015e+03
-4.767166041263263651e+03
-3.449088186875382689e+03
-4.068448683360884843e+03
-2.513309830227757629e+03
-1.756656749498208910e+03
-2.248491658413373898e+03
-5.077967810158847897e+03
-3.609104056821756785e+03
-1.534868631057986704e+03
1.986695935742762003e+03
2.881542989333129299e+03
2.120669467846102634e+03
2.093078862162397400e+03
3.270774913032523273e+03
4.195777156423953784e+03
4.333094698408231125e+03
3.846706088165591609e+03
2.502672789556958833e+03
1.833053902335726661e+03
2.785868738393936837e+03
4.893106382956580092e+03
5.933715759275349228e+03
5.604657144578020961e+03
4.617890337808515142e+03
3.475432980255457551e+03
3.118349356373584669e+03
2.889687983769105813e+03
1.967584818898291587e+03
4.090204394920311870e+02
-1.320031374355133039e+03
-3.543656899930335385e+03
-4.805904844141328795e+03
-5.087721472166952481e+03
-3.995097532057578064e+03
-3.774022422491314501e+03
-4.168537305770420062e+03
-4.084740390498411216e+03
-3.717589335397561626e+03
-1.386024700198853225e+03
6.371697867213821382e+02
3.465818011842753549e+03
6.913676523478952731e+03
8.656720947254540079e+03
8.517873502446665952e+03
8.206566762653277692e+03
8.578813120760556558e+03
7.515545727591999821e+03
6.065717762668315117e+03
4.727102548970898170e+03
3.777717954864453077e+03
2.185340347930207827e+03
6.601805716089698990e+02
3.741491634699561359e+02
8.183542788342014092e+02
4.145586050061992296e+02
-3.789729948548815628e+02
-2.659134727637482229e+03
-5.571876035344335833e+03
-9.035242635291953775e+03
-1.023841293296232470e+04
-7.958172803508504330e+03
-5.922671762177431447e+03
-6.969007519115014475e+03
-9.000201592808160058e+03
-9.355285709392011995e+03
-9.865282444224936626e+03
-1.258222998214459221e+04
-1.796311803231714293e+04
-1.971885537718967316e+04
-1.258547680882215536e+04
-4.535970543578459910e+03
1.277614688997061194e+03
5.025285790805872239e+03
6.527039733193548273e+03
6.236816183789715069e+03
7.211698574882767389e+03
8.806808385165373693e+03
9.851109778348671171e+03
9.282643417479546770e+03
6.021450646977258657e+03
1.950631200456059787e+03
1.008217478405775410e+03
1.217229083178676774e+03
-7.092832489099751001e+02
-2.439395258476708022e+03
-4.148070562716022323e+03
-6.142318623234312327e+03
-1.058222547656104871e+04
-1.500673892621582672e+04
-1.597980457800898876e+04
-1.388441026957434224e+04
-5.297610206363809993e+03
6.706639362352510943e+03
1.147648538154126072e+04
6.102941621698389099e+03
5.457968278178095716e+03
9.009602235394046147e+03
1.169893914007434250e+04
1.167807625839708453e+04
9.545962730009212464e+03
1.190086669874069776e+04
1.262268850219124761e+04
9.469418276209064061e+03
2.165061806520193386e+03
-2.453144060000340119e+02
-1.054757725867772479e+03
-1.760270884330416493e+03
-2.500801962226300930e+03
-2.582313407142846245e+03
-2.995848205015505755e+03
-2.210361592421096702e+03
7.291880220311624043e+02
1.745831065753548955e+03
1.862573566716685036e+03
1.896494047212209807e+03
2.168668703527976049e+03
2.243110773367001457e+03
2.449884531457937101e+03
3.077102765818735861e+03
3.078831775633149846e+03
3.267096158994668258e+03
3.104973068019308357e+03
2.897424559283261715e+03
2.531383729932840652e+03
1.658926551270151549e+03
7.200656842324528952e+02
4.467390451124173296e+02
-7.250013478730609222e+02
-1.477141572205082866e+03
-1.786671478797562486e+03
-1.911556450031914665e+03
-2.002788371241425921e+03
-1.759342898276979440e+03
-1.657146644509629368e+03
-1.401182091706374649e+03
-7.444271303362086201e+02
-6.717983881864247451e+02
-7.952394866596494012e+02
-8.596667543508483504e+02
-1.830685780485566738e+02
3.776281231986453122e+02
5.663833221369314970e+02
9.082274571297194825e+02
5.472300104572551618e+02
6.233114086527738351e+01
-1.903753322450041026e+02
-7.389124259858933783e+02
-1.624337791652927535e+03
-2.038679078331436131e+03
-2.009856850637961998e+03
-2.020821134657184302e+03
-2.000683508787392611e+03
-2.111398994892579594e+03
-1.900899379688879662e+03
-1.644153157274938167e+03
-1.265155408228227316e+03
-9.856365195300464848e+02
-9.455135358395704088e+02
-1.177706181787486003e+03
-1.671286567359539731e+03
-2.585191389767704095e+03
-3.323662007718159202e+03
-3.872407939503289526e+03
-4.279505975157342618e+03
-4.513166096402303992e+03
-3.896469517301176438e+03
-2.042387397058788110e+03
-1.223911261392806637e+03
-1.245189601073612721e+03
-1.288240341775462412e+03
-1.048063093644554783e+03
-9.555820971046612158e+02
-1.167817513808801777e+03
-1.264763859396264252e+03
-1.206410875742292319e+03
-1.526747002734726721e+03
-2.035730917781931794e+03
-2.182300233036528425e+03
-1.192445501839896451e+03
-1.562387644088631475e+02
7.723454875687193635e+02
1.136322570891106125e+03
1.157627198577277341e+03
1.499211307224339862e+03
1.812072177728430233e+03
2.021199960020345998e+03
1.663566767059608765e+03
9.640770143621426769e+02
2.107563900724979646e+02
-7.648096457481049981e+01
-5.862425876321573526e+01
-3.296619156784399252e+02
1.240918254705756851e+01
1.265430335309685148e+02
6.026831606138609914e+02
1.044836309487908238e+03
1.624998367082055665e+03
2.262118143702757607e+03
3.020186571350527174e+03
3.484293639265683851e+03
3.467448466499251936e+03
3.401582174432624015e+03
3.411643451487880156e+03
3.006564677381125875e+03
2.470379418486366376e+03
1.672985521056112020e+03
5.452705023465200611e+02
-4.097214719703595165e+02
-8.880315465627613776e+02
-9.897660394593245883e+02
-6.639748894510581749e+02
-7.197205021541983569e+02
-6.711066837913540439e+02
-6.211163724357247702e+02
-4.727488537387537235e+02
-2.319251650430363725e+02
3.329344732082255121e+01
8.009148037634591901e+02
8.609013934328210098e+02
1.306184012595798094e+03
1.858836068882515974e+03
1.744875496964234344e+03
1.951256073682374108e+03
2.013972225620540712e+03
2.263938817689815096e+03
1.605134742122338594e+03
6.344638338922313778e+02
-7.182453737858638760e+02
-1.639598708801925341e+03
-1.924808695085373301e+03
-2.133829558614569123e+03
-2.556841777362453286e+03
-2.968251073546485713e+03
-2.157733322242004760e+03
-5.804350649654074914e+02
1.775122623600042857e+02
8.709156722081706903e+02
1.785291476701766442e+03
2.346093782396393635e+03
2.822588355635729386e+03
2.939762313849190377e+03
2.656627585197258668e+03
2.315302410932036764e+03
2.189408140257613013e+03
1.953180464872377115e+03
1.235202198050756351e+03
3.462986551325436153e+02
-3.030728134234328195e+02
-7.186483106788017494e+02
-8.370981825573384185e+02
-1.044301319405790082e+03
-1.281087099515176305e+03
-1.028784362858480335e+03
-7.148310347967322969e+02
-3.948323417572646576e+02
-2.387640123401386916e+02
1.387762943658231904e+02
9.519693810835256045e+02
1.885409466194915240e+03
2.242023593691620590e+03
2.764579676762788040e+03
3.523482482541228364e+03
2.923530567145588520e+03
2.117888969503718272e+03
2.038299725052412441e+03
2.009535603422061286e+03
1.718743495039917661e+03
1.026844924648128426e+03
3.238587815503076399e+02
-4.542753965919973211e+02
-8.217010489653526975e+02
-5.234559427969439867e+02
-3.315377872668405530e+02
-5.686335742435321805e+01
4.696850877563016411e+02
9.890914410706012632e+02
1.616236497704045860e+03
2.046005812597636805e+03
2.375470665254089909e+03
2.165735801922003702e+03
1.260855139058935720e+03
-2.281722838146519052e+02
-3.609357229429820109e+03
-3.780714724082215071e+03
-4.073187532479005313e+03
-4.503694354617939098e+03
-5.366201976812983048e+03
-5.988600805296327053e+03
-5.936939634949801075e+03
-6.035315674546338414e+03
-5.887816181479968691e+03
-6.107358864914564947e+03
-6.478833498823011723e+03
-6.731265424742601681e+03
-6.803672326603968941e+03
-4.153229366171537549e+03
7.350782940378448984e+02
3.043139230921631679e+03
2.519865216157842042e+03
-1.622622074804909062e+03
-2.671133654114189540e+03
-2.124638636965414662e+03
-1.883263291803098809e+03
-7.488228578083792399e+02
-1.426247737276837825e+03
-2.388607508151435013e+03
-2.126902466327057482e+03
1.476989019011564096e+03
1.833116051102782649e+03
-1.046561858477354917e+03
-5.829052547010026501e+03
-7.078296187945271413e+03
-7.048267854283496490e+03
-6.334766862585221133e+03
-5.118608715634591135e+03
-2.402647851568384340e+03
1.870089180331286798e+03
3.989344814602052338e+03
4.850125622974251201e+03
5.564653611404031835e+03
5.936037501823335333e+03
5.820204835181618364e+03
5.160246705869166362e+03
4.476369316093201633e+03
4.595818112434308205e+03
4.320383764746478846e+03
3.944356527809688941e+03
2.994514470435312887e+03
2.575930673412272881e+03
1.806614072789178636e+03
1.362684635845061621e+03
1.329351294233748604e+03
1.395585854119442729e+03
1.283403034289427296e+03
1.320847513599039985e+03
1.327089041376979822e+03
1.929449711274723995e+03
2.652099975220780379e+03
3.211880704645159312e+03
3.765700156117743518e+03
3.873821307171384433e+03
4.116323023101060244e+03
4.110193032665399187e+03
3.206505440706971058e+03
2.768585164474202429e+03
2.321443974580791291e+03
1.286773789893080448e+03
4.272971407403909438e+02
-4.641903641692446740e+02
-9.680034531644411118e+02
-1.305099280583337986e+03
-1.733977633424590522e+03
-2.004609817275469368e+03
-1.960129467043074555e+03
-1.816437912287737845e+03
-3.044356399916845476e+03
-4.896304050382314017e+02
6.685798619458944358e+02
8.135352858474433333e+02
1.479232087405368247e+03
2.392894783587076745e+03
2.454289313781563123e+03
2.266625784388205375e+03
2.149901688823685618e+03
1.776153791395681537e+03
8.124147488202333989e+02
-1.711753115758735362e+02
-1.098097832112807964e+03
-1.741316687304093193e+03
-2.515603277012918625e+03
-2.891140631800957181e+03
-2.849006201332475939e+03
-2.930188084309377700e+03
-2.829675745236489547e+03
-2.153466910556029234e+03
-1.325582233403111786e+03
-3.638982727287970533e+02
1.399606729980558839e+03
2.647937946137365088e+03
2.717136127171319913e+03
2.929228370983741570e+03
3.002254919003461964e+03
2.475248336039353035e+03
2.114218974701835577e+03
1.522190214851390010e+03
5.980595049497885611e+02
-2.052561360696751649e+02
-8.407897042415237365e+02
-1.200527604503359953e+03
-1.291491375040262028e+03
-1.674674372122959994e+03
-2.228100880754226637e+03
-2.241867998279815311e+03
-2.038952935730559375e+03
-1.721295509149071449e+03
-1.082887073773440079e+03
-2.448063414886690055e+02
2.649638151594994611e+02
6.774725589608273140e+02
1.324644673180277778e+03
1.223489373444724833e+03
1.787013701377989719e+03
2.025201993089631742e+03
1.911043811363434315e+03
1.392565863848096797e+03
9.786821234825619058e+02
6.874070124164587696e+02
-2.432922167068524288e+02
-8.375073700896626860e+02
-1.262284377566050352e+03
-2.332701728462172468e+03
-5.283813259502945584e+03
-7.984673257789204399e+03
-8.958251428321354979e+03
-8.819505537750303120e+03
-8.673460272393109335e+03
-7.260070012663676607e+03
-5.292276907178552392e+03
-6.171369205893917069e+02
1.655304140017593227e+03
2.505104946779930287e+03
2.595201207777358832e+03
2.765495314977883481e+03
2.603852637219372809e+03
2.092262536291194010e+03
1.531737022303076174e+03
8.251903617107230957e+02
2.015302068446551687e+02
-7.462319245216219770e+02
-1.551084402274751483e+03
-1.950017489284100748e+03
-1.913032755488726934e+03
-1.645154574562101743e+03
-1.141415687059187576e+03
-3.628473753367049426e+02
1.834726952108344733e+02
7.795108007508392802e+02
1.966214797292547701e+03
2.268695602343233986e+03
2.390969403911522932e+03
2.690974054831127887e+03
2.917684663950676168e+03
3.108084177322326013e+03
2.839164662733475325e+03
2.848934963434178826e+03
2.142403093755408918e+03
1.319516651327854106e+03
5.392077988323338786e+02
-1.045568118137280464e+02
-4.607934866883359746e+02
-6.224616966378382585e+02
-8.065681587891039044e+02
-1.022201878287742602e+03
-9.144334093346014924e+02
-8.382530940645457349e+02
-1.676434705469005735e+02
4.693764855387943840e+02
9.658432615368134293e+02
1.473740368745262458e+03
1.773100719805181370e+03
2.412001605126400136e+03
2.794471706847016776e+03
2.861529851586898985e+03
3.177279892816063239e+03
2.695693537387799097e+03
2.085632837884953005e+03
1.577024697062181758e+03
1.153884969131502430e+03
5.042630142823533106e+02
-4.628899686797141158e+02
-1.431605072454081437e+03
-1.373888714250450448e+03
-1.731750795569532556e+03
-1.309149456562424120e+03
-7.610914960204196404e+02
-6.374776628659993776e+02
1.276405007747596585e+02
6.902933287505587714e+02
1.060562934728947766e+03
1.980443892408364263e+03
2.341944446032716314e+03
2.535029691828257000e+03
1.907772977532408049e+03
-1.231724351236116718e+03
-1.596426785506415627e+03
-1.886391356567133244e+03
-2.166799295091736042e+02
-1.107299898451895388e+03
-2.818242850465878291e+03
-9.214419300348998831e+02
-3.052011693145072059e+03
-4.293042948812810209e+03
-6.184501781650111297e+03
-1.728399676287777083e+03
-1.293707627064404278e+03
-2.199320718899331041e+03
-2.171189518730003783e+03
-2.282540335868566217e+02
1.093481135711332627e+03
-4.199753982558056009e+02
2.446408234016188089e+03
8.637046246625244521e+02
-1.477039074738156614e+03
-2.028873714312568666e+02
2.250177483589282474e+03
1.781195718800633131e+03
-1.335841538174997368e+03
1.220690128929792877e+02
-2.649092244153763659e+03
-1.051364615444433184e+03
-2.670724379156656141e+03
-5.701161837622378698e+03
-4.912645224228496772e+03
-2.479180620121167976e+03
-1.176800050848469937e+03
-2.344433642857676205e+03
-4.338009214879320098e+03
-1.214516439075416429e+03
-1.233022311640020916e+03
-1.723444923675831888e+03
-1.152699020967690785e+03
-2.268845931045766065e+03
1.210147626506711504e+03
2.451309847290382550e+03
2.669618508174597537e+03
2.980086833868139820e+03
3.005786061733482711e+03
2.666682506692929564e+03
1.642765126651627725e+03
8.730050765609737482e+02
4.323443550665325574e+02
1.637124629610544559e+02
2.013006137475574420e+01
-3.044176454161647527e+01
2.160764637848691905e+02
6.027441971087096135e+02
9.186340843542897119e+02
7.768231839964881829e+02
1.065389040074911918e+03
1.224538004640725148e+03
1.241050761792081630e+03
1.283940004646327225e+03
1.060221810246849827e+03
1.145938226604958345e+03
1.040094185535900579e+03
2.806301303370303799e+02
-3.875789475794828149e+02
-9.596646878580368139e+02
-9.424652808566138447e+02
-9.367675825544042709e+02
-9.536064396979164712e+02
-1.072360349498477035e+03
-9.039125483235370666e+02
-9.037180204253546663e+02
-8.126411815160385004e+02
-3.731990336716964407e+02
7.437800753284366237e+02
2.051095909605404813e+03
2.338525751052070063e+03
3.340023923237178224e+03
4.499642624670766054e+03
4.341616177326700381e+03
3.886749990416099081e+03
3.619226838202036561e+03
3.250513948912173419e+03
2.970766689975607278e+03
2.997236280241437726e+03
2.578961325702717659e+03
1.392946765649205418e+03
2.521389234974169540e+02
-4.058060029964741489e+02
-1.082649229952705355e+03
-8.178292907116787092e+02
-4.562919498255001258e+02
1.309377864436908112e+02
4.181523530012552783e+02
4.371138603606171955e+02
6.048279315633943725e+02
1.519359213017971342e+03
2.402736822002883855e+03
2.587951345837135705e+03
2.554939047561955704e+03
2.802741714091602717e+03
2.906401526388811362e+03
3.296978109104545638e+03
2.599468144037050934e+03
1.221897806228949548e+03
1.551458198574565870e+02
-5.929436243611005466e+02
-7.613969178994584581e+02
-1.085148460014592274e+03
-1.323228002398568833e+03
-1.088671012370935159e+03
-8.225497280588243711e+02
-4.758167293854316426e+02
-6.354552608271742429e+02
-1.294700090019435379e+02
9.292266072856530172e+02
1.216584292292370037e+03
1.407609854010206163e+03
2.314389152363723042e+03
2.025906564288702612e+03
-3.682311339613121248e+01
-3.406750479824819649e+03
-2.029867937193239641e+03
1.821825180135815799e+03
1.287239130374184242e+03
-4.230675249877202987e+03
-6.932901267252722391e+03
-7.630458349352629739e+03
-7.613387383635876176e+03
-8.164688038355287972e+03
-8.374211796450339534e+03
-6.300269688659765052e+03
-1.605758763885756480e+03
-8.005719211993912268e+02
-3.182711327971647734e+03
-5.939208920233252684e+03
-5.383959101807371553e+03
-5.099988098567625457e+03
-4.712331584652419224e+03
-3.328980710940155404e+03
-1.138586262860206659e+02
-1.789974532756212966e+03
-5.603147565179156118e+02
2.656118631212289074e+03
3.137313557289047367e+03
2.424252502057681340e+03
1.879902897271170559e+03
1.046281384054299224e+03
8.937469343041303205e+01
-9.478966106883995053e+02
-1.187577281968802254e+03
-1.013636743438616236e+03
-1.175121270675667347e+03
-9.399718016816780164e+02
-5.320548614909503158e+02
-1.843585913192584940e+02
4.161108269754232083e+02
1.980417767249203962e+03
3.188531492652194174e+03
3.543490655959242304e+03
3.257409941448288009e+03
2.689303292632697776e+03
2.314165548844666773e+03
2.083973181262715116e+03
1.951715377690377636e+03
1.841373119715768553e+03
1.058018477003654880e+03
1.262546505010986131e+01
-4.888749471857667004e+02
-7.634960628849463546e+02
-1.120260158360102423e+03
-1.051176841497318264e+03
-3.132056185416105336e+02
3.872132958918793122e+01
7.962716543622232734e+01
2.365745337899819560e+02
6.495567573306842633e+02
8.705692039665838138e+02
1.263671267356357248e+03
1.178951375353201001e+03
2.079403322641089289e+03
3.085015066751339418e+03
3.446873036181735188e+03
3.455976269432855133e+03
3.077298527181519603e+03
2.296920160639344431e+03
