-7.737107237714079019e+03
-9.335986127294198013e+03
-9.012541247301296607e+03
-7.969822351527840510e+03
-5.338804754167487772e+03
5.414711260339408909e+02
2.291994168447351512e+03
2.485736650706592627e+03
2.331751351023722691e+03
2.001019180001295126e+03
2.463638516226277261e+03
2.639731869703484335e+03
3.266871558135679606e+03
2.868113536163671142e+03
1.475472264059695362e+03
7.579439043363697692e+02
2.894959794854584061e+02
3.903188377508279672e+01
-2.944907278637106174e+02
-4.030749707139152633e+02
-8.168446506633384843e+02
-8.048489140101364683e+02
-3.809985220084349180e+02
1.476908222301638602e+02
7.271744912729112684e+02
1.229426422770539375e+03
1.692453346536442268e+03
2.121265850680953918e+03
2.525880630296430809e+03
2.689304156935066658e+03
2.752493131478689975e+03
2.687532244963148514e+03
2.574424658763768093e+03
1.557089890583579745e+03
6.805392542602710364e+02
2.807134730386842989e+02
-4.754733280041950252e+02
-1.168080762706135602e+03
-1.287118130098441043e+03
-1.244639497969689046e+03
-9.676668677991066261e+02
-1.732217522461330930e+02
3.187377699328935705e+02
3.702070932601076265e+02
8.661700386125459090e+02
1.157563191055054403e+03
1.711436095211762222e+03
1.979877557611588827e+03
2.209868941679693307e+03
2.232428530649703589e+03
2.620580399836146171e+03
2.689350176672529415e+03
2.180750342045474554e+03
1.481735610336631680e+03
7.993072755822951194e+02
5.073515754801606477e+02
1.298039432081285725e+02
-4.192891078621299812e+02
-1.038932540562506119e+03
-1.590159714451561740e+03
-9.809507106652353059e+02
-2.402477688156889712e+02
-7.390612931249197572e+02
-1.435450212129561351e+03
-1.614390141798026207e+03
-8.027925832518163816e+02
2.623579525033763389e+02
4.520797594714875913e+02
1.188358235084053149e+03
2.350206710386245959e+03
3.252624847950182357e+03
3.641628174919938829e+03
3.038286925056015207e+03
8.286474177811768413e+02
-4.736332433641206080e+03
-4.170710269085839172e+03
-2.879428483818096538e+03
-1.002518843266239969e+03
-3.341020973150476038e+03
-6.199947633393695469e+03
-2.782292431261622824e+03
-4.331014719616836373e+03
-4.170049897447047442e+03
-2.392400731625397839e+03
-3.437091568141394873e+03
-2.154081684047243471e+03
-2.310323858080685113e+03
1.086230694696372666e+03
1.205695914402734417e+02
2.466742440917603744e+03
3.511850322901153959e+03
2.693929610005915492e+03
1.897007008364938429e+03
-7.989544087706216260e+02
4.409296281843511451e+02
-8.893080504014151302e+02
-4.559665279224093865e+03
-4.746090205589173820e+03
-5.131605001448333496e+03
-2.290280093495327492e+03
-1.508102692315038894e+03
-1.997042432251779246e+03
-4.491060432052155193e+03
-1.778193999472832274e+03
-3.160457773405868011e+03
-1.813852509629099131e+03
6.837018456880107351e+02
3.363085201464954821e+02
-8.398121483410918131e+01
2.403843979850983942e+03
3.532837170910686382e+03
3.799053628818031484e+03
3.203458486755529066e+03
2.536023469536863558e+03
2.004680460452593707e+03
1.324404081517795476e+03
2.981981712319212079e+02
-3.909424698580262998e+02
-6.806940668386495474e+01
2.578803093540185500e+02
3.888633532018536698e+02
3.949334091595735572e+02
4.060856600194507564e+02
5.552833828041085553e+02
8.265842137597860528e+02
9.511123726262719629e+02
1.672941784612577067e+03
2.324325762586702695e+03
3.056162554417768661e+03
3.679648252815345586e+03
3.389809852476194010e+03
3.157523184781870441e+03
3.132779799311337683e+03
2.419603698693722890e+03
1.549919377682479080e+03
5.557635326255524433e+02
-1.139036274047225561e+02
-1.274127140285547739e+03
-1.916958921608366836e+03
-1.769371936860460892e+03
-1.793569192063916489e+03
-1.476484353326391556e+03
-9.470581830245603214e+02
-6.014447603934357858e+02
-2.466436253206721574e+02
4.252897829111589090e+01
9.259362797381492101e+02
2.038748488405735088e+03
2.238020510251691576e+03
2.198572705446923919e+03
2.888466323134357481e+03
3.144679495502634836e+03
2.396284268259907549e+03
2.168103634335880997e+03
2.252169008540759023e+03
2.152588218314030200e+03
1.321306085249666921e+03
2.212711713796115021e+02
-3.724730352858177866e+02
-7.480414028653317473e+02
-9.718154650550650331e+02
-7.628051793073258295e+02
-7.979565637710069268e+02
-6.452331157725789126e+02
3.663764722737489024e+02
7.978237685363670835e+02
1.549123555642091560e+03
2.459260150447443721e+03
3.050250637234511487e+03
3.054077649571301663e+03
3.034808037860840614e+03
2.724427164053605793e+03
2.018914162158662521e+03
1.433202648234621165e+03
9.303536335456225288e+02
2.583105280753872535e+02
-7.802548752118325126e+01
-2.786428375373569679e+02
-9.465785420880337142e+02
-1.481883699270526449e+03
-1.546600015278187129e+03
-1.115720269707267107e+03
-7.412390737599263275e+02
-2.941397881392277895e+02
1.355005312689287678e+02
8.337445113339689442e+02
9.956335195594959941e+02
1.189152931194622624e+03
1.975372817929425310e+03
1.576260564560621333e+03
-5.652166648866414107e+02
-1.770020888640038038e+03
1.563870573272398815e+03
-7.456042694969980857e+02
-5.656511445970198110e+03
-6.182813968895475227e+03
-7.098515398492965687e+03
-7.178682639713628305e+03
-7.672389539168267220e+03
-7.841649793329687782e+03
-3.885449922617603079e+03
-7.757329380862881862e+02
-2.373813041758053259e+02
-3.539392893777823247e+03
-5.670935315807282677e+03
-5.378838753359466864e+03
-5.052031835591628806e+03
-5.101649813836005706e+03
-4.867701241130939707e+03
-3.925107831045740568e+03
-6.186916951205271431e+01
3.113020412437454524e+03
3.868586131490551452e+03
3.781787024772718269e+03
3.268657190865859775e+03
2.255142731137480041e+03
1.528219001474551760e+03
9.319263990497565828e+02
5.262157781141938813e+02
3.591212401021642222e+02
-1.043502426259293969e+02
-1.072148810680358366e+02
1.745597531595873875e+02
-3.859711581301064598e+02
-8.327966461391621351e+02
4.250107008110067000e+02
1.830548523848127161e+03
2.848006304470125997e+03
2.824471693205429801e+03
2.118946506677197249e+03
2.301392644022606419e+03
2.685830364377849037e+03
2.648266565393713336e+03
2.501810159779886362e+03
1.898458599050208932e+03
1.299158967182356491e+03
8.228754397690447604e+02
4.424686253039315034e+02
-1.440458649742319324e+02
-9.625773618077701030e+02
-2.319186913737287796e+03
-2.168878339915194829e+03
-1.553650977488164017e+03
-8.664171568700045327e+02
-3.802337122382306802e+02
1.149571171668448102e+02
5.792142927106016259e+02
1.237664078509745650e+03
1.878369417887147620e+03
2.288363265537226198e+03
2.246615779782626760e+03
2.174151270611318978e+03
1.993999421805189968e+03
1.746250354290102678e+03
1.103949000928977739e+03
6.071000049885120688e+02
-3.722465483992188524e+02
-5.500407306170702668e+02
-9.832967293870228787e+02
-1.087903195872744391e+03
-9.119625187741022501e+02
-1.283563714764572978e+03
-1.343917787754548044e+03
-1.440548007809578849e+03
-9.466275332676968901e+02
-9.212101387508569132e+02
6.083333352200896371e+01
7.663799822048347323e+02
1.003392126448184626e+03
1.378867046378421037e+03
1.312913999829333079e+03
1.420603510169831225e+03
1.686845682977981824e+03
1.285681417717625436e+03
8.481602728371387911e+02
6.692842035306551907e+02
3.606070241349430461e+01
-8.534862500076187644e+02
-1.269455007716478121e+03
-1.618882445770396998e+03
-1.330756786763656237e+03
-1.113081700967317829e+03
-1.267857101632555896e+03
-1.410049558953161522e+03
-1.650648628473170675e+03
-1.298658654845170986e+03
-1.144071068624045665e+03
-6.098848815631454272e+02
3.089775694761870000e+02
7.686230104999775676e+02
1.757114538738548390e+03
2.320392719370814120e+03
1.997444398844115085e+03
1.593314811277280796e+03
1.430993325254981528e+03
9.683909978828609155e+02
1.164621343433539380e+02
-1.237795578233657807e+03
-1.697320134389345640e+03
-1.659084571607073713e+03
-1.373909199944338525e+03
-1.996642165182350027e+03
-2.411329967596047027e+03
-1.997194735046184178e+03
-1.275343056291769926e+03
-7.718335805739729949e+02
-4.388641168384655202e+02
2.493480250839507733e+02
7.938961101919809380e+02
1.478968438064100837e+03
2.250512679896298778e+03
2.356510146616263683e+03
1.960017792443787584e+03
1.385113358018633562e+03
7.897184528386666216e+02
-1.906838297583698660e-01
-8.275420988795009407e+02
-1.052503211127576378e+03
-1.054257475917457668e+03
-1.660704511054509794e+03
-2.016896797502497066e+03
-1.449972481381239504e+03
-7.589034263504937599e+02
-3.186040437760197506e+02
-7.996606721478637780e+01
3.802377332931239380e+02
7.440672529056870417e+02
9.862771621846553671e+02
1.084793535522223010e+03
1.341628859051789959e+03
1.438586795216327346e+03
1.577940590852267405e+03
1.770210668357088707e+03
1.508465624800481919e+03
9.772607901417018184e+02
1.902280856978882753e+02
-5.506486813184055791e+02
-1.355065145699308232e+03
-1.401272959213590184e+03
-1.217751189563472735e+03
-1.352330628273901311e+03
-1.115822123079002495e+03
-1.022286057196888805e+03
-6.960718634157195766e+02
-6.745898111837389024e+02
-7.696655638260822343e+02
-6.566376894071956372e+01
1.034476210411961574e+03
2.160967313729461694e+03
2.760432715335440207e+03
2.406673874358786179e+03
1.919891815571753796e+03
1.501351098414634407e+03
1.739375644496072482e+03
1.972530711088881617e+03
1.957929478579434544e+03
2.152449705996969442e+03
2.321084017629244954e+03
2.265781051942075919e+03
1.817086118195754807e+03
1.181644652653498497e+03
3.967864091659794212e+02
-7.583990733110321969e+01
8.461463831082853915e+01
4.706896951093480652e+02
5.538739007861674963e+02
1.032800553274605363e+03
2.362248433468102576e+03
3.371341919339963624e+03
3.836293442431943731e+03
4.023230908187250861e+03
3.946177700881859892e+03
3.905036013309740611e+03
3.594736087404464797e+03
2.812218995770908350e+03
2.558350300071886977e+03
1.677075467933430673e+03
1.253483979082272981e+03
3.925455042882183534e+02
-6.427907505748992207e+02
-1.554484071810857131e+03
-1.901505917338503195e+03
-3.623823683777643964e+03
-5.467367324304014801e+03
-8.044138513164261894e+03
-6.929313766505303647e+03
-5.074890204802064545e+03
-4.331758366950494747e+03
-3.926923337851087581e+03
-3.420346192725220135e+03
-3.519917191766313408e+03
-3.378601646814754531e+03
-3.354382045498900425e+03
-3.440240411067313744e+03
-3.266085152245704649e+03
-3.893927757243242468e+03
-4.047866645206881913e+03
-4.258957249328470311e+02
1.206955040217580745e+03
-1.719314390360077823e+03
-2.513669586601189167e+03
-4.623071404233314752e+03
-6.279490419624703463e+03
-6.110969203422855571e+03
-5.980484869609252200e+03
-4.848958740182566544e+03
3.436792335268720535e+02
2.978425453438629120e+03
2.508343172200141453e+03
-1.985419518845592847e+03
-3.184863308167044579e+03
-2.904990764947096523e+03
-2.442769001976510481e+03
-2.771070973858237721e+03
-2.015827245606881206e+03
1.982962471220186444e+03
2.393280222907929783e+03
1.294114390576770347e+03
9.264563077544365797e+02
9.883748686288647605e+02
1.291861949819087840e+03
1.191888897823534307e+03
9.495594269696515539e+02
8.858806899475621321e+02
1.495893550824258000e+03
2.074655820211841274e+03
2.542264700215005632e+03
3.011783769145792121e+03
3.673259723148026751e+03
3.925793241898772521e+03
4.353452811719015699e+03
4.540276373507959761e+03
4.052296498149965373e+03
3.661538854370190620e+03
3.372024615812243155e+03
2.619813155103268855e+03
1.565950752149302843e+03
5.383972370969853500e+02
1.461366258751141913e+02
1.161944655766534709e+02
-7.742920168832252159e+01
-4.692822984527905028e+00
1.283950928506345122e+02
4.679170666408563761e+02
1.054915764873405351e+03
1.164387132991653289e+03
1.324537106308616785e+03
1.405565127864553006e+03
2.052491491562260762e+03
2.649114751673301726e+03
2.541188804971306126e+03
2.543727530400493833e+03
2.142201826083708511e+03
1.430018881792561615e+03
7.461869999259851056e+02
1.661120848012281215e+01
-9.228384529323263905e+02
-1.981494703266783290e+03
-1.938195932509890781e+03
-1.235657944299097608e+03
-3.231899221451926223e+03
-2.813259443755170651e+03
-1.050790034520741528e+03
-1.128124893808272418e+03
-1.130176410116245961e+03
-2.799220624220466220e+02
3.015351705723565487e+02
8.091606905832699113e+02
9.629294943687029900e+02
1.288752275159004057e+03
2.062645068766948953e+03
2.498591189257206679e+03
2.079653469232713178e+03
1.683805679711794255e+03
6.420248663341139945e+02
7.126927388252144624e+01
-2.474749125645508343e+02
-1.261249424220879291e+03
-2.146083810997062301e+03
-2.637059990100831783e+03
-3.410120556384038991e+03
-5.009260070536591229e+03
-6.016613362351548858e+03
-5.634198886657231014e+03
-4.100041170951428285e+03
-2.606047026751004069e+03
-1.329166708411116588e+03
-6.794184781017332853e+02
-7.478889485516505147e+02
4.294234741664259332e+02
2.153555080316299609e+03
3.455513943660263067e+03
4.415280785310007559e+03
4.305858722745224441e+03
3.831228500876341514e+03
3.846341471430033835e+03
3.536164071017043625e+03
2.952696944713919493e+03
1.624804945924415051e+03
1.034415725694536604e+03
1.494789657788187469e+02
-2.560465139692730077e+02
-4.981818971751372942e+02
-5.609537732635482143e+02
-5.583681002587472904e+02
-2.254634107887344499e+02
-3.023251993462528731e+01
4.013318146283536976e+02
3.221946336153453103e+02
1.653325681697675122e+02
2.267736945646173012e+02
4.784971551833104400e+02
-3.915454526909466040e+02
-2.323357606317346836e+03
-5.145014759789997697e+03
-5.410507721866079919e+03
-6.492905107615172710e+03
-7.099256595552936233e+03
-6.261615668001716585e+03
-2.006048251775975132e+03
-8.105616838711202945e+02
-7.202654561084075340e+02
7.678924721259044190e+02
1.572770989520412968e+03
1.592347174403731970e+03
1.986665953785863849e+03
2.746697863573255745e+03
3.154445674574977147e+03
2.618835346878484415e+03
2.452818526066148479e+03
2.944488925149341867e+03
3.276812439988937513e+03
3.874724618513366750e+03
4.456200883831091232e+03
4.079271825874930073e+03
3.481897538205747878e+03
3.045060731294489415e+03
2.551604090309728235e+03
1.889469551865387984e+03
1.528653144597736400e+03
1.218107324159887185e+03
7.608106503779320064e+02
1.668927515037392340e+01
-1.100221132284047371e+03
-1.630939872588950038e+03
-8.915277513947755779e+02
-2.539399227062439195e+02
-4.532450653991910485e+02
-5.574398629886509298e+02
-5.964598306140676414e+02
-9.202742880789922992e+02
-2.075919709571550811e+03
-4.032372779677989001e+03
-6.247634541699805595e+03
-7.410630594771972028e+03
-8.633451470985035485e+03
-7.938152598754108112e+03
-4.109813482164744528e+03
1.966326936837355674e+02
3.116170017012913831e+03
5.338759042777363902e+03
7.627329992268740170e+03
7.732895252006835108e+03
5.395489442524348306e+03
3.684074842631765023e+03
3.761662018366186203e+03
2.947258229023389049e+03
1.689846150740968596e+03
1.476480644847148142e+03
2.444244854030986971e+03
2.520175004925044504e+03
2.338334642012211589e+03
3.414697569215096337e+03
4.050254541811478248e+03
2.892984490249894861e+03
1.851875430877485314e+03
-3.210673291473572135e+02
-4.373854215972340171e+03
-7.660568710499524059e+03
-9.779229435329050830e+03
-1.144984075018999283e+04
-9.186340455722889601e+03
-4.239707409846599148e+03
-1.044926782482438966e+03
2.023006043929054158e+03
5.454136805319752966e+03
5.193487088792674513e+03
4.331171904499153243e+03
2.910215655287805021e+03
3.700626114880504701e+03
-2.035419988540876659e+02
-3.892461216316428363e+02
-1.784438222143790881e+03
-6.115097042902848443e+03
-5.665199790036200284e+03
-9.976753901092175511e+03
-1.051478705989031550e+04
-1.114827105548683903e+04
-9.743246760101683321e+03
-1.417067589283916095e+04
-2.107157538017718980e+04
-1.701089495099604392e+04
-1.275560797834524055e+04
-6.925779219382852716e+03
2.129605506682128180e+03
8.612595652153611809e+03
1.194130703363776593e+04
9.320800418700462615e+03
7.390088866585429969e+03
6.743257987809118276e+03
3.416323286124822062e+03
9.462801819266752545e+02
4.861479204926743023e+02
-1.595995707765861653e+03
-6.081076221219001127e+03
-6.234082035507648470e+03
-5.275913097414617368e+03
-3.284616571551579909e+03
-2.377295461854401765e+03
-1.153007938460612650e+03
5.851239689644246937e+03
7.598452510979209364e+03
8.503717965028250546e+03
5.758039753384224241e+03
3.559409803393971742e+03
3.081856499925238950e+03
4.348425897150210403e+03
6.589185718105350134e+03
7.978216969607391547e+03
8.368494478464059284e+03
8.395107629941590858e+03
7.797129036836814521e+03
6.534514399480810425e+03
6.251321488677885100e+03
5.476549456214277598e+03
3.861260026655519141e+03
2.648474183749262465e+03
1.770209810225404681e+03
1.045352195901253481e+03
1.975950658443637622e+03
3.295022583091280012e+03
2.686938596776423765e+03
1.971489493197132560e+03
1.581651552670638466e+03
8.835049599712194777e+02
6.250618540096597826e+02
8.633065315757220333e+02
1.108355680334333556e+03
1.091202320718749888e+03
1.275861555795582262e+03
1.840348339543007796e+03
2.532609933426121188e+03
2.608715396058215447e+03
2.398717342804821783e+03
1.877465669374337267e+03
1.304731942026746310e+03
6.976697065489119041e+02
2.860027325942146490e+02
-1.330709923826490524e+02
-8.113480907200712409e+02
-1.180934625394477962e+03
-1.769817193653126878e+03
-2.193143762947278447e+03
-2.321218011430670231e+03
-2.387607859677679699e+03
-2.008383841089746738e+03
-1.575435211677852294e+03
-1.220189889550366388e+03
-1.001375168528283325e+03
-3.429446203920739435e+02
4.171713037631762404e+02
1.218891976255560394e+03
1.585010204065183416e+03
1.454814691476567987e+03
1.126138888138514403e+03
9.258058188404119164e+02
2.307250999580768109e+02
-4.952092346970068775e+02
-9.329903405398341647e+02
-1.442589374807360400e+03
-1.673062492729625092e+03
-1.876507241816578244e+03
-1.916940533460312054e+03
-1.689332069387076672e+03
-1.718693063692856867e+03
-1.505066231558856998e+03
-8.924264297109579047e+02
-2.128130240366110684e+02
1.828331711115623648e+02
7.245678751179133315e+02
1.242365269192929645e+03
1.560175575092229565e+03
2.075986669094414083e+03
2.062832014569937201e+03
1.900692571642891835e+03
1.592539211719403966e+03
8.673346624550601973e+02
1.160591165710425372e+02
-1.046355522919015357e+03
-2.369939123394389298e+03
-3.920758665203993132e+03
-5.723836406513642942e+03
-6.889157720217909628e+03
-8.400752785002188830e+03
-1.003856420296705983e+04
-1.013266038777506219e+04
-5.948045313904850445e+03
-4.842658766651738006e+03
-7.422467728646403884e+03
-5.805439467745273760e+03
-3.109546265327553556e+03
-1.869765744696047022e+03
-2.178116439750351219e+03
-2.437604525345016555e+03
-5.423786832467274053e+02
3.483818023633369648e+03
3.404921000745489891e+03
-1.386028557345927311e+03
-6.059241395916457805e+03
-6.780854623605161578e+03
-6.990778757532833879e+03
-6.730998935863739462e+03
-7.056596070637676348e+03
-4.015536924831733359e+03
-2.418014651860127344e+02
1.089658068121864289e+03
2.140839847278386969e+03
2.654671837938333283e+03
3.448227909236144569e+03
4.193596958214755432e+03
4.839801901056046518e+03
5.224924734685697331e+03
5.829924166717170920e+03
5.706781737403945954e+03
5.732597944060486043e+03
5.104415943056126707e+03
4.316172908869339153e+03
3.553876824177793878e+03
2.869594738208844774e+03
2.503291719225589532e+03
1.808934577686306511e+03
1.464422229204447603e+03
1.095697488982864570e+03
1.545752914839996492e+03
1.443681804160774846e+03
1.188557736063864240e+03
1.541331297033876126e+03
1.799951105357777806e+03
2.013433987200993670e+03
2.677853781559540039e+03
3.624322217915161673e+03
4.161869016790707065e+03
4.314510702892900554e+03
4.022304679563578247e+03
3.659228402520428972e+03
3.242402585970871769e+03
2.712844475928801785e+03
1.836571924148345943e+03
1.014555829588309052e+03
1.308102025938098620e+02
-2.467050418564570862e+02
-6.659269465355050670e+02
-7.468578047869112879e+02
-7.424696407308042581e+02
-8.357267371113226773e+02
-9.895871809943747621e+02
-4.350209182354163886e+02
-1.189161134873516517e+02
7.270884907695668176e+01
1.902669788705978249e+00
5.878195633614702587e+01
4.077205760271165786e+02
6.746436058532556217e+02
1.156556481451320224e+03
8.694392078422181385e+02
3.472795952671297641e+02
2.301760999690965193e+01
-7.564093746898644213e+02
-9.481622471810836714e+02
-1.528309817720874435e+03
-2.195863092666063039e+03
-2.321742117866441731e+03
-2.203974535064307474e+03
-2.012589398747042196e+03
-2.201516408114095611e+03
-2.481673431274404265e+03
-1.814027702044561920e+03
-1.185616392525767424e+03
-6.844047082318196544e+02
-6.123568010542529692e+02
-1.654655833320474869e+02
6.003557911805984304e+02
1.731185954941809996e+03
2.027140779313262328e+03
1.965117686956849866e+03
1.808036811568706980e+03
1.255874237582600699e+03
4.176424392177689811e+02
-7.186774901220319407e+02
-1.495076771115823021e+03
-1.946534977644476385e+03
-2.490075320687207295e+03
-2.596764137754813419e+03
-2.688583714019310264e+03
-2.800481562125185519e+03
-2.783413139961322031e+03
-2.332345933757661896e+03
-1.923292205363806033e+03
-1.326181777197368774e+03
-1.059885375510520134e+03
-3.783332442540074112e+02
6.841975277475552275e+01
4.763607164109226346e+02
2.873270018289552468e+02
3.803449706436691002e+01
-3.516682125176009208e+02
-4.157912758263153137e+02
-9.524080035041208703e+02
-1.505622296408326747e+03
-1.779293770025678214e+03
-2.148190882217140370e+03
-2.492362614320363718e+03
-2.549935520441064455e+03
-2.647847224228291907e+03
-2.705044232509163066e+03
-2.296577768188087703e+03
-1.715552266708143407e+03
-3.569263100436573950e+02
4.533273078402845044e+02
9.441104376647327854e+02
1.663398408209691752e+03
2.499340270039832831e+03
2.724954498823598897e+03
2.845289983631450468e+03
2.689509441822801364e+03
2.355622823074362714e+03
1.527545697871506036e+03
1.006152338846508087e+03
7.471086615152785271e+02
3.710521509513096703e+02
-3.890824311129271678e+02
-1.125438022392440189e+03
-1.856202478227155098e+03
-1.576872818948919758e+03
-1.116373035216788821e+03
-6.445870000625415059e+02
-1.128854789801970213e+02
4.192819392089273833e+02
9.695906029168011173e+02
1.467073412804712916e+03
1.794997351753273506e+03
2.509081801069268295e+03
2.970826803056681456e+03
3.284823802334251013e+03
3.181658605797675591e+03
3.144576387772781345e+03
2.816901546798117124e+03
2.468928081740007656e+03
1.887578886297784038e+03
7.988490769940000291e+02
-7.953908454478215617e+01
-5.401876566504768107e+02
-1.982867302652276464e+02
-3.444442562801855274e+02
-1.052002072669587733e+03
-1.194129212374542931e+03
-8.459125026402150525e+02
-8.140367129232297430e+02
-1.158811303896630761e+03
-6.040697214101834334e+02
8.401134048897258708e+02
2.260951582720404986e+03
4.690883938403982029e+03
6.432172531645074741e+03
6.461633889560077478e+03
5.491417728955620987e+03
4.501065947230645179e+03
3.310194811342711546e+03
2.453100931142981608e+03
1.607890485951857727e+03
1.314509497152700760e+03
1.008222902251101345e+03
5.537509627828102339e+02
4.091983954002296855e+02
8.052728047972815375e+02
6.549777625478184291e+02
1.113412258220489775e+03
1.786549732466354953e+03
2.189436329501922501e+03
2.423159026434941552e+03
2.810638865910136246e+03
3.316969990519890416e+03
3.606284313882389142e+03
3.924544891282222125e+03
2.947713708177136596e+03
3.618126147155259673e+02
-3.576339655523488545e+03
-4.875835826147886110e+03
-5.759552596436117710e+03
-6.074470502451229549e+03
-6.297603754947727793e+03
-6.733953601134029668e+03
-7.382585569887726706e+03
-7.230465429781405874e+03
-6.930553727340021396e+03
-6.486872152361567714e+03
-5.865379765262621731e+03
-5.546028599927798496e+03
-5.103816392534882652e+03
-3.300708983707794232e+03
1.755314815731683666e+03
3.547308771607456038e+03
2.799393626098496952e+03
-2.724492585328093810e+02
-3.195271183961485804e+03
-3.932004861975435688e+03
-4.458634324861622190e+03
-4.805210370743544445e+03
-5.958721555421398989e+03
-6.184148717225674773e+03
-1.711457008375351052e+03
-3.661150398680363338e+01
-1.443678748404694716e+03
-6.510711031975641163e+03
-7.341699450136773521e+03
-7.242525008914323735e+03
-6.793126883756790448e+03
-5.894556786291278513e+03
-3.127846299873654516e+03
1.508058551104821845e+03
3.486265709148408405e+03
4.335825382815984995e+03
4.840815296852372740e+03
4.557318381190654691e+03
4.148271495216906260e+03
4.118691182600230604e+03
3.701624178300410222e+03
2.863065598982521806e+03
1.945016218606250732e+03
1.497534313557634960e+03
1.153600666091644598e+03
7.182653632038928890e+02
4.344902044274998616e+02
2.225178380082855867e+01
4.066075891222266705e+02
1.138641136744349524e+03
1.923360131015983143e+03
2.462745201594950686e+03
2.538892237519179162e+03
2.758811641930511996e+03
2.729569986073160635e+03
3.032252136114909263e+03
3.485881573676804237e+03
3.818545235774421144e+03
3.786239163698669472e+03
3.650065940851774940e+03
3.027068591019944051e+03
2.533221159169122984e+03
1.867545124850895490e+03
8.409532448695673565e+02
4.707798947315590112e+02
-1.047777463131038047e+02
-6.426672747286680760e+02
-1.068092380290136362e+03
-9.142745517621040108e+02
-6.542471767918780188e+02
-3.359224375232320767e+02
3.257693864944731672e+02
7.419232923689355630e+02
7.927515942918679457e+02
-1.695702872211425301e+03
5.727783454116887185e+01
2.336560734872951343e+03
2.694662653962717741e+03
2.665657241258673821e+03
2.548407577992132246e+03
1.905584828087972028e+03
1.390595247613126503e+03
6.415208939721281922e+02
5.202289800060556502e+01
-3.750866587513947366e+02
-5.865975269947152810e+02
-6.894965469725907496e+02
-1.295951516864271071e+03
-1.306986465915513463e+03
-1.111625127508090827e+03
-7.478299756743042508e+02
-1.585303728162890593e+02
1.583558812252481687e+02
3.127740570509034228e+02
8.547127569393729800e+02
1.917245191883344660e+03
2.477400889501757320e+03
2.669193315926970172e+03
2.458661188065031638e+03
1.809829388170524908e+03
1.830708274087653308e+03
1.819304399980306698e+03
1.190577397801265306e+03
2.235145306145870450e+02
-3.199443139927154789e+02
-9.327719423356153357e+02
-1.130995991349589531e+03
-1.369698283157532614e+03
-1.771849533335186379e+03
-1.588380157644999372e+03
-1.146348091002599631e+03
-9.948391196084131707e+02
-4.157809638118152975e+02
4.119088226524769425e+02
3.493500185965505125e+02
5.514892270870793709e+02
1.278296188087679639e+03
1.583812635851565574e+03
1.569121955759122557e+03
1.510173429881920811e+03
6.599112977853252460e+02
2.032905006033392681e+02
-3.477332767639916256e+02
-1.091217748253865466e+03
-1.533219853712409986e+03
-2.399769541914724414e+03
-3.592852628864442067e+03
-3.642534741267140816e+03
-4.100805810954615481e+03
-5.753630832566051140e+03
-8.223975217152785262e+03
-8.040841515921023529e+03
-6.796220400665009947e+03
-6.574135485495629837e+03
-6.605669206233452314e+03
-5.428725131883809809e+03
-3.543119776989379375e+02
2.372479951564633666e+03
2.214746851219156270e+03
2.593441700825042517e+03
2.238623084643244511e+03
1.932288155655886385e+03
1.371314961819500695e+03
5.596006106959412136e+02
6.506576622217292538e+01
-7.172629781010783745e+02
-1.174417947308879320e+03
-1.748524051849928128e+03
-2.270566834081259003e+03
-2.198551534749516122e+03
-2.057484312532019430e+03
-1.868365052317863046e+03
-1.050149699626627580e+03
1.597107906652015799e+03
3.194384568337072324e+03
3.625724250037876118e+03
3.950154087807234646e+03
4.458647334230296110e+03
4.520228483886189679e+03
4.200001455203467231e+03
3.371885212830648925e+03
2.387760389297251095e+03
1.642589453113920399e+03
1.056303987276439784e+03
2.079380011959749766e+02
-1.294576435185624064e+02
2.504942064670416002e+01
-2.626678386347929290e+02
-6.885899738654422890e+02
-6.086654123963651273e+02
-2.548273484574809800e+02
2.778617071198735857e+02
5.683875388653982554e+02
9.137846980530905512e+02
1.713065168179316515e+03
2.555223704881741014e+03
3.246255522445514544e+03
3.273100324876183095e+03
2.754799128657624806e+03
2.222268898289338722e+03
2.023502410743848259e+03
1.385489305924677637e+03
7.521669828044855421e+02
-1.848110234462923884e+01
-7.744358431828537732e+02
-1.243709897264246365e+03
-1.621385918537593398e+03
-2.059466107531915441e+03
-2.225017013923798913e+03
-1.983999258523416756e+03
-1.951441833651922707e+03
-1.506296998325461345e+03
-4.924532306255135836e+02
1.490840517863581738e+02
7.063257976378542935e+02
1.815367874991260123e+03
3.050299338327708483e+03
3.292156755114490352e+03
3.857836982254316354e+03
3.986237544982932377e+03
2.952349785558802523e+03
8.031822340573236261e+02
-2.908314265130286458e+03
-3.644065737928039198e+03
-3.928085377955152580e+03
-3.146419403408623111e+03
-4.734108178300944928e+03
-4.097170506893756283e+03
-3.955526190215040515e+03
-4.444214684104676962e+03
-4.892237788266766074e+03
-4.203542520393095401e+03
-1.433125180721067863e+03
3.180207370553572446e+02
-3.221090681877386032e+03
-1.144453348772002983e+03
-2.060580737248594403e+02
1.446189415058046279e+03
5.333051024459912242e+02
1.438289146486187292e+03
2.496190733698232179e+03
1.529994914064328896e+03
-2.639305560847502875e+03
-3.993789528800545213e+03
-2.385428586832186738e+03
-2.313148025160675388e+03
-2.033036411072966985e+03
-2.980741575994755408e+02
-2.105194028492598136e+03
2.926544461871049521e+02
4.863738932303907632e+02
5.748788327115081529e+02
-2.881807541463197140e+03
-1.669764678547096764e+03
-7.469300759940432499e+02
2.276792825066782370e+03
5.245009366292576942e+02
8.312819204878305754e+02
1.211161948227894754e+03
2.990084949299652180e+03
2.850726501668907531e+02
8.100898904519041253e+02
-8.267578649691578221e+02
9.515098734556967202e+02
8.087824504510243742e+02
4.289961623044899284e+02
6.722438238580126608e+02
3.704633790332936201e+02
-3.535351950051753533e+01
-2.291726687048518727e+02
-6.739946235139253758e+02
-5.157823218584460392e+02
3.764527539199945068e+02
1.091739445240483064e+03
1.595017518194455533e+03
2.572411384072750934e+03
3.160012542662905162e+03
3.386149421196242656e+03
3.416826179884423709e+03
3.427078674387701994e+03
3.432743248698867774e+03
2.883866414093943604e+03
1.524436603303972106e+03
7.714250453031121424e+02
3.757504457768799853e+02
-8.306705738482368133e+02
-1.664876510418348062e+03
-1.637871922319990745e+03
-1.396596266711134831e+03
-1.352037809712172702e+03
-1.528208319670788796e+03
-1.642749089096268335e+03
-4.471734079242933717e+02
3.987303055872118875e+02
5.926560223150053162e+02
1.483879249482216665e+03
2.191538680081188431e+03
2.330589293422578521e+03
2.048921294412115003e+03
1.759550393680223806e+03
1.903395352722774760e+03
2.390086906405931131e+03
2.332890242421691710e+03
1.388102838777435863e+03
1.663822297215070378e+01
-4.031085741931725011e+02
2.518507993939692540e+02
3.237623481334765643e+02
-1.283732460516237097e+02
-6.235658698966576594e+02
-6.021638758776928171e+02
-5.321039179969274073e+02
3.725854310967411607e+02
1.672867244073973325e+03
1.786812636383344852e+03
1.943444479147223092e+03
2.221734487063944925e+03
2.330705483083352192e+03
2.057403849499315584e+03
2.319829219116475088e+03
2.316873799298069116e+03
2.387476336487551634e+03
1.815654533677277641e+03
8.933608505914144189e+02
