-4.719549122833820547e+03
-4.276720794201775789e+03
-2.409138679253804185e+03
-2.925789484727629770e+03
-4.279459888595146367e+03
-4.363331603115039798e+03
-3.842205729143288409e+03
-1.721920736548702507e+03
-9.205562642495586942e+02
-3.573174283879491213e+03
-4.598699444554573347e+03
-5.086312347951769880e+03
-5.230188448051425439e+03
-4.587331263186165415e+03
-4.021647182027116287e+03
-3.138976338974981445e+03
1.967732503507654940e+02
2.153539538285103845e+03
-3.436416929474673339e+02
-4.804599527706635854e+03
-5.251268812266395798e+03
-4.949713845210018917e+03
-4.792942315133415832e+03
-2.112989566377746087e+03
1.066243645453394720e+03
2.960906549153074138e+03
3.754111427155315596e+03
3.867897320415694139e+03
3.086117655581530016e+03
2.336767844390654318e+03
2.559827783989561340e+03
2.485283433580942983e+03
1.740164518092401750e+03
1.204468819961889949e+03
9.693605152925819084e+02
1.599905128857212958e+03
2.384238084626455930e+03
2.708321075033893976e+03
2.837125121813221995e+03
2.528702220601664067e+03
1.837038183633330618e+03
1.234163173940648221e+03
1.462139019557569100e+03
1.750957402996138853e+03
1.955729773403341824e+03
2.747516782839142707e+03
3.689297634583636864e+03
3.445156025953151129e+03
1.940137745633508302e+03
1.001345095819545804e+03
1.051840083136385829e+03
1.437552176258556756e+03
1.299472489459040162e+03
8.265471847200789171e+02
4.949227471335160544e+02
5.117785111884206231e+02
1.161091614219016719e+03
2.755817389357961929e+03
2.973985217112491682e+03
2.155658583101623663e+03
1.315938665560829349e+03
8.616886480974286542e+02
8.660917916722160044e+02
6.732442990065067079e+02
6.272622705020345393e+02
3.312871042201165892e+02
-8.557059010206779703e+02
-8.888776986927724693e+02
-1.192309186158065813e+03
-1.095964701424678879e+03
-5.443158133683222104e+02
-3.171654243968125684e+02
-4.612192865478832573e+02
-7.667749846217658387e+02
-4.054752243736784862e+02
6.357198601292127478e+02
1.579052991448442299e+03
1.721352649103313752e+03
1.095531726397001648e+03
6.045868441147750900e+02
2.455747656486096560e+02
3.935313702329050329e+02
7.944013955174630155e+02
1.661154283508693425e+03
1.965820076850554869e+03
1.398477144387497674e+03
1.589136423361858533e+03
2.030820124194089658e+03
1.693537637418231498e+03
8.902970962327638063e+02
7.209518821344826733e+01
-9.170947533511072152e+02
-1.430354790341644502e+03
-2.210700544514350895e+03
-2.186065435987415640e+03
-9.364307616094791911e+02
4.371945667067531076e+02
3.887695432144601568e+02
-7.717029111396861936e+02
-2.451961939190752844e+02
8.623367628472552724e+02
1.253812412109711431e+03
1.667222812586489226e+03
1.329520365715530033e+03
8.467961810597661270e+02
9.300590891762602723e+02
1.138272799759637110e+03
1.043410805687038646e+03
4.584867015834306585e+02
-4.924205039330653335e+02
-6.733960034337751495e+02
-4.635298786100050279e+02
-1.689941700335504265e+03
-2.572653732843979014e+03
-2.387703051851209239e+03
-1.589085126963788525e+03
-2.707240267269273204e+02
8.204580718795707526e+02
1.206448097304561315e+03
6.422337146680016531e+02
-3.682166605849748748e+02
-1.632987053400970126e+03
-3.334134476868278398e+03
-5.866727620198970726e+03
-5.961765283719138097e+03
-4.773197890289168754e+03
-1.342029850498666974e+03
8.106967963808082231e+02
-1.160237440231514228e+02
-8.691360702157048763e+02
-1.202828335299755281e+03
-9.102165594328102998e+02
-1.701329577537863429e+02
-3.717820914930001095e+02
-4.051780213015266554e+02
-3.982499703299866383e+02
-3.540455705096562156e+02
3.093972098828257344e+02
9.850249647385553544e+02
2.059106476973118731e+02
-8.040306645964642485e+02
-1.094820576010417881e+03
-6.834457818335233696e+02
-1.199517178330761453e+02
3.466045656663359296e+02
1.154255800327739280e+03
1.852948879456138911e+03
1.937682992359091713e+03
1.156417798069423498e+03
2.011305801920196359e+02
-5.362027565425769353e+02
-7.506358630338562534e+02
-8.442241049012586700e+02
-9.359499897962410842e+02
-1.303853344585011655e+03
-8.769908678876115573e+02
3.266465622032444003e+02
9.220756619358849093e+02
2.602068911914070100e+02
-2.030026696044412233e+02
2.465604604638796218e+02
6.759229087689317339e+02
9.510331394055443752e+02
1.125776184608364701e+03
1.200148521885687614e+03
1.220129086375701718e+03
1.159754682693378754e+03
9.911291092253622992e+02
-1.279963017421881588e+01
-5.910648027334653989e+02
-5.187846665025745097e+02
-9.850371922848710255e+02
-1.289862367278272359e+03
-2.213393522787539041e+03
-2.594636166151770794e+03
-1.726413237728843569e+03
2.773360720231594883e+02
2.816648593151082878e+03
3.760492761739881644e+03
3.001832438492497658e+03
2.256710011703058171e+03
1.841158914636217332e+03
1.415175294799782023e+03
1.031757821518848687e+03
1.024813056871628305e+03
1.603372684723499560e+03
1.964376425275551128e+03
1.930679870323420573e+03
1.484291483022098873e+03
9.883437491010233771e+02
1.364064968345970783e+03
9.013826055575719920e+02
7.371255336603470596e+02
3.031882463928616289e+02
-1.104434755968266018e+03
-4.127634498334175987e+03
-3.512218904683186338e+03
-1.937266421099286617e+03
-1.385868450578404236e+03
1.739755188657829876e+02
-4.877271024163069768e+01
1.712839112453336156e+03
-1.150193663013295463e+03
-2.418768081037071340e+02
1.931874625321585881e+03
4.350862811822511844e+02
1.044805902935742097e+03
2.113102857791817769e+03
-9.920522729620965947e+02
-6.275172496165084794e+02
-1.983257313630718727e+03
-2.431354198000254200e+03
-1.332924440508971202e+03
-3.229152398059928146e+03
-3.209926228103383892e+03
-1.993023151821583951e+03
-4.563831297283327331e+02
-3.041094121037551190e+02
3.028268062974395320e+02
-1.753343687096987580e+01
-8.801819551414934040e+02
-7.900055952959681917e+02
4.769698119933154885e+02
2.260696734949203346e+03
2.605131394458312570e+03
2.745219639765124157e+03
5.260302452113387517e+02
-1.578265204236516183e+03
-8.346375806120357765e+02
2.988918815978645966e+02
-2.917163635783726932e+02
-2.421495957643455313e+03
-3.744574128186956727e+02
2.864064432376785021e+02
1.580841659267557588e+02
-7.833629437273111762e+01
1.331765160559483547e+02
8.337176329390730416e+02
1.176362832071697994e+03
8.720835521606003340e+02
2.208170944505001501e+02
6.626252135153762310e+02
1.555509571495560749e+03
1.800443527391125599e+03
1.705478364403086289e+03
1.667690820048865135e+03
1.601136033548568548e+03
1.699788171004566721e+03
1.399658042261897435e+03
6.650463503146756921e+02
6.010730039537961602e+02
8.715669648655602941e+02
8.244530881846050079e+02
4.986901826080048181e+02
4.035324431806121481e+01
-8.534464774450520963e+01
1.068373513432586641e+01
4.944932994127619708e+01
-4.892264841318525441e+02
-1.928479172532580151e+03
-1.809052368404967865e+03
-3.063670796104527199e+03
-3.211405026194191578e+03
-8.388074203262635820e+02
1.073877400956506335e+03
2.047653372656708825e+03
4.136865663379014222e+03
4.708619467444024849e+03
3.059076514863410466e+03
1.221218154721092787e+03
-2.320091854598931036e+02
-5.984928943290503867e+02
-1.062224466789616827e+03
-2.442362084470761147e+03
-3.633066543889137392e+03
-2.844076598925337294e+03
-1.382774752132904041e+03
-3.193692013263540730e+02
1.477665826690827942e+02
-5.534582557238567233e+02
-1.131340954951453796e+03
-5.040553331251283566e+02
8.662563879697693210e+02
2.629547290369798702e+03
2.670819083651706933e+03
2.297041427504280819e+03
1.380237412561030851e+03
8.334406107998318021e+02
2.857632813384083192e+02
-1.011607727679012442e+03
-1.084604018785372546e+03
-5.583223235920102070e+02
3.080684232018480770e+02
8.953908268685820531e+02
1.364522866134601600e+03
1.867462365618859394e+03
2.010416962568142935e+03
1.881479783636990078e+03
2.416681851701745018e+03
2.257965282991864115e+03
2.012272315739041005e+03
1.892633832900910647e+03
1.221933125276821102e+03
9.021186217646381920e+02
5.472794958638388607e+02
5.936273475440821130e+02
8.611950691144634220e+02
1.106948180933050025e+03
1.339964465050638637e+03
7.795979364769590347e+02
4.270006689900290553e+02
1.086880030949597995e+03
1.537904858172707009e+03
1.699736243441804845e+03
1.537127079352884039e+03
3.982257418333524583e+02
-9.907603140754630431e+02
-3.188728934475353526e+03
-3.941644220523749937e+03
-4.798554229656044299e+03
-5.251418561490161665e+03
-5.377373095998546887e+03
-5.133581486827708432e+03
-5.350976777777059397e+03
-5.484617525233245942e+03
-5.343409162750207543e+03
-1.853420761068921820e+03
2.700428500430444274e+03
1.841304921600395801e+03
-3.472811622784920928e+03
-4.896877301091123627e+03
-3.269916528178326189e+03
1.590704668483516002e+02
8.039218350975687599e+02
7.485135210127319851e+02
3.669870884329185401e+02
4.474048297092791131e+02
1.816957897694434678e+03
2.779607865326897354e+03
2.622357208578132486e+03
2.198518739272804851e+03
1.814350697013732997e+03
1.569777389751493956e+03
1.348442798918083326e+03
1.280787259710367380e+03
1.425495857226314229e+03
1.783651841386255683e+03
2.299420322046505134e+03
2.278801061023748389e+03
1.566766969238705997e+03
1.271488164757528011e+03
9.919953786728309524e+02
7.762107816572377033e+02
1.440506510836517862e+02
-4.644241097211402689e+02
-6.100779200799204318e+02
2.841064591551379976e+02
6.490569994946835095e+02
1.106798642382414300e+03
1.198495658456465435e+03
1.257429621642706707e+03
1.071633546314782734e+03
7.029624931630100946e+02
4.973431171586900632e+02
2.716246244925854967e+02
1.020573404120617397e+03
1.502272749273327690e+03
1.958889219040791659e+03
1.604482439507790332e+03
7.241612595738878326e+02
-3.290544300376302544e+02
-2.028115254891546556e+03
-3.036879668417952416e+03
-2.945381852145002540e+03
-2.596588582709215643e+03
-1.748628574080926228e+03
-6.386043352869793353e+02
3.905340631813606365e+02
1.081826362180805745e+03
1.093107224077898309e+03
5.803334803156790258e+02
1.267217141437095940e+01
1.672364980308661302e+02
1.228491753750153919e+02
-1.712812597330251663e+02
1.879753933697954267e+02
1.742687047210838358e+01
-1.462825623450716648e+03
2.481300637308909813e+02
2.752607482198609432e+02
-2.063194452412789133e+02
-2.296194912010394944e+02
-7.476292369309758215e+02
-1.454405686386960497e+03
-2.102019650498695228e+03
-1.505403623660058884e+03
-1.473416137710971498e+03
-1.149002595096242885e+03
-3.951297888989826674e+02
2.042275556279365389e+02
-2.590938381472135177e+01
-3.774978056624064493e+02
-6.276231431049920957e+02
-6.163032688373845076e+02
-1.116541416804749133e+03
-1.262271392598201828e+03
-1.229471386790723727e+03
-1.416072600159452122e+03
-1.464076857662006887e+03
-7.874608822552888796e+02
-2.891896248788282833e+02
-4.942322598914875016e+02
-8.146834420672704482e+02
-1.142686968155804152e+03
-2.020260541857374164e+03
-2.879235245729866620e+03
-2.850613001957632150e+03
-1.623458949740848993e+03
-2.457516944315934779e+02
-2.943653437997508604e+01
-4.164174599994514097e+02
-1.265597993335745969e+03
-1.492999140257471254e+03
-4.665015014557617690e+01
1.109374705235035663e+03
1.916135909053149362e+03
2.256688697876404603e+03
2.145019483098136334e+03
1.652089153306879098e+03
2.457851478761665760e+02
-1.761887955961190755e+03
-2.371943786864756021e+03
-3.085452451478490275e+03
-3.837581187103995035e+03
-3.724429476023105963e+03
-3.607824694424719382e+03
-3.085569128571662077e+03
-1.729723229970028797e+03
-4.343116371042918900e+02
1.145653035243373324e+03
1.452136804043377879e+03
1.364156019164206555e+03
1.119689246060626147e+03
5.971267290983737297e+01
-1.460859056314187683e+03
-2.406034852340154430e+03
-6.418150384218555473e+02
1.461721851016352275e+03
2.386634559378573158e+03
1.710888212826517247e+03
2.835046778949730992e+02
-3.075556229666349850e+02
5.210591084175616743e+02
1.304196248803791832e+03
1.979770330903901140e+03
2.303495584594425964e+03
2.693453857945795789e+03
3.451595115704301861e+03
3.423791609391435941e+03
2.697408465451080701e+03
2.267264627406156251e+03
1.601269072359842085e+03
9.985862843251381946e+02
8.940994051201319053e+02
2.455104870165395994e+02
8.260215355525962195e+02
2.176569717302121717e+03
2.787033375103372691e+03
3.204654225304399461e+03
1.893022208743265537e+03
8.725103220481054223e+02
1.128996083217456999e+03
1.362387929731675285e+03
4.883175803039540597e+02
-2.526825115294564483e+01
-5.319336048322726995e+00
5.142722783978331336e+02
2.259347929925685094e+03
3.892987662759363957e+03
4.869164486935834248e+03
4.589942522908039791e+03
3.615183255572982034e+03
2.472805119611050486e+03
2.326911725860194110e+03
3.004278466223142004e+03
3.184863675512747704e+03
3.341405828428438326e+03
2.988268551447420577e+03
2.724324255100476421e+03
2.561469880198557803e+03
2.026675630846416880e+03
1.535867085958100233e+03
6.780323566214946140e+02
2.960709738118200107e+02
8.157492292770187987e+02
1.148991575048902405e+03
8.388725914537083099e+02
1.468552751282705231e+03
2.323952969720849978e+03
1.986011749985246297e+03
9.886564746449736276e+02
3.328889374097374230e+02
-2.492852158664691160e+02
-1.283998237872237269e+03
-3.395440292312899601e+03
-3.486669850125770154e+03
-3.932663967783200860e+03
-5.214500075880258919e+03
-6.114187707283643249e+03
-7.322716968653636286e+03
-8.482070093053327582e+03
-8.460217187236716200e+03
-7.054281639700477172e+03
-5.790374700134513660e+03
-5.777524157650611414e+03
-5.912638712873364966e+03
-4.967600631405033710e+03
-1.017491171518281817e+03
4.271796721630461434e+03
3.732138876246304790e+03
1.633283748091759435e+03
-2.159742384123827833e+03
-6.318892411682547390e+03
-8.943362690215939438e+03
-9.652131688700825180e+03
-1.061604701792624110e+04
-1.174203765053902316e+04
-1.150206266954786042e+04
-1.052319741289507328e+04
-8.155480640310431227e+03
-8.262820236770645351e+03
-9.777204318498019347e+03
-5.929797604860469619e+03
-5.370934127707410966e+01
3.045068127555093270e+03
5.810577626113637052e+03
8.546928023264663352e+03
1.121315829951898377e+04
1.208119670960321491e+04
1.185799240769969219e+04
1.114052301889352202e+04
8.807972965490896968e+03
6.087408887277127178e+03
4.238953709926555348e+03
3.321510035987314495e+03
4.145018889876595495e+03
6.443527776534792793e+03
8.426037837229014258e+03
9.774575245797763273e+03
9.512102009932830697e+03
7.205680689284019536e+03
4.193343607959101973e+03
2.972059600817132832e+03
2.318858757126944056e+03
1.985754783888332440e+03
1.749695092425257371e+03
8.878293097980474613e+02
3.452589403932489063e+02
-1.126950008663398648e+03
-3.255718182794455515e+03
-5.876011375914021301e+03
-7.799732495673349149e+03
-9.468854682589695585e+03
-1.108435728164660213e+04
-1.152627231452896558e+04
-7.358621718027073257e+03
-4.533036031559122137e+01
5.359606461261617369e+03
8.063157893662946663e+03
7.623575374878597358e+03
5.033048525804357268e+03
2.723645103477884732e+03
1.656499772927348658e+03
1.650698081675087906e+03
2.575330382522411128e+03
3.689369121574991368e+03
5.652930705248456434e+03
6.511053509156820837e+03
5.042822184022601505e+03
3.032253931113490580e+03
8.354407519736686254e+02
-8.615250672308309277e+02
-3.559352665073958178e+03
-5.173422669941091044e+03
-5.006110695673629380e+03
-5.444182427395508967e+03
-5.568115082370229175e+03
-5.265806377861308647e+03
-3.832348744387328679e+03
-4.130746711358394350e+03
-7.091987613087084355e+03
-9.819036901203964590e+03
-1.249486116736593794e+04
-1.317548990132432482e+04
-1.413497457708035654e+04
-1.503921373194577427e+04
-1.092198902571248254e+04
-2.234206408871146323e+03
6.954179531107763978e+03
1.457328449838203051e+04
1.674529445931407099e+04
1.417628536344962777e+04
1.146930256688094596e+04
1.021627360792454601e+04
8.184091316425769037e+03
5.509817463336464243e+03
4.072509186319921810e+03
3.484171912889740724e+03
3.172907415724660041e+03
2.050816386527849772e+03
6.982053293754022505e+00
-2.186548640985006386e+03
-3.034783144760858704e+03
-4.399787489771028959e+03
-6.543523126141349167e+03
-6.918948226897504355e+03
-4.259943387877945497e+03
-7.484891544522654385e+02
2.145470356083310890e+03
4.910040873935455238e+03
5.849298700331580221e+03
2.840311825853507798e+03
-6.350023294477751961e+02
-2.140593767049641428e+03
-2.939484626981929523e+03
-4.364639340596204420e+03
-6.048976946981717447e+03
-6.594432530727396625e+03
-4.560871154584962824e+03
-1.697304933457539846e+03
2.443221193015255722e+03
5.174687001265477193e+03
5.935037404238179079e+03
6.758263479769484547e+03
7.636303110937135898e+03
5.239160166077526810e+03
-2.790634408408934064e+02
-2.766286384623405866e+03
-2.880438285930210895e+03
-2.577567378956884568e+03
5.729004237340769379e+01
1.834233311683758757e+03
1.031227113592706019e+03
1.588301503273938124e+03
1.518536253391859418e+03
1.394688832140009708e+03
1.701813654221060915e+03
1.908952154957140237e+03
2.155092471550649407e+03
1.465232837567400793e+03
1.133914751281336635e+02
-6.693809350260743258e+02
-1.534185223866941442e+03
-2.640950085320730977e+03
-3.209734918226836271e+03
-2.995684988243799580e+03
-2.321879842390897466e+03
-1.000269378573579957e+03
-1.828388447418668079e+02
5.004296741713637289e+02
5.375679401221090075e+02
2.496059787001152870e+02
-4.735304411720449025e+02
-6.008939170400756211e+02
-5.224968950073655378e+02
-1.583730697382698622e+02
6.463876016110713181e+02
1.616867469832025336e+03
2.274146038182625489e+03
2.022087935121724286e+03
8.796068284141919094e+02
3.056443830538939892e+02
-5.358808451565603264e+02
-1.666052728315314880e+03
-2.830996953047524130e+03
-3.730743948808360983e+03
-3.646256750038916834e+03
-2.289530601412059241e+03
-9.635660258765994968e+02
1.725751771149714671e+02
3.537405235236191174e+02
3.219045400999522712e+02
1.346110848971975884e+03
3.177367407208956138e+03
4.357645954184446055e+03
4.373894612175976363e+03
3.656151140980295168e+03
3.051581041913242188e+03
2.856082346927428716e+03
1.989599662185676380e+03
8.051169109078821293e+02
6.075089904444440663e+02
1.446689357149833086e+03
1.553535344786924043e+03
1.672833058349541034e+03
1.661503486181490644e+03
1.245430017925418269e+03
1.510702072581949551e+03
2.508353316407347847e+03
3.574389534476836616e+03
3.537922824807157667e+03
3.065997852593281550e+03
2.513520359243099847e+03
1.894308574937849471e+03
1.264347401191476820e+03
4.705798011634003615e+02
-3.370375366548323655e+02
-3.065464668646270638e+03
-3.623792434590702669e+03
-2.436165597810705094e+03
-3.386670904398823723e+02
-2.303306066464165724e+03
-1.781071473145571190e+03
-3.301038469777064620e+03
-4.265294419495528018e+03
-5.218796537602586795e+03
-4.688478505426382981e+03
-2.994356927912610445e+03
-2.036440376864589552e+03
2.372767484323699705e+02
5.775828717093899911e+01
-1.808938652593214783e+03
-1.085878987947970245e+03
-3.557192773984803807e+03
-1.897894434308808059e+03
-3.382032774375585177e+03
-2.812555160701429031e+03
-1.391424196951481690e+03
1.269287147760128619e+03
6.805693712663176029e+02
-1.611503869399632094e+03
-2.626947478081302961e+03
-2.791855898718696153e+03
-5.577292024249253700e+03
-6.464373839976148702e+03
-5.881202703476469651e+03
-2.528765047993546432e+03
-9.469306765213767676e+02
3.554180945564567082e+02
1.178293684387075245e+03
-9.603622316111211603e+02
-6.456270308022361633e+02
-2.733406917098670874e+03
-1.344743219616148053e+03
-2.977587707655908162e+03
-1.195025956156567190e+03
1.439152305237495568e+02
6.012855184416625889e+02
1.486103752406122112e+03
2.312411091922665037e+03
1.275200738249901406e+03
-8.235659818245909491e+02
-2.592910402045271439e+03
-2.481835003767400849e+03
-1.698404311799952438e+03
-2.847144993575922172e+02
4.863480767322851079e+02
1.722908566188420991e+03
4.039928596104475673e+03
5.634400992591193244e+03
5.672367294786080492e+03
4.933949071128196920e+03
4.204258274155471554e+03
3.291401041811088362e+03
2.891413486516418743e+03
2.679176316900523489e+03
2.765714024646133566e+03
3.515102529619684901e+03
3.414298399547426015e+03
2.323214850653733720e+03
8.538602862839610452e+02
-6.877816656160771913e+01
-5.046927436533707123e+02
-3.339628369293093897e+02
5.316223594499725635e+01
1.045217940284202172e+02
-6.803720910986513104e+00
6.325076477663862988e+02
1.763780866572089735e+03
2.297133378524145428e+03
2.151511935019389057e+03
1.649786113874128432e+03
1.437039756115439104e+03
1.835301162400022122e+03
2.331467085405816761e+03
2.268421401251896441e+03
2.298977481004666970e+03
2.413302400883559585e+03
2.397553940051115660e+03
1.901437935203866346e+03
1.280739179713513067e+03
6.002845230346968037e+02
-1.410978192497382508e+02
-6.945333415355557918e+02
-1.219808326993347691e+03
-1.666606553390963199e+03
-1.858061338840963117e+03
-1.328193266329441485e+03
-4.448736798523338507e+02
1.428045964545140350e+03
2.347548665360013274e+03
2.209617724575546617e+03
1.273140462529214119e+03
9.330282643305297370e+02
1.275193790992024560e+03
1.375590311724028879e+03
1.919340596468394551e+03
2.694658698557156185e+03
2.971675588631631399e+03
2.978297265202865219e+03
2.369497512565412762e+03
1.085342877187078102e+03
3.138006286701747172e+02
5.084656289218668235e+01
1.553734810623233216e+02
7.448644387230569919e+01
7.632136467818715175e+01
7.069668934758709611e+02
1.664456263468878888e+03
2.833856330601435275e+03
3.238173316177680590e+03
2.782354468001264195e+03
1.598047334041570821e+03
-5.401080412031373044e+02
-3.367110621274824098e+03
-4.230898358347169051e+03
-3.641293882586337986e+03
-3.105074964462069602e+03
-2.600165175224736686e+03
-2.211578715165901485e+03
-2.703405038374401556e+03
-3.392732269427955544e+03
-3.789568381334368496e+03
-4.333060530223462592e+03
-4.363128608863645240e+03
-4.570634943578364982e+03
-4.877447199209471364e+03
-4.741431442260623953e+03
-8.036092341163251831e+02
2.257126582525348113e+03
2.281808826434362345e+03
-7.736488705108044996e+02
-3.990228680655051448e+03
-4.107966500092615206e+03
-2.964848906267359780e+03
4.289343902835743165e+02
1.582436029327000369e+03
2.013895362375589229e+03
1.767413165815368757e+03
6.360026269283665670e+02
-7.624512018112333180e+02
-2.077789205767906878e+03
-2.617949855436711914e+03
-3.216372639081963825e+03
-4.288641695881109626e+03
-4.790016486348595208e+03
-3.603516443487945708e+03
-1.644772816513517682e+03
1.021674082752695767e+03
2.962928895820177786e+03
3.459945380175498940e+03
3.733813278760706453e+03
3.296638425159787857e+03
2.414397139099167362e+03
1.994101868196436271e+03
2.241744047794002199e+03
2.514407836692438195e+03
2.752180063701713607e+03
2.741111909898841986e+03
2.448171909257871448e+03
1.616491905228257792e+03
7.882150299220273837e+02
5.522758858719212185e+02
-5.560550521111170497e+01
-8.815237461216173642e+02
-1.231596985449066551e+03
-9.809226550303030763e+02
-2.333638651760543894e+02
2.504894289454435921e+02
1.053785189807988900e+03
1.461438275385945644e+03
1.196456770100932090e+03
8.739370864449106193e+02
5.649617268998063082e+02
6.715491194328268421e+02
7.225071308596624249e+02
9.916782116295664764e+02
1.172875320765255310e+03
1.138098328576906624e+03
1.365450274614390310e+03
7.930358294743224405e+02
-1.948560935571032076e+02
-8.112147522355860474e+02
-1.234930907747830133e+03
-1.093833248682895601e+03
-9.500790374001552436e+02
-1.584729273911161499e+03
-1.331859507305319767e+03
-7.892522134044551194e+02
-2.189703554596975721e+02
-2.614613766520282567e+01
4.012987014998343511e+02
1.643636294064959884e+02
-9.390348781620345164e+01
-4.146821785430738316e+01
-5.163998830549109016e+02
-1.113640987300638699e+03
-1.101095917789765281e+03
-9.507669147530410783e+02
-3.061191244113431154e+01
9.274019259645281181e+02
9.522658563912549425e+02
1.149390499963482597e+02
-8.466075965897110791e+02
-1.813511495840049747e+03
-2.474763216486318925e+03
-2.278383501057282047e+03
-1.899277165513452019e+03
-1.831353638945564626e+03
-1.952567413255399742e+03
-2.175916245255206377e+03
-2.433405637320620372e+03
-2.751032123396769293e+03
-1.541799279583070984e+03
8.972421768946527436e+02
2.338987143496492990e+03
3.338478623449040242e+03
3.487797150846884506e+03
2.775990840547531207e+03
2.054176573134534920e+03
1.377408748169518958e+03
1.162698661232942186e+03
8.779098062222129784e+02
3.989083403912562744e+02
-4.074414559134453953e+02
-1.271179637533858795e+03
-1.993307635774307983e+03
-2.711755725319439534e+03
-2.577489498883914621e+03
-2.121588126067713802e+03
-1.904177373079868175e+03
-2.389217869832614724e+03
-3.269599353403830264e+03
-2.635207845160800844e+03
-1.544003149171489895e+03
-6.821132656283838287e+02
5.314372964268669648e+02
1.770640303864519410e+03
2.763405233538772336e+03
3.429655513149846229e+03
2.996423086387333569e+03
2.198673397113690498e+03
7.763970175825053275e+02
-3.803767626328129836e+02
-1.277679245085375669e+03
-2.072668894034168261e+03
-2.074411513919188565e+03
-1.823893463353849484e+03
-2.085054795856444343e+03
-1.351877796263567234e+03
8.715812277173306484e+02
2.533300409398540069e+03
2.752343942345506093e+03
2.941660317261550517e+03
2.998574103274154822e+03
3.094168764801206180e+03
2.661755580150334026e+03
2.519299332524179590e+03
2.686346063900377430e+03
2.402386128442557037e+03
1.745800924229572729e+03
1.116703801068426174e+03
7.287355120591090554e+02
5.008672224268888726e+02
-1.315882469106811214e+01
-3.823555414375273358e+02
-6.047298705565862065e+02
-4.710085704012066117e+02
4.594856593612593088e+02
1.230743266182600792e+03
1.758208393383774592e+03
1.931200471082542435e+03
1.069149740827024971e+03
7.298523423318421237e+02
8.040253483068753440e+02
1.039732835010726603e+03
1.287165363875067669e+03
1.811184571963655799e+03
1.848742728059348565e+03
1.826808035881986825e+03
1.993774527718950822e+03
1.257380554244059113e+03
2.681904728571859096e+02
-3.298384356082274849e+02
-2.694329934313928447e+02
-4.378887338002517140e+02
-4.892708056259223213e+02
-6.013199892203939498e+02
2.596484633377742171e+02
8.470669597822284231e+02
1.758353169531463436e+03
1.734016793719259795e+03
1.395773738830211187e+03
1.185615853160653842e+03
1.108567675712433584e+03
1.008441182803580546e+03
1.153152695401681285e+03
1.842819468425243940e+03
2.350554200612506975e+03
2.241400322432698886e+03
2.270227770137319112e+03
1.351996426950498972e+03
5.065879772591753749e+02
2.489838373155554905e+02
-5.629037390786403421e+02
-1.887271123142407532e+03
-3.832124118770535915e+03
-6.362284406089871482e+03
-6.090670666838492252e+03
-4.729225815768337270e+03
-3.705934637903218572e+03
-4.076789443330928407e+03
-4.913736609345591205e+03
-5.218795765957807816e+03
-5.100080821543535421e+03
-4.443526892272335317e+03
-3.246048675332705443e+03
-3.148624731633450210e+03
-3.121234018131587163e+03
-2.918832582781052224e+03
-2.173485006504015928e+03
-6.882879806441601431e+02
-3.639168387337907461e+03
-5.023079532216157531e+03
-4.963127014173854150e+03
-4.848366411633898679e+03
-4.786719082880592396e+03
-4.947124894191907515e+03
-4.456522125030443931e+03
-3.879884707573219657e+03
-3.179234758179070923e+03
-2.900514986265274729e+03
-3.146654022202562828e+03
-3.465636355049799022e+03
-3.377476578567765955e+03
-1.043140647946244144e+03
2.671435595839839607e+03
3.140304820626196943e+03
1.711423180058117168e+03
-1.250201775401765190e+03
-1.290506464671314689e+03
1.701655150379893257e+03
2.368311192485883112e+03
2.123418527788245228e+03
1.290953728860201636e+03
1.105893525959413637e+03
8.551437400502903756e+02
8.798259067624807130e+02
1.189092546390496864e+03
2.406990802332276871e+03
2.932470169274102318e+03
2.631547968851285987e+03
2.283392009618200973e+03
2.168976456620549470e+03
2.266220439148689820e+03
2.370163037881775381e+03
2.450823993054088078e+03
3.734273933833538194e+03
4.934621077176132530e+03
5.250920168864578955e+03
4.233121421522429046e+03
3.087218240446867185e+03
2.307332510647644085e+03
1.330467418725037078e+03
6.895235897677731600e+02
6.344686098813534727e+02
2.753087920726032962e+02
1.352019765627494792e+02
6.802244442272698279e+02
1.474378707758563451e+03
2.258805395887952727e+03
2.275742048642519421e+03
1.573272173267107064e+03
9.253173680453439829e+02
7.138403281551229611e+02
1.080825163250077367e+03
1.237344803633211086e+03
1.289462701888243600e+03
1.700290137786297691e+03
1.421816396482738128e+03
1.300112742643376123e+03
2.921239867857885883e+02
-3.352250609375355452e+02
-1.358279020863479616e+02
-3.106007678312259372e+02
-8.611546640636976235e+02
-5.744480561499566420e+02
2.917938762430586053e+02
8.925848346711355816e+02
1.370040423675695820e+03
2.662200862843154937e+03
3.057002178376678330e+03
2.472281806031070118e+03
1.629344805272397480e+03
1.374216314518707350e+03
4.358863771052679681e+02
-7.318087847669345365e+02
-4.969024280721822038e+02
4.786183014728529201e+02
1.495641702624116078e+03
1.333116779556614574e+03
4.511322910609571295e+02
-4.512327472079720110e+02
-1.243144415804185201e+03
-1.319729429503766369e+03
-1.162178312243550408e+03
-8.885103719117438459e+02
-9.116457011098677867e+02
-1.133503549730605300e+03
-1.267025514770449490e+03
-8.732210070190120632e+02
-5.881157993083768361e+02
-4.047423269250008957e+02
-7.011094331404389095e+02
-1.416221574457158340e+03
-1.990132710830246879e+03
-1.975874005447514264e+03
-1.516435410871613385e+03
-4.637644637538036250e+02
3.811470936454843468e+02
1.767317141478272561e+03
1.830716626168809171e+03
8.952933018691591087e+02
-1.550913727402413542e+02
-6.505315468316370016e+02
-9.540101831462020527e+02
-1.404620878882399211e+03
-1.702373356218399522e+03
-2.009208230897839712e+03
-2.236173343457684950e+03
-1.550233870697752081e+03
-5.583731351099021367e+02
-1.565832202850740771e+02
-1.458848208881918538e+02
-1.022331843478692235e+03
-2.719962031769686291e+03
-3.432864909756489396e+03
-1.290779747397307915e+02
-1.957104674768400443e+01
-3.393401692466637996e+03
-3.293594104757387413e+03
-3.443151438075518854e+03
-4.312061554586611237e+03
-3.712306278010018104e+03
-3.080312011884475965e+02
1.036785311673047261e+02
-4.720733523687774635e+01
1.330452892894464867e+01
-2.557706539327365647e+02
3.856034189276664961e+02
1.464430852723153521e+03
1.739683131893366408e+03
1.595448803729532528e+03
1.553717893658149933e+03
1.617412788239198562e+03
1.816502211982196968e+03
1.839818190740545106e+03
1.980342470691850849e+03
2.298084679955283718e+03
2.850196633778178693e+03
2.495708038923235563e+03
1.827654960130683321e+03
6.290549684510784800e+02
-2.561649947961972771e+02
-5.760564273093904148e+02
-1.058688509036739106e+03
-1.169132617136266845e+03
-1.223390449189391802e+03
-8.924106872788929650e+02
1.388664785518403733e+02
1.174350850057493290e+03
8.458993870767357066e+02
6.559640427943628538e+01
-9.925222482911766519e+02
-1.248419170385273901e+03
-3.379367291474164290e+02
1.086899713482430116e+03
2.822011569931267786e+03
3.187329430065200995e+03
2.847869382735883846e+03
2.246727221062536955e+03
1.407965169694294218e+03
6.096490603709437437e+02
-1.402134955901156559e+02
-6.695190112508537368e+02
-9.972766782518561968e+02
-1.755584377486033191e+03
-2.291520368276004319e+03
-2.356034605914537224e+03
-1.533028994192345408e+03
