2.072125517670936460e+03
2.180484775996531425e+03
2.131863206140375496e+03
1.848276913797350517e+03
1.789681465870634156e+03
1.526107107805465830e+03
1.539450752248033041e+03
1.250757727475860747e+03
1.234983141542637668e+03
1.423383005043659068e+03
1.908008784602749984e+03
2.047900911249583942e+03
2.012029264430122794e+03
1.850396334283792612e+03
1.638010076022871317e+03
1.126999212610728364e+03
-2.473834564432210357e+02
-4.748390521436470522e+02
1.332216148768668063e+03
1.241284796233471752e+03
1.003315306559619785e+03
1.362695314741095899e+03
1.444106208495408055e+03
1.300453133756501529e+03
1.207674687333825659e+03
1.187146022146573159e+03
1.153168781716929288e+03
6.420804805582957897e+02
1.441271900184579522e+02
-1.837767448097854128e+02
-2.913403569404283076e+02
-2.173208948970776646e+02
-5.380398209974774772e+02
-5.745224847305505591e+02
-7.938830505235765713e+02
-1.540112295911407273e+03
-2.333410177913287953e+03
-2.466758916114437397e+03
-1.138096547884669690e+03
1.394319767208706253e+03
2.775517253258623896e+03
2.440390852659468692e+03
1.882893676057369703e+03
1.469052003512967303e+03
1.242836390466848343e+03
1.043220394807797675e+03
7.772218032708004785e+02
5.918232164951896266e+02
9.319495388824830115e+02
1.042598415922620234e+03
1.066756742147952309e+03
1.037423086017720152e+03
1.050583296710448622e+03
1.088213366618677810e+03
1.291313409814939632e+03
9.038887295291604005e+02
6.138700506634306748e+02
6.652479763693140740e+02
7.239783511685861868e+02
5.990680701858503880e+02
8.844812214869626814e+02
1.199219966332964532e+03
1.417344843919882805e+03
9.868127053774032902e+02
1.132649737605062001e+03
1.088837032418106446e+03
1.230311206333693690e+03
1.002087974735921080e+03
8.821678382015386433e+02
9.564847512576961890e+02
-1.449582264596458856e+02
-1.806139389807401358e+03
-1.008085894809600973e+03
-3.917874582959037184e+02
-5.135248981190883569e+03
-8.647475665181542354e+03
-8.618429054032976637e+03
-8.279147465030215244e+03
-8.128595399423560593e+03
-7.988793673860600393e+03
-7.199763464475261571e+03
-6.791452923379241838e+03
-7.151787741156551419e+03
-6.471781981066811568e+03
-6.858522040136744181e+03
-7.103880901560578423e+03
-6.878022783519357290e+03
-6.657875867095923240e+03
-2.504423465663214756e+03
-1.996536181304242632e+02
1.199443420226124545e+03
2.366929164470823707e+03
2.654848137526800201e+03
2.863127412357903722e+03
3.261681760091865272e+03
3.187571237171000575e+03
2.796951555671480492e+03
2.851772630087355083e+03
2.913985337558941410e+03
2.788589132648885879e+03
2.577581610223074222e+03
2.318008799492099570e+03
2.077005426548999822e+03
2.066662094522215739e+03
2.136930088964790684e+03
2.194702723958805109e+03
2.154990823978842400e+03
2.120939054862767534e+03
2.530594387640818695e+03
2.423907823207183810e+03
2.136874387813243629e+03
2.143522973513971920e+03
1.751914994109138661e+03
1.615141890907683091e+03
1.638168317422762129e+03
1.199983034285720123e+03
8.526823419067561645e+02
7.683270249764018445e+02
4.357847458169797505e+02
3.260668852374175231e+02
6.883195179434644615e+02
9.905320627010680710e+02
1.496685157061017208e+03
1.969855555820543486e+03
1.645100531340373891e+03
1.754555025909711730e+03
1.526321547085788552e+03
1.035286045137281008e+03
8.943810849474467659e+02
6.636036627982012988e+02
8.150127625148181778e+02
9.516565861317400277e+02
1.151596713447390130e+03
9.968815152667139046e+02
1.069492869908894136e+03
1.240476903463875715e+03
1.568744811831848210e+03
5.102849254030927568e+02
-6.440388395893150175e+01
4.926963355238215172e+02
6.123187563815955627e+02
6.694361833096560304e+02
6.101259823413615777e+02
3.854666395112606665e+02
1.365002325065697732e+02
-2.402923494840161311e+03
-1.702667786720536014e+03
-3.582806110346473929e+02
7.768509749753318374e+02
5.836754374635047498e+02
-2.037443451832380674e+02
-3.121158009259692790e+03
-4.268655677553933856e+03
-2.963302746479797406e+03
-2.474112936646703929e+03
-5.098050599223151039e+03
-2.029754629090136291e+02
-1.999142151836574328e+02
-1.923871456486815759e+03
1.216154005604345230e+03
1.529208073226229772e+03
-1.136736700467974288e+03
-1.876742133537518384e+02
1.445436153832105902e+03
1.486660402008359824e+03
1.089993212238055321e+03
7.414190932591873207e+02
6.219318108739868194e+02
5.455454595772955599e+02
-2.347786127174779722e+03
-8.260170755316785289e+02
-2.817148906626227017e+03
-2.702169836023609605e+03
-4.760713941526233270e+02
-2.785810605247160765e+03
-1.487359814919454266e+03
-1.945710976875302094e+03
1.288137062487421872e+03
-1.245913672417455473e+03
-1.992883026051819797e+03
-1.841782926192700870e+03
1.127385754147176840e+03
9.767147411788309910e+02
1.094157958136194566e+03
7.066314095096092842e+02
-2.779869037728747116e+03
-3.924320922563169916e+03
-2.517012564727310178e+02
-2.424000281325535070e+03
-2.872817393935218320e+02
-6.725615357185191669e+02
-2.229810727888497695e+03
1.580148836507051158e+02
9.650515876011991168e+02
1.075042908008111226e+03
1.381838785658180768e+03
1.397421650212066879e+03
1.351839482734910916e+03
9.440936165579021235e+02
6.371608702380709701e+02
4.130130103382745688e+02
6.306493839350508779e+02
5.690332890426883523e+02
2.211383584734570888e+02
3.389743872625876406e+02
6.665072637995303921e+02
9.866001548836574102e+02
8.481305046525530997e+02
-7.888858575126896540e+02
6.797515868714610576e+01
3.991352137341987572e+01
-2.033031938484413672e+02
8.003625963958046441e+02
9.854336514926206974e+02
6.763269305171338601e+02
4.796116245717824427e+02
1.534920795181821234e+02
4.332186603048112943e+02
8.993545766397199941e+02
1.280789574881471253e+03
9.602539990364488176e+02
1.064901299217239739e+03
1.340744450354972287e+03
1.145000929653015646e+03
1.058850287900515468e+03
1.393966758021644409e+03
1.793666760971889971e+03
1.984313346478817039e+03
1.973725450234594291e+03
1.912251893103016528e+03
1.469849980318660982e+03
9.524538364472801959e+02
6.669819856497938417e+02
1.299351995363958395e+03
1.755747372451885894e+03
2.381168953762865840e+03
2.390454814297134362e+03
2.109459805595997295e+03
2.223546282498473374e+03
2.200049439726984474e+03
1.920804833998796312e+03
2.027426207679095114e+03
1.655630799029944001e+03
1.756287420578081537e+03
2.826331001658904370e+03
2.769661976695477733e+03
2.560181679490006900e+03
2.267794431198405164e+03
1.867532759372540113e+03
1.726338516279278338e+03
1.479068577469840420e+03
1.717629657468048890e+03
1.983067934373947082e+03
1.971362138123167369e+03
2.413590865087860493e+03
2.691711095550086156e+03
2.391654743683884135e+03
2.219406368832047519e+03
2.024916934774268839e+03
2.232271938089693776e+03
2.188467819565735226e+03
1.461473152342214235e+03
-7.366964536696517598e+02
-2.525997798788300315e+03
-6.289365338388380223e+03
-7.072948381369707022e+03
-6.839939205163214865e+03
-6.508411917134069881e+03
-6.669328321992451492e+03
-6.407689552381786598e+03
-6.124521588350032289e+03
-5.914858586629336060e+03
-4.975780257441180765e+03
-1.038079049792424257e+03
2.249329067859745010e+03
-9.358728565073744221e+02
-6.099574169541519041e+03
-5.083746203425994281e+03
-5.214409509691832682e+03
-5.654552476598185422e+03
-2.257072595730484409e+03
-2.930018598833036322e+03
-5.622429525436885342e+03
-5.657337877520473739e+03
-5.515694797909220142e+03
-5.736443858753725181e+03
-5.614565816945641927e+03
-5.513039906767669891e+03
-5.292841639299119379e+03
-4.881953154901659218e+03
-5.172386011970498657e+03
-5.046098612406253778e+03
-4.520997393196181292e+03
-3.070395880912925008e+02
2.174667609654375610e+03
3.264051897363443004e+03
4.386005284727662001e+03
4.288648206945278616e+03
3.913116852096707134e+03
3.850455395554824918e+03
3.535708236739773383e+03
3.222921063425988450e+03
3.433139388238321317e+03
3.983452282697964165e+03
3.796967516736253401e+03
3.203668465555283092e+03
3.012563938042676455e+03
3.191630012322301809e+03
3.396882940018670979e+03
3.228467352779646262e+03
3.355424722825952813e+03
3.947682963173252574e+03
3.799297413150985449e+03
3.557328822190996107e+03
3.002772802925955148e+03
2.643702140225330368e+03
2.091156345699543635e+03
1.414176726540350046e+03
1.609893920142566003e+03
1.534350778185338413e+03
1.732690544962840704e+03
2.011943029167229042e+03
2.226114259078207397e+03
2.499161791381935018e+03
2.650073734410239013e+03
2.358747861066092355e+03
2.015294529250188361e+03
1.990113797774481554e+03
1.663725959039108830e+03
1.374941124731975151e+03
1.129537621619808988e+03
7.249082345467328423e+02
8.621988913768204839e+02
6.362020179846280143e+02
4.389564758313803168e+02
3.266319927240986658e+02
-3.367040050810420553e+02
-5.253213798754597974e+02
3.108399224559327649e+02
2.499587540710659823e+02
-1.381949942179147911e+03
-5.975317794598488490e+02
-4.351863480515724518e+02
-1.114251151640929947e+03
-1.015274916441893083e+03
-1.224190522806761464e+03
-1.299914014203172883e+03
-5.625501250792897281e+02
2.957996176724751649e+02
4.560988471272693232e+02
-4.806576876109884893e+02
-9.784323762177724575e+02
-1.262750934258411490e+02
4.710350609895613161e+02
1.577774798758754571e+02
-8.050678137464311703e+02
-1.921675185552679977e+03
-2.588131224595513231e+03
-2.033479474756872605e+03
-6.057795677389245839e+02
1.169514631032880061e+02
-4.401911274651274653e+02
-1.288107130090371129e+03
-1.047781600071032699e+03
-4.293511540252781629e+02
-4.509116536051792536e+02
-8.843434711440307865e+02
-1.430603189416091027e+03
-1.674681029695981806e+03
-1.174577397380608090e+03
-8.682778077243585813e+02
-1.046853422082093630e+03
-2.613005773242834380e+02
5.153903720371101826e+02
7.254628450667474304e+00
-5.697255843565152418e+02
-3.655762615788046332e+02
-6.642921594246884069e+02
-1.501860182557474900e+03
-2.142370031303972155e+03
-2.426783182441591180e+03
-9.429892036406661191e+02
1.256919065098091323e+03
2.200999924193883999e+03
1.692378116320619938e+03
7.389536106810306819e+02
3.426218722908581071e+02
1.082552847012224930e+02
1.728723356832623210e+02
8.045038581364649133e+01
-1.430220970074387594e+02
3.025670167804603921e+02
-1.135853246170869625e+03
-4.384489522011261215e+03
-3.278228937350493197e+03
5.019841194627791765e+02
6.608480717789700520e+02
1.662402758145641997e+02
-1.828787758814157485e+02
6.852298429257535872e+01
5.194430020552612177e+02
-1.737104755815807721e+03
-3.208964223152604063e+03
-1.984137582264350783e+02
3.095584814674605241e+02
-2.870604875971146157e+02
-1.401253085480652999e+03
6.969795841592443821e+02
1.527777910767919593e+03
1.282077654127965388e+03
7.227118827978383706e+02
-1.583468224249428715e+02
5.890679330041278945e+02
1.269381750688187594e+03
1.587945108954744001e+03
1.517840492503269843e+03
1.561481391676613839e+03
1.187007175126263974e+03
1.135679289408125442e+03
1.195146931432228257e+03
1.748270487465911629e+03
2.083119075791054911e+03
2.299645774760532731e+03
2.441823453990445614e+03
2.438657505581346868e+03
1.931163203545216220e+03
1.578594366759054765e+03
1.117571367901875192e+03
6.573082938473921786e+02
4.136110077167268742e+02
6.492535253754263067e+02
1.021539871616494224e+03
1.862195625700006303e+03
3.121402681266149102e+03
3.281848518017426613e+03
3.091930864956199912e+03
2.592470840501863222e+03
2.194388425803712380e+03
2.517427952149201246e+03
3.108721102369812343e+03
2.754196559525571502e+03
2.124904896317215389e+03
1.786141450004836088e+03
1.957754657085924691e+03
2.244314867509163832e+03
2.214235583587496421e+03
1.954158944467079436e+03
2.061257959613502862e+03
2.750691548317420711e+03
2.723146937959584193e+03
2.558686222205215472e+03
2.881337989990666301e+03
2.754103327209361396e+03
2.299991903274237302e+03
2.230015929749662973e+03
1.951337000250757455e+03
1.589859698404708979e+03
1.666507031724851686e+03
1.155252565742039678e+03
6.311433503897575292e+02
6.771906675991925795e+02
7.493415623986217042e+02
-5.714097103390239454e+02
-3.698027758476649979e+03
-8.012472733947357483e+03
-8.830695756291223006e+03
-8.023766306468001858e+03
-7.286527703192132321e+03
-7.184031322044738772e+03
-6.736367190358402695e+03
-6.819425563175098432e+03
-7.249147994212058620e+03
-5.710548921193761998e+03
-1.236084382240414214e+02
9.866367801910031403e+02
1.315244274687147026e+03
-1.873767096963280210e+03
-7.447303435271368471e+03
-8.048395793420120754e+03
-6.792067745874452157e+03
-5.646301314413858563e+03
-3.242090286810093858e+03
-1.220448387743897683e+03
-4.961342871072281014e+03
-7.007739732575801099e+03
-7.158589659735009263e+03
-6.522855099398756465e+03
-6.243495290930790361e+03
-6.925436858592632234e+03
-7.018663351715264071e+03
-5.994217142059855178e+03
-4.992064613476887644e+03
-4.656206667312409991e+03
-4.317569151893253547e+03
-6.330974414011134286e+02
-3.193792574173530738e+03
-4.612588929153229401e+03
-8.054255415902815685e+02
-1.150341170198965756e+03
1.107715164588054449e+03
3.037761438802001067e+03
4.442733056780300103e+03
4.840728379893104830e+03
4.674826733108916414e+03
4.663041674097113173e+03
4.658398200003171041e+03
4.049908187258184626e+03
3.043617097980604740e+03
2.328496770842953083e+03
1.806554051141092941e+03
2.173877107607933794e+03
2.320424787293749887e+03
1.427211994949043401e+03
5.152965533276336600e+02
-6.012928678603140042e+02
-6.215270375743157274e+02
-6.984456930524869449e+02
-7.491152879492447028e+02
-5.764784984975134421e+02
8.506786532510822099e+02
3.570675359055400804e+03
5.454772633913350546e+03
5.599753564213623577e+03
5.390533350220887769e+03
5.613165669924874237e+03
5.910705187806916911e+03
5.930413308442731250e+03
5.505045501007966777e+03
3.459228183009676286e+03
2.698630218774711466e+03
4.126257356736383372e+03
3.960354176415051825e+03
3.512560114522257663e+03
3.160913762509894696e+03
3.106956889513844544e+03
2.933864482517217766e+03
3.914813495944576971e+03
4.433982519350081930e+03
4.521902482691303703e+03
4.033835983368466259e+03
3.365595546831589218e+03
3.045146021525086326e+03
2.815503640832488145e+03
2.823660600031286322e+03
3.193581328999330253e+03
3.222216469932206564e+03
3.116555877185738609e+03
3.080608131832664185e+03
3.383317001860736127e+03
3.828659000281434601e+03
3.133523499418660322e+03
2.691888236309087915e+03
2.126421568162370022e+03
2.038156295282915153e+03
1.686135731684288430e+03
1.031318542468968189e+03
3.757094652612266827e+02
-1.797344013729479570e+02
-7.790034658555341593e+02
-9.212074057324621208e+02
-3.141500189677706700e+01
9.594169354861219290e+02
1.626303478051678212e+03
1.492186478844613930e+03
9.110172844473166833e+02
1.743775404654408476e+03
2.875468855151992102e+03
2.901057181229386515e+03
2.425437661451788699e+03
2.082632804730327734e+03
1.284645821851166147e+03
6.904629093431552747e+02
-3.919273205683754782e+02
-1.380541248433312830e+03
-1.309365783540332131e+03
-1.320510458612604680e+03
-7.049615007036826455e+02
4.512325636154326389e+02
1.142026800188598372e+03
9.413985404551335705e+02
-6.417003914210228004e+02
-4.871258333599892467e+03
-9.288307963484676293e+03
-1.141386015885065171e+04
-8.321951363475067410e+03
-5.144549403541168431e+03
-4.996677216906110516e+03
-6.493375027438090001e+03
-6.797687496917824319e+03
-7.363622233462938311e+03
-7.742163224170233661e+03
-6.483312496333853232e+03
-4.408146317282226846e+03
-5.385600497999366780e+03
-6.597722987006357471e+03
-6.974601351019138747e+03
-6.552181717781160842e+03
-2.466399057778864062e+03
-3.485362511343706046e+03
-9.762096420414256499e+03
-1.170953407547621464e+04
-8.567730816336143107e+03
-4.868714034468687714e+03
-2.546444098827998005e+03
-1.345033567615075526e+03
-1.538526097266029637e+03
-2.301863103784377017e+03
-2.834959427610506737e+03
-5.162844055075081087e+03
-5.754658251014498092e+03
-2.295352277591159236e+03
1.622159841716230858e+03
3.646917016788556339e+03
4.617939175526546933e+03
4.904233743383140791e+03
4.154703403571650597e+03
2.983283648657264621e+03
2.813004860438499691e+03
3.944987079695514240e+03
5.426279512383636757e+03
5.251789788257545297e+03
4.113505816588220114e+03
3.805459852680594395e+03
3.749702561297266129e+03
4.110282420915442344e+03
4.073196293007918484e+03
4.492368596503338267e+03
4.214839890249333621e+03
3.394732656147239595e+03
2.551945516764088552e+03
2.327485457990024315e+03
1.556451414032429284e+03
5.058908150207605559e+02
-4.024796342873818134e+01
-3.488713081743281919e+02
-1.531896246204802310e+03
-2.194306114044576134e+03
-2.108113740903865164e+03
-2.674446075082008520e+03
-2.710346968866890165e+03
-1.051722570730796178e+03
2.395390440832310617e+02
5.475355554484832510e+02
-1.597280331981635300e+02
-4.152381393541551802e+02
-5.809627649281690083e+02
-9.778689114606631847e+02
8.240985961977754641e+02
2.708840112240316103e+03
2.823443597952211803e+03
3.414061024829560665e+03
5.819735759691952808e+03
6.322346692194107163e+03
5.304285040711377405e+03
3.890872243653989699e+03
2.929665461957878506e+03
1.945530478805397934e+03
1.311581483993098800e+03
2.830392846343474957e+02
-1.170130443755024771e+03
-1.281233180265234751e+03
-9.321029678559066269e+02
-1.054618929179015140e+03
-1.512705242689838087e+03
-2.488587290155853680e+03
-2.717170839588176023e+03
-2.051399111565027852e+03
-1.668153000769553273e+03
-2.023357006746203297e+03
-1.391142579213380714e+03
3.174934755338942409e+02
2.103606532722210432e+03
2.163255021034540277e+03
2.159416847438894820e+03
2.815143037352583633e+03
2.963460855296459613e+03
2.848355706790140630e+03
2.702804824663471663e+03
1.804845915662262314e+03
7.054934945340362447e+02
6.076214450878040196e+01
-3.132134159383036476e+01
4.082709439451871845e+02
7.365493115853323616e+02
7.105557996984547344e+02
4.293051061991712345e+02
-2.419666897986337872e+01
-9.029840573496502429e+02
-1.679093463564510557e+03
-1.480584586642395607e+03
-7.815071948333613818e+02
-1.437287350815756497e+02
-3.327712954488612951e+01
2.328725452352923355e+02
8.597657490906208295e+02
7.793081719037555786e+02
2.144600469360405270e+02
-1.246994243694655040e+02
-9.413835376446077419e+01
-4.689979298088255177e+01
-1.680525846052595398e+02
-4.906152819317429703e+02
-1.059551096855189371e+03
-1.712815917228499984e+03
-1.714475544610708994e+03
-1.551647557327331697e+03
-1.656304763914868090e+03
-1.963442488529616412e+03
-2.012121922458142535e+03
-2.195305881607961965e+03
-2.325988988372437234e+03
-6.022454371614975344e+02
2.199203767892670669e+02
1.365000904700941078e+02
9.743925729744437092e+01
3.797526213307987746e+02
4.404410928710880739e+02
1.374384698372732885e+02
-1.533017714839465384e+02
-5.973531086105989374e+01
-8.764323858100679487e+00
-1.392362722010285324e+03
-1.666595226503057120e+03
-8.103846990099650611e+02
-9.709164333324057452e+02
-1.203988029320330043e+03
-9.065912622313161364e+02
-5.190863361166165078e+02
-4.626885277119884563e+02
-6.211828984681999373e+02
-9.921170019818437140e+02
-6.213578120950231778e+02
-1.658852809888662421e+02
6.725578827526699115e+02
1.412205653508284513e+03
1.926547260732327914e+03
1.968550329637138020e+03
1.826268787022765764e+03
1.578436202636351936e+03
1.532203277129653316e+03
1.419774638631510925e+03
1.384802771075840610e+03
1.404326693557259887e+03
1.091503060748597363e+03
1.108139295088044719e+03
1.088477698564780439e+03
1.113309327896339937e+03
1.168200944678254928e+03
1.141326629796843008e+03
1.141677012041185890e+03
1.124560886468573017e+03
1.065479597343217847e+03
1.366521554118303129e+03
1.877057108454508125e+03
1.947221918390526525e+03
1.767523258256352619e+03
1.871750511439743832e+03
1.917521163565441384e+03
1.862140453563097026e+03
2.324714977602883209e+03
2.543138751865805261e+03
2.565336090205780238e+03
2.593307831993125092e+03
2.739101832374502010e+03
2.697731850733504871e+03
2.487203764743061129e+03
2.879487258526746700e+03
3.021500148325183090e+03
3.008277681307162311e+03
2.846915419437088985e+03
2.816426807191245643e+03
2.820803523377222064e+03
2.407006329464890314e+03
3.280588060760655367e+02
-2.732018611638653056e+03
-5.990255741132952608e+03
-5.933758466604853311e+03
-5.366659093661273801e+03
-5.307929029375502068e+03
-5.577435590845652769e+03
-5.092116344295390263e+03
-4.326986553379735597e+03
9.439318815406326166e+02
4.253696122766362350e+03
3.014302768277671476e+03
-2.501999524775711507e+03
-5.453141340594102985e+03
-5.399335731891631440e+03
-3.369488335156927860e+03
-3.726591430221946212e+03
-4.469610025038091408e+03
-3.988493671172820086e+03
-1.113161788669829548e+03
-4.566700314712325053e+03
-5.398058156019376838e+03
-5.338148302827921725e+03
-5.264886167120612299e+03
-5.320207334397567138e+03
-5.413086553510983322e+03
-5.082476734731812030e+03
-4.960380109395490763e+03
-5.121789421535087968e+03
-4.926621843169940803e+03
-5.078816801010163545e+03
-5.383348019085678970e+03
-5.284212842946119963e+03
-1.523360986010467059e+03
2.389354308748626863e+03
1.846939116533750848e+03
2.330472719176375904e+03
2.688973204392401385e+03
2.496527660473268952e+03
2.965215940276910260e+03
2.960091744322997329e+03
3.380213135829021667e+03
3.278654894624998178e+03
3.027439205973307708e+03
2.939505967216301542e+03
2.858865165113711100e+03
2.641581963386511688e+03
2.471758802810320049e+03
2.446515872778596531e+03
2.519795218387228942e+03
2.765591962028338912e+03
2.627033151741894926e+03
2.408192585798355594e+03
2.416087353050198544e+03
2.154844602485908581e+03
2.147499585924015719e+03
1.951136263462380384e+03
1.977795373266842262e+03
1.742467842093748459e+03
1.762213775848961404e+03
1.816011877787460662e+03
1.793850054960172656e+03
1.829747713772746238e+03
1.697773488042004828e+03
2.007066249595723320e+03
1.774121875160662739e+03
1.523989482366795983e+03
1.331569426556091230e+03
1.510306508737656259e+03
1.701006718846758758e+03
1.665651353351823673e+03
1.009217763698951330e+03
9.453919111215789144e+02
9.770127521951920926e+02
1.257138922509567010e+03
8.342861676449124388e+02
7.589952401832649684e+02
6.364408036278829286e+02
7.144937517145132233e+02
9.379965880485827938e+02
3.522463347313199620e+02
8.441073293175777508e+02
7.569347779125926081e+02
7.731451057698085378e+02
9.595474925911519222e+02
5.877696550835038352e+02
9.470030795839726352e+02
9.169237726869893095e+02
7.234914239148547495e+02
7.767464768835251334e+02
7.947221148387783387e+02
7.334069951165779457e+02
2.119472751023808712e+02
2.131988875740513265e+02
4.778290706790393187e+02
4.377218549797337914e+02
1.579617223092420488e+02
1.115618985635760509e+02
-5.243782218152546903e+01
1.303647678462062132e+01
-3.496056717363407529e+01
1.104773238480215412e+02
3.462181164944788065e+02
3.022099752440134921e+02
4.715454887293399793e+02
3.442652685239727361e+02
1.883347975493939543e+02
2.137216107714448299e+02
2.063735471870246272e+02
-2.627036697166316799e+02
-6.305729577224497007e+02
-1.092334274328492967e+02
-1.464764203578485358e+01
1.361921619448153535e+02
3.821589884461807429e+01
3.641971811788729951e+01
-2.291701935375608343e+02
-1.366144960060881317e+02
5.705754889658529549e+01
1.929087590664933884e+02
7.987281948665658149e+01
-1.081221793612542967e+02
-1.706244344797145374e+01
9.994635097920314593e+01
-1.372790986131398370e+02
-1.817493110307779887e+02
-1.774429267131802987e+02
-3.303275970627872198e+02
-1.914508445115382074e+02
-1.648648327302300913e+02
2.743696478112732251e+01
-8.577775774829673310e+02
-3.506618965902501714e+03
-7.997003770047706894e+03
-9.018035941600126534e+03
-8.831883535636176020e+03
-6.892394428246505413e+03
-9.125799299060387284e+02
-1.014210438401946277e+02
-8.040302613169645838e+02
-1.394813265039458940e+02
1.655305510606477526e+02
-2.699363964605360167e+01
1.897980718403118772e+02
1.725423271196633834e+02
2.445463911555805510e+02
2.067559267271367673e+02
2.829900518235381810e+02
3.773173725194639587e+02
-1.952798653531878301e+02
-3.898517802415852174e+01
3.321799128648908663e+02
3.812290001247835676e+02
2.990446497767975984e+02
4.204544980728076098e+02
7.184169826985582858e+02
6.060121345324503181e+02
3.962003388480637227e+02
5.619167684413755524e+02
4.351653593423754387e+02
3.528918895046138005e+02
4.580896234764172164e+02
5.418439803970530875e+02
6.351368521558306384e+02
8.229079378693037370e+02
6.561075836384926561e+02
4.916636588024497314e+02
5.245591510252080525e+02
5.407903803272369032e+02
7.123823475436715853e+02
9.153467163548268672e+02
8.486794970972817964e+02
5.743646056293978290e+02
2.633011136701136365e+02
7.634118021655946222e+02
6.026941411186336381e+02
3.291455544164709863e+02
6.757671565043276587e+02
6.225117381509153347e+02
5.014029720714041218e+02
5.674503626077012086e+02
7.846433015518233560e+02
7.659567538505525590e+02
4.533681822992757589e+02
1.579041360671382392e+02
1.905905059512837454e+02
7.954189281230029565e+02
1.249399123913247877e+03
1.150512862205306192e+03
9.707261909671600506e+02
9.040523963247911752e+02
7.965380506937364089e+02
1.033123492006710876e+03
1.287841149654765104e+03
1.233714571380684674e+03
1.169658549346756217e+03
1.149698840938933927e+03
1.173840357004679845e+03
1.089070931603125700e+03
1.243367831807132688e+03
1.487758213790322770e+03
1.618337346695614315e+03
1.115189337946110072e+03
-3.687701556750369036e+02
-3.918543598791393833e+03
-5.744096673173185991e+03
-4.585488314385891499e+03
-5.129760755829241134e+03
-2.901832991216661867e+03
1.174309429335759432e+03
1.193623505001488866e+03
-1.846897495153379168e+03
4.028203403595804843e+02
1.564788048026077149e+03
1.481038014946471549e+03
1.539550636702716019e+03
1.491308500439954969e+03
1.387285844929806444e+03
-9.244906356666892862e+02
-1.581020722019764889e+03
-8.162396156366351079e+02
-1.205123284710635289e+03
1.305387885954361309e+03
1.259291911730793572e+03
-2.321340379341479093e+03
-4.018414111317262723e+03
-2.399970835941252972e+03
-2.889054006254037631e+03
-5.876368525404568572e+02
4.033799659218508395e+02
-2.777038740616942505e+03
-3.581829192264353878e+03
-4.883962212405494938e+03
-1.469391229755751965e+03
4.928732915006474400e+02
-2.254210483868415395e+03
7.542834850317797191e+02
-1.351615830671920321e+03
-4.867794639785389563e+02
1.140840606032605592e+03
-1.843783883716124137e+03
-1.059639502087855135e+03
8.792822002465766218e+02
1.431952369719916760e+03
1.373514665381211898e+03
1.485106579334910293e+03
1.698633382327697518e+03
1.606913639605560320e+03
1.761819676618346193e+03
1.646394196756886004e+03
1.355634066117493376e+03
1.372669921093259518e+03
1.525588549978633637e+03
1.637381634365978471e+03
1.108942799154813429e+03
9.032814391049311098e+02
8.565029470775956497e+02
1.039326024338835623e+03
1.019576663457626069e+03
9.947721777639205811e+02
9.677324243761496518e+02
8.948524014474655814e+02
8.322103741678052984e+02
9.908456877012898758e+02
1.181812141376499767e+03
9.583114912450815837e+02
9.005315752691874422e+02
-1.666902509412705911e+02
-5.070337900944378475e+02
7.326764326971866694e+02
1.409402957455142541e+03
1.619274995211173064e+03
1.141114955694814853e+03
5.571094117681234366e+02
3.363409475144292742e+02
5.637206766429723075e+02
5.149548860393841778e+02
3.587262063782097812e+02
4.704706258870739930e+02
5.591202007070639866e+02
6.488948646943265430e+02
7.847820944761535884e+02
1.065772349072781026e+03
1.014814824287792817e+03
8.929036463444851961e+02
9.770919198629461562e+02
1.155306975296148948e+03
1.164535450736557550e+03
9.658580488934838968e+02
1.037238512959851732e+03
1.250241591628036531e+03
1.031962042894556362e+03
9.188645766317434891e+02
7.793224245900944425e+02
8.033395443839707468e+02
8.021169604227309264e+02
6.842940205530370577e+02
6.141563937349313846e+02
7.006350383965288984e+02
8.578883392984669172e+02
7.796990712413355595e+02
5.278338075525107342e+02
3.364843239487378241e+02
5.182733096776291148e+01
1.286929298890009647e+02
3.360412312427486654e+02
4.778857304466866935e+02
7.471396381202702059e+02
8.527980012881689618e+02
5.898578504556982125e+02
7.612843475485860836e+02
8.741310662072711466e+02
8.083711390199648577e+02
4.979703620376562867e+02
4.359013938547519729e+02
5.691764124679904171e+02
6.637795400827960748e+02
9.327502503387227080e+02
7.551039723084930984e+02
3.378844862819624950e+01
-1.257194912189167781e+03
-4.585626519788818456e+01
2.658013124220923942e+02
4.327585568567637893e+02
-1.792977681980181615e+03
-6.911415307130239853e+03
-2.449539855008567883e+03
5.556270944531922851e+02
5.941084278948430892e+02
-2.479111603136084341e+03
-5.847027300697171086e+03
-8.676480658588297956e+02
1.692548409577093338e+01
1.769487849167009585e+02
-2.340458929826858821e+03
-7.438411951133640287e+03
-8.967031728559566545e+03
-8.269241658673628990e+03
-7.710143085449342834e+03
-8.143668903163885261e+03
-7.902724502389748523e+03
-7.116330086075423424e+03
-1.605462598800529804e+03
1.058118342546561337e+02
9.995636071710932811e+02
1.343854442263992951e+03
1.539713849211218076e+03
1.780149058701415925e+03
1.871155751702534189e+03
1.561790579247264077e+03
1.504060353757391795e+03
1.529948469394694484e+03
1.697519768337984488e+03
1.511819662611913827e+03
1.426847340610130232e+03
1.326675739952646381e+03
1.428274013966014536e+03
1.347664411871789525e+03
1.176890230447825388e+03
1.238024503209770728e+03
1.239116028239983507e+03
8.051447647485911148e+02
7.571497279925844168e+02
7.601879378411252901e+02
8.442446673987760732e+02
9.703462810913645171e+02
1.141583357634650838e+03
9.650108235434173594e+02
8.795973245775978739e+02
1.005403899483816531e+03
1.102471404890328813e+03
8.288458839102933098e+02
7.155413247689843956e+02
4.806420347554103500e+02
3.731475447381799881e+02
4.331060765620512711e+02
3.705641851514022278e+02
5.375470574075479817e+02
6.871316511078323401e+02
4.013125569432156681e+02
8.308735649595422501e+01
1.045651910759024474e+02
1.227720866089977818e+02
-3.824113705742234259e+01
-3.424307837014654243e+00
-1.087751747714583672e+02
8.778460613227993292e+01
2.462542435378263406e+02
5.874899789240549097e+01
-1.105645161654569506e+02
-6.475461202085738250e+02
-7.324523861301595389e+02
2.047847064192868913e+02
-2.967721486177013190e+01
-3.349177054634137107e+02
-1.690751457441935145e+03
-4.330298091115064381e+03
-2.562543351433519092e+03
-3.985529460819718679e+02
-6.426566330998103638e+01
-3.125713923380379583e+03
-1.434841827529143757e+03
2.336159983400475326e+01
-6.580743589930062853e+02
-7.761189141097382844e+02
5.424154428610280831e+01
8.504806769115994314e+01
2.012434703661455160e+02
2.587723111359372865e+02
3.177304723499054262e+02
-3.284168938602071819e+01
2.104817653998791371e+01
5.136969661912473128e+01
-9.287105494084315183e+01
7.231637841277745338e+01
3.239226033388252404e+02
-2.299214626719129484e+01
-2.374431799022020471e+02
1.235378060011651371e+02
1.859664054590257649e+02
2.384554352982559422e+01
-1.586179229051772310e+01
-1.011428051206801939e+02
-1.229945676242339943e+02
-2.324650789084828943e+02
-2.452609299834665890e+01
4.198278789861611244e+02
