1.140863617589031037e+03
1.637786069346144814e+03
2.495157631445204515e+03
2.546271009064715145e+03
2.620361008192928693e+03
3.075233733351598403e+03
3.524012459748294077e+03
3.631895954776093276e+03
3.954061253568665052e+03
3.718767700181168948e+03
3.197959280893710456e+03
2.352382963410806497e+03
1.925017476762764090e+03
1.563938857565628041e+03
8.700767120310911196e+02
7.434463244460893065e+02
7.711411559079530775e+01
-6.575973482710596727e+02
-6.417195567298073229e+02
-1.604654599175956378e+02
2.651124316769435154e+02
1.421081247134844432e+02
4.976101203417906049e+02
9.227373715722933412e+02
1.359637536390918967e+03
1.406468854584244127e+03
1.301381885834448894e+03
1.341080085307934723e+03
1.358495573845292029e+03
1.175541455119035618e+03
1.244120769690028055e+03
1.210110245484003372e+03
1.143573258847087573e+03
5.546168173895284781e+02
-1.788768025603215506e+02
-9.398779535088534658e+02
-7.029774224984497550e+02
-1.274275566144650384e+03
-1.494056466212056648e+03
-1.693489630717352838e+03
-2.101568594489277530e+03
-1.720505369416496478e+03
-8.755211277426597007e+02
-6.262913357453304286e+01
6.902255216222752097e+02
7.561321133806362695e+02
1.042113264505557481e+03
1.384114926979298389e+03
1.522233357539931603e+03
1.246224624266095589e+03
1.022906626566584009e+03
6.882665733148622849e+02
1.522726498047349253e+02
-7.212430894219135098e+02
-1.430234974826738153e+03
-1.503730012800142958e+03
-1.957921755544949974e+03
-2.322015401538798415e+03
-2.170074405444228887e+03
-1.684034928315474190e+03
-2.287925879415844065e+03
-2.817756288767457136e+03
-3.925667307538004025e+03
-4.901535624922279567e+03
-5.094338864931801254e+03
-4.635179769061279330e+03
-4.432175576305833602e+03
-4.659440313027242155e+03
-4.870848028094941583e+03
-4.494512402650198965e+03
-4.300776236248679197e+03
-5.541821876293677633e+03
-6.649554424181053037e+03
-7.005129729348914225e+03
-7.067625221605849219e+03
-7.598964105896242472e+03
-8.985035737998632612e+03
-1.067580580334517072e+04
-1.174743897151286728e+04
-1.036202477135304798e+04
-8.075892437433932173e+03
-6.679146712931792536e+03
-4.976744449731926579e+03
-3.399893477474076462e+03
-1.668248310569994601e+03
7.021763277585203014e+02
2.821093888963671361e+03
2.414379966419689026e+03
3.075123149733309674e+03
3.736136923383673093e+03
3.766203881843309773e+03
2.458297672965410584e+03
9.044426119937255635e+02
3.947968877464297748e+02
-5.756090398098278911e+02
-8.539137879727247764e+02
-8.352726446226450889e+02
-1.292856851545318477e+03
-6.265495951103661127e+02
1.681831122730757670e+03
3.871292839863663630e+03
4.955358675128255527e+03
4.714176812014246025e+03
4.673780817751064205e+03
4.979525881845741424e+03
5.268889398853199964e+03
5.061851684772630506e+03
4.613691807232391511e+03
4.874885165001851419e+03
4.745613531358315413e+03
4.844160773132249233e+03
5.124066627629272261e+03
5.139568469890300548e+03
5.081667010606970507e+03
4.384088742180777444e+03
4.413091009824639514e+03
4.769352959791581270e+03
4.796239790265557531e+03
3.434477571984425140e+03
1.495142949859422970e+03
3.248783564217595199e+01
-1.387378668690243444e+02
6.985551906269390656e+02
1.096232455609336739e+03
1.233515520144058428e+03
2.540348696688120071e+03
5.574780536916691744e+03
7.246795024674716842e+03
7.439172799796911022e+03
7.122233837758455593e+03
6.391079448087071796e+03
4.874909397815773445e+03
3.422402466015258142e+03
2.188519535534634542e+03
9.362687435373795779e+02
-4.451892219516299178e+02
-1.982184901587336981e+03
-4.835616346754179176e+03
-6.766206036398489232e+03
-7.424188458222763984e+03
-7.819193105211882539e+03
-7.772133506023645168e+03
-7.720325539824171756e+03
-8.186997642191972773e+03
-7.509057431927123616e+03
-5.257200901310325207e+03
-2.216254347144601525e+03
1.801893227997235726e+03
4.590427537095034495e+03
6.016528433218774808e+03
5.056266146448052496e+03
3.020325892127403677e+03
1.674556179783847710e+03
-1.389590094747102853e+02
-3.055144869431686857e+03
-4.671005737801892792e+03
-5.795327243769032975e+03
-6.154067703671331401e+03
-5.153323812734732201e+03
-5.506145081164617295e+03
-5.899485572901395244e+03
-6.190313969032705245e+03
-7.104547833451753831e+03
-8.285006642790604019e+03
-7.970578435026794978e+03
-6.876360115055879760e+03
-4.947191365006899105e+03
-2.048843340395601444e+03
-4.327345997081873975e+03
-3.061865808205609028e+03
2.282649539470102354e+03
5.930394843452143505e+03
3.519267229367454547e+03
-1.140668800605841625e+03
-9.481884751224246202e+02
-1.173210153892602875e+03
-4.495755643226023494e+03
-4.592792609770330273e+03
-3.689163227117740462e+03
-3.549744205408145262e+03
-4.860600214893066550e+03
-5.507842109204863846e+03
-6.243344898082699729e+03
-6.593037858094928197e+03
-6.867999146094118259e+03
-5.010186369730095066e+03
-1.292607715447949886e+03
1.505950603020696008e+03
-3.255358180149763939e+03
-7.465548137890358703e+03
-5.256604452617459174e+03
-3.043279359728725922e+03
-1.605576016917118977e+03
6.816343313529924899e+02
2.356313543890942128e+03
2.757422608156057322e+03
3.098229079632519642e+03
3.393654196090372807e+03
4.626415204967800491e+03
6.433384851265471298e+03
7.909734311796904876e+03
9.205460919241197189e+03
9.340689198514955933e+03
7.723676162582882171e+03
7.039482406617134984e+03
6.513069587432984008e+03
4.767321100939725511e+03
3.582173976591480823e+03
4.214553154979783358e+03
5.322443209563353776e+03
5.495061692551598753e+03
3.849705239493659064e+03
2.666369074687449938e+03
2.465937958458655885e+03
2.202409793255676504e+03
1.767730853004787832e+03
1.628820916814748216e+03
2.974635520317839109e+03
3.788339774699527879e+03
4.476991058558372060e+03
5.400686978934080798e+03
4.735607688509953732e+03
4.028089047627302534e+03
3.921743880465186066e+03
3.461355982758603204e+03
3.404017482850916622e+03
3.657937830793040575e+03
2.952122435091615898e+03
1.216523315803595779e+03
3.830699651938686657e+03
4.023371135915845571e+03
3.652112230542365523e+03
2.304057303086804495e+03
2.388233574231795501e+03
1.751289568323678850e+03
8.878880475413743625e+02
-7.847649769283331800e+00
-7.526128692684484349e+02
-1.204484874226226111e+03
-1.221518773015063289e+03
-1.125928902090228576e+03
-1.745591664929520903e+03
-2.983765010770231584e+03
-3.980346748549140557e+03
-4.336600182316004975e+03
-4.337724778938135387e+03
-4.379958140765201279e+03
-3.784302543545095432e+03
-3.208627951195262995e+03
-2.548805818457604801e+03
-2.508909968174926234e+03
-3.183120795718093177e+03
-3.447558115505655223e+03
-4.204255878096134438e+03
-5.096264707777778312e+03
-4.282932314346084240e+03
-3.192174519892793342e+03
-3.547782386893562034e+03
-5.600877590294151560e+03
-7.455959244170331658e+03
-7.708231171211636138e+03
-7.652652443131876680e+03
-8.225189370110567324e+03
-9.133976691491676320e+03
-8.558113297232681361e+03
-4.379563260359668675e+03
4.387909993720059560e+02
1.858838609715561461e+03
1.850370674804200689e+03
1.803288825280052151e+03
9.305016618902456003e+02
-4.293891530859676209e+01
-6.179558991332874029e+02
-7.650948917387039216e+01
8.960966403982085922e+02
3.724626502961601773e+02
-1.301508045289038364e+03
-2.338684929776575700e+03
-2.421137827538734200e+03
-1.611253733252034181e+03
-1.123197749463484115e+03
5.100435171301227228e+02
2.206541406570305298e+03
3.337168270640539959e+03
4.097829471808963717e+03
3.194515511425086970e+03
1.371157585314833568e+03
-1.414460748602252806e+03
-4.993379405266352478e+03
-8.626626767494624801e+03
-8.430249878820153754e+03
-7.610427913348114089e+03
-4.621732877912229924e+03
1.604516190342896152e+03
3.295213429240006008e+03
2.904237392505866865e+03
3.595246610175582646e+03
3.375277292508778828e+03
1.269440130505859088e+03
-3.113635064394858887e+02
-9.241229806351769867e+02
-2.051907151846613033e+03
-2.795823258724643892e+03
-6.489474847171453575e+02
3.715573380216129408e+03
5.727785156634845407e+03
5.932721942579209099e+03
6.458103673577697009e+03
7.399705253983749571e+03
7.265438807264049501e+03
7.246233857491199160e+03
7.969131560460889887e+03
6.756058145960359070e+03
3.921040297592662228e+03
2.315041079374261699e+03
1.661831254535929475e+03
3.901930907189602635e+02
-6.262553303902413973e+02
-2.327963902662252622e+03
-1.861641188659043337e+03
-1.202447698101682931e+02
1.352238241823709131e+03
2.178510655661292731e+03
2.004035087405760578e+03
4.482801515979036594e+03
7.725214227150150691e+03
8.329462591857414736e+03
6.621543636150914608e+03
5.020300940746665219e+03
2.918292640314824894e+03
7.834886237180871831e+02
-7.749830348516233016e+02
-2.768253680201851239e+02
1.926188332967026327e+03
3.975836051479055641e+03
4.592748032365186191e+03
2.905618551970541830e+03
6.747564844268720208e+02
-1.031449324290476397e+03
-3.606562523659149520e+03
-1.953433119918240209e+03
1.082312927721883398e+03
1.622108718619897445e+03
1.230395364249181057e+03
1.239630284782842409e+03
1.040271821318688808e+03
-2.989503350211622887e+02
-2.716036685271057195e+03
-5.138414463634635467e+03
-5.101232496982378507e+03
-3.442640616406993558e+03
-2.486567502580646305e+03
-2.642656268676673790e+03
-4.804664722852070554e+03
-5.659704357711622833e+03
-4.748473757254946577e+03
-6.890655865885696585e+03
-1.078370080433756084e+04
-1.079014190515759401e+04
-8.453265766165433888e+03
-5.018619490625103026e+03
-3.306249112052336386e+03
-2.306103226634476414e+03
-1.302287289037178198e+03
-1.569105236589144624e+03
-1.827940408633223569e+03
-2.713714726994217017e+03
-2.518623394713885773e+03
-1.814521933523134521e+03
-1.186502540181485756e+03
-1.577734069330380635e+03
-3.021322346712801391e+03
-4.428957938272123101e+03
-5.557671697364691681e+03
-6.019449101726133449e+03
-7.446697398228933707e+03
-6.326924357414819497e+03
-4.777743691953530288e+03
-3.559786547373032136e+03
-3.632300565345009090e+03
-4.190833431587457198e+03
-4.365511821984244307e+03
-4.259042138701482145e+03
-3.824940797031479633e+03
-3.607069345239939594e+03
-3.387560931395361422e+03
-1.847249881715762058e+03
3.075722488022822745e+02
1.733199971949092969e+03
1.805547547134372962e+03
6.237882806279699253e+02
-1.979176522156497526e+02
-2.637524975092998716e+02
-5.661916643326345593e+02
-1.038234428469707382e+03
-1.832694734699439323e+03
9.304808482618318521e+02
5.377034945860476910e+03
5.818722002536395848e+03
2.036325947735093678e+03
-1.668219919071003915e+03
-3.091261702876352047e+03
-3.164470935983400523e+03
-2.775024205427418565e+03
-1.627918368078930143e+03
1.885451489255331126e+03
7.439753221739500987e+03
1.008716488107865734e+04
9.040931301567576156e+03
7.642194046877092660e+03
6.228189895586127932e+03
6.205470936351238379e+03
7.742306631973174262e+03
8.894804628064113786e+03
9.204323013131112020e+03
8.602127926141189164e+03
7.301108796206361149e+03
5.629261118968648589e+03
4.283845428062653809e+03
4.085959520921317107e+03
4.175684144921127881e+03
3.053926780328264158e+03
2.837605543403180945e+03
4.965703401184648101e+03
6.453650207376439539e+03
5.559511883702010891e+03
3.728936112882582620e+03
3.116796569946159707e+03
1.979447277701010307e+03
6.167061158937119671e+02
6.320149879328608478e+01
4.704776684073963793e+02
-4.113961012786871265e+02
-1.244992439624234066e+03
-2.177430345676451751e+01
1.567517842859878783e+03
2.607706506476046343e+03
2.272998805282408284e+03
2.709360425963869602e+03
3.412919619715690715e+03
2.869645734612627621e+03
1.816046192327093650e+03
-3.966453587254243303e+02
-1.447951638756391731e+03
-2.883672731798655150e+03
-4.492296830957049679e+03
-6.104031039110781421e+03
-4.819526291317062714e+03
-2.905753329590544581e+03
-1.306147368714683125e+03
-3.071970846440488856e+01
1.571680010677898281e+03
5.717101877193512337e+03
7.421702901825083245e+03
6.227411942680072571e+03
3.727792642275815979e+03
2.503576785886074958e+03
7.268458646067078917e+02
-7.043294590623635258e+02
-1.025704398866528436e+03
5.797352199546415932e+02
1.688854744293188787e+03
1.651639330222127228e+03
1.501169036203566975e+03
2.963087843304855369e+02
-2.718306617180718604e+03
-4.377855046792147732e+03
-3.313385581985876343e+03
-1.237040244374208214e+03
7.172327951083767630e+02
2.207514774833647607e+03
1.696618809323990263e+03
-1.547340630039887515e+02
-3.582703122770331902e+03
-4.544688586117546947e+03
-4.990735989398272068e+03
-6.398870884501130604e+03
-6.778407794706253299e+03
-3.884483170851748127e+03
-2.938289646589050335e+03
-3.918692929340939827e+03
-4.138618345903769296e+03
-2.341292841867835705e+03
1.314053042645519554e+03
4.375116407433341010e+03
2.095762863499633113e+03
-4.748431974923797497e+03
-4.776469128624170480e+03
-3.180503281564494046e+03
3.693810977782613350e+02
2.428838512500473428e+02
-3.235159943426232985e+03
-2.622831694548532596e+03
-3.249259854369570348e+03
-4.650685378265322470e+03
-4.259265045501478198e+03
-5.283245839551575955e+03
-4.226803560052595458e+03
-1.096884415477298035e+03
4.180479737098509759e+03
6.139085678321512205e+03
6.576570976195823278e+03
4.272598671815469970e+03
1.414215725017829755e+03
5.639222862016778208e+02
2.995366148599784538e+03
5.164319105429664887e+03
6.049613975093619047e+03
6.507054957700991508e+03
7.700282844457963620e+03
8.591081415865215604e+03
5.862438801664298808e+03
5.014026866798790252e+03
8.239545078961313266e+03
1.237785936947858863e+04
1.218213059132691706e+04
9.306278687850204733e+03
7.391174123144242003e+03
7.094603991607602438e+03
6.029395651993643696e+03
4.054376551131041197e+03
3.508349228231492361e+03
5.101860910038084512e+03
6.308527299620625854e+03
5.442478406873222411e+03
4.391794643484328844e+03
2.875181050264502574e+03
2.375603599155568645e+03
4.659270844609314736e+03
8.779102237558283377e+03
1.069287836808318571e+04
9.373526995085383533e+03
8.183220225042548009e+03
9.981153027655891492e+03
1.205625331441888557e+04
1.097449983699597215e+04
8.661773048604807627e+03
7.308971170714602522e+03
7.526986706447512006e+03
7.028098304305060992e+03
6.413333999525224499e+03
6.722609646291260105e+03
7.111062430065022454e+03
5.933771303940730832e+03
4.924932649629707157e+03
4.345819370608225654e+03
3.382627917108686233e+03
2.723005086796928254e+02
3.445044593054651614e+03
5.076792680174364250e+03
5.802462524101789313e+03
6.373458893753610937e+03
3.137896615934735109e+03
1.998182611805192721e+02
-4.854739799000396516e+01
-1.038778926157072107e+02
1.178042462407575158e+03
2.958429866798941475e+03
3.965575127117201646e+03
5.378670776050467794e+03
6.106849520245224085e+03
8.450259305522304203e+03
1.237827337092247944e+04
1.419636778863820473e+04
1.385983924155041313e+04
1.255902679057057503e+04
9.974466066016839250e+03
7.870434295537137587e+03
5.302237858724905891e+03
2.427428879479095940e+03
-1.352377584775843843e+03
-8.651803264585410943e+03
-2.055546192150280694e+04
-2.795987331215018276e+04
-2.940457127480708368e+04
-2.777703655520352550e+04
-2.509299683000356163e+04
-2.057811065157067060e+04
-1.819985817986987968e+04
-2.317870623110343877e+04
-3.031514207019591049e+04
-3.375786769763227494e+04
-3.487547481344061089e+04
-3.668032256908959971e+04
-4.339472298516984301e+04
-4.437511208579138474e+04
-3.093385856331848845e+04
-1.144151070805621202e+04
2.844420280280261522e+03
8.736358809996245327e+03
1.233567450060108422e+04
1.186782740297529017e+04
9.594418460850904012e+03
1.273419318627788380e+04
7.186796366327063879e+03
-7.808298431297953357e+03
-2.519461717556496296e+04
-4.224800293989199417e+04
-5.750316504143659404e+04
-7.143552404995961115e+04
-7.175848179784190143e+04
-6.524554783843590121e+04
-6.165926960081520519e+04
-5.870307839108175540e+04
-4.916646302179998020e+04
-2.581496146890116142e+04
2.511642503514679902e+03
2.434555249876318339e+04
2.862617807954624004e+04
2.283405339417927462e+04
1.248275029303037991e+04
4.132588607476059224e+03
-4.642857480332997966e+02
1.406614090511926634e+03
9.127762280511486097e+03
2.754719424345513471e+04
4.293094943287818751e+04
4.728809817492841830e+04
3.832293062624134473e+04
2.372961974908092452e+04
1.370537084774580762e+04
9.515483867603024919e+03
3.655109588208150853e+03
-7.835517486713894868e+03
-2.175135349608893011e+04
-2.817440782820141249e+04
-2.586155305446470447e+04
-2.681268423484169762e+04
-2.429072968244787262e+04
-7.735762169511719549e+03
1.233016469454618164e+04
2.938599681814408905e+04
4.178774306037323549e+04
4.783508929586894374e+04
4.657184798307720484e+04
4.144290178203449614e+04
3.999427278008235589e+04
3.480871430255125597e+04
1.785287585267081886e+04
4.101577768292136170e+03
5.836829041255141419e+02
5.760932670802099892e+03
1.271999003521156192e+04
1.523129338393454600e+04
2.003636766503539184e+04
2.309693279518013878e+04
2.796973192334748092e+04
3.480651187598850811e+04
3.902579166089107457e+04
3.543404607749317074e+04
2.711787495770208625e+04
1.784677080949189622e+04
6.027249800322345436e+03
8.151686063274861738e+01
2.243866645942202467e+03
1.680239718269297100e+02
-5.918243232105750394e+03
-4.572467904564753553e+03
2.566577391949076173e+03
9.276163041646528654e+03
1.861764457119039434e+04
2.295127244698462164e+04
2.115019807679275982e+04
1.713845735503457036e+04
1.219546096279775520e+04
6.465780067185222833e+03
-2.022483340967299625e+02
-4.410369135308920704e+03
-6.792394874391980920e+03
-9.833200702547759647e+03
-9.496634072112225113e+03
-5.070465230376817999e+03
-3.962408586242024285e+03
-4.264155740377897018e+03
-2.261563845373659206e+03
-5.264728914548236389e+02
9.434999584800472121e+02
1.775296365314264676e+03
1.501149299032685803e+03
1.087122806494617862e+03
-7.265863908867784630e+03
-9.471616408995547317e+03
-1.485179833392235014e+04
-1.924414842636380854e+04
-2.153859029910934623e+04
-2.041388797797764346e+04
-1.442484533796720825e+04
-9.444347141287969862e+03
-3.280347210027155143e+03
6.236397961948843658e+03
1.439409973332752452e+04
1.487180190761413905e+04
1.174157778180535570e+04
8.517592844597731528e+03
3.953138367954193200e+03
-6.926910776888192913e+02
-7.174725892908874812e+03
-8.333710653942784120e+03
-3.831366377365857716e+03
-2.773273898441786969e+03
1.508729458822300330e+03
5.766951929109448429e+03
7.753753866159489007e+03
8.143434087758075293e+03
1.019103356394948241e+04
6.564810927775706659e+03
3.741163977637868356e+03
2.747422822342782183e+03
1.656906462685235510e+03
3.284768922278451100e+03
5.162527162886926817e+03
3.303834441006947145e+03
-1.074758224450760963e+03
-4.534796367708497201e+03
-6.827681465877841219e+03
-6.300912267681777848e+03
-6.564019163174125424e+03
-7.009609422775626626e+03
-6.563091607162008586e+03
-5.207754846442492635e+03
-3.805978890846596641e+03
-3.849899700332429347e+03
-4.128635807223375195e+03
-4.437543835328937348e+03
-7.536082385727454493e+03
-8.918597077642642034e+03
-6.734350510715116798e+03
-4.849573244563316621e+03
-4.796314721870415269e+03
-4.729485488217562306e+03
-6.512619924374115726e+03
-7.589675317170994276e+03
-7.036131815634527811e+03
-8.154999634927347870e+03
-1.108437455229350780e+04
-1.564369959728909453e+04
-1.662964666004011815e+04
-1.485462838083937640e+04
-1.300452336269713669e+04
-1.104439600705865814e+04
-1.152132315985101377e+04
-1.302015305577960135e+04
-1.340918757731064943e+04
-1.356561871561015869e+04
-1.398662721440876157e+04
-1.439402501095713887e+04
-1.510570624439418862e+04
-1.656380562541908876e+04
-1.731786342090055041e+04
-1.764997033926739823e+04
-1.885340323081719180e+04
-1.970657391886077676e+04
-2.116312059383896849e+04
-2.264640156659093918e+04
-2.181605223043311707e+04
-1.931971889207346612e+04
-1.623394083872288502e+04
-1.412391909452903383e+04
-1.308122495004192388e+04
-8.153112902680782099e+03
-5.379749190452571384e+03
-3.904570227228624844e+03
-2.183183732049506943e+03
-1.608889227916990308e+02
1.487143483511997147e+03
1.437668661503773592e+03
1.874135712934512981e+02
6.531190684137942526e+02
9.718565875029830750e+02
9.032032605273444403e+01
-2.145007156156435485e+03
-2.634402168998190973e+03
-2.533660813279926970e+03
-5.727063065162572002e+02
1.305277343163817250e+03
2.464103250678964287e+03
2.788646614711729853e+03
3.833925408733570293e+03
5.141689899880966550e+03
4.900658035509525689e+03
5.032687325884900019e+03
6.312829855461319312e+03
4.779014715502116815e+03
2.260202612575639705e+03
2.600231492907996653e+03
2.872754929245864787e+03
1.919469711382304922e+03
8.394274478883343136e+02
6.717014006248323312e+02
1.881208995014058928e+03
2.776579712612168350e+03
4.486624478004508092e+03
5.868433807002750655e+03
5.617031450906210921e+03
4.795195392470925981e+03
7.710649111415516927e+03
1.082428775854368178e+04
1.245996901707329016e+04
1.348344469556392869e+04
1.314748311904590992e+04
1.228102761580265360e+04
1.162492637039833062e+04
1.067987537339661685e+04
1.048475049765144286e+04
1.201149239376203514e+04
1.374135469820613798e+04
1.738719230466541194e+04
2.140470306380675174e+04
2.326157782957750533e+04
2.455885232467047172e+04
2.544317947561504116e+04
2.545803494426599354e+04
2.516404040042676570e+04
2.504769284536593841e+04
2.446047817461013619e+04
2.264902273145471554e+04
2.156283867924584774e+04
2.145947561850770580e+04
2.049222986853048496e+04
1.972939874233964656e+04
1.862958574507987214e+04
1.777339884817930943e+04
1.816634628350248749e+04
1.743799357587343184e+04
1.638372203257719593e+04
1.513006021154371047e+04
1.423642948288358093e+04
1.341430569019998620e+04
1.270536034208964520e+04
1.166547368142702726e+04
1.082871411854645521e+04
9.793913618971619144e+03
8.260012773753958754e+03
6.491055713439485771e+03
5.324888422417563561e+03
4.471761727576589692e+03
2.982417259914291208e+03
1.867219797572043717e+03
1.136023880929551979e+03
6.971952280654051037e+01
-1.167611368495659462e+03
-2.043446034420351452e+03
-2.225124874109345001e+03
-3.707986697571347122e+03
-5.552858494625277672e+03
-6.713711727702978351e+03
-7.624204816569177638e+03
-8.773330260503285899e+03
-9.853970929146013077e+03
-1.024707161062629712e+04
-9.583252277888093886e+03
-8.766995088982712332e+03
-9.311534902749770481e+03
-9.855588790835565305e+03
-1.076917493660368200e+04
-1.245842521722614219e+04
-1.351730005812163290e+04
-1.379280610037473161e+04
-1.416280194615050459e+04
-1.408140813416154924e+04
-1.437906344797627571e+04
-1.466399879206264086e+04
-1.519007382209339630e+04
-1.639853882601755686e+04
-1.782474416011735957e+04
-1.826600891642441275e+04
-1.817392219842570557e+04
-1.719131701335542311e+04
-1.640253901864058207e+04
-1.634014639282881944e+04
-1.640200408597188652e+04
-1.604813468856346117e+04
-1.567605205041533009e+04
-1.549935468071635478e+04
-1.543085662661509014e+04
-1.620090783869922598e+04
-1.661525625832445076e+04
-1.656246965307840219e+04
-1.655231871936218886e+04
-1.589408757868951761e+04
-1.487764271472791734e+04
-1.429798491971295880e+04
-1.256894825465707254e+04
-1.061666796313944178e+04
-8.893443690998188686e+03
-8.177053476068894270e+03
-7.832263468117982484e+03
-7.058216114650253076e+03
-6.384542383960110783e+03
-6.003685192840557647e+03
-5.791791852525246213e+03
-5.302721142446792328e+03
-3.412595010369508145e+03
-2.682143096275404787e+03
-3.678470224625500123e+03
-4.084907274648183829e+03
-2.618835324821760423e+03
-7.853367207965492298e+02
9.213991937233548697e+02
1.189677414168320638e+03
6.603069830265178553e+02
7.155273756354795296e+02
1.149001282593173528e+03
2.166012427565574399e+03
2.618864996816044368e+03
2.627279512417207570e+03
3.155481594688495079e+03
3.094573031625802741e+03
2.666407445149420255e+03
2.402049784129429554e+03
2.583875930153445552e+03
3.065795605868056100e+03
3.346743565627088628e+03
3.529812353636105399e+03
3.224089706635793846e+03
2.664668292750334786e+03
2.539109675641630020e+03
2.185699128527721768e+03
2.619310599971560350e+03
2.865019602160087743e+03
2.765771969913974317e+03
2.868523609104907791e+03
3.201250927042088733e+03
3.155819002401053694e+03
3.635697459319735572e+03
4.691545906544820355e+03
5.006299819252528323e+03
4.926471655635875322e+03
4.949373841424372586e+03
5.579971660223881372e+03
4.897099314185908952e+03
3.668169338889285427e+03
6.305094179993511716e+03
6.778934672734959349e+03
6.963416993811422799e+03
6.731408064065310100e+03
6.012718368173209456e+03
5.581927427596495363e+03
5.174636817189871181e+03
4.863767544675666613e+03
4.479088209144311804e+03
4.457421653776261337e+03
4.538516588351952123e+03
4.814815839128287735e+03
4.730173947438443065e+03
4.399845698806086148e+03
4.560633055179851908e+03
5.441211480794164345e+03
6.026930465485127570e+03
6.400957229847072995e+03
6.997358129234205080e+03
7.224464388093843809e+03
7.516931554488470283e+03
7.117246921515673421e+03
6.579398036613919430e+03
6.765388859458405932e+03
6.597759492055334704e+03
6.274236152836059773e+03
6.478107023644730361e+03
6.421739087968142485e+03
5.765015571511135931e+03
5.223032554882545810e+03
5.585076708758949280e+03
5.740313737236640009e+03
5.928795267872979821e+03
6.408477666901707380e+03
6.601127542033409554e+03
6.782671308858912198e+03
6.327459657010483170e+03
6.275847447500744238e+03
6.574913104990324427e+03
6.573661429695003790e+03
6.483004581179086927e+03
6.192151149083803830e+03
5.642144790108570305e+03
5.148856184457480595e+03
4.009378550426325546e+03
3.998868078693063126e+03
4.043311600049328263e+03
3.845796773318020769e+03
3.643557916483567169e+03
3.305891522031155091e+03
2.434959814355352592e+03
4.348428894014811590e+02
-2.932635873126525439e+03
-6.201565286772641230e+03
-4.893891377748509512e+03
5.398006810613076141e+02
1.451591719159175909e+03
1.266483519346982121e+03
2.847449260851018380e+02
-4.062458469412382783e+03
-7.642923294402929059e+03
-7.388675231631039424e+03
-6.522743631616296625e+03
-6.139132462739034963e+03
-6.576642721355443427e+03
-7.761918658676102496e+03
-8.624963655467154240e+03
-8.437184179632578889e+03
-8.422597630517391735e+03
-8.239890709366100054e+03
-8.523791053570477743e+03
-5.305059516885587072e+03
-4.575433927626157129e+03
-6.904826382139679481e+03
-7.238127091784285767e+03
-7.092170960845161972e+03
-6.897914137626519732e+03
-6.466070593893338810e+03
-6.024499618963493049e+03
-5.435233249677240565e+03
-2.673185997190500984e+03
1.135574611489427298e+03
1.861099746123515843e+03
9.156316242458117358e+02
8.428913292643708246e+02
8.240597180187990034e+02
3.512813406945245447e+02
-3.836293480975840708e+01
-9.188623228606580540e+01
-3.242163091337698688e+02
-5.002210611824932585e+01
-2.599327394245146934e+02
-8.289828593539693884e+02
-1.565144199474003017e+03
-2.401216307287776090e+03
-2.872796037285336752e+03
-2.506808881976520752e+03
-2.239163466206037810e+03
-2.143005347824723231e+03
-1.264290027391532703e+03
-1.161739487380765240e+03
-4.570626939901516721e+02
-2.252917231582682120e+02
2.095746953586254051e+02
2.687754792664416641e+02
3.504581905652091223e+02
4.405785669405584599e+02
5.754367430003120489e+02
7.443134335345782802e+02
8.442371336492710725e+02
1.104291839859246693e+03
2.116682963313711753e+03
2.446567564965746442e+03
3.034964290250145950e+03
3.531903408615830358e+03
4.035509640375790241e+03
4.367792508853530308e+03
5.139788046539328207e+03
5.451823091984048006e+03
5.574240588473971002e+03
5.614878400884137591e+03
5.698818370077250620e+03
5.742278151995224107e+03
5.311434778789679513e+03
4.895649507093321517e+03
5.055092518724706679e+03
4.293673288190963831e+03
4.262447621753821295e+03
3.939527213430696975e+03
3.622892912207529662e+03
4.136572633180551748e+03
3.980625046466130243e+03
3.779049426305838551e+03
4.059877866835171062e+03
3.764060509036291023e+03
3.578737691602188079e+03
3.533154425702442495e+03
3.643600223994738371e+03
3.373108213210686699e+03
3.446691711813282382e+03
3.856460530074689814e+03
4.243448220151090936e+03
3.926646997536631716e+03
3.435220792200601409e+03
3.186232217794440658e+03
2.904718276583378611e+03
2.304846662012327215e+03
1.745596942043370063e+03
7.481019797596715080e+02
6.055381213846466153e+02
3.930157322569544931e+02
3.686350754434965324e+02
1.623666639642364373e+02
7.151364169390526513e+02
1.121989620947625554e+03
1.508144125231561020e+03
1.878685010139992073e+03
2.393779298716966878e+03
1.800545552966808373e+03
1.433015482872915300e+03
1.479152049624095980e+03
1.376884976802207802e+03
8.670610416212782638e+02
3.770710426489865341e+01
-1.263200688146446282e+03
-2.038675052796338832e+03
-2.184745384589544756e+03
-2.924435794437953064e+03
-3.184518382449779892e+03
-2.842904792898948017e+03
-2.655655424919938014e+03
-2.000752445307817879e+03
-1.880198841591860855e+03
-1.397043330613587159e+03
-1.309472197422213185e+03
-1.373704864810799336e+03
-1.313792256377475269e+03
-1.547629809888826230e+03
-3.416242890669570897e+03
-6.717754361261437225e+03
-9.071174034830610253e+03
-8.936543929428218689e+03
-7.804986101794796014e+03
-4.892574944637447516e+03
-2.065365066350597772e+03
-1.683387380043200892e+03
-2.257642946308877072e+03
-2.378191525024884868e+03
-2.074111739039086387e+03
-2.358519041622739678e+03
-2.910604788483715765e+03
-3.130397464210279395e+03
-3.137028949144902981e+03
-2.923525192197504111e+03
-2.125046145116376920e+03
-1.629766721470456559e+03
-6.648476325342198834e+02
-2.154004316162780981e+02
-1.964889280915665211e+02
-1.771662076739884242e+02
5.560804957789621028e+01
1.806824313965403235e+02
3.468847746807884960e+02
-1.317985410797408576e+02
-8.346017767759714161e+02
-1.219648392430473905e+03
-1.194007277838316668e+03
-1.098873586577732340e+03
-1.492456813051203881e+03
-1.797966565820411915e+03
-1.818457946665468853e+03
-1.793050669468308570e+03
-1.730923991381573160e+03
-2.055204692125223119e+03
-2.269925644651564653e+03
-1.333144743791926203e+03
-5.549649017044262109e+02
-3.276022392129493142e+02
-1.350866419138064316e+02
-1.302596167767156885e+02
8.683639083638237821e+01
3.908788439102741563e+02
3.136837488043036046e+02
6.020662425802817097e+02
1.138965450945848261e+03
8.984026054550005256e+02
1.233341109037684646e+03
6.977903904283189149e+02
-5.334145882588141063e+01
-4.440066918594802132e+02
-5.811902494485693751e+02
-6.520861541398553527e+02
-8.727711182544062467e+02
-5.473024806523710595e+02
4.812798825859642875e+02
1.759763951793568992e+02
-4.202036965340038250e+02
-1.442734372817693043e+02
1.277036150979150086e+01
9.787251894174066535e+01
5.220438059263483410e+02
9.813349525519365670e+02
8.588433156009953109e+02
-1.934584091836586595e+02
-1.254495910324850684e+03
-1.283265377152022666e+03
1.600441896594056459e+02
1.370208829552676889e+03
4.982550102615225569e+02
-4.428108166448103589e+02
-1.760738365227807094e+02
3.606493611474440968e+02
1.195102805552705973e+02
-3.138721289956395211e+01
-6.690208175513878359e+02
-3.912374999631509127e+03
-5.960280747337888897e+03
-4.481972450241087245e+03
-4.061321029423146683e+03
-3.866207848274452772e+03
-4.000578111280866779e+03
-3.493309602347887449e+03
-7.482833235407515531e+02
-7.094844898712512986e+02
-2.073885823038356193e+03
-2.804410674327435117e+03
-1.544069077966146551e+03
5.920946533869902169e+02
