1.470857051016027299e+03
2.541193281781967016e+03
2.926697589386314576e+03
2.976407639940305216e+03
3.230333035844551432e+03
2.762456226655655428e+03
2.335715487625237984e+03
1.735158544079911280e+03
1.266724835315303380e+03
4.493409282541614971e+02
-5.940131671659704580e+02
-1.399285685510344820e+03
-2.429523980287850009e+03
-2.544756017973094913e+03
-1.877922249133675678e+03
-1.406020420605108256e+03
-4.599899423914262115e+02
6.182132798042159720e+02
1.408459994242585708e+03
2.559718171137965783e+03
2.857037595898544623e+03
2.367758879522629741e+03
2.729012513972788383e+03
3.386633434802628472e+03
3.367642239632020846e+03
2.792176218440250977e+03
2.665656636477075608e+03
2.397977013806828836e+03
1.257837053820046094e+03
-5.078316699064246222e+02
-1.018143558582658898e+03
-6.912435008676258121e+02
-5.031093743443557855e+02
-8.920664868556976899e+02
-1.275946565023578387e+03
-9.694583591078556992e+02
-6.185994920478682388e+02
-3.604259520742445488e+02
6.469344097053245832e+02
1.654418955533984217e+03
1.495298935550404622e+03
1.425805274609102980e+03
1.852093541269309981e+03
2.504993882104186468e+03
2.287883598136116234e+03
2.014112655559318227e+03
1.731773451311957160e+03
1.291936551638548963e+03
6.235175607147249366e+02
-2.405679878256341340e+02
-1.993937608834260118e+02
8.271005213357388186e+01
-4.673204966886939360e+02
-9.474344593807488764e+02
-1.035654401425083506e+03
-5.979881245726268162e+02
1.015487453185787103e+02
3.719841901678874478e+02
6.263202577661568284e+02
1.176522493196193182e+03
1.681621371747509784e+03
2.138605839279494376e+03
2.726529091876197526e+03
3.148447193673562197e+03
2.957298990239263730e+03
2.505105786963232276e+03
1.614920570742659038e+03
8.486533486281460910e+02
6.561652987149715273e+02
1.713798468150902181e+02
-3.407160260530599771e+02
-1.201688425824532800e+02
3.450475664559841107e+02
-1.321183647172882445e+02
-1.767302147150146254e+02
1.451906019598856972e+02
4.756653624230514765e+02
9.157184427033536167e+02
1.590389124009235275e+03
2.169724815650926303e+03
2.646685390560558062e+03
3.159303379003765258e+03
3.323639364792751621e+03
2.474614951748374551e+03
3.781730002827296175e+02
-2.588676428259362638e+03
-5.115918563589380028e+03
-4.941608513007283364e+03
-5.846783533634702508e+03
-6.680475972008386634e+03
-7.208735397545468913e+03
-7.674543987723925056e+03
-7.655926340073595384e+03
-7.397865937399516952e+03
-7.036262832566986617e+03
-7.495213713969544187e+03
-8.148753850304887237e+03
-8.344850973144664749e+03
-4.146599476452848648e+03
1.200136937253906126e+03
1.737402411644853146e+03
-1.923832979008187067e+03
-1.705553520139482998e+03
2.413290411013292669e+03
2.684742224787945361e+03
1.796808683924734623e+03
1.636506106291617471e+03
1.170796742680201078e+03
9.536346777855852679e+02
1.547972438470294719e+03
2.412916697409375502e+03
1.870385757351192296e+03
7.523569596333459231e+02
2.027954211991138322e+02
-2.132993723742903569e+02
-5.059106445051467063e+02
-3.929466443673396157e+02
3.058075755639839954e+01
8.756749068502044793e+02
1.253433138197001881e+03
1.459960842196330759e+03
1.640253402277547593e+03
2.568341254309672422e+03
3.639222070992868794e+03
3.458931235474345613e+03
2.759495115767083917e+03
2.108955292703124087e+03
1.818282167656448337e+03
1.436496456640754559e+03
9.216055073335329553e+02
1.746049935249666873e+02
-5.075260537429546730e+02
-5.708214638460523247e+02
-4.642402623960085748e+02
-7.417815855559482543e+02
-7.463778836169718716e+02
-7.379333147305248986e+02
-5.264769551299507384e+02
-2.430097766935156471e+02
5.215867104077510703e+02
1.210370725302079791e+03
1.663382930970877624e+03
1.919649709799785569e+03
2.480200633261664279e+03
2.700061074841133177e+03
2.139265818085878891e+03
1.784875478221476214e+03
1.116926383310121992e+03
3.224885440688055951e+02
-7.602889853438955470e+02
-1.750277217491503507e+03
-1.574735889752946832e+03
-1.602743615169929399e+03
-1.562054275473738699e+03
-1.402987088596692502e+03
-1.655506026148746287e+03
-1.875648318613194988e+03
-1.617381080604779299e+03
-1.995593731283431111e+02
7.658811183167246099e+02
8.219755222849661322e+02
9.017045345663100306e+02
1.399105356023449531e+03
1.428206519070586182e+03
1.615065634619654702e+03
1.480787729192445340e+03
1.106366490634899037e+03
8.567171643647843666e+02
1.087112410868776280e+01
-7.991896336162669741e+02
-1.259494871054185523e+03
-1.526013914529694148e+03
-2.084773561974108816e+03
-2.298858440901481572e+03
-1.634240274263149786e+03
-7.388854861833229961e+02
-6.107375454435457414e+02
-1.007482963132491136e+02
-1.248749249305299855e+02
-2.613790525246511720e+01
1.495105266883023489e+02
6.500299485254030287e+02
1.228463572733178353e+03
1.340875894125323612e+03
1.163403282190122354e+03
1.403124415076900277e+03
1.319995937671299316e+03
5.850012177984427808e+02
-2.579238488946273833e+02
-1.149926699994631235e+03
-1.762004574249813004e+03
-1.864250894109615729e+03
-1.811780521008980941e+03
-1.860577566188983610e+03
-1.727531613586045069e+03
-1.479630203938667592e+03
-1.707891273768183055e+03
-1.382363467852634358e+03
-7.199845146734610353e+02
-3.337460181288990384e+02
-2.956774853518335249e+02
2.721080737876689568e+02
1.162534361657248610e+03
1.665643886787814154e+03
2.461431880766907852e+03
2.377911546255187204e+03
1.985098433357068870e+03
1.545921975821432170e+03
4.713580871635806488e+02
-6.526710994061027122e+02
-1.519235566127442326e+03
-1.291337938216120847e+03
-1.107968914510760897e+03
-1.494154659322434100e+03
-2.148900975009370995e+03
-1.296202431600750288e+03
-3.480348535626542912e+02
2.455083671794865268e+02
6.154543983149703763e+02
1.360849592327506571e+03
1.590632850348066540e+03
1.402740306705485864e+03
1.365064736689786059e+03
1.080086309462057670e+03
1.943872540088915002e+03
1.770854168198084608e+03
1.102686653061806737e+03
7.344984078287551483e+02
6.678918366599672254e+02
3.084009539176560679e+02
-4.593106492879696248e+02
-5.051655706695258345e+02
-2.603503984057764455e+02
-3.796732022091586032e+02
-7.861148530372123560e+02
-5.249832251345383156e+02
1.078199749280499020e+02
5.390355660846527144e+02
3.987612647359513289e+02
4.088729534375091248e+02
9.824588427272536819e+02
1.916790067188797138e+03
2.998680928113698883e+03
3.616021315274651442e+03
3.700935140470404804e+03
3.401430242100663691e+03
3.195979114431173457e+03
2.642854366081982789e+03
2.358039043571276125e+03
1.962713719221395877e+03
1.172694913739529511e+03
1.698733061248968852e+02
-4.719543254389008666e+02
-5.238564865043234704e+02
-2.497131018964620068e+02
2.632075984937069393e+02
4.243708792459007668e+02
5.863125806806909850e+02
1.034060500247864411e+03
1.834627576817139470e+03
2.292074626016613365e+03
2.611373510805910428e+03
2.978541518614641973e+03
3.528548631000998284e+03
3.775423333243595607e+03
3.677162697411042245e+03
3.599821593626937556e+03
3.199405321093880048e+03
2.477920961591001287e+03
1.351382209504923139e+03
6.506537982678228218e+02
2.164030967128738325e+01
-4.656838463554801706e+02
-6.740657565446559829e+01
-1.288619102644793884e+03
-3.314306643855291895e+03
-6.442485248237427186e+03
-7.018071389637306311e+03
-6.556921214616369980e+03
-5.871080760300747897e+03
-5.960604659685348452e+03
-5.244392358631011120e+03
-3.613333499758111429e+03
-2.678382893498416706e+03
-2.754540145328582639e+03
-3.224743548687224120e+03
-2.965673499144253128e+03
2.386179259226044280e+02
1.512866607384552481e+03
-2.732042609909002749e+03
-5.810984592442618123e+03
-5.082743319452223659e+03
-3.561403384140083745e+03
-4.582114519618094164e+03
-6.944925420584621861e+03
-7.308864910754287848e+03
-6.527921279878989480e+03
-1.710989854624093368e+03
1.898007366308413339e+03
1.964142373929703353e+03
-2.669657426211273560e+03
-4.293344508019181376e+03
-4.157753884182569891e+03
-3.753783542647774084e+03
-3.174457260018580200e+03
-2.145797590755242709e+03
2.044277612407700417e+03
3.118796168517789738e+03
2.403664295900498018e+03
1.868897717278592381e+03
1.227547227439458766e+03
4.356645643182424124e+02
-2.377330361630496611e+02
-3.835603617631072098e+02
-3.277154113828094637e+02
-3.271608341916742688e+02
-6.398505881061339551e+02
-6.857225259544462688e+02
-3.586457435608948003e+02
1.994352403661640096e+02
3.744778223288843151e+02
1.020462554423481606e+03
2.881388383976822752e+03
4.675334467495989884e+03
4.998326491705665831e+03
4.523431979424804922e+03
3.924662855200089325e+03
3.111027190657477149e+03
2.841502116138356996e+03
2.660073649619614116e+03
1.288823686809952051e+03
9.775663760258309765e+01
-6.581098808343676865e+02
-1.228764563691513786e+03
-1.175165677660543679e+03
-4.782756999981541526e+02
-2.306139671102276623e+01
9.714356318274118394e+02
2.539229467953065068e+03
3.059449806832630202e+03
2.973753212824132788e+03
3.399056191714767465e+03
3.946025837893219432e+03
4.090897327200690142e+03
4.036839584288743936e+03
3.531038140680005654e+03
2.518529379992346549e+03
1.948264854757935154e+03
9.102987565709344153e+02
3.587987428193127926e+02
4.558349160998879483e+02
2.509895148466688113e+02
-2.882215934812941782e+01
5.053492544437713718e+01
-5.196101891897272935e+02
-5.317850488048964053e+02
-2.671747675551935117e+02
-2.443342029696781879e+02
-3.956653563970299388e+02
-3.279861772450483670e+01
9.136994085416670259e+02
1.341114936428082501e+03
1.887551908789052277e+03
2.435972655480971753e+03
2.450416162737060858e+03
1.995780986737178409e+03
2.434024359685720810e+03
2.302163236523259457e+03
1.786225509021817516e+03
1.002278741061980440e+03
1.593035049530417098e+02
-7.917165157832099567e+02
-1.224658445361724262e+03
-1.517401837264956384e+03
-2.254026302622167350e+03
-2.302644261550510691e+03
-1.649273241446946486e+03
-1.110889821610500348e+03
-3.823571740947265312e+02
7.946849041284946225e+01
5.175251742000920103e+02
8.127618243584175843e+02
1.322973862429126712e+03
1.636991196090841413e+03
1.804666530725308121e+03
1.857851472110163741e+03
1.820519285284223770e+03
1.470815931752114693e+03
6.297495358636818992e+02
-2.676845376213406524e+01
-1.257746810791563803e+03
-2.135154021503887179e+03
-1.740072383903780974e+03
-1.961555092927168744e+03
-2.580662505576543936e+03
-2.400413876290469034e+03
-2.120924168808547165e+03
-1.378156824541976221e+03
-7.910644053846380075e+02
-6.326431516461886986e+02
-6.348762754759720792e+02
-6.037947215746643224e+02
-7.533754709793624897e+02
-1.207621605373362172e+03
-2.274443706571081293e+03
-4.300751696528280263e+03
-4.901564855926975724e+03
-4.806065651891031848e+03
-1.720501959379682148e+03
1.989029299463409416e+03
1.482442727576549714e+03
6.946972337133316842e+02
-1.821450808071004985e+02
-1.176117631803089125e+03
-1.104202504685240683e+03
-9.845663138835474228e+02
-7.263058777540109077e+02
-2.413831659667438601e+02
-6.966935736728119366e+01
1.519237915839489972e+02
5.793264450440327664e+02
1.513414556344597713e+03
2.553221738790859945e+03
3.029737883393957873e+03
3.136912939190893212e+03
3.169783172876574099e+03
2.900364373759770842e+03
3.028584156764181444e+03
2.875395828537580655e+03
1.656758850203667862e+03
2.306155964314350797e+02
-1.197117713704210473e+03
-2.135506316843089735e+03
-2.308538524580984358e+03
-2.099275778971565614e+03
-2.497675244972710971e+03
-2.661777051337252942e+03
-3.384570547262595937e+03
-4.080091060279035901e+03
-4.633293624217353681e+03
-4.277102124790044400e+03
-2.524547135605962012e+03
-6.466508032795527470e+02
1.298597315054621959e+03
2.841189263557606409e+03
3.136240497766934368e+03
3.300775479130521944e+03
2.820699556866784860e+03
9.609198391069858189e+02
-1.259612875956994458e+03
-1.924897269854011256e+03
-1.790935300355884465e+03
-1.505775283682098006e+03
-1.302361518083263718e+03
-6.277242428454420633e+02
7.571036057482878050e+02
2.009157691738587118e+03
2.249481683027665895e+03
1.837030833768748153e+03
1.731783088605103103e+03
1.759841620693707455e+03
1.764173394652742900e+03
2.386858764186719327e+03
2.830943335830977958e+03
2.676486250905523320e+03
1.603518375830445166e+03
-1.759578624980417487e+02
-1.620921074354456323e+03
-3.059406101921685149e+03
-4.211414873240635643e+03
-4.840950757866338790e+03
-5.223919323825438369e+03
-5.295530647545157080e+03
-6.163731808091584753e+03
-6.121502885033911298e+03
-4.710844554276670351e+03
-4.027737879353208427e+03
-3.372102324861124998e+03
-4.259892968088866837e+03
-1.321006052814122540e+03
4.018612547705054567e+03
6.259885100700853400e+03
5.078874443155070367e+03
7.475695027935858889e+03
3.749375158787055625e+03
3.015854924816962011e+03
1.588219216091708404e+03
2.709520354518569548e+03
-6.173049258572208373e+02
6.672670183445418957e+01
1.050639307622526076e+03
-2.079545924581513191e+03
3.471512711756359977e+02
1.425726518233029765e+03
-3.081043222827160477e+01
-3.689391181398019398e+03
-5.688978382207233153e+03
-2.531550011245322821e+03
-2.317101375807249042e+03
-2.951631060163650545e+03
-1.248093328684137305e+03
2.101610154823465109e+03
2.194907994849035902e+02
-4.343514995414717106e+01
9.394343135112139009e+01
2.410619793796337035e+03
2.717602213657135508e+03
3.251918105474793720e+03
2.527661565888196037e+03
-3.121964698369372968e+02
1.533309888637319091e+03
-7.478881082579099484e+02
4.321917692533028799e+02
5.366151776352368188e+02
2.014016063679939919e+02
-3.134460488635776869e+02
-1.309863342672532838e+02
2.268203522519248736e+02
3.239976611451548933e+02
1.405923857251620177e+02
1.746310394543233713e+02
3.591571961338307233e+02
9.971984871719099601e+02
1.538759231181787982e+03
2.511854044858846464e+03
3.610488284754671895e+03
4.079686312794527112e+03
4.409468300209086010e+03
4.533809786182599055e+03
4.254712951052832977e+03
3.066058176834699225e+03
1.714960018682223335e+03
4.134733388361323705e+02
-8.633402369881401910e+02
-1.420723214896951276e+03
-1.982754446795578133e+03
-3.170180108508183366e+03
-4.085918597898049484e+03
-4.578995898569223755e+03
-4.364468987117162214e+03
-4.540305520360918308e+03
-5.330419830304816969e+03
-3.052856052963032653e+03
-6.690351665793852654e+00
7.459156886054059896e+02
-3.156922576772327034e+02
-8.204151648915733404e+02
1.316242315480431671e+03
3.339064887688068666e+03
3.612205746706991704e+03
2.918877482589934971e+03
2.305322693542715569e+03
1.618113790568732838e+03
6.609892835118893117e+02
2.168326807353183483e+02
8.926229509755693243e+02
6.726132897467346083e+02
-3.155941720165852189e+02
2.124475107531082472e+02
1.824171953040851122e+03
2.790805287948039222e+03
2.793580403775688410e+03
3.060422289601891407e+03
4.242041331400788295e+03
4.222809320195514374e+03
2.922610568573707496e+03
1.379342409714481391e+03
-4.212332341850056849e+01
-1.539848379033272749e+03
-2.333891938126285368e+03
-2.799361524998128061e+03
-3.397332998882299307e+03
-3.646832587473741569e+03
-3.565879566617453293e+03
-2.055535538334496323e+03
4.281532343156353022e+02
2.394168968291269721e+03
3.406512359292639758e+03
3.729159659935825402e+03
4.037964984643233493e+03
4.145902883182746336e+03
5.247068213370129342e+03
5.877465662873152723e+03
6.105120030398416020e+03
6.341056683589936256e+03
6.310177146847125186e+03
5.879443708968566170e+03
5.288963448507511202e+03
4.732693787215962402e+03
3.770584650837266054e+03
2.860601544714815191e+03
2.148671786314504516e+03
1.268664948539890929e+03
-9.834535905435099039e+02
-4.064717184778072806e+03
-7.022203648016447914e+03
-2.985822811048591120e+03
-1.365537476498758679e+03
-6.444345774132229053e+03
-1.039324565075842656e+04
-1.075824778523657551e+04
-1.029432538395332267e+04
-9.757358068393850772e+03
-1.002422801923868064e+04
-1.001698127122645928e+04
-7.371550252933380762e+03
-2.857981772617965362e+03
-3.194358882096124034e+03
-6.076736716540547604e+03
-8.453166720403567524e+03
-6.489667263135224857e+03
-6.256166627526894445e+03
-6.104705199829520097e+03
-4.154305988738095948e+03
1.775018140462036854e+03
4.028321858887652070e+03
3.678600509750196579e+03
3.647850982035487050e+03
3.677164639031619117e+03
3.817609559215582976e+03
4.135179294950687108e+03
3.253905833514399546e+03
2.501871012197993423e+03
2.353020931423374805e+03
1.055420155282233736e+03
-4.848468577274281301e+02
-2.300751363301634683e+03
-4.816249785651253660e+03
-6.149280737654004042e+03
-5.557871495799740842e+03
-5.400031465143687456e+03
-6.037696950931593165e+03
-7.329893696652151448e+03
-8.619671680527919307e+03
-8.079017164805485663e+03
-4.020898863457985954e+03
1.057735643915230185e+03
5.905936990453940780e+03
8.805757007513038843e+03
1.030127111348381550e+04
1.075350873487370154e+04
9.366533106661854617e+03
7.304435654996224002e+03
6.752256496788321783e+03
6.454044522284228151e+03
5.808936660155696700e+03
5.502957678659538033e+03
5.572197191255741018e+03
5.193673540140670411e+03
4.411331772488587376e+03
3.248221849540592302e+03
2.084412250277872317e+03
4.886516660410761403e+01
-1.473395062333851683e+03
-2.409391693014606972e+03
-3.256074681893580419e+03
-3.203358149204135316e+03
-3.434210867162461000e+03
-3.912523501360766204e+03
-4.047302534477849349e+03
-2.971490462724987992e+03
-1.400330535912705159e+02
3.142486833032960931e+03
5.038131183235064782e+03
5.604879397440545290e+03
5.247480419184817038e+03
4.142046872083084963e+03
2.790874111596510829e+03
1.977716345870098849e+03
8.935589361595912123e+02
7.975304784246834515e+02
2.785186884521496040e+02
-1.529466345997923781e+03
-3.783420887584306456e+03
-4.358351100632634370e+03
-2.835227478530074222e+03
-1.948027902077539238e+03
-2.022683333592871804e+03
-1.601232398210918291e+03
-1.178641993905072468e+03
-9.478394846740729918e+02
-5.957720158898135878e+02
2.525758534759642657e+02
8.632724092877043631e+02
1.445320195746418904e+03
1.500741125544226634e+03
1.349654521971199301e+03
1.330100653236752805e+03
1.160105805908598086e+03
6.796696981337868237e+02
-4.629501983111603636e+01
-6.498427458381138422e+02
-1.650906280167713248e+03
-2.464509307886102306e+03
-3.392601018892264165e+03
-3.529174887274917182e+03
-2.878235634340930574e+03
-2.706820568265444763e+03
-2.215055097942400607e+03
-1.673979591383169009e+03
-1.880621510200007833e+03
-7.319666057636038659e+02
8.800788575002746938e+02
1.748481634478307797e+03
2.054305932937575108e+03
1.953693354621254002e+03
1.767661509606869458e+03
1.742070292646717007e+03
1.187887837486383660e+03
7.280652906849981036e+02
2.965607852548286019e+02
-2.747124164309545904e+02
-7.339061902076666684e+02
-1.129032154178567453e+03
-1.731992333321135675e+03
-2.402749464270924364e+03
-2.159430305746002432e+03
-1.992077361444871713e+03
-1.700693403672049953e+03
-1.298359109254247642e+03
-3.080952847970906987e+02
2.461126459088993954e+02
3.813669851148890189e+02
6.356864995756473036e+02
1.380118022676028886e+03
2.093655383142350729e+03
2.040218137510113365e+03
2.648753183461222761e+03
1.838206192865405228e+03
1.672456843302108837e+03
1.281542648051448623e+03
3.362857615331493548e+02
-3.474905495361025487e+02
-8.438165749488039182e+02
-1.666978513336645165e+03
-1.440448339481524499e+03
-1.057698218555376343e+03
-6.811281838148031511e+02
-7.354876114994251566e+02
-1.972689696946987397e+02
7.288383873698480784e+02
9.554464662478031869e+02
1.734139330760775465e+03
2.519244826749581534e+03
2.959256649964501776e+03
3.302364246819663549e+03
3.358755471606375067e+03
2.989114665363724725e+03
2.616616857485656965e+03
2.281637891700142063e+03
1.565401433691682541e+03
6.711214686948093231e+02
-1.513817436049285448e+02
-5.249481600953419047e+02
-6.660875777178544013e+02
-7.238228881048852372e+02
-7.720080091949733969e+02
-2.568089135397175937e+02
-2.551969119102864170e+02
-3.340282986409160344e+02
3.515054761582519518e+02
1.002358820889902404e+03
1.435161465750954676e+03
1.480136069748481987e+03
2.143319765876785368e+03
2.495024329434323136e+03
2.794102393540749745e+03
2.360302036488425074e+03
1.718764606776486289e+03
1.348367728305640185e+03
1.007826769223813926e+03
8.413675346193203950e+02
1.728887326753710738e+02
-4.935127128880217811e+02
-1.227038592371794493e+03
-1.498727175939913877e+03
-1.268609053696525507e+03
-6.967347686251616778e+02
-4.508469468546940817e+01
7.583071565631582871e+02
1.492445946138617956e+03
1.927252443065184252e+03
2.070724414264818733e+03
2.758906492410601913e+03
3.190776186774300641e+03
3.821320334716276648e+03
3.942584879205355719e+03
3.888660580344625942e+03
3.314542597089587161e+03
1.555298285543119391e+03
-1.803107416999295992e+03
-6.025743759051189045e+03
-7.203634239474573405e+03
-8.197721155638550044e+03
-8.711007801492141880e+03
-8.660547885060746921e+03
-8.367346131604343100e+03
-7.577459286778241221e+03
-7.544788830323702314e+03
-7.609206876003477191e+03
-5.940006582539895135e+03
5.991748031520284457e+01
2.831864582134639477e+03
-4.571762666735527887e+02
-3.548488968430065142e+03
-3.703109718666129083e+03
-3.254922280619045978e+03
-7.588192749842492049e+02
-1.532793132870446243e+03
-4.605841791538320649e+03
-4.425934732534903560e+03
-4.225014934753085981e+03
-3.363181283022211574e+03
9.636409411338358950e+02
1.378501117885784879e+03
-4.200649719926213038e+03
-7.290870142423946163e+03
-7.094066429855415663e+03
-6.762095202971605431e+03
-5.761980547090184700e+03
-1.322766680091403032e+03
1.180702235936104444e+03
3.404576660257921048e+03
4.588962948041619711e+03
5.326872832572276820e+03
5.836363087137399816e+03
5.907428810936141417e+03
5.610065675018670845e+03
5.287342059200420408e+03
4.673268182237071414e+03
3.703906096138846806e+03
2.704152245804989889e+03
1.997906325078429745e+03
1.200208860384761238e+03
9.020889395491634559e+02
5.415703221999851849e+02
5.567262543986643095e+02
9.695970663279144901e+02
9.821571321135278367e+02
1.399452708455625270e+03
2.193596317805732724e+03
2.567600217984650499e+03
2.858594486895088721e+03
3.539612633128740981e+03
3.936673115163501734e+03
4.238875761410728046e+03
4.449342303877109771e+03
4.594031197137413074e+03
3.995965021195646841e+03
2.864259152364085821e+03
1.970063143258671744e+03
9.014967297351817024e+02
1.176454011551255547e+02
-8.550891116923863819e+02
-1.351576371265223088e+03
-1.601183064612944236e+03
-2.389822373690574750e+03
-3.210744117913498485e+03
-3.101109272819692251e+03
-2.037993862618372987e+03
-1.079053419343812720e+03
3.719644402872870046e+02
1.872078910944489735e+03
3.255913202981472750e+03
3.851486443112551569e+03
3.663812740699482219e+03
3.469290291871329373e+03
3.372693811520331110e+03
3.102112302860731234e+03
2.643615180468616472e+03
1.470924290835891043e+03
3.518143466060121796e+02
-7.594571787438417232e+02
-1.621131889513426358e+03
-2.050258295258487124e+03
-1.611296319629571371e+03
-1.281492122193757950e+03
-1.242952287580304755e+03
-9.405828885962851018e+02
-6.853383213662963271e+02
-3.892626882209265204e+02
3.107162200085219297e+02
7.386775819802185197e+02
1.216730938310908869e+03
1.937991647667291545e+03
2.443393084894254116e+03
2.589698865320354344e+03
2.621932078551110862e+03
2.512273424003951277e+03
2.071789021144087201e+03
1.270422049149682834e+03
5.969176518925867185e+02
-1.590517403386616877e+02
-8.356727622288177599e+02
-1.574030307052411217e+03
-1.638010763374010367e+03
-1.989620970025497627e+03
-2.223850541493066430e+03
-1.900535155619968918e+03
-1.619534034679397791e+03
-1.584908214369769439e+03
-8.966729325010828688e+02
-2.796954900714843006e+02
2.789082226401083631e+02
7.511182869409994964e+02
1.339077087255096103e+03
1.557772549279761279e+03
1.669231162372558629e+03
1.509476671483192604e+03
1.245470542725141286e+03
6.401004090248574130e+02
3.392741442122487183e-01
-5.647779835636447388e+02
-1.628468788645807081e+03
-1.984743899182455380e+03
-3.404570781654565963e+03
-5.484977069266561557e+03
-8.978045983802072442e+03
-9.579937366105623369e+03
-8.836819023647425638e+03
-8.056682965894111476e+03
-7.423394770074399275e+03
-3.766884060277015124e+03
4.328714982121146591e+02
1.209940283547579384e+03
1.140216137886116258e+03
2.046589657829460293e+03
2.189300350496116607e+03
2.162351415984639971e+03
1.965744907422564438e+03
1.568516598226292444e+03
8.105460749440767358e+02
-1.424817807264862495e+02
-4.285481764912107678e+02
-9.756334326436078754e+02
-1.162837934617327619e+03
-1.127189906540401807e+03
-9.986780181107606040e+02
-1.013312866190795148e+03
-7.321324266927082363e+02
-1.951864020302564029e+02
2.215184085336862836e+02
8.430456252822162924e+02
1.389425875697078027e+03
1.873602580558438603e+03
2.560603163581971330e+03
2.765465183138889643e+03
2.589129702570267909e+03
2.563594717691728420e+03
2.324859108226328772e+03
1.971893372531287923e+03
1.432681865019836778e+03
6.661544141179742837e+02
1.852047894037808646e+02
-3.011270746561914393e+02
-7.608669993892409593e+02
-1.029119678288685236e+03
-1.017827600930830499e+03
-6.790574842914461442e+02
-6.988681468908509942e+02
-4.312288958869884254e+02
2.318788022959444106e+02
5.225127367263251017e+02
4.197437168772074187e+02
9.245166518772352902e+02
1.392840748256616280e+03
1.681746712556204329e+03
1.788280058242822179e+03
1.160382592132527179e+03
7.740169915625068597e+02
1.146214865406109539e+03
1.786022779768272358e+03
1.420376482433841147e+03
8.741474282620990834e+02
5.293326948088180188e+02
1.349937561431244148e+02
-2.798472122066902443e+02
-7.913063454079411940e+02
-7.153393835267039549e+02
-1.091922614720104093e+03
-4.731009090945476032e+02
3.641449208823581785e+02
7.848066293385995777e+02
1.489975588716235961e+03
2.371635104546542607e+03
2.686905403149513404e+03
3.268732981531854875e+03
3.009149169087679184e+03
2.550187973720816444e+03
1.678807725156357947e+03
-2.843898865671228577e+03
-2.070910565818718169e+03
-2.673314066435971654e+03
-4.718125175488606146e+03
-5.491273091866341929e+03
-2.182771166428768538e+03
-3.180752326541059119e+03
-2.081280225492008867e+03
-3.431226925527139429e+03
-8.416128831137913267e+02
-1.436439646032923292e+03
-4.230690337623139385e+03
-2.323251433015526572e+02
1.565733068496478836e+03
2.109487560770121945e+03
5.479823194731764033e+02
1.468215451883774449e+03
3.516230638426858150e+03
8.760905206289937723e+02
1.529857017116577936e+03
1.628534021796844172e+03
-8.018807275309542320e+02
-2.221471700886759663e+03
-3.068249735016484010e+03
-4.982737433232919670e+02
-2.534976090719316915e+02
-6.668739603070146131e+02
-8.844701130014847195e+02
-3.237262798131169347e+03
-4.431207635321106864e+03
-4.586270598919019903e+03
-1.198466415139166884e+03
-1.483686736213252971e+03
1.230818893430867575e+02
-5.210400531943240310e+01
2.178790267255287290e+03
2.687659959769422358e+02
9.978460751219711256e+02
5.130407275165864576e+02
2.458377462484477746e+03
2.669856914710220735e+03
2.509516069042445906e+03
1.850239916605175267e+03
7.839936014330256739e+02
1.777846585959439949e+02
-2.094332239678750227e+02
-3.376630259503862135e+02
-7.468566303150373642e+02
-6.800186036329317858e+02
-2.731266340710317309e+02
6.843227654572253904e+00
1.089501834935382760e+02
5.131937106573666370e+02
1.177569821811136990e+03
1.454143611673208170e+03
2.515999094345632329e+03
3.064304832733298554e+03
3.344121440953765614e+03
3.213534676895168104e+03
2.923365888431816529e+03
2.486699891027327794e+03
1.374574637294141667e+03
5.839248963494604823e+02
-1.804340992331244024e+03
-4.422370697713514346e+03
-2.319138244289444629e+03
-2.386675119865398756e+03
-3.178400369775345098e+03
-2.144262874051975359e+03
-7.908820783631920222e+02
-1.821636459328934734e+02
3.111370787482775313e+02
7.146751565556105561e+02
1.340383750362726460e+03
1.838359699459383364e+03
1.904871750479981756e+03
1.541960487998826011e+03
1.940252052289071116e+03
1.959043399238729990e+03
1.749100173020397960e+03
7.420747666139465082e+02
-3.089285987315301796e+01
-7.653425038172440509e+02
-1.147396022840664500e+03
-9.692864029771844798e+02
-1.247006789540952468e+03
-1.503637764325196940e+03
-1.268604439175940115e+03
-9.499397713840018014e+02
-2.075286486104776600e+02
9.795150444093376052e+01
2.883613353330993618e+02
4.166989201691150129e+02
2.009747988542665667e+02
1.122348251639476331e+02
-8.548301754105666816e+01
4.248284607136505429e+02
9.382527984151880673e+02
1.334783893748231549e+03
2.000392217832185679e+03
2.107103202758256430e+03
1.448794787543222810e+03
1.188365891632119201e+03
7.047837007175128292e+02
4.430624504902093008e+02
-8.077541339159046174e+01
-2.683432901723909225e+01
-2.931453976963557579e+02
4.133791770315206691e+02
7.106938018858629675e+02
4.517784310902744096e+02
8.867257984621192008e+02
2.002643642186174020e+03
2.081459504450537679e+03
1.980145497613805901e+03
2.616773846410753322e+03
3.122394335602905812e+03
3.336993902326068564e+03
3.692589675629565136e+03
3.127120414927032016e+03
2.000613129288317850e+03
1.266064562456973135e+03
1.154447644994107122e+03
4.537371214863645719e+02
-2.187055439894144001e+03
-6.843905024004006918e+03
-9.041007027857924186e+03
-8.231404047729651211e+03
-3.764074279425340592e+03
-5.670087915233838203e+02
-1.345246663231082493e+03
-5.848707343977381242e+03
-6.304265194357540167e+03
-5.537881566540162567e+03
-5.101628698756810081e+03
-3.744520439705117496e+03
-3.886445139928180652e+03
-1.806327859405345180e+03
1.545773698111752765e+03
-5.481429132428463618e+02
-3.866053556250441488e+03
-2.990048482525402278e+02
7.138927792834729189e+02
6.066193215862217585e+02
2.822068432521931527e+02
3.436066375610677142e+02
2.567802679143783280e+02
-3.843049462482381955e+02
-7.926849408055903723e+02
-5.382741931120261825e+02
6.392697536524290314e+01
7.049453585579924493e+02
2.398333471453322829e+02
-3.003518622555230877e+02
8.063594060466256224e+02
2.333987080188462642e+03
3.283620004273535415e+03
2.960264565653337741e+03
2.663904744059675522e+03
2.285543150993019026e+03
1.954191156564637822e+03
2.283857146838987774e+03
1.790517710090062110e+03
5.121947063751581481e+02
-8.701509376999101733e+02
-1.771569554460896825e+03
-2.376068948956027725e+03
-3.082622695733735327e+03
-2.427336616089764902e+03
-2.874167213532118240e+03
-3.176057881538378751e+03
-1.833002800040660759e+03
-6.909902521631742047e+02
6.930825502108219780e+02
2.762204793508613875e+03
3.699424809650406587e+03
3.637676703716364045e+03
3.811043156082760561e+03
4.756564106759854440e+03
4.071250955198765951e+03
3.055146793167983560e+03
2.209234603866322232e+03
1.390562707846373996e+03
1.018044848925583665e+03
1.163778450322794470e+03
6.806436854293768874e+02
-3.051920447911581959e+02
-4.417242574169728755e+02
-3.029936360295919258e+02
-5.661398976683691444e+02
-2.358820652655559797e+02
-7.593704559065707826e+02
-3.334744562769057666e+03
-1.860979774517000578e+03
-1.361204640276253031e+02
6.589038467734542337e+02
1.469097422313635661e+03
2.643519038438364078e+03
2.476178266388262728e+03
2.569047557907514147e+03
2.385089562703013598e+03
1.662339975968719273e+03
7.987799622445448904e+02
7.135318992459386322e+01
-4.670147259208476953e+02
-6.512859496922249036e+02
-1.368458774134752957e+03
-1.961610040759696403e+03
-2.022723786716744598e+03
-1.629753834101860093e+03
