2.468006345067589791e+03
-3.882876160997337252e+02
1.786738185804280761e+02
2.609851808572291247e+03
1.878251021979637244e+03
-5.031164488535870305e+02
-1.644258276554204713e+03
-2.440223550122176675e+03
-6.492024544045671064e+03
-4.649573771282999587e+03
-4.176863176944517363e+03
-4.101958265373955328e+03
-1.978821881052194385e+03
-3.417492011074564289e+03
-3.143986697034611552e+03
-9.892624375242047563e+02
-3.129011770883116839e+01
9.879265644761306930e+02
1.548455655228534624e+03
1.927378744895945147e+03
2.514723478102002900e+03
2.155542452680630504e+03
9.858137024327156723e+02
4.115959555756217583e+02
4.618716735931947142e+02
1.963825745614577656e+01
-7.742177149129612417e+02
-1.431729823710237724e+03
-1.530924275346478225e+03
-9.747294435782071105e+02
-1.278153778713414113e+03
-1.741285488294763354e+03
-1.760207580379459159e+03
-1.220916080505127184e+03
-4.434902911216583732e+01
1.001721218739770961e+03
1.596397299338688072e+03
2.079832710422921537e+03
2.120132881031558554e+03
2.210245315022680188e+03
2.630130556947871355e+03
3.231750620252797034e+03
3.169105973522518980e+03
2.629217892208898320e+03
1.865896312562234243e+03
7.568352823742019382e+02
3.384995736207673644e+02
-1.736466511306772986e+02
-5.704116622433001567e+02
-4.218811275467571136e+02
1.502801211401741739e+02
2.317519411469662032e+02
6.268689407220366405e+01
1.230628839952661195e+02
5.825833170280374134e+02
9.632450843564142815e+02
1.025244258202865240e+03
7.977795048404935869e+02
1.226045411254820010e+03
1.203990631434100123e+03
1.089473853051268634e+03
1.453437320132791911e+03
1.893816031250579044e+03
2.246337804957975095e+03
2.452119968523208627e+03
1.751202628930536093e+03
9.623563302936635182e+02
5.065215269752207519e+02
2.726330730512827927e+02
-3.723109981694014436e+02
-5.573000247955160376e+02
-5.914069146183110206e+02
-1.054685718883232767e+03
-1.627193545143663641e+03
-9.239019658198061506e+02
-3.368225552983864759e+02
4.899954647845466980e+02
1.245640680367025197e+03
1.799084435468279935e+03
2.459284350159136920e+03
2.797290067942258702e+03
2.531132251410835124e+03
2.132782461762006278e+03
2.057241737670144630e+03
2.104465770392292143e+03
2.322530228954499762e+03
1.904387704645392660e+03
2.590130334219500696e+02
-8.596129081451670118e+02
-8.875776843010571611e+02
-8.659830874209034164e+02
-4.709384843494750612e+02
-4.404890242984783413e+02
-2.596961924675673572e+02
5.753386621170695037e+01
5.642021830344989439e+02
1.487320613986939861e+03
1.869933398453180871e+03
2.349959993109181653e+02
-2.273497099139567126e+03
-3.864478661926747918e+03
-3.921859723053012658e+03
-4.633675760635086590e+03
-4.293929137283576893e+03
-3.620645879781644453e+03
1.391141140335485602e+02
7.813191285910784245e+02
-1.949088707525810150e+03
-6.365069516559527074e+03
-8.181526989947730726e+03
-9.110523109735269827e+03
-7.672210274997210945e+03
-6.760603953938271843e+03
-6.635660420905498540e+03
-6.132398097148933630e+03
-1.886843619046007234e+03
1.779068153191083866e+03
2.763440814711409075e+03
2.655258900011714559e+03
2.465482632052543977e+03
2.934131635645652295e+03
3.544247399183959715e+03
3.581832141795331609e+03
3.283926544839489452e+03
3.263540179446736147e+03
2.898681134817824841e+03
1.806312949127741376e+03
9.424801415985560880e+02
3.181467753452835154e+02
-2.673571097503319649e+01
-3.271970141882053440e+02
-6.272116119902372020e+02
-4.997188328053925375e+02
1.452873055948051046e+02
1.218067285550628753e+02
8.987742212083608706e+01
-2.851395926499876765e+01
4.646944047563633831e+02
8.025333773371695543e+02
1.709059511662123214e+03
2.422280825154395188e+03
2.370248112712236434e+03
1.962951815727118174e+03
1.993488539977018036e+03
2.101954807732210611e+03
1.822325111134434792e+03
1.219682636774733737e+03
5.089880638001224042e+02
-2.508759497564740286e+02
-4.619240270685664882e+02
-9.971417887942977814e+02
-1.526504586672247569e+03
-1.662042904301398266e+03
-1.431772930579691547e+03
-5.026606844377716357e+02
-1.736129380429868263e+02
1.783599276758267820e+02
7.903019779534033660e+02
1.271247467945637254e+03
1.755227565291941801e+03
1.738390069356425784e+03
1.738797563085334559e+03
1.744489785112909203e+03
1.709644951185171749e+03
1.184370932187961671e+03
4.597097423098687159e+02
-3.814585647796540115e+02
-1.209159507340151094e+03
-9.562807420819719937e+02
-1.024056581105959140e+03
-1.505600047097294691e+03
-1.882874882848719835e+03
-2.249866956357339859e+03
-4.062389576869622033e+03
-3.477421142889610110e+03
-1.930996964087969673e+03
-1.402065856045148621e+03
-1.185665061917289222e+03
1.971550234712219094e+02
5.104629736605521657e+02
6.091588431102024970e+02
1.213370000411039882e+03
1.864191607053133339e+03
2.280642404265614005e+03
2.013803609816294511e+03
1.451676698449159176e+03
4.912778081443388487e+02
-2.294668793154368984e+02
-6.036477459537403547e+02
-1.021266308945953256e+03
-1.384302991811226320e+03
-1.795825883024795075e+03
-2.442860622814712769e+03
-2.710359174397035076e+03
-3.069309464554220995e+03
-2.626662068426830501e+03
-1.633260062745167716e+03
-9.240763835406538647e+02
6.118904286412064266e+02
1.704759138148520606e+03
1.983507880389249294e+03
1.995098741519815576e+03
1.943397299199526969e+03
1.925447777972128961e+03
1.845338288213214810e+03
1.573008926448773764e+03
5.114024743644570776e+02
-6.244642444056322574e+02
-1.689557832559735743e+03
-2.298867210278877337e+03
-2.929524598255749879e+03
-3.229629332967433129e+03
-3.007274587206757587e+03
-2.574592900804852889e+03
-1.767627186047398482e+03
-1.331385334529562670e+03
-1.112812781805285795e+03
-4.087725443007707327e+02
1.133723786821364229e+03
2.456714289162016030e+03
2.536276520821181293e+03
2.740346180590570384e+03
3.030873403576867986e+03
3.103847590749767278e+03
2.375315999110287066e+03
1.314339651144794971e+03
6.847531511381894234e+02
1.033519326964188622e+03
1.370577019053176627e+03
6.148264676408489322e+02
-3.236487613540446091e+02
-6.337540052718710513e+02
-5.535110221920178901e+02
-4.438532675019960720e+02
-4.537310840805739645e+02
-2.131805811772825905e+02
-3.421164882281374986e+01
1.981107843313358501e+02
1.217005747921619331e+03
2.117272902659150077e+03
2.603693850378860134e+03
2.761391201521665153e+03
2.713458457278156857e+03
2.354652131830922372e+03
2.541915527185917654e+03
2.472990754453952832e+03
1.746190882723646610e+03
8.113132021209756886e+02
-1.945039116245959292e+02
-8.964160245172972736e+02
-8.775993783751860065e+02
-1.101780650902718207e+03
-1.606024266932289265e+03
-2.161844592135084895e+03
-2.055391056575573657e+03
-1.680090405133182003e+03
-7.610176520857788773e+02
6.813428023534460181e+02
1.707544841380366051e+03
1.842402081685976555e+03
2.322706105989269417e+03
2.965712889615654603e+03
3.147715384385161542e+03
2.393607463102344354e+03
1.487421483088987998e+03
1.660456745718786806e+03
2.317122655917397879e+03
1.994386876639181537e+03
1.441088027996837127e+03
8.361605480635101912e+02
3.920777467242002103e+02
3.407897861078320716e+02
1.468523677995069363e+02
-4.068938832223726081e+02
-5.867199046197436019e+02
-1.375756240274395168e+02
6.139473295558257604e+01
9.000779458301822160e+02
1.546635946568668714e+03
2.282188421103614019e+03
2.919686624928016954e+03
4.053080481036227866e+03
4.197377486689943908e+03
3.649627644137876814e+03
2.905818852762279676e+03
2.412809578561858871e+03
2.547552953251329200e+03
1.781208357425012537e+03
-8.222125533670920277e+02
-4.048642101641531099e+03
-6.728124067745683533e+03
-6.929644624034725894e+03
-6.609911348149486912e+03
-6.308809310236632882e+03
-6.124464830448722751e+03
-5.847975581476959633e+03
-5.257441922229281772e+03
-4.649053782415529895e+03
-4.315112557705666404e+03
-3.583601929593586647e+03
-3.181395139075880252e+03
-2.997365476106481765e+03
-1.094799933115761803e+02
4.310185322211603307e+03
1.458569409190711667e+03
-1.436322235369435248e+03
-5.714832281956097404e+02
-3.700006348787847855e+03
-4.590996768116530802e+03
-5.509373386418225891e+03
-5.604093532210466037e+03
-6.007217681706313670e+03
-6.377777324551256243e+03
-6.195672813629777920e+03
-5.758681196356802502e+03
-4.924528750212836712e+03
-3.971236333411844498e+03
-3.688901446641110851e+03
-3.336199692911794500e+03
-3.181705493224975726e+03
8.625024633397799789e+02
4.284037245730692121e+03
4.767910805632172014e+03
4.623350411431535576e+03
4.974172128197745224e+03
4.855320013459509937e+03
4.072799546146844477e+03
2.982346015204252126e+03
2.224777987495635443e+03
1.543175304109076706e+03
1.307688717008757521e+03
9.794259381605771750e+02
2.005321737963506905e+02
2.340329865124723767e+02
3.636757521720098794e+02
4.344184303733499632e+02
8.823827021618216122e+02
1.297614083674284302e+03
1.328249873762434618e+03
1.150487763435039142e+03
8.494385121911881242e+02
1.435215768220057271e+03
2.097867802280718024e+03
2.883438264747534049e+03
4.227340305017382889e+03
5.105098822042989923e+03
5.265818855689952215e+03
4.542069988455849852e+03
3.264363930709614579e+03
1.670506541216908772e+03
9.734249430346289955e+02
6.024304903573762431e+02
3.277135006871654923e+02
6.383464842978728484e+02
2.754125290745341204e+02
-3.751515975707125676e+02
6.969405538884004159e+01
9.801135037093318942e+02
1.494119678478911737e+03
1.773111359155114087e+03
2.445046749557590374e+03
2.987591882313266979e+03
3.066505485943116128e+03
2.220104631808382692e+03
1.296876806242380326e+03
1.671842020437183692e+03
1.583354577407272018e+03
1.004204097709076450e+03
6.115162645041888254e+02
-4.637120999796616871e+01
-7.560514652652591394e+02
-1.524775989615094886e+03
-2.058123817423781020e+03
-1.434866742662656179e+03
-1.016775409519175128e+03
-7.548979608080438766e+02
-7.612527321922060537e+02
-6.025316152311298765e+02
-3.499137490844076979e+02
3.736080550146700148e+02
9.121296822155629798e+02
1.441645277119909679e+03
1.657175910507340859e+03
1.950758839502619594e+03
1.836463881330187860e+03
1.071290407597677131e+03
3.582177478540114066e+02
-2.697149911441785548e+02
-1.189490105468418960e+03
-1.735115423325538131e+03
-2.419682629803276541e+03
-2.329140340627700880e+03
-2.573467109834049552e+03
-2.341656904140234019e+03
-2.469719669776727187e+03
-2.384594779165880482e+03
-2.323298366509151947e+03
-2.053852295146837605e+03
-2.218183992990405841e+03
-2.410288903176998701e+03
-1.550221449737078729e+03
-6.109385710575498933e+02
1.348691159317581423e+03
2.600780137581920826e+03
2.058413914052297969e+03
1.327636725766011295e+03
6.293917817395024485e+02
1.873735409436808652e+01
-9.242460267168964947e+02
-1.713662842210278768e+03
-1.750769040917702796e+03
-1.331827953236033409e+03
-1.249878329759794042e+03
-1.287981152665566924e+03
-1.660101872650986934e+03
-2.271197190221384062e+03
-1.854234419779003701e+03
-1.683211445847740379e+03
-2.888106847723617648e+03
-4.426863320619408114e+03
-6.280506233061587409e+03
-5.687971962174668079e+03
-6.367249982732048920e+03
-5.281365466993600421e+03
-2.273464902166842023e+02
9.747069888437714553e+02
1.381058611680688131e+01
-1.190059207907629570e+03
-3.085073389058833982e+03
-3.030289469858963912e+03
-1.827542560105325492e+03
-1.190060536523094925e+03
6.901852017196073064e+01
1.189719461221796792e+03
1.691040626226876384e+03
1.725863874357363784e+03
1.498241245318268284e+03
1.600202837933931278e+03
2.449673562472407866e+03
2.755590599882822062e+03
3.553951043456383104e+03
4.238773423525424732e+03
4.777068302081701404e+03
4.614836443243598296e+03
3.875014483594277408e+03
3.291553980380931080e+03
2.681370554453993009e+03
1.667422844739908669e+03
5.407040781170993569e+02
-6.568107128659917180e+02
-1.645180490699173788e+03
-2.211472828932355696e+03
-2.472785997595667595e+03
-3.533197577256937166e+03
-3.616707713282356963e+03
-1.632410901404119386e+03
-2.643211095185848762e+02
9.166275313315350104e+02
1.610412655663091527e+03
2.462997346901509445e+03
3.637361398202167038e+03
3.971480188460489899e+03
3.684340318563348319e+03
3.532996781390157594e+03
3.785444503076588717e+03
4.608657972163614431e+03
4.812551547901389313e+03
4.477076381697964280e+03
3.898170746444061024e+03
3.236715490071352178e+03
2.265688703376258673e+03
1.649025945822083258e+03
1.812676146270476465e+03
1.850676145716904330e+03
1.237952488148854627e+03
1.351366848533164784e+03
1.997907905480847376e+03
1.952674623994889771e+03
1.804644146119967445e+03
1.825761972054893477e+03
1.664067064553348018e+03
1.785674460942795122e+03
1.201556842036641683e+03
5.376132084034607033e+02
-6.792122821539331881e+02
-2.796997406833122113e+03
-4.819730265966855768e+03
-6.276386575390752114e+03
-7.673046932583406488e+03
-8.172736006717208511e+03
-7.386436988378079150e+03
-6.053232846263981628e+03
-3.988200871689643463e+03
-2.986294145771013518e+03
-3.470538626129058230e+03
-3.036999918154524039e+03
-1.674654151376274967e+03
1.488608585818094753e+03
3.129855207755603715e+03
3.430985244666848303e+03
2.786964807492989621e+03
1.873751995412866791e+03
1.551368025814870634e+03
8.208666344531578716e+02
1.647247726741980841e+03
1.953550580346042125e+03
1.874728225770445761e+03
5.075730808656513545e+03
5.394582379029838194e+03
9.892589038297207935e+02
-3.829308500187663867e+03
-3.007136932640310988e+03
-1.878221970162768457e+03
-5.519575698018029470e+03
-7.248296731226580960e+03
-8.303371034234116451e+03
-9.810747480966954754e+03
-1.104239890605729670e+04
-1.036129130051289940e+04
-9.813392048173674993e+03
-8.159649937881207734e+03
-5.675006734279927514e+03
-4.311484785314948567e+03
-3.813163283169034912e+03
-5.511997560559805606e+03
-5.603956719617216550e+03
-2.320047152022640603e+03
3.436735031936277664e+03
7.349349374627069665e+03
9.646790499881180949e+03
9.457078332453689654e+03
1.010317711230755413e+04
9.165052851189560897e+03
7.047779989219133313e+03
5.994317190907589975e+03
5.570704249346948018e+03
5.048920185915441834e+03
4.584984584886324228e+03
3.764887432674468982e+03
3.126731629003463240e+03
2.320585142194951004e+03
-4.951905584124806126e+01
-2.792540866155447475e+03
-4.780608757376861831e+03
-7.352676081106338643e+03
-9.146587700129990480e+03
-1.132202288106504238e+04
-1.290188787422884525e+04
-1.041232764922210299e+04
-5.704360754686391374e+03
-1.353997098510442356e+03
2.505748931395410636e+03
6.209895503042605924e+03
8.775480503725766539e+03
8.107497452131925456e+03
6.856020787263139027e+03
6.494108160003742341e+03
7.460789726742526000e+03
8.538077056283016645e+03
9.388943534790450940e+03
9.342967745640900830e+03
9.344469345747194893e+03
1.000131450749629403e+04
1.003337682653716547e+04
7.978235858165196078e+03
6.088801237328109892e+03
4.361076562315674892e+03
1.571012135518111336e+03
-2.723150652946171249e+03
-7.428437606529526420e+03
-1.095625258629227756e+04
-1.109089336506222935e+04
-1.243016814498807798e+04
-1.617286261794630082e+04
-1.611486013252914381e+04
-9.985150060672696782e+03
-3.567765948139781813e+03
-1.413980802472931828e+03
6.347011981698742744e+01
4.652656427580505806e+03
7.755440298775662086e+03
1.079177137045245945e+04
1.390867953866035896e+04
1.414922182849729143e+04
1.159746382856326454e+04
8.532407696768352253e+03
6.101082954432843508e+03
5.604478813407580674e+03
6.740580375061203085e+03
8.654435463470776085e+03
7.119002052885679404e+03
3.983254492434984058e+03
1.488209679771280889e+03
-1.865081288304774716e+03
-5.482560013073453774e+03
-8.152189883323921094e+03
-1.034592306248346176e+04
-1.205978333925550032e+04
-1.403479223111000829e+04
-1.743992056744623551e+04
-1.821714940512313478e+04
-1.198047747293343855e+04
-1.857857588221820379e+03
4.451675993900968933e+03
5.417217064290452072e+03
2.928895365448910979e+03
-1.728263489889398670e+03
-3.525320158888905098e+03
-3.290266001247591248e+03
-1.796087610036037404e+03
3.851698937746893989e+02
-7.824264831954692454e+02
-3.903790728027848672e+03
-5.661981291758615953e+03
-6.793075712700394433e+03
-3.766056796690140345e+03
2.171524467111476611e+02
5.355879555469057323e+02
1.147246019431470131e+03
3.255193693643470397e+03
8.581516959583690550e+03
1.241829326443280297e+04
9.585459110520374452e+03
3.067047893231392663e+03
-1.108853305565484106e+03
-2.171262324947245361e+03
1.351861773968704711e+03
2.409515953375313984e+03
-9.027623595434931758e+01
2.034814488551139959e+02
1.221722940212750018e+03
3.324374228201169785e+02
-1.614372892837637664e+03
8.413605152667325910e+02
1.365676682074290284e+03
1.256583568532377967e+03
1.782059353497712209e+03
2.342172384488534135e+03
2.636950830547707938e+03
2.238436396718031119e+03
2.462614286336620353e+03
2.560509160674584564e+03
2.341236897166938434e+03
2.388828074059467326e+03
2.440292912832999264e+03
2.692654585834015961e+03
2.225874590528698718e+03
1.559040496514403230e+03
8.531105746008342976e+02
-2.279315507215139291e+02
-1.144174895739736257e+03
-1.608557354282256711e+03
-1.716023203454419445e+03
-2.256579200024883903e+03
-2.761225640503696013e+03
-3.914893007657292401e+03
-5.854534468145793653e+03
-7.709164140195715845e+03
-8.724784483131372326e+03
-8.949511141179344122e+03
-8.336358732947497629e+03
-7.168160356208692065e+03
-5.973863849566333556e+03
-3.978426872437936254e+03
-2.348191081483555251e+02
3.606975019489329497e+03
5.462961014989664363e+03
5.193091274473244084e+03
4.004289954609871984e+03
1.917553294472307243e+03
3.868748703383421912e+02
-7.226840286107316160e+02
-1.304068259707223888e+03
-2.301375522800791259e+03
-3.025674662509316477e+03
-2.862846553992964800e+03
-2.811740556668467889e+03
-2.170031428080014848e+03
-1.291874603619362915e+03
-5.601450273196860508e+02
9.803634092953210200e+01
1.015274175073522201e+03
2.506092353955086310e+03
3.970451129853555813e+03
3.788141683608950643e+03
3.062291902349408701e+03
3.037778474216473569e+03
2.698420376993756690e+03
2.140221262498755550e+03
1.416111832800223283e+03
6.890337498582558737e+02
6.397409709224805852e+01
-4.740427269811634119e+02
-4.349638505305175613e+02
-3.238019978944668651e+02
-3.795846311166553164e+02
-1.172736653328726391e+02
2.240924163905640683e+02
8.575114541251771243e+02
1.516022585288927303e+03
1.983699728009779164e+03
2.649593346487170948e+03
2.648676952148633973e+03
2.535898504477436745e+03
2.676287290683263109e+03
2.623863979214560459e+03
2.551660337201241873e+03
1.828634250553863012e+03
9.347289174379311589e+02
2.989125701542939950e+01
-6.788327063897537528e+02
-1.182548953732782820e+03
-1.648479483658819618e+03
-1.515569415573103925e+03
-1.449858257009817635e+03
-1.506309892327484704e+03
-1.370972138431656504e+03
-1.168879112501553664e+03
-9.039907276098180091e+02
-3.802548154375608647e+02
2.903087558472974479e+02
1.025665995813920517e+03
1.486785964244938441e+03
1.655641957813619001e+03
1.705258580738154933e+03
1.094602117512030190e+03
8.036849449673410390e+02
5.635460192195332638e+02
-2.869750914291896038e+02
-5.620093169917877276e+02
-8.845170759462117758e+02
-1.640500787072363664e+03
-2.231044930894259323e+03
-2.398202128105295742e+03
-2.426949555166057962e+03
-2.768261689532722357e+03
-2.516137464742396332e+03
-1.197617175098082726e+03
-2.256645549890698135e+02
1.027632333792923021e+02
1.104647289136236850e+03
1.660928066909383915e+03
1.542645397602879484e+03
1.575848982162123093e+03
1.249495406215973162e+03
1.153597915051052951e+03
1.609081847686992660e+03
1.108772603178150121e+03
-1.244734947743291968e+02
-8.259259385923754735e+02
-1.802335866783894744e+03
-2.774683516964914816e+03
-3.383156155664428752e+03
-2.684636955048046730e+03
-9.436982302096200783e+02
-2.641235591111911845e+02
-1.868532406597144018e+02
8.635479089748827608e-01
3.785518914913627668e+02
8.759782467250391846e+02
1.116185660790318252e+03
1.718899278756550530e+03
1.985220984627518646e+03
2.404254995643720122e+03
3.073524386534727000e+03
3.230266281318162783e+03
2.260914894795579585e+03
1.492379509144049280e+03
9.751305850411466736e+02
9.639211685587443981e+02
4.516679452010209843e+02
-1.370265209131340214e+02
-1.046482493303166393e+03
-1.406335818766909597e+03
-1.097524161260086657e+03
-7.144107868679004696e+02
-7.269803614037792840e+02
-4.174655129711728705e+02
6.780292832008761934e+02
1.507826144356044551e+03
2.059536908076079271e+03
2.721503181867875810e+03
3.138761611103919222e+03
3.650003463899214239e+03
3.976628413154441660e+03
3.999840550496458491e+03
3.669784994095753518e+03
2.894450227281211937e+03
1.998697624728763458e+03
1.581646320958125216e+03
1.144405556312620320e+03
9.768937814118294227e+02
5.540790348308171360e+02
1.669530939896467601e+02
1.175328183055134161e+02
3.819293910441135154e+02
6.181456616711957395e+02
7.351994283762332998e+02
1.328247388252216524e+03
6.133763369329332136e+02
-1.025408362854765983e+03
-3.767972291098032201e+03
-4.473357237695428921e+03
-4.531517178325902023e+03
-4.578437817280787385e+03
-4.530449077360195588e+03
-4.777805277407622270e+03
-5.614578727668094871e+03
-6.507817421886781631e+03
-6.872619455188837492e+03
-7.502973280872293799e+03
-7.662644462164327706e+03
-6.665633869128162587e+03
-5.390025913929735907e+03
-3.972561443079224318e+03
8.226769279497002572e+02
3.478644888593437827e+03
3.303425541307891308e+03
-6.297535079637666655e+01
-2.538549802775300122e+03
-2.372206366621603593e+03
-1.757752973640759819e+03
-1.422124193821792460e+03
-1.126273261076927838e+03
2.217917805138359199e+03
5.959661630659228649e+03
5.333092293183324728e+03
3.522279396118481714e+02
-2.828116343467504521e+03
-3.598883838589762945e+03
-3.681841878379167156e+03
-3.680207168764247854e+03
-4.555475571207092798e+03
-4.861763262465758999e+03
-1.180792584932587033e+03
1.598420890411023947e+03
2.256573475132765907e+03
2.724785828348276937e+03
3.027103433739727279e+03
3.120512884088808732e+03
3.336196341073188250e+03
3.522463910610575113e+03
3.849467031965561546e+03
4.275281283661352973e+03
4.205767424257669518e+03
3.925820673421413176e+03
3.551429764260760294e+03
2.605847643750939824e+03
1.363188207374634430e+03
7.795052936231344347e+02
7.349724588008367618e+02
5.966806065770147143e+02
6.126373254834497857e+02
-1.850501127400202108e+02
-7.353993083216470268e+02
-1.007409132076817627e+03
-9.928249550047146386e+02
-2.687191159465652390e+02
8.883632143839749915e+02
9.319428092934434744e+02
9.832275317636295995e+02
1.745560268969266644e+03
2.048249408849049360e+03
1.972595662046353937e+03
1.964459118008727955e+03
1.916670826781986307e+03
1.617116396645338455e+03
1.182712872164964210e+03
1.151778338809719571e+03
1.225462709269731477e+03
6.605702633001399136e+02
-3.279013034848173902e+02
-9.060980508389343413e+02
-8.180978983818456527e+02
-1.015573100498083591e+03
-1.017423715458802121e+03
-1.228602221760700104e+03
-1.010430375883322540e+03
-5.431856785162628967e+02
-2.135783609010711643e+02
5.609751931550800919e+02
1.104556729363525392e+03
1.694102225856247060e+03
1.898366121451609615e+03
1.977433477158534515e+03
1.862575506692727458e+03
1.847702231546614712e+03
1.353845322319994693e+03
4.218739356192363630e+02
-3.012536667199009344e+02
-7.119056457050901372e+02
-1.221935887751884593e+03
-1.788325654971955601e+03
-1.812187693450330016e+03
-1.554519518654557032e+03
-1.130240080346542754e+03
-9.082346160470011682e+02
-9.744987919470472661e+02
-5.030045182220195557e+02
1.352219205729892337e+02
7.611488287323035138e+02
1.109758400627234778e+03
9.740606755141310487e+02
1.528107610649851495e+03
2.226920523912863246e+03
2.286533763599618396e+03
1.394995941248469990e+03
5.522585620555776131e+02
3.132395391649096723e+02
-3.091187255278812813e+02
-1.042765969577655369e+03
-1.664678696644110232e+03
-2.079835390712943081e+03
-1.726247356116567289e+03
-1.144904715424592041e+03
-6.928045472507325258e+02
-8.629650665774321396e+02
-7.944724959307640120e+02
-5.604196173585032739e+02
-1.287557795535249738e+01
8.620990278738503321e+02
1.441314744125433890e+03
2.035614964118376292e+03
2.707090675984347854e+03
2.914819598627445885e+03
2.694900488098510323e+03
2.060572324230989125e+03
1.574775636118091597e+03
1.218415958418799164e+03
3.514100508918580203e+02
-2.107281263908495475e+03
-5.418710032748746926e+03
-8.445039964187670193e+03
-8.587277991815992209e+03
-8.566494530061732803e+03
-8.268698864608995791e+03
-7.664851002696283103e+03
-7.312022994712452601e+03
-2.667235117318858101e+03
2.814497414610308965e+02
3.949733384286011528e+02
1.167479964770762535e+03
2.340030225709775550e+03
2.745550566258753861e+03
3.008026042740311368e+03
3.383425088986080482e+03
3.267750522827277564e+03
2.513034165021804256e+03
1.486293691673492503e+03
6.504792443872557897e+02
-2.135286166636942653e+02
-6.857353050575183033e+02
-1.132178805353310054e+03
-1.491908320750174653e+03
-1.839914366352532625e+03
-1.636253381068835097e+03
-9.569886533528324435e+02
-4.105979537898154774e+01
8.475093212238742808e+02
1.152727169954787996e+03
1.421615136031367001e+03
1.793169162243424125e+03
2.507513013185286582e+03
2.943741162483188418e+03
3.163756348964984682e+03
3.150497805273747417e+03
2.968963074671651611e+03
2.404105263739831571e+03
1.345918693553372350e+03
8.664207423443754124e+02
1.075367436658723364e+02
-3.487657968353070714e+02
-9.614956206417293743e+02
-1.316691189786752830e+03
-1.656361578589425562e+03
-1.763480988666427265e+03
-1.827029998325757106e+03
-1.642075832554262661e+03
-7.376105310094302467e+02
-2.005171163480733014e+02
5.452670202459714801e+02
9.366935147404992676e+02
1.701834493735022761e+03
3.047619852711610747e+03
2.991063890837908730e+03
2.218232687019680270e+03
2.096069444921704417e+03
1.481626456922694842e+03
6.119230988373702758e+02
-1.500625166034685094e+02
-1.093400807039671236e+03
-1.677098271841269707e+03
-1.828138014237132666e+03
-2.431584728066041407e+03
-1.934468091814494755e+03
-1.098729004362673322e+03
-1.183253196033014092e+02
-1.752970693982194064e+02
-7.195762479830414122e+02
-7.101101535524578594e+02
-6.939216035734190200e+02
-2.979551916301514893e+02
4.198133927864890325e+02
8.703313369351487836e+02
8.596633147377502837e+02
-1.221121245719271428e+03
-4.629864501335127898e+02
-2.778720754642214956e+02
-1.223773045198534874e+03
1.150282922106482147e+03
-9.428680353729890840e+02
-9.943089079912693933e+02
-9.519323742628413356e+02
-5.271733311025455805e+03
-3.233674499524187922e+03
-3.095703875747692564e+03
-2.455867273761763954e+03
-3.432151303470251605e+03
-3.181548267978586409e+03
-1.282999663438517018e+03
-1.182527808551463295e+03
9.489988005338152277e+01
2.550343275287296819e+03
2.986913808302799680e+03
2.087649496969236225e+03
-1.623444908049855030e+03
1.685584659857133374e+03
1.969750117031992204e+03
-1.572959230435944619e+03
-1.244458967583638469e+03
4.772009639421808060e+02
-6.201219027966178743e+01
-3.814200903639588347e+01
-1.397167145862973257e+03
-2.716068215190425235e+03
1.211176033560477094e+01
-2.528600120582887939e+03
-3.155184202788427228e+03
-1.518630633402829744e+03
7.471250450803964895e+02
-6.649180223635935363e+02
1.062720748864803681e+02
2.543742935265243887e+03
3.182525766780406229e+03
3.152627582098199582e+03
3.147074209086908468e+03
3.059838774138168446e+03
2.599944879031097116e+03
2.134399232733510416e+03
1.237208814899512845e+03
3.013120061017133366e+02
1.706599026621883013e+02
6.523055356133998828e+01
-1.989376627202130692e+02
-4.937943558673034659e+02
-7.873542487447218718e+02
-9.235163189071715806e+02
-4.542277944454421572e+02
-1.983950035541521970e+02
-1.901951346397563611e+02
1.885498920175001558e+02
6.618713896991689580e+02
1.176789207954686390e+03
1.712377405737945310e+03
2.304728055861726716e+03
2.469810348731183240e+03
2.325533734498072590e+03
1.961905904677451872e+03
2.748804946325759602e+02
-2.656599623510306174e+03
-1.306662859799203261e+03
-6.384197192555400306e+02
-7.172356871698414125e+02
-8.468129130170560757e+02
-1.248096547876637715e+03
-1.181045331328204838e+03
-7.537633666905772998e+02
-4.734579564837579255e+02
4.603439059633777219e+01
6.547916041780131309e+02
8.979019765427361790e+02
1.183119450150504463e+03
1.355262822013953610e+03
1.642853134575864033e+03
2.346128013722666310e+03
2.214737562374958998e+03
1.678251685004127012e+03
1.330867209606039978e+03
1.204647159278049003e+03
1.249649428302830756e+03
1.451810842170321848e+03
8.638114217981915317e+02
-3.182013112013445948e+02
-1.084374495642235615e+03
-1.063823152449784629e+03
-7.515791189603584144e+02
-1.021637809097432978e+03
-9.320215916247897212e+02
-5.887522891285709647e+02
3.251547919427557645e+02
7.126779168577596693e+02
1.126823294321077810e+03
2.338611256184195554e+03
3.226035463034168515e+03
3.006159472943626497e+03
2.911046876388064447e+03
3.016615019254989875e+03
2.702870715728263349e+03
2.138714899206865539e+03
2.424005748167389811e+03
2.142837825667916604e+03
5.991716555768094850e+02
-4.230456690755153772e+02
-7.278735925457909843e+02
-5.733816080373986779e+02
-8.246332910545182813e+02
-3.505717718578739550e+02
-1.321295607202922042e+02
7.461955969370052344e+01
8.037070169468908034e+02
1.629191391700528811e+03
1.972059706755466323e+03
2.115270321769227394e+03
2.098819287240778976e+03
2.757807606137444054e+03
2.624157313018751211e+03
9.276396601892690796e+01
-3.238289244302167390e+03
-4.953915237589443677e+03
-6.488161634016159951e+03
-7.539142294592412327e+03
-7.292893917968171081e+03
-4.462425528321665297e+03
-1.017668250553637222e+03
-1.282672898819502961e+03
-5.211502032238926404e+03
-7.701084202593978262e+03
-8.971493123307887799e+03
-9.052709527073595382e+03
-7.379724648855463784e+03
-6.312520322046704678e+03
-5.435093513993563647e+03
-2.918374660543263417e+03
1.730636684039774991e+03
3.581997589154311299e+03
3.668787585063516417e+03
3.442017725265071931e+03
3.506653061450632322e+03
3.174693853020782171e+03
1.846160792395248791e+03
3.350007414897087301e+02
-6.338362267837061381e+02
-1.031371781510243864e+03
-8.025571970190692355e+02
-1.773452341403272783e+02
-1.117476202328241186e+02
-1.757613377591315498e+02
-4.523925915546579972e+02
-3.245788961437662010e+02
-1.742046205754396055e+02
2.669030294009119686e+01
6.561085987054198085e+02
1.630119548022883691e+03
2.232841554689533496e+03
2.302338526362063021e+03
2.069598250427073708e+03
2.131632823174621990e+03
2.677464301756207533e+03
2.962112192475386564e+03
2.064579482275491046e+03
8.548162508842461875e+02
1.607816452824865223e+02
3.354719793307506848e+01
-4.884570039595994473e+01
-2.793444728872572682e+02
-8.759479419789098529e+02
-8.106745232849843887e+02
-3.224929478426682863e+02
-4.363702466488562095e+02
-3.802592857589414166e+02
-1.100097179511047443e+03
-1.594817724124387951e+03
4.159586797800767499e+01
1.688211381962145651e+03
2.852142608726660910e+03
3.842401694671971200e+03
4.204023162230993876e+03
4.339147417317651161e+03
3.413870606966057494e+03
2.389177380956133220e+03
1.165093255200675912e+03
2.896973229732388404e+02
1.570746667540339558e+02
-6.277766621448676005e+02
-1.097649325607563014e+03
-1.315138799928601202e+03
-1.760340846045520493e+03
-1.638944448340954978e+03
-1.084970016788746989e+03
-4.924651677528244136e+02
