4.207783729959429365e+03
4.403003242514142585e+03
4.446885369305039603e+03
4.563504276524497072e+03
4.513950122293307686e+03
4.585249679189842027e+03
4.469452073368324818e+03
4.294551126892122738e+03
4.435586795112402797e+03
4.077622965071509043e+03
3.634735044056339575e+03
3.433004940101774082e+03
2.984428419296423272e+03
2.631025056041787593e+03
2.242814364320438926e+03
1.755859299711711856e+03
1.752183382104747125e+03
2.075853196740005842e+03
2.415757722438441306e+03
2.231039806618987768e+03
2.179871986612746241e+03
2.623760797786808780e+03
3.014713856255338669e+03
2.655682924157143134e+03
2.551733698385607568e+03
2.379847044018838915e+03
2.258025835440638730e+03
1.784361666132127311e+03
-4.332454994371317412e+02
-1.267736263807501473e+03
1.548024768979199507e+03
2.099930107127988776e+03
1.795974596550447814e+03
1.606206857801630122e+03
1.221744342864082000e+03
9.388626849915575576e+02
8.949945844145928504e+02
1.009453286982521263e+03
8.180517439109228235e+02
9.488407361354460363e+02
1.353847333141965237e+03
1.806024184887520960e+03
1.734247856938110544e+03
1.830473393611057645e+03
1.911704673838088638e+03
1.810858453454343589e+03
1.707886882342171248e+03
1.736728067944817440e+03
1.939374002289787995e+03
1.732873501003236242e+03
1.400209586239934652e+03
1.239359358475072440e+03
1.018180874901806078e+03
6.747378695800352943e+02
2.790044975114493582e+02
1.296933347046584295e+01
-2.378935569529896377e+00
-2.160286093539278909e+02
1.020234333578906813e+02
1.967358704668745304e+02
4.580591305148884089e+02
5.949608108159479798e+02
5.874782692434387172e+02
5.836428518878151408e+02
8.603678694076287456e+02
1.119649087699209531e+03
1.313505676689863321e+03
1.280930566163964386e+03
1.500864081123666892e+03
1.506272357833987598e+03
1.443185615700331709e+03
9.376220281747926037e+02
8.165623052240566722e+02
5.309665540507038486e+02
1.567668135110424430e+02
-2.801144003276747867e+02
-6.006996242992224779e+02
-7.540145097785170947e+02
-5.851361077385723775e+02
-3.180373462468123762e+02
-4.676900196610000080e+02
-2.264119729335592638e+03
-5.678383193407246836e+03
-9.773531702818019767e+03
-9.705542082098181709e+03
-9.566448849976221027e+03
-9.427304554174892473e+03
-9.018034291098181711e+03
-9.084726734006313563e+03
-8.272392473256055382e+03
-7.772020114576850574e+03
-7.856698289654944347e+03
-7.786561200907825878e+03
-3.798216980616947694e+03
-5.698426193212038697e+02
-2.205352008944357181e+02
6.858497796322333784e+01
6.251906623678607389e+01
2.632446423478036195e+02
4.748021176342324452e+02
8.051446982019093639e+02
1.087253233883740677e+03
1.058133222332009154e+03
1.245810644511391274e+03
1.461288637245546397e+03
1.469554903923328311e+03
9.956231066666855440e+02
1.433452883208623234e+03
1.565055646536950235e+03
1.008380687229067235e+03
8.414840608060424074e+02
7.813353269141064175e+02
8.769166941788424765e+02
5.472149204325206711e+02
1.792071180959502499e+02
-4.321125848753331979e+02
-7.897514785406633564e+02
-7.877086656590782923e+02
-5.629762063884490999e+02
-3.952809634845665698e+01
6.697004507723898996e+02
1.147670842795616863e+03
1.583388962442894126e+03
1.491910565151383253e+03
1.433236915085007240e+03
1.855351590476654337e+03
1.652267447742830882e+03
1.577979430704460128e+03
1.604574401590155276e+03
1.619079208487660253e+03
1.419470641031038667e+03
1.117755126610087927e+03
7.559970072482952901e+02
3.001945701720440525e+02
-1.476285271736433629e+02
-3.734652923055434144e+02
-6.712694900000466305e+02
-6.720611345700745005e+02
-4.198349949538628607e+02
2.064487394130089513e+02
7.997567451175746100e+02
8.491559127720755669e+02
7.686886272158448037e+02
5.163723344240570441e+02
5.732913049170454087e+02
2.035229148127109511e+02
4.169260576842273736e+02
4.805982607099170991e+02
4.266008699309497842e+02
1.193006993847261356e+03
8.708010655611218453e+02
2.400469758936031894e+02
3.297536242583237254e+02
4.759288243112707164e+02
-1.884551382604118999e+02
-9.744581412608246183e+02
-6.518311368677933615e+02
-5.593282732443492478e+02
-5.144842096436768770e+02
-3.981796237468859658e+02
3.747180369256591348e+02
8.112583917067130415e+02
4.974481682479473648e+02
3.703404548569947679e+02
4.759552774658675958e+02
4.783751868913324756e+02
6.276668966606620188e+02
6.478156493883525400e+02
5.278367390753228392e+02
7.266988596785049594e+02
8.294367649130867903e+02
6.191148833198557213e+02
4.617037848991993769e+02
6.171745858803610041e+00
-4.133939577089116142e+02
-9.280108091631409479e+02
-1.059687442884634265e+03
-1.204397434338308585e+03
-1.504143186995637279e+03
-1.502873960238358904e+03
-9.765786797287896661e+02
-6.321982592576863453e+02
-1.177547978422328612e+02
2.967450377615504635e+02
6.134612855254209052e+01
2.050285947581153607e+02
6.357800764334550649e+02
7.936264585769635005e+02
8.555981080000985912e+02
7.447615726061418400e+02
7.511084750299115740e+02
6.075415344028679101e+02
3.707070461071042189e+01
-3.822988253876891918e+02
-4.945819318712726158e+02
-7.988143601326789849e+02
-1.096993325905777738e+03
-1.575162784031612546e+03
-9.563146860343171056e+02
-4.954559478833376716e+02
-2.895859210144890312e+02
-4.607075523831928194e+02
9.718727433185871689e+01
1.220649490854439136e+02
-3.780461565379260946e+02
-5.241895693577467910e+02
2.225608130987008337e+02
9.831944948625338156e+02
1.096684701286113295e+03
1.009988127056296662e+03
6.451074814346335415e+02
8.321105332756101234e+02
5.201278429678363864e+02
4.130050286574044804e+01
1.635165716387296300e+02
-2.245004281848651999e+02
-1.817200920448473482e+02
-1.752191247783614472e+02
-6.961023688429268077e+02
-9.994134268278753552e+02
-4.721538502254548462e+02
2.195950864691180016e+02
5.607362660428831305e+02
6.501383300565535137e+02
1.212992645510998273e+03
1.668486130458867592e+03
1.841550493628408049e+03
1.686879891075380101e+03
1.462474174548133078e+03
1.698746629218235739e+03
1.567524753178899118e+03
1.313597233903892402e+03
9.719213394352992736e+02
6.024293292471413679e+02
9.306196506388310752e+01
2.737897671678022107e+02
1.585416594919785496e+02
3.944705535312233735e+01
2.850894188928464814e+02
8.321673504423515624e+02
1.193941517691858280e+03
1.433446601979576371e+03
1.480264259538472061e+03
1.513714806144053910e+03
1.557981811484521586e+03
1.805842722180718738e+03
1.822194626409110242e+03
1.959535503443235029e+03
2.135910926577532791e+03
2.367479545417899317e+03
2.472614805470741885e+03
2.087891807072920074e+03
1.929053233396371070e+03
1.627046131266837165e+03
1.227771585519712971e+03
1.039152626961629267e+03
8.381990584601850287e+02
1.035815747151547384e+03
8.530155570110626968e+02
8.207165878423948016e+02
1.301763631356366432e+03
1.732263270405142521e+03
2.417506888608781537e+03
2.363243680694109116e+03
2.558398454788792606e+03
2.462949443457642246e+03
2.598919516361865135e+03
3.121266804022625820e+03
3.011989556578835163e+03
2.828062148298839020e+03
2.689465236078453927e+03
2.475176840991622612e+03
2.201209951160218225e+03
1.858490360200180248e+03
2.779609145141914723e+02
-2.719349917006606120e+03
-7.351423495581253519e+03
-9.243297185075749439e+03
-9.211036757393758307e+03
-9.264658633684261076e+03
-8.563095387988591028e+03
-7.875367079923624260e+03
-7.559466408520042023e+03
-6.894362939841955267e+03
-6.675954888959659002e+03
-6.603086232852967441e+03
-6.011847812612725647e+03
-5.906506530724198456e+03
-5.603906755489075294e+03
-4.612041351651088917e+03
-1.076898581714506918e+03
-3.419424451554360530e+03
-5.942644673411386975e+03
-6.305536599464662686e+03
-6.754105093661185492e+03
-6.833303887327562734e+03
-6.890136821567982224e+03
-6.942603009857735742e+03
-5.088618303418909818e+03
-2.202113401333185266e+03
1.890867796094456480e+03
3.496376212382670928e+03
3.855488945416061142e+03
3.951262781074387476e+03
3.802709957631670022e+03
4.247811879102623607e+03
4.376665963315228510e+03
4.674353544871109989e+03
4.138928691710188104e+03
4.194395490673792665e+03
3.848820300936950389e+03
3.244205060782970122e+03
2.827623596814463326e+03
3.089144648044905807e+03
3.066853477111609664e+03
2.903725948465929832e+03
2.697816202609551056e+03
1.934192243496653646e+03
1.550846220241879564e+03
1.868833820944661284e+03
1.725222601574135069e+03
1.608033740546725767e+03
1.853314726819889529e+03
2.231142381393832238e+03
2.080663322204291489e+03
1.667926677237525382e+03
1.427992289775911104e+03
1.634944428409023431e+03
2.076848567796468615e+03
2.384662568944290342e+03
2.493447335269538144e+03
2.437302442560850068e+03
2.186326999715067359e+03
1.575566256803208717e+03
8.310832344892995707e+02
5.989100308926452954e+01
8.199317225250490537e+01
8.746308584280737364e+01
4.173588446072873808e+02
5.158947999994122711e+02
6.235066804571902139e+02
9.152358202856346452e+02
8.588844689729520496e+02
1.169619305474085195e+03
1.186545261093774798e+03
1.122787912941991181e+03
9.523114402589335441e+02
2.092126696391821667e+02
-3.282472390240503501e+03
-1.273754048624130292e+03
2.110379552889500019e+02
7.409835969536601397e+02
6.456203607782141489e+02
5.695870786335957519e+02
-5.521274908685428073e+01
-9.884048076753353484e+01
-3.412429967305036485e+02
-8.003791390998636643e+02
-1.302204062929872634e+03
-1.046666742802402496e+03
-7.297369374373701021e+02
-3.993525394718174653e+02
-8.452797921791196600e+00
9.198263515854770844e+01
1.338807912018600064e+02
-2.637473709052696336e+02
1.809940017240967336e+01
3.394377116119509878e+02
3.182667447102644473e+02
4.325741559781258161e+02
2.864715222721328587e+02
4.300672858125305709e+01
-2.947670057853745789e+02
-5.508877904192124788e+02
-1.134360203204534400e+03
-1.340231862362109496e+03
-1.098500935535517556e+03
-9.651918443273866615e+02
-1.232307462653733410e+03
-6.897996606834454951e+02
-3.337193210877679235e+02
-4.420757270145912230e+02
-6.109144066563635533e+02
-8.322042255557287262e+02
-2.179206362770160297e+02
-1.010259905038171553e+02
-3.195937347967885671e+02
-5.446238244384919653e+02
-6.870944688446022610e+02
-5.190135048236219291e+02
-4.843863243530081490e+02
-5.321923847283653686e+02
-6.904743677049577855e+02
-1.015208698586489390e+03
-1.277474373765126757e+03
-1.413326695706503870e+03
-1.669843602368885058e+03
-1.477049074494752176e+03
-1.407986218585526103e+03
-1.212689568690358101e+03
-9.502191906077200656e+02
-7.806337829463644766e+02
-1.478986869392366771e+03
-1.476336175246423636e+03
-1.222692822899118710e+03
-6.130315047228209551e+02
-3.034038110989135930e+02
3.213110984754765695e+02
3.960917792683321750e+02
8.728550590040398447e+02
8.615398238869288434e+02
-4.478367433215727260e+02
2.483613379393009968e+00
7.404182870338960356e+02
2.169179415217107021e+02
-1.880721884803787418e+02
-4.375910483518774754e+02
-8.117328131735304169e+02
-7.755416346608628828e+02
-9.369867743317820441e+02
-1.007120028551865289e+03
-4.790103617613622191e+02
4.253550729396508814e+02
7.089230861172925415e+02
1.079586982637581059e+03
1.367347209831402097e+03
1.307191859061381138e+03
1.744029017467528774e+03
1.819824174053875367e+03
1.475613413898781118e+03
1.548379395582754114e+03
1.265999839574850739e+03
1.064335884699029066e+03
1.088301724366946246e+03
5.079372949818390452e+02
3.472100414100409580e+02
2.070509018745790115e+02
6.753303645967906732e+02
4.789980234370273706e+02
4.580208679159347298e+02
8.083658621611045874e+02
7.429765897774313999e+02
8.828218341895534422e+02
7.848463122468260735e+02
1.047066739708457817e+03
1.876511893266268316e+03
2.425151620200711477e+03
2.191816152859430986e+03
1.912511760611263981e+03
1.888277421719896893e+03
1.951989684231824640e+03
1.724698231864741501e+03
1.833569905251394403e+03
1.468576346014155206e+03
9.065465702267774759e+02
6.044047469419596155e+02
4.720504990767609570e+02
2.583871752564375015e+02
3.663612407700259155e+02
5.280838152020386360e+02
1.161744024083043087e+03
2.153464470203403835e+03
2.258203367397769853e+03
2.550868226535636040e+03
2.899346001731527849e+03
2.275401081954478286e+03
2.025849881384456694e+03
2.496740912704305174e+03
2.744062717395180698e+03
2.650970503720553552e+03
2.433494298636805979e+03
2.110586836957386822e+03
2.059253975809457643e+03
2.158425122547428145e+03
1.739137783272656634e+03
8.663512371547677731e+02
8.751199716434072116e+02
-1.006006947084306375e+02
-2.992758073757762759e+03
-7.112294700331365675e+03
-9.318215479969590888e+03
-8.858598956714060478e+03
-8.077446782360041652e+03
-7.619699498365134787e+03
-6.980317452306545420e+03
-7.029283328322970192e+03
-6.450634311824110227e+03
-6.330392540918902341e+03
-6.162479351901189148e+03
-5.895886632508247203e+03
-5.657543542581011025e+03
-5.305423913864528004e+03
-4.684541532028789334e+03
-8.568348445328924754e+02
-1.364223575776404005e+03
-5.817750834915344967e+03
-6.835471789926071324e+03
-6.323319721508511975e+03
-6.316218886291295348e+03
-6.395194482333427914e+03
-6.620235041538383484e+03
-6.047316949008535630e+03
-5.812437185130574107e+03
-5.792481084220174125e+03
-5.677328005420227782e+03
-4.611944667674245466e+03
1.877630548202345153e+03
4.474469522334673456e+03
4.795669546904504386e+03
4.875210606147968974e+03
4.590078771244150630e+03
4.392313744261018655e+03
4.390946686732313538e+03
3.841049418556603541e+03
3.916642774379299681e+03
3.215829946730125357e+03
6.336448587799779943e+02
-8.509777108932047440e+02
2.132006781595160646e+03
2.537538462923470433e+03
2.278665567932017893e+03
2.394378431253102917e+03
2.671747967812874322e+03
2.569831031329820235e+03
2.947693796572868450e+03
3.015420179801947597e+03
3.123074350062914618e+03
3.082687581924080860e+03
3.252259463637571116e+03
3.111647475362867681e+03
2.736827959058784927e+03
2.990056245693266192e+03
3.189845301592377837e+03
3.164434836094394086e+03
2.908676388157031852e+03
2.487527071915458691e+03
2.135017389847606864e+03
1.629109883979763708e+03
9.547451640292733828e+02
5.060749020935010094e+02
8.719723818091274552e+02
1.162387280158664225e+03
1.234401315971367012e+03
1.771036305132646930e+03
2.535436798087279385e+03
2.514737943343867755e+03
2.517359674031447867e+03
2.784217849063861195e+03
2.520926034324983448e+03
2.467475968154759812e+03
2.220767743385152698e+03
1.894872632800897691e+03
1.421725425275076759e+03
8.323381888727930118e+02
1.081715559977813200e+03
1.448650445551033499e+03
1.012036152259490109e+03
7.189101564471973234e+02
7.534317830945115020e+02
1.072296379135029383e+03
1.257451712752067351e+03
8.858761167986796181e+02
7.765443854727483313e+02
9.964765562887795340e+02
1.577669059176145311e+03
1.626166931872903888e+03
1.788946339365515996e+03
1.186029341620806917e+03
8.544272656285950234e+02
9.831368618543682487e+02
1.435066631740060075e+03
1.569218564836162614e+03
1.612578996243704069e+03
2.171162416408570152e+03
1.938028986660090823e+03
1.536104012423804761e+03
1.225321544803419329e+03
6.956790320864959085e+02
-4.786842143589598919e+01
-7.193447141003533716e+02
-5.047979038440684576e+02
-2.821234877067018232e+01
4.144230488842686100e+02
1.300095666800045819e+03
1.980796023253516751e+03
1.748457876487700332e+03
1.252079628771839452e+03
1.031643196672220029e+03
1.173141572698957816e+03
1.208555030733456306e+03
1.476905428468686978e+03
1.568171567592854444e+03
1.097354130680805156e+03
2.843835862784094957e+02
-2.933752511686087928e+03
-7.441114272644398625e+03
-9.614721265717882488e+03
-8.451617839919093967e+03
-1.052784514038730413e+04
-1.149637006366234709e+04
-1.157529719307418236e+04
-1.106362171206690800e+04
-1.052933172007584653e+04
-9.265407445657661810e+03
-8.376971778255398021e+03
-7.849602215460928164e+03
-7.551431874658122069e+03
-6.391684459242725097e+03
-3.113846796105348744e+02
1.721530771631046946e+03
2.108993268684174836e+03
1.458030524435953794e+03
9.706193221939030309e+02
6.777791834079963564e+02
5.275377685131397811e+02
3.148392850442018585e+02
3.265630023213721529e+02
9.447002742594219171e+02
2.062248404868177204e+03
2.842216001935052645e+03
3.502610535556428658e+03
3.966453223504744074e+03
3.463768080513730638e+03
3.148539605688897154e+03
2.591731307761082917e+03
1.665406628641969519e+03
1.401578327956847488e+03
1.458232251208438129e+03
1.762350448714946424e+03
1.641945451017096957e+03
1.709002629224080238e+03
1.339563172029440921e+03
1.322623757219281515e+03
1.341162575896227509e+03
1.258171956106976950e+03
1.996708408888515805e+03
1.719715669769778742e+03
1.328149888614019119e+03
8.660767596542202682e+02
1.705432499852111903e+02
-1.134617119860014895e+02
3.600082463083732023e+02
8.505911475966092894e+01
-3.212470506500769716e+02
-4.729039488351594400e+02
-6.828473022435721305e+02
-9.700862353378249736e+02
-8.436020947922719415e+02
-8.053311102399471793e+02
-1.892598881402238931e+02
1.486439930208531450e+02
5.333914020373475751e+02
9.010154987235932822e+02
1.648536908742918740e+03
1.951954177774870459e+03
2.198274071233774066e+03
1.917540531208895572e+03
1.561767717120102589e+03
3.319847061517257316e+02
-9.037970099560163817e+02
-2.230460666554982708e+03
-3.134865574215075412e+03
-3.433126489412309638e+03
-2.616189109599335552e+03
-1.746033345216408634e+03
-4.475943953119420371e+02
1.113116128904934385e+03
3.087173215730961601e+03
2.441724734955807435e+03
2.317721525609941182e+03
1.963157721566214150e+03
1.399088881778614450e+03
9.385583637514483826e+02
5.795546329075988297e+02
-4.850825114470359800e+00
-4.196575076976070591e+02
-8.418240986928821030e+02
-1.411300266376154241e+03
-1.330148116807833958e+03
-1.083375109270325083e+03
-1.728896005036654515e+03
-2.008701470293051443e+03
-1.440771017082539856e+03
-1.397035815572741967e+03
-1.501490593057633305e+03
-3.721017150216873688e+02
1.139214272596582532e+03
1.947476170264026678e+03
1.435725167649995683e+03
5.759630026332911257e+02
7.141988717266548292e+02
8.834819222243420427e+02
1.093830081544999530e+03
8.362690929490781855e+02
3.617216339985600939e+02
2.472535288876613890e+02
2.839026620402720482e+02
-5.943282933282808926e+02
-1.167427660459841491e+03
-1.724440673283171691e+03
-1.858291866547572681e+03
-1.131025263015674000e+03
-2.947046362827137500e+02
-1.071242101172341791e+03
-1.676548401715463115e+03
-2.001637538561251631e+03
-3.763518896974092968e+03
-4.610171694176789060e+03
-3.104595012216691430e+03
-1.228852578178280964e+03
-1.227857682856383008e+03
-6.646106840778378455e+02
-1.055123580726683258e+03
-2.837416497837743918e+03
-6.070512481306363043e+03
-7.470418302226248670e+03
-6.780158988912578025e+03
-4.514816738374473971e+03
-1.642449419593807534e+03
2.086951139704633533e+03
5.759334721555963370e+03
6.681764111887546278e+03
5.156263578246261204e+03
3.681797350565868783e+03
2.349313578257414520e+03
2.436792462327710837e+03
2.781254086053344963e+03
3.249676093601820867e+03
3.382038475000079416e+03
2.995273160205406384e+03
3.031352650155383344e+03
1.784261498959805294e+03
1.058890254650623547e+03
3.840865435897258067e+02
5.740007210206275658e+02
1.317105939589804848e+03
1.861549422300297238e+03
1.906209260244799680e+03
1.800822857825975461e+03
2.120285617560754417e+03
2.536605380754895123e+03
2.969778077570905225e+03
3.272743296900562655e+03
2.670399507672665095e+03
2.567714326742453068e+03
2.061645417325213657e+03
1.993156659934516483e+03
1.664447128262399474e+03
1.429191384778956035e+03
1.338897491184780620e+03
1.992491369213931875e+03
2.259385913656308276e+03
1.858919858190446803e+03
1.831585217676166394e+03
2.435360212985885028e+03
2.227246962086826443e+03
1.665214177155198968e+03
8.331805670986491350e+02
-4.189832431443819587e+02
-1.089291107167409336e+03
-5.347612589873386924e+02
2.485251263874210963e+02
2.986840318904642118e+02
8.001761062105209703e+02
1.753796746952284138e+03
2.348583202847615667e+03
2.155513635271149724e+03
1.744569954727602408e+03
1.292713001598516030e+03
1.160853013227178508e+03
1.222981568801501680e+03
1.864999530191105805e+03
2.820964319403907211e+03
3.245001000284682505e+03
4.026020480582479649e+03
4.110599823129273318e+03
3.668903650540542912e+03
2.745910532134144887e+03
1.756522706562993562e+03
1.061776781855046693e+03
1.161649095793351989e+03
1.354050110074317672e+03
1.917949976506995654e+03
2.626341541383885215e+03
2.924251069269268100e+03
5.876357979209093401e+02
-3.461468575298421001e+03
-7.172094514156044170e+03
-7.233326723889219465e+03
-7.264127512013608793e+03
-7.749506459316269684e+03
-7.459482290072521209e+03
-7.083004205081469991e+03
-6.508110972633301571e+03
-6.754780896468115316e+03
-5.401016759043098318e+03
-5.234801661252301528e+03
-6.402211266657524902e+03
-7.086251463548698666e+03
-7.193066669330388322e+03
-5.862467007610576729e+03
-2.021245747441255389e+03
-4.767574750403244252e+03
-6.133446841675237010e+03
-5.578880402341473200e+03
-6.061785200547573368e+03
-6.221126796882223971e+03
-5.666885495465652639e+03
-5.610024446989358694e+03
-5.373527748220834837e+03
-5.006356052113022088e+03
-5.103540835359234734e+03
-4.872074560124429809e+03
-1.532854279938995433e+03
3.229151473760653971e+03
3.863937236913925972e+03
3.777545050187885863e+03
3.159979032524586728e+03
2.825325879884694132e+03
2.531631917865333435e+03
2.486899886396649890e+03
2.242167763460735387e+03
2.333530421615662817e+03
2.443034701984708136e+03
2.495800284963769627e+03
2.779839483940693299e+03
2.770232872012289135e+03
2.725021367256326812e+03
2.511251880433573206e+03
2.589943594642656080e+03
3.055103587428370247e+03
3.096844312915992305e+03
3.263277980486052456e+03
3.236442395760750060e+03
2.833431037178731003e+03
2.702309458635994361e+03
2.381153017628373618e+03
1.934961801481092380e+03
1.446788977468985649e+03
1.043659630855592923e+03
1.211596833133069367e+03
1.145696010956567306e+03
1.323092267085418825e+03
1.448882267939538451e+03
1.657122686494030859e+03
1.697832816884716749e+03
1.865117589917241730e+03
1.750036667858956434e+03
1.694631393719313110e+03
1.741984299697669258e+03
1.954192310231036345e+03
2.113440328070385931e+03
2.173942500422378998e+03
1.975570146072224588e+03
1.710510530827141793e+03
1.812022084014879283e+03
1.170147313326971926e+03
4.159739158381523794e+02
-2.055946236329650105e+02
-6.084443214915534099e+02
-3.494624625498336172e+03
-4.568143654130247342e+03
-1.581890886036680286e+03
-8.247539665978777066e+02
-7.617679686388137270e+02
-1.750682187463835078e+02
-2.174795856666220004e+02
-3.981920678980578714e+02
-2.161507255615496206e+02
2.226315531292140690e+02
1.026214104695114429e+03
1.225595605147713059e+03
6.958057695320119365e+02
1.798561129967136765e+02
-2.953069694547718314e+02
-5.057052518672419410e+02
-8.472903527700864288e+02
-9.610515634738247854e+02
-1.268000486285074430e+03
-1.102019267618796221e+03
-1.275092410427841742e+03
-9.141726199892443674e+02
-1.021992113106665698e+02
4.128463819591385686e+02
6.059269956543212174e+02
7.920277272026150968e+02
7.542114620002073480e+02
7.284622108181090425e+02
8.657968025986434668e+02
1.134189768302694119e+03
1.177615481488175647e+03
1.448069804371565169e+03
1.785453461173034384e+03
1.322845310674869097e+03
9.982361906987480324e+02
9.426193852151485544e+02
3.530019903332819240e+02
-4.416052495106651463e+02
-6.473502886278079131e+02
-6.951737171130495199e+02
-1.051103404825014877e+03
-8.501954349786944931e+02
-7.004281223996084691e+02
-7.038044621709341300e+02
-2.253816412009710746e+02
6.381445656011257483e+01
2.726619856451321766e+02
2.971857916632457091e+02
5.052935605989407009e+02
4.749108555303477033e+02
5.039496656645923167e+02
1.104014111882478062e+02
-7.812054621886552752e+00
-2.587252829551518971e+02
-6.623483535947123073e+02
-2.578630982766430861e+03
-3.140615999310058669e+03
-1.963356772711402755e+03
-2.090870513215998017e+03
-2.170271589070490791e+03
-1.990755179920181718e+03
-1.849315952653655813e+03
-1.819108754484345354e+03
-1.693290955103061606e+03
-1.566929438439731712e+03
-7.568736557730820778e+02
2.077453421411958914e+02
3.549510891500153775e+02
6.776838494672755360e+02
5.078385092708885509e+02
6.133662371486404936e+02
6.932108192787219423e+02
6.822963420340799985e+02
1.010550462313890307e+03
8.119529202903256646e+02
6.303689038961864526e+02
6.586898847045209777e+02
5.749005287469706218e+02
3.199380118539489217e+02
1.926809306495729857e+02
2.950983678665029402e+02
1.581123210664556211e+02
2.705675583997007720e+02
7.293649500475791001e+02
1.108492345173321610e+03
1.277965180447380135e+03
1.515763628292700332e+03
1.437756431145028955e+03
1.655854458534732657e+03
2.002990945635204980e+03
1.783135324735430004e+03
1.483280492355076376e+03
1.574317295150143536e+03
1.981186987843834231e+03
2.038930493449529649e+03
1.499441710524648215e+03
1.469711632968472941e+03
1.059638564643221798e+03
2.541087720413043769e+02
2.560564190774869076e+02
6.085154546503722486e+02
6.334571926187563804e+02
7.018502971096065721e+02
1.156798503144188771e+03
1.378219627423311294e+03
1.089882106740597010e+03
1.432728962391362757e+03
1.551837602044868163e+03
1.770097675217916503e+03
1.985538038425179138e+03
1.903238465397934760e+03
2.198359795304035288e+03
2.486767491914452421e+03
2.502247151322168065e+03
2.533631221211138381e+03
2.062783302308136626e+03
1.217615421255511137e+03
1.456983342899960917e+03
1.235055630607940884e+03
1.005046582001132037e+03
1.111964304567128011e+03
1.138806125918313910e+03
1.449475666339615600e+03
1.700977639307159052e+03
1.919338345660002460e+03
1.863565904147834772e+03
1.994710538542028416e+03
1.738727104218584827e+03
-4.732066416462600387e+02
-4.266124069450032039e+03
-7.811043141149964868e+03
-7.761981021602872715e+03
-7.501993512794188973e+03
-7.180026430811461069e+03
-7.259032857195507859e+03
-7.748008788387970526e+03
-7.839963647579156714e+03
-7.017898018920377581e+03
-6.901789779209312655e+03
-6.793607857530183537e+03
-6.885285030158212976e+03
-6.853806755224032713e+03
-6.477080964869162017e+03
-2.282040685036794912e+03
-6.686101267836531861e+02
-4.640763825742062181e+03
-5.816443026351651497e+03
-5.015674373800141439e+03
-3.535450867581385410e+03
-5.250644059448119151e+03
-5.360233482046782228e+03
-5.210227472743365979e+03
-4.820525321672592327e+03
-4.959059269173541907e+03
-5.311758610807136392e+03
-5.476538410906133322e+03
-5.408383871780597474e+03
-5.633325150026269512e+03
-2.175308834906509219e+03
2.507756117141417690e+03
3.229916081173928887e+03
3.267109382078474027e+03
3.478403190138643822e+03
3.725956889464905089e+03
4.176897309979758575e+03
4.301273960607487425e+03
4.279129028947222650e+03
4.071497062945310518e+03
4.286380282811005600e+03
4.366789708601859274e+03
4.410798250321872729e+03
4.179400730570094311e+03
4.430698574061741965e+03
4.237801725173282648e+03
3.463802656688474144e+03
3.731779327552802897e+03
3.784802074466916565e+03
3.561827584126535385e+03
2.949796415945912486e+03
2.497714330589958990e+03
2.486534978311284249e+03
2.422656485188995703e+03
2.811441111254197949e+03
2.761122791730564586e+03
2.390829795564073265e+03
2.687420935216171074e+03
2.883943410285366554e+03
2.711427633136365785e+03
3.074910161573901860e+03
3.040338864888160515e+03
3.087733734819510573e+03
2.787318995427686332e+03
2.760737516841086745e+03
2.529125285445967620e+03
2.117915688904434774e+03
-8.303119633794580068e+02
-1.358629242688703926e+03
1.316148489345756389e+03
1.285787262634518356e+03
1.168809085049146915e+03
8.501550719962066296e+02
8.886478620508135009e+02
1.342406032778358622e+03
1.632470645416777870e+03
2.028813936507804328e+03
2.117456132393952430e+03
2.124377011076764120e+03
2.161595282177131594e+03
2.103283938083678095e+03
2.139512972303696188e+03
2.205734065672919314e+03
2.023638299477205692e+03
2.239406664203268974e+03
1.927080885205454933e+03
1.529726705307529755e+03
1.297318501165341786e+03
7.768091920913739159e+02
5.171749921355758488e+02
3.574386653648835477e+02
2.745637100935309149e+02
2.375080942082056481e+02
-2.277939929479820762e+02
7.173437869710166126e+01
7.271062468750736798e+02
1.183289983586930248e+03
1.154342734401149301e+03
1.060234328312650632e+03
8.768855919446430107e+02
1.132305560983290206e+03
1.137448561215841892e+03
1.257297264016625149e+03
1.047864994458940828e+03
8.580923510844835391e+02
6.579695440723538695e+02
6.784691284848416899e+02
2.546165125263781590e+02
-1.786089329757466260e+02
-2.752733307787556214e+02
-3.394380751752544825e+02
-3.631621242977214479e+02
-2.994117241264573295e+02
-4.762692390922938444e+02
-1.967261655710587718e+02
4.222083956683805468e+02
7.555415687365031090e+02
7.782604435045547007e+02
7.353360512497818036e+02
-8.702717188420660932e+02
-3.335583660859472275e+03
-7.646651292629037926e+03
-7.658498763742453775e+03
-8.560151272097833498e+03
-9.114686034528656819e+03
-8.468031753405399286e+03
-9.079202191077465613e+03
-8.756304367923408790e+03
-8.689495288832840743e+03
-9.549099955790958120e+03
-9.944436269898576938e+03
-9.627980446612562446e+03
-9.190623311457969976e+03
-4.502317520423349379e+03
1.528735103423491921e+02
1.290976001771413848e+03
1.793981982356137451e+03
1.746867312600036712e+03
2.172622208960076478e+03
2.338148247972573699e+03
2.429453236463826670e+03
2.538562565838027695e+03
2.299493561217707338e+03
2.144241878546376483e+03
2.216789169246379060e+03
2.231132674268155370e+03
1.724216548855487417e+03
1.414052663888527150e+03
1.083572717012395287e+03
7.258028252674797614e+02
3.226728260949096239e+02
5.051212939320054716e+02
4.161948142328781728e+02
3.368955850375164687e+02
6.521785819935707877e+02
1.017082403326859435e+03
1.211624393931820578e+03
1.489780669508081246e+03
1.603545526097369020e+03
1.686983459638272052e+03
1.526029637789292110e+03
1.567684739894415543e+03
1.468015390931937191e+03
1.277028455802111239e+03
9.717006705279534344e+02
1.377120171728923424e+03
9.692915250408658494e+02
8.671831160406901517e+02
4.777730648747326541e+02
-2.108661272320530884e+02
-4.407805850825772609e+02
-4.509306007987762541e+02
-3.293341734456103609e+02
-7.101401051783092555e+01
-1.858974697709371924e+02
4.700492340393473114e+02
7.618329305800525617e+02
7.994740659517786980e+02
8.390633812760753472e+02
1.118604126227118059e+03
1.071105612082162452e+03
6.325441288463508727e+02
4.958953839259171446e+02
6.061175913042654884e+02
5.544608733812110586e+02
5.217805513060867639e+01
1.663209520862693580e+02
3.866116007538099808e+01
-7.358602272484678224e+02
-4.212564186546036922e+02
-5.465182709742141469e+02
-1.367630984986694330e+03
-1.484456963541618734e+03
-1.294011248582640519e+03
-1.565420897748352445e+03
-9.596419292575617419e+02
-4.715551360474056537e+02
-4.501561236208484615e+02
-1.634325648771955173e+02
-2.535145146246187053e+01
8.312746321899068391e+01
3.401339184955916295e+01
3.722882190644652951e+02
5.210280431097747851e+02
3.782603633479785685e+02
-9.702229545614822825e+01
-3.428042437085539973e+02
-4.210254940030086459e+02
-4.797049837873890965e+02
-8.878813494306874645e+02
-1.149513382028435899e+03
-1.142589720910788174e+03
