-2.988334890586563120e+02
-1.810181182435447056e+02
-3.754007294183832641e+02
-3.809260133150983734e+02
-5.005918688735080195e+02
-6.113534680356365243e+02
-4.732577225834264141e+02
-3.613711409967513077e+02
-1.406947712328726254e+02
-1.702357123517303421e+02
-1.539820149729013110e+02
-1.990666375042587077e+01
1.019190445017674875e+02
7.440849211164996291e+01
-3.194448067734386427e+02
-2.637664438298535515e+03
-5.336275163491935018e+03
-8.638188504995478070e+03
-7.284364865738257322e+03
-1.448822271018206493e+03
-1.666301073949120166e+02
1.291858432579797125e+02
1.115094686761211733e+02
-5.237469393638403972e+02
-1.955367699827306751e+02
4.250852918970940664e+02
1.481117015153752448e+02
2.348306724424791270e+01
-4.577649780894470410e+01
-1.196518942286867571e+02
1.367987287193346901e+02
8.064795836078991442e+01
-1.871602522846006025e+02
-2.226157128547733066e+02
-2.666636606544227917e+01
-1.083925052022295148e+02
-1.249321990126491215e+02
1.563267370888071284e+01
-1.236900787250426532e+02
-2.019427307697759204e+02
9.685916420735119914e+01
2.706948950751468601e+02
4.185266075253574058e+02
4.554313802514847680e+02
2.833571415281763848e+02
-7.872786582337199945e+01
4.515638012885546715e+01
8.898875432859578893e+01
1.448262165928545357e+02
-8.138465672716158394e+01
-1.496867248789080236e+02
-5.310383407282731127e+01
6.334613800755651170e+01
2.446270291649774435e+02
3.127112532544684314e+02
5.005813552525580121e+02
6.352238760491529774e+02
7.916853201983568624e+02
9.300170288846004496e+02
8.941430663574396931e+02
6.629817997677464518e+02
5.565175743060714240e+02
5.547862672575115539e+02
7.928069398992162178e+02
7.565926296234730444e+02
9.631552385113448054e+02
7.504268541124578178e+02
8.484282294190533094e+02
9.701283226351488338e+02
9.495168273106804691e+02
7.615496528712302506e+02
4.922223054765595407e+02
6.155845791659451152e+02
7.156547829518452772e+02
1.105409831980507079e+03
1.119813090346121726e+03
1.325911056027031464e+03
1.025714118685029462e+03
1.000195958909322258e+03
1.291362413910807390e+03
1.265255986022315710e+03
1.112851739944288511e+03
9.771877962064971825e+02
7.992796866615823319e+02
9.580692301452818356e+02
9.275944388713021453e+02
8.768436482809510153e+02
-3.451356149708428802e+02
-4.515304783346542536e+03
-5.905744633376061756e+03
-2.071450093787729202e+03
-1.762396367125377765e+03
-4.366557599504463724e+03
-3.058913390531686218e+03
3.065472973392730864e+02
2.588352592562787322e+02
4.259801447603285283e+02
6.899619696998952350e+02
6.798153266502653196e+02
4.434920958982751813e+02
-1.309066830577480687e+03
-2.345754259072427885e+03
-1.837516915818236612e+03
-1.686358769825379113e+03
-1.980269088192179879e+03
-4.623213392301361182e+02
6.051717631142175691e+01
-2.426725861825928405e+03
-1.770008477374861059e+03
-1.482263134703326159e+03
1.066458854418090368e+03
9.322013447290507884e+02
-2.769100260696637633e+03
-3.750439099833171895e+03
5.621923331576902001e+02
8.587907844409403424e+02
-3.521577177504811061e+03
-4.461871845937548642e+03
-1.682098876538060949e+03
-2.055269310995778596e+03
-1.127411858226526874e+03
-6.651984000102356731e+01
-2.239520762485954947e+03
6.966104062624083326e+02
1.451852391793311426e+03
1.389158554196548039e+03
1.472604220053824747e+03
1.165238664219238217e+03
1.174975806376875880e+03
1.535796688974157632e+03
1.529754681055204628e+03
1.235869281487828630e+03
1.176162125695768282e+03
1.545630760472395650e+03
1.928282513248276246e+03
1.579103641284399828e+03
1.399093735024098351e+03
1.579282777496501012e+03
1.564534088034496790e+03
1.349804390352814607e+03
9.371231162048848091e+02
7.819328527591802640e+02
9.782829338486563984e+02
1.070530453050875167e+03
9.654377185201482234e+02
6.543380218759823492e+02
3.794837181867528670e+02
-9.791616799343389133e+00
-2.069653057204092192e+02
-2.794783805079177910e+02
5.891110148865070784e+00
2.753239339529290532e+02
5.840761599076787434e+02
7.404265608976020303e+02
5.950656655740081078e+02
-4.251142362376900508e+01
-1.184534753846026547e+02
4.032899538168550180e+02
6.112869865905179267e+02
2.096013825831379052e+02
1.493830671792343310e+02
3.806895971775419980e+02
7.452155345147476737e+02
8.117986880982897446e+02
9.369015121711663596e+02
6.095198001943236932e+02
-1.164728391380014898e+02
-6.211048482065818916e+02
-5.283981036913967273e+02
3.126407288775350253e+02
8.379519282579989294e+02
8.706799000350237066e+02
5.318028648355910946e+02
4.045473882082799264e+02
9.739901972661532454e+02
1.043455922371341330e+03
9.037852874691450324e+02
2.718392779056603104e+02
1.049635043406630757e+03
1.897148675188840571e+03
1.857385044966414625e+03
1.376295902371106195e+03
1.138877320483369886e+03
1.525206860263088629e+03
1.419158965191299558e+03
1.058665287459804404e+03
5.517407365195846296e+02
-7.595014968513984499e+00
-3.923476055703606562e+02
-1.955495338685944375e+02
1.210761400846085280e+03
2.120508878505445864e+03
1.942701405884816722e+03
1.472355559680973784e+03
1.320433146035019490e+03
1.265903782658895352e+03
1.191748199996076437e+03
1.286991976999616782e+03
1.316668928149446856e+03
1.271747918552451210e+03
1.326221377446672477e+03
1.563978414522209050e+03
1.496028170147905712e+03
1.543363537383425410e+03
1.638966165507841652e+03
1.473897489126614119e+03
1.222085251238138881e+03
9.804664074028264622e+02
1.430032617637535850e+03
1.711790703541389121e+03
-1.052204631578736667e+02
-3.357029882869518588e+03
-7.183646125487656718e+03
-7.334069448353715416e+03
-7.145297509076384813e+03
-7.908416164554600073e+03
-7.593359634957524577e+03
-7.156124400259266622e+03
-7.027786173441151732e+03
-6.363188549826350027e+03
-6.541103749307441831e+03
-7.247976561296121872e+03
-6.480762015108046398e+03
-5.846441299491249993e+03
-1.390916009394398543e+03
9.968006131207528142e+02
1.516683057859313521e+03
1.914741039902901093e+03
2.171993945137884111e+03
2.291434432518301037e+03
2.094068886939980985e+03
1.793878799538760859e+03
1.284833501499439308e+03
1.723941066280024643e+03
1.314250366561210058e+03
7.468154721520853627e+02
7.316382653391535769e+02
1.667398186958138524e+02
-4.886899650365811709e+01
1.287483666366866544e+02
6.365972320002123297e+02
1.303667110077036796e+03
1.471922418488822359e+03
1.556394657879152192e+03
1.587127965776904603e+03
1.550109402093463359e+03
1.445360070677510748e+03
1.595862386764554230e+03
1.577674894564238912e+03
1.086830760255216319e+03
7.404052955598236849e+02
7.584432028871475495e+02
1.222928559384724849e+03
1.301843590829270170e+03
1.066254816460019356e+03
1.007162585773804153e+03
1.185549084748046653e+03
9.663941459863110595e+02
1.947255371384324292e+02
-8.357647203098279576e+00
4.908314839525338868e+01
5.690538183318016081e+02
6.845985321796317749e+02
4.457168967487908731e+02
2.623998366313020938e+02
1.456846185033101051e+02
2.759759762223727719e+01
1.602178754518496362e+02
1.316108675483431512e+02
-7.652004119438179259e+02
-1.850259260294688374e+03
-3.077670271961200342e+03
-3.271292226920831126e+03
-2.521923761453209409e+03
-1.384117473374290057e+03
-4.811079739948637553e+02
6.258220036845245886e+02
1.860934527872948593e+03
2.135159825953988275e+03
1.226326975634552582e+03
6.886303827306894618e+02
5.789658806466069336e+02
9.125844667214980177e+01
-5.124118186915717388e+02
-1.282075707290475748e+03
-1.463712814168036630e+03
-1.861286245525950335e+03
-1.797799586827685289e+03
-1.909160527092785287e+03
-1.267250650170431527e+03
5.619510624860959069e+02
2.100383161351261606e+03
2.461048816964271282e+03
2.195005195781688599e+03
2.002437340455929188e+03
1.842475531065529367e+03
1.592064705547860513e+03
1.188170149155936542e+03
5.866949823010337468e+02
3.915747799713789163e+02
4.277056544641580871e+01
-4.270731670106680156e+01
-3.338962027865095479e+02
-4.748704592826683779e+02
1.873856833645970141e+02
7.419063652958043349e+02
9.117688569093166961e+02
7.379735140076717244e+02
7.445252428208273159e+02
8.194375582896479955e+02
6.306776166257672003e+02
2.625681556625986701e+01
-3.897730659472190951e+02
-8.441549615912461491e+01
8.472979844488229446e+02
1.001327295318266238e+03
5.577028065212791716e+02
1.245809747374433556e+02
-6.195288081054546581e+01
-1.509827377907232915e+02
6.332760762219367479e+01
3.340599200092916021e+02
1.324264684666267158e+02
4.615027493890758592e+02
5.681996975297798826e+02
4.664015472399514692e+02
-1.339580300115257785e+02
-6.889067980910849656e+02
-9.693691680013904488e+02
-8.363663688840732675e+02
-8.360459895132781867e+02
-1.268511584728316848e+03
-1.128745412030896887e+03
-7.946933492785807402e+02
-9.093238746236266934e+02
-1.058612291455957120e+03
-9.225397332976115194e+02
-1.152074340245494568e+03
-6.861567956538103772e+02
-4.777165686715348443e+02
-9.558120716555094987e+02
-8.164529355413711755e+02
-6.996132263845223633e+02
-6.083731186414788681e+02
7.033691350122431629e+01
-1.359973902825556138e+02
-4.610920593579758133e+02
-5.960811805938247971e+02
-5.637053315746952649e+02
-3.282745051657784643e+02
-2.835159906678728703e+02
-4.388679648729619203e+02
-2.988512634503853747e+02
-3.327679507865393020e+02
-2.477319778918733846e+02
-6.181649738336906097e+01
-5.310050651340665127e+02
-4.113451931406621611e+02
1.650942076844266637e+02
7.965436551213186931e+02
1.086299804209903868e+03
4.370854502466648910e+02
1.056494468502301629e+02
1.471488441956023792e+02
3.925917671033304828e+02
1.276230981909566253e+03
1.673021496437845144e+03
2.060755031256484017e+03
2.024535639936228108e+03
2.020337541082331427e+03
1.795307058917940594e+03
1.613602278376452432e+03
1.512439600419939552e+03
1.744660235685742009e+03
2.309735750612413540e+03
2.393192306279572676e+03
2.190490774752062862e+03
1.912348736166915614e+03
2.160738429585738231e+03
2.692880408893999174e+03
2.541249418080757096e+03
2.257410336982488388e+03
2.590231611831248301e+03
3.420535195810043660e+03
3.023331188889394980e+03
2.630705257983577667e+03
2.935617545008150046e+03
2.967132584471607515e+03
2.907297560863502895e+03
2.961048904876593042e+03
3.190325601454730531e+03
3.222156541049637326e+03
3.350616312170180663e+03
3.705718238169543383e+03
1.985356765098342748e+03
-1.200535853830494261e+03
-5.562001352429144390e+03
-6.070022312017636068e+03
-5.866589556610210821e+03
-5.770698634766182295e+03
-5.397287861276932745e+03
-5.727309869187301047e+03
-5.630731175209816683e+03
-5.191517821933874984e+03
-2.516710433113851650e+03
2.665631816364565566e+03
2.941540731658919867e+03
4.879834687270247287e+02
-4.512020943689670275e+03
-5.740430161789106933e+03
-5.969280432681497587e+03
-5.291513458512884426e+03
-3.999057980939518529e+03
-8.809554480254698774e+02
-3.613214391207683548e+03
-5.779799650767212370e+03
-5.413674410022443226e+03
-3.948789829972979078e+03
-4.867137565849681778e+03
-5.282719358145916885e+03
-5.502495279545404628e+03
-5.687447854596652178e+03
-5.390561512811592365e+03
-5.185810178698520758e+03
-5.259121146508931815e+03
-5.132519718247069250e+03
-5.232087413800520153e+03
-2.774786593037271814e+03
1.280437803025325593e+03
9.646611134405767416e+02
3.159101095470917926e+02
2.900136962593605404e+03
3.956420142648601086e+03
3.701794943200173293e+03
3.526309998842991263e+03
3.320880833534138219e+03
3.211540473453400409e+03
2.980406748435910686e+03
2.874529082815822676e+03
3.827922568589290677e+03
3.935544288649088230e+03
3.038478588274759659e+03
2.360773932210203839e+03
2.541467605417946288e+03
2.840580896321926957e+03
3.175163928175848469e+03
3.151162283745908098e+03
2.742488732564602742e+03
2.553178620751201379e+03
2.413309864448766348e+03
1.885961106674966459e+03
1.645139290363959617e+03
1.355822486023266947e+03
1.419040389496616399e+03
1.627801485609241354e+03
1.887135800304999748e+03
2.552019320711250202e+03
2.673494295104581397e+03
2.408554843575108862e+03
2.251179235532490111e+03
2.086283543145769727e+03
2.279094849746872114e+03
2.295294591469586067e+03
1.895221324545611424e+03
1.395009666161340647e+03
1.204594830397653368e+03
1.141018878486994481e+03
9.764174360264207735e+02
7.579360229580436226e+02
9.627480369358233929e+02
8.476435012831318545e+02
-5.535888395151021513e+01
-4.663987409407718587e+02
-7.624688984396254909e+02
-1.443631677970181272e+03
-1.489855350530083570e+03
-1.195934068491995049e+03
-5.539357139340924050e+02
-6.613106486244852249e+02
-1.407867156167095573e+03
-1.238529628871861178e+03
-1.041657475988560236e+03
-1.127014225829354245e+03
-1.093550221066116137e+03
-7.384700494898816032e+02
-5.248801281261555687e+02
-1.908105346589914006e+02
-2.163241406255350228e+02
-5.943877362945760296e+02
-1.050964194157856355e+03
-1.343169237463569516e+03
-1.097945156938977789e+03
-3.202881916791488948e+02
3.577363142841863350e+02
1.004183338967166719e+03
1.216021818514788038e+03
1.621228205599202738e+03
1.730756743817155666e+03
1.400576196242533342e+03
8.116750652445408605e+02
8.770429783903315410e+02
7.726709969252108294e+02
3.745423993635482134e+02
-7.473343027369260199e+02
-1.368008228160725366e+03
-1.665479734565651825e+03
-1.343722047280227343e+03
-8.457237305617046559e+02
-5.175408595115623029e+02
-1.552456581056333960e+02
2.581596540409354930e+02
8.116758220417781331e+02
1.133309882220488817e+03
9.460207974341517456e+02
9.478190843673329482e+02
1.754755302417539269e+03
1.790753633562226469e+03
1.476769794136190512e+03
1.392771673719756336e+03
1.258765486947270801e+03
6.407658956941759243e+02
2.367420281850233437e+02
-4.943125006430999520e+02
-5.684350309982947920e+02
1.163763539186002873e+02
1.031083785574978720e+03
1.083731088059655121e+03
-1.228611754599697861e+03
-5.141967340273527043e+03
-8.837455827736348510e+03
-9.009077033345149175e+03
-7.992893995425436515e+03
-4.944020820806314077e+03
-1.599533500646399943e+03
4.914802466912576051e+02
4.016468970674144856e+01
1.199599388855226607e+03
1.922747590319376513e+03
1.933673427218479901e+03
1.851284737084766221e+03
1.102574578635145144e+03
1.625730420915628542e+02
-8.467796124927480150e+02
-2.114480759285059776e+03
-3.041533323523855870e+03
-3.100954350792180321e+03
-2.949846124631270868e+03
-3.669306287767396498e+03
-5.159352592779846418e+03
-6.493924855570729051e+03
-5.588994830320356414e+03
-3.079591972540813458e+03
-8.346823122261246226e+02
1.827756529667672112e+03
3.601721067546585800e+03
4.811227828418058380e+03
5.560286869517324703e+03
6.292884941711360625e+03
6.272997502239696587e+03
5.556636057202199481e+03
4.679823291547613735e+03
3.962499272479053616e+03
3.715634524532827982e+03
3.438252808252696923e+03
3.253378371903569587e+03
3.185020003538892979e+03
2.653150127178115781e+03
1.963811848926391349e+03
1.941048686823788785e+03
1.786863233629379465e+03
1.133212277443368521e+03
-3.419931613429317849e+02
-2.056699154521363653e+03
-2.296820967871932226e+03
-1.299352010076040642e+03
-1.167305964831495203e+03
-3.129689130807652418e+03
-4.786517473706770033e+03
-3.518775986505509081e+03
-1.233433102306344153e+03
7.944728572914451661e+02
1.836970544523537455e+03
2.135053426591063271e+03
1.969783836268064761e+03
2.804195678008311461e+03
4.118280269393783783e+03
3.778005098585561427e+03
2.337418262321528800e+03
4.735648637103651595e+02
-7.856374491587743023e+02
-2.448171474579828100e+03
-3.876993541911232569e+03
-4.952118732207938592e+03
-6.106580813677552214e+03
-6.805343928975472409e+03
-6.590405428562456109e+03
-7.156744777513028566e+03
-7.531324140190533399e+03
-7.707181132258454454e+03
-9.028327757999462847e+03
-1.113271212639394980e+04
-1.075636220889533615e+04
-3.511222140550868517e+03
-4.226276718880969383e+03
-4.503505235270866251e+03
1.907039083440143486e+03
4.111361667838404173e+03
3.903461655510133824e+03
7.623333264693565070e+03
8.600962945109158682e+03
8.710375454008193628e+03
7.835561059412299073e+03
6.976509760834108420e+03
3.429296770964934240e+03
-1.510136632963902684e+03
-2.554845764025136759e+03
4.421561896213042360e+02
-3.112646925844872570e+00
-1.746598509234428093e+03
-2.265282088544680846e+03
-6.340217615362250399e+03
-4.326419359433811223e+03
-2.399937617644320653e+03
3.212270088015093279e+02
2.951050372219855490e+03
1.580579602406082586e+03
4.675801117574927957e+03
3.150711350174026848e+03
7.123480406389840027e+02
4.237658306180383988e+03
4.444615404733813193e+03
2.549176646925879140e+03
3.901350661578055224e+03
3.317175371391648696e+03
2.836636351965209997e+03
1.800693553999891947e+03
-1.127675712386486339e+03
1.640539979175866847e+03
2.627351719882851285e+03
1.605694135564971248e+03
7.850651889777638814e+01
-2.031181852211434489e+02
-5.941691964886848609e+02
-4.257143666780714852e+02
1.972816676466160857e+02
3.597849520799264269e+02
2.757418414226635832e+02
7.771069277406194260e+02
1.741897793093254222e+03
3.354096337535270777e+03
4.350719544214935922e+03
4.484914436005821699e+03
3.801784844063161017e+03
2.854377413699845420e+03
1.955356331380397251e+03
1.231803950446996168e+03
1.078966018429413225e+03
1.290808092465769278e+03
1.692386798886738006e+03
2.595628758382753858e+03
2.858513708603678424e+03
2.367828546461430960e+03
2.200242892487115569e+03
1.826119356434812516e+03
1.556740184508350239e+03
1.821588815167450321e+03
1.366093745351198550e+03
1.115948052066293485e+03
9.727155774384692677e+02
5.156514163899407777e+02
3.427933419151762564e+02
1.678110225027873810e+02
-4.804720568938852807e+02
-5.246505454257802512e+02
-3.505902760296605152e+02
-1.670134199219462516e+02
1.160752411930981509e+02
5.636320968186771552e+02
5.436627854341401189e+02
-2.874169397287301919e+00
1.379637587956115397e+02
2.792409305695506987e+02
-3.906402382047743771e+01
-3.639247148391638689e+02
-7.786274891299270848e+02
-1.010352204030321900e+03
-1.077559231362965193e+03
-1.342272636778645165e+03
-1.350058451211192505e+03
-1.438875632283664572e+03
-1.869668695840157170e+03
-2.389423539410171088e+03
-2.611133196178668186e+03
-2.421797001709266624e+03
-2.397410835497211792e+03
-2.332965704345748691e+03
-2.502536225388284947e+03
-2.357040369947296767e+03
-2.167412824536559583e+03
-2.014602575551692098e+03
-2.059681758541230010e+03
-1.645660821558847829e+03
-1.587518756931709277e+03
-1.479164361563066677e+03
-1.348587521500178354e+03
-1.480774438548030048e+03
-1.232707642314212080e+03
-8.312995004882488956e+02
-8.375302050114014492e+02
-7.243806526312002916e+02
-5.198438110385723121e+02
-1.219213755479003680e+02
-2.935936881070799132e+02
-1.287316090958524128e+01
2.953383495329226207e+02
-1.679185260438717933e+02
-2.098599791743035894e+03
-1.386674677367146614e+03
-5.697110144730016145e+03
-6.684818338964274517e+03
-6.255773798873374290e+03
-6.025934006051320466e+03
-5.368228143978339176e+03
-5.317621902313401733e+03
-5.656110505595104769e+03
-5.363610656197638491e+03
-4.513094931568746688e+03
-2.747511225725434088e+03
-3.688754035245809519e+03
-3.609712148656264162e+03
-4.134415510284309676e+03
-4.567745623170995714e+03
-1.276686309713328228e+03
1.214731118587333413e+03
-2.824457646024888618e+03
-3.417132971482932135e+03
-2.878185781685992879e+03
-2.184631987473948357e+03
1.017548530344014353e+03
4.370464470358905601e+03
5.890114338822199898e+03
6.431528913354451106e+03
6.801798120237013791e+03
6.196939835060314181e+03
5.933034131885008719e+03
6.011165644953672199e+03
5.726346799872942938e+03
5.487703942154346805e+03
5.160265421796586452e+03
4.579015975060520759e+03
4.184935420157806220e+03
3.772086484948915768e+03
3.615571351371632772e+03
3.505403989270099828e+03
3.549671145562170295e+03
3.278483663482829797e+03
3.002895146748687239e+03
2.757929917659394050e+03
2.404669177354677686e+03
2.265167733241654332e+03
1.953539668296133186e+03
1.664806149480177510e+03
1.360999119074973351e+03
1.475109932927571208e+03
1.470149862910581078e+03
1.290165077327987092e+03
9.671878794389193672e+02
4.742582172409026953e+02
3.963802624751473331e+02
2.805861380149067372e+02
1.219836670938176439e+02
1.785952229599491545e+02
-5.861631232677000014e+01
-4.405972656686175242e+02
-4.922650947507704586e+02
-5.406076097435628753e+02
-5.205581650693682150e+02
-6.600657152505414160e+02
-6.151013693102958086e+02
-8.586368105738049508e+02
-5.718060043509473189e+02
-6.465146827851790476e+02
-9.570143306183175582e+02
-5.629843503263264211e+02
-6.119555398538127520e+02
-1.189814279784465270e+03
-4.824994108762179508e+02
5.217963189750429365e+02
4.539576455320246851e+02
3.895997247006411612e+01
-1.060076371985526293e+03
-1.018585250414603024e+03
-1.041467744496733076e+03
-1.207849237668059004e+03
1.192115945315404701e+02
1.587636753250096433e+02
5.879048279964693258e+00
4.662775647100973231e+01
-6.105744566071343371e+01
-3.141854060061958762e+02
-2.871519784097721839e+01
5.436063006649298757e+01
-2.410452528681301203e+02
-1.820025362747955455e+02
-6.548806772426812017e+01
1.455502696543944019e+01
-7.983035827304513532e+01
-5.449179105067230466e+02
-5.959162190659882299e+02
-4.378502744806225451e+02
-5.067809714617782788e+02
-6.857859209243363239e+02
-3.819490341767305495e+02
-4.053170311459302297e+02
-5.319166055866659235e+02
-7.987351404856453883e+02
-6.887567729633391309e+02
-4.209663049440869145e+02
-4.503805846162063631e+02
-4.851333949197621678e+02
-5.932623726144665852e+02
-4.547868125382992162e+02
-6.317691107956136420e+02
-5.932633886216981409e+02
-5.513169880316429499e+02
-4.520422027933148001e+02
-2.064851765864061974e+02
-3.596340085189453362e+02
-5.684669657473111783e+02
-4.040292777396271617e+02
-3.015052547476722680e+02
-2.700685255920780605e+02
-3.436752071000476576e+02
-4.031328232816014179e+02
-2.205009821792875471e+02
-1.541273915654610676e+02
-1.132010527774820901e+02
6.218502726655576396e+01
-1.610423463562320308e+02
-3.279024918345329525e+02
-2.833687825338219568e+02
-2.786045860343048730e+02
-4.127045233328846621e+02
-1.206086686085607198e+02
2.536725141832771726e+02
3.004858214940433925e+01
1.825312479339574736e+02
4.383094837183625714e+02
3.641963564354061305e+02
-9.010777168157652284e+00
-5.043461529685519622e+02
-3.789063032566078846e+02
-2.099010497792660885e+02
-3.633369318500709824e+02
-5.592249435920704173e+02
-1.076660209448597470e+03
-1.077817133244269826e+03
-7.944590539180279620e+02
-6.378778467959908767e+02
-5.137691748426958611e+02
2.770243679503088075e+01
5.514103865416677053e+01
3.838173379386586817e+02
5.678737138366994941e+02
4.272873528115451336e+02
3.390196635521210737e+02
3.699577268205669043e+02
3.811224339942021402e+02
3.815522029676675970e+02
6.822144567834415056e+02
8.243026055981415539e+02
8.248730745485769376e+02
8.824256035869902917e+02
9.802915829354693642e+02
7.814066275318818953e+02
1.048519973417680831e+03
1.013953845946173601e+03
1.078474252157971932e+03
1.371787496360050227e+03
1.430286252327002785e+03
1.311633405423011709e+03
1.477331907225591749e+03
1.588046970751477602e+03
1.462246916973914495e+03
1.927138677329384564e+03
1.892146887091032340e+03
1.952436407801472114e+03
2.007004008144713907e+03
1.857728618668677882e+03
1.987795510256542457e+03
1.902740626323649849e+03
1.926577342322769255e+03
2.197093080216225189e+03
2.123249866929249038e+03
2.110962787656856563e+03
1.988358657849451902e+03
1.824471070655098629e+03
1.783354925933208960e+03
1.922923552597084608e+03
2.045237229583976614e+03
2.624218074956952933e+03
2.931799362860410383e+03
2.838048933650271010e+03
2.459000162696293046e+03
2.205580360330135136e+03
1.908756304985835413e+03
2.272549196671311165e+03
2.494000661591118842e+03
2.068162226163194646e+03
-9.587668144339534138e+01
-3.980051015776512486e+03
-6.853292337618880083e+03
-6.856547976036554246e+03
-6.800803751142564579e+03
-6.512078668250846022e+03
-6.581381325224871034e+03
-6.308695470448856213e+03
-5.876928245854918714e+03
-5.960018467823114406e+03
-5.387025750817851986e+03
-3.806777966340678176e+03
1.511800052861410904e+03
3.604713814935224036e+03
2.972119373463267038e+03
-2.960963582609792411e+03
-5.717567923166302535e+03
-5.824636360315582351e+03
-2.588116514176133023e+03
-9.139078971931694468e+02
-4.718931019920823928e+03
-5.998172447433571506e+03
-6.087608809476526403e+03
-5.779146625048126225e+03
-5.775786907739235176e+03
-5.595512961800836820e+03
-5.294274733823190218e+03
-5.682942061871489386e+03
-5.448430589110615074e+03
-5.140686860943786087e+03
-4.531730470876517757e+03
-4.612546143236478201e+03
-4.516970721357564798e+03
-8.609220609651757741e+02
3.031601919717868896e+03
3.764691774457176507e+03
4.125425452427098207e+03
4.007813681852421269e+03
4.048960101993164244e+03
4.056886175092581198e+03
4.066558083619026092e+03
3.857042686148314260e+03
3.700402725624216146e+03
3.609582859979871955e+03
3.738700863978175676e+03
3.421822965965246112e+03
3.587012306199169416e+03
3.442288193702787794e+03
3.082655916414635158e+03
2.812133169226760401e+03
3.171785012662982354e+03
2.990654439992308653e+03
2.811779955682363834e+03
2.516223671551906136e+03
2.533973929716817565e+03
2.701037063500914883e+03
2.687444653068022490e+03
2.751240596269261005e+03
2.605451271633991382e+03
2.402100943266192644e+03
2.104254343006136878e+03
2.182891398333030793e+03
1.920003524197399429e+03
1.770720015059263460e+03
1.439109147026197206e+03
1.358917213963262839e+03
1.814578910962948612e+03
1.664292473054784296e+03
1.248048718262991315e+03
1.394804739102851272e+03
1.578571282389315456e+03
1.101405313052634483e+03
9.413578146812017167e+02
9.593915020500809305e+02
7.214971577423732469e+02
2.205361850355649267e+02
8.836980803113355023e+02
6.279877465906881753e+02
7.494084117395768772e+02
1.056010034037562718e+03
7.027224129033651252e+02
5.831940065755906062e+02
6.755844535836772593e+02
7.979732056017867308e+02
9.404425560590167379e+02
7.589663232819458472e+02
1.065370182645847080e+03
8.098217590647434463e+02
5.950396118347121046e+02
7.979054939074386539e+02
7.733717075384302007e+02
7.815605142341549936e+02
7.995039351811063852e+02
1.216082083133493086e+01
1.565024639607157440e+02
6.054985421623749744e+02
9.671303018829019038e+02
4.793961016818697658e+02
1.662969424239956027e+02
1.278003475600125114e+02
-1.711016515818177766e+02
-3.084307906962192760e+02
-1.502270200443152817e+02
-3.414811115877377006e+02
-2.982023254510746142e+02
2.960337216563763008e+01
1.379422109005762707e+02
2.047798008707594590e+02
2.390989889373740596e+02
3.308907064308273220e+02
3.981125517352250540e+02
3.527219530739854463e+02
2.917588307696866536e+02
2.322153288393375874e+02
3.340402466538909039e+02
2.622071099725031900e+02
-5.129318372344501142e+01
2.456252179533317914e+01
1.177766915220848176e+02
2.332464572292615230e+02
-7.102442759387527360e+01
-1.620201724779272183e+02
-3.448035956111619385e+02
-1.124376409850667784e+02
-1.249275013735810802e+02
6.753517649021929969e+00
-2.934886124210619300e+02
-2.352620788855906540e+03
-2.976725484104017141e+03
-7.302781773863314811e+03
-9.340806686449242989e+03
-8.399832997429866737e+03
-8.514896010988975831e+03
-8.836982455594919884e+03
-8.754146227832234217e+03
-8.929472333067191357e+03
-6.605895961768407687e+03
-4.883890688669563360e+02
4.790622112135486645e+02
5.884177404066423378e+02
9.276773261078087671e+02
3.998210192679606507e+02
-1.372736338657561248e+02
2.724577159462472764e+02
1.145984056631586100e+03
1.047300051587725875e+03
6.844162468628197757e+02
4.833170277563331751e+02
7.390014575663570895e+02
1.016457544794740329e+03
1.024716709549467396e+03
7.417388902799112884e+02
4.775003733020216146e+02
1.044005417372261036e+03
8.092841930549178642e+02
3.693581353583384725e+02
4.402122594597553302e+02
1.462858250393881917e+03
1.914296777820174157e+03
1.691528569535672432e+03
1.115531920091797247e+03
8.263419463249181263e+02
5.429710070494066940e+02
1.784155221164983232e+02
2.096806088227441478e+02
6.797533139131022608e+02
4.726934806593877738e+02
3.194970010350922394e+02
6.811929656364519587e+02
1.158792653719248392e+03
1.212292030721692981e+03
1.093683379521388815e+03
8.359961583856702418e+02
5.552553349937014673e+02
6.004565769287157764e+02
6.656366522618818635e+02
2.998497787367429055e+02
-5.029056476319479430e+02
-1.567636417124032960e+03
-2.117311803294944184e+03
-1.650897007151935895e+03
-1.074363343690371494e+03
-1.088734592981397554e+03
-1.116002805641116993e+03
-1.100148529076410341e+03
-1.773102214918492336e+03
-2.540777347051064226e+03
-2.615171646446065552e+03
-2.832311700356191977e+03
-2.595160272940598134e+03
-2.117729622478737838e+03
-2.146032808922140248e+03
-3.462028866562643998e+03
-3.725596175278205919e+03
-1.107805798892445182e+03
4.343496253027659009e+02
5.899717717185413903e+02
9.850964866553866841e+02
1.450735276483402913e+03
1.067872269596909518e+03
6.495222734197885757e+02
1.143764501416563007e+03
1.646620901187316349e+03
-7.139439875061295879e+02
-6.068665661329473551e+02
-1.095110864563314635e+03
-1.888717354300724310e+03
2.305318438374409652e+03
3.287944085165097931e+03
3.415218019138053478e+03
3.113130739083317167e+03
8.127392085819215026e+02
3.168055935077436061e+03
2.954085420482209429e+03
2.945869359039312258e+03
3.022397534132415331e+03
3.141671044921205976e+03
3.127701243429000442e+03
1.780483403938679885e+03
-3.089991808020630288e+03
1.108305433790990719e+03
2.718405364573080988e+03
-7.863196622712369788e+01
2.737145896394077226e+03
-1.243331685778700830e+03
-3.504083751124792343e+03
4.018807242274491500e+02
2.637607200250388814e+03
-6.289119827731915393e+02
9.632992221413977632e+02
9.542562641134667274e+02
-7.360369951055249658e+02
2.005308143494317392e+03
5.413601472673378794e+02
-4.432893532394962676e+03
-3.964840659613605567e+02
-3.378344889164869983e+03
-1.315560214013698896e+03
1.637869574222696428e+03
1.568906574234429399e+03
-1.791496869680205691e+03
-8.512991037205761131e+02
7.774652612306011861e+02
1.055787594515010596e+03
1.216658818933514794e+03
1.238018956857689091e+03
1.842831541274581923e+03
1.977072268512670007e+03
1.666698053507814848e+03
1.680681393903388425e+03
1.715035585031536357e+03
1.184740981174695435e+03
4.857351611403364018e+02
7.140556515226927559e+02
9.656074974957564336e+02
8.502328373005132107e+02
5.848602355133375568e+02
2.117813654989933525e+02
5.644162918583779032e+01
1.137752451331333958e+02
4.295524972809261612e+02
4.766904682689244055e+02
1.871505837462187003e+02
2.649148459727034606e+02
5.939136212737619189e+02
4.182726979004754071e+02
-1.050040435553100906e+03
-1.388476338122756943e+03
-1.365188692053650811e+03
-1.325615667272946894e+03
-5.207323069663725619e+02
2.443340000125371603e+02
1.084873406299175969e+02
-3.943433293265450175e+02
-7.763697775810871917e+02
-5.868175963755852536e+02
-5.843635429639818994e+02
-5.470749942650919593e+02
-6.435076535936196933e+02
-8.882050795300185086e+01
3.120030807123108829e+01
-4.431213701570837316e+01
-6.634860171990624167e+02
-1.031400339307505419e+03
-3.279233310030192570e+02
6.318877517086609714e+02
2.479508234754565024e+02
-9.218263797150747223e+02
-1.038470858254872383e+03
-6.489443581711853994e+02
-7.476495842964066014e+02
