-9.673289559818415455e+02
-1.070221029104913669e+03
-1.114004934940127214e+03
-1.053827441060898082e+03
-4.327947648752394798e+02
3.600954212460773647e+02
1.055751070068563649e+03
1.230054749833482447e+03
2.098068829545910376e+03
2.392956189397046273e+03
2.049794918786991275e+03
1.162595717577774849e+03
2.483753936183713904e+02
-3.368098813036906449e+02
5.920067762685389425e+02
7.046581705432090530e+02
2.987535475867226751e+02
-7.719011875951534876e+02
-1.940995906656106854e+03
-1.918392853424141776e+03
-2.058405391238633001e+03
-1.965131746309531081e+03
-1.628815793126104836e+03
-1.268047676386026069e+03
1.523190458481643930e+02
9.956450894726330034e+02
6.380443845925898358e+02
1.073660257192600653e+02
-6.318495544606040539e+02
-1.083712123827030155e+03
-1.199804664724137183e+03
-1.007396768717377654e+03
-8.497371379483220153e+02
-4.347048970535788044e+02
3.755660460617562535e+02
1.095262129917529364e+03
1.058900434237411218e+03
1.029533140516038429e+03
1.435232143139817254e+03
1.497635292338663930e+03
1.454974608224472377e+03
1.070858159092186270e+03
7.847079710123931591e+02
4.681916724741635107e+02
-2.331898142925765853e+02
8.763719852814593025e+01
5.365357663071046090e+02
3.603119823310120182e+02
3.298951639474191211e+02
1.043246891260566827e+03
2.242280437506991802e+03
2.432861943574411271e+03
3.196844551542421868e+03
4.040971952562081697e+03
3.620195134104354565e+03
2.555555014028257574e+03
1.607897807120239577e+03
1.315190712196208096e+03
2.122281352879891983e+03
4.147096218985192536e+03
5.110593915671262948e+03
4.823694992712800740e+03
3.673318735698423552e+03
2.732382186245586581e+03
1.857732530966972263e+03
1.063355025494187885e+03
-8.327520792196244201e+02
-3.178680023754494414e+03
-5.196613479955058210e+03
-3.871662354342493472e+03
-4.054921717909329345e+03
-4.896550430649668670e+03
-4.460637810768618692e+03
-2.912109995763448296e+03
-2.503969712087704465e+03
-2.835396872342082588e+03
-3.353527349360756034e+03
-3.458364196807003282e+03
-4.424014821708306044e+03
-3.826466252292724221e+03
2.486388230532475973e+03
3.980313213625666322e+03
4.122013496856413326e+02
-4.513929792065280708e+03
-2.300070488871018370e+03
-2.968184726323894665e+03
-6.982366805091768583e+03
-7.912638924724389653e+03
-8.073078011917667027e+03
-8.018674949747069149e+03
-7.851412881057104642e+03
-6.993282112863192197e+03
-6.499382785034194967e+03
-5.720638798623705043e+03
-2.435022815468495537e+03
2.498519250714245572e+03
2.228012303716823226e+03
3.018528620768567635e+03
3.842138920397458151e+03
5.562842962118102150e+03
5.819578708578411351e+03
5.761507952570775160e+03
6.411677212106282241e+03
6.596038801633277217e+03
6.389683735668177178e+03
6.170683028125638884e+03
6.178083575389001453e+03
5.782019306025682454e+03
5.017602671308238314e+03
4.515894278132621366e+03
4.283048444467124682e+03
4.082177822966649273e+03
3.841380853539482359e+03
3.860825187866168562e+03
4.372625085668441898e+03
4.343910622301248623e+03
3.979836952426161588e+03
3.672577380082205309e+03
3.072204005820234215e+03
1.867778094117742967e+03
7.634861170459832920e+02
2.984709111184123458e+02
1.748411550997037978e+02
6.057679476477244407e+02
4.683491633448052198e+02
4.457265328789661112e+02
1.821065699563941678e+02
-8.883443640030545794e+02
-1.504415945583681832e+03
-2.437942500938318972e+03
-3.485684497352325252e+03
-2.397428469908347324e+03
-6.600522346304380790e+02
3.247037393802074234e+02
-5.728646223123265599e+02
-1.808571561951291187e+03
-2.527230228185085252e+03
-2.797682020017334708e+03
-3.172658058741313198e+03
-3.901012944234586939e+03
-5.397179986289274893e+03
-4.995164724406371533e+03
-5.032638497479302714e+03
-6.825322990079755982e+03
-6.563970547162887669e+03
-4.553563527139084727e+03
-3.246850865460931345e+03
-3.171548748503256775e+03
-2.289422183071762902e+03
-1.552289433021407376e+03
-1.745088764227510183e+03
-2.522609798095439601e+03
-3.321665128418499535e+03
-3.561152276838884063e+03
-3.481963140071838097e+03
-3.270937777720652321e+03
-3.606838729375569528e+03
-3.915442501217974950e+03
-3.550601579359793050e+03
-3.453997297782318583e+03
-2.810216266897504738e+03
-2.504071037612039163e+03
-2.687397084966966304e+03
-2.589124821845062343e+03
-2.498152073351075160e+03
-2.513349541418724129e+03
-3.022563103481209964e+03
-3.025569571944131894e+03
-3.288162075573526181e+03
-4.024274352298954454e+03
-4.782697433324681697e+03
-5.526237602514713217e+03
-5.774727447631104042e+03
-5.052033335478835397e+03
-3.782885778906703308e+03
-2.713037179007821123e+03
-5.453799121927778515e+02
3.621916846391033573e+02
-4.653551947530871757e+02
-1.810974854896163606e+03
-1.845555727365596113e+03
-1.850992272310086946e+03
-2.122138502949911526e+03
-2.119982926471861447e+03
-2.132388775728652035e+03
-9.512409405849629138e+02
6.258747871437135046e+01
3.011913726962511646e+02
4.944871644376759718e+02
2.224015199056899519e+02
3.999593272175536640e+02
1.631261503043231187e+03
2.974377554971644713e+03
3.617228908143732951e+03
1.691829124850767357e+03
-1.202845099631962739e+03
-4.110850937120178060e+03
6.388684035190708528e+02
3.076356186948131835e+03
3.127574694654446830e+03
3.189585883446412936e+03
3.144298742190828762e+03
3.296600647244233642e+03
3.391516468159615670e+03
3.858972995070153502e+03
4.195926725479053857e+03
4.349125839379597892e+03
4.241491333004885746e+03
4.158094415879289045e+03
3.932634481732518907e+03
2.596056597245919875e+03
1.485290621684603366e+03
2.252150317170230664e+03
3.233587288552588234e+03
3.037624425589508519e+03
3.167122412703015470e+03
2.853915099727373217e+03
2.562792093009735709e+03
1.938504632183109607e+03
1.393950139384344538e+03
1.969945353634932644e+03
3.170293117639725551e+03
3.424820731798780798e+03
3.241274257122717700e+03
2.996429792634375190e+03
3.122077291885385876e+03
3.596989551118864256e+03
3.522014586489349313e+03
3.556046586474978540e+03
3.906944239259142250e+03
4.023458306465590340e+03
3.811396246754981348e+03
3.561480279241736298e+03
3.312436729420559459e+03
2.926993595862750226e+03
2.853934813756993663e+03
2.254121140565070164e+03
2.220262494761532707e+03
2.639015196279288375e+03
2.385142792292577724e+03
2.182457381643581812e+03
1.514750238173355228e+03
6.677985394164358013e+02
1.218330798162399560e+03
2.110044809192135745e+03
2.452680985909931223e+03
2.038025306229404123e+03
1.505904063213239851e+03
9.900344324057315362e+02
1.855141918488015563e+03
3.027012100074277441e+03
2.785355634760971043e+03
3.023830455125320896e+03
3.596320117304451287e+03
3.696531860052396496e+03
3.525191631701193273e+03
3.946063959163141590e+03
4.636892631194038586e+03
5.471371000993274720e+03
5.250196958499329412e+03
3.384105572935144210e+03
1.719909906173352510e+03
-5.935918666022507750e+02
-4.350701711393686310e+03
-7.786653137591643826e+03
-9.401675382787816488e+03
-9.466883460065475447e+03
-8.233510551481322182e+03
-6.178726284658462646e+03
-3.516716880635046437e+03
-2.752329443536459166e+03
-3.379959193016611152e+03
-5.229591031491313515e+03
-5.347269833427570120e+03
-3.505203832390148364e+03
1.742259301989059622e+03
3.119772198406212283e+03
3.028106885566171513e+03
2.717048238730812500e+03
-1.511635932080106613e+03
-5.464055121257344581e+03
-5.442496799885792825e+03
-5.738259642535084822e+03
-3.028616195214521213e+03
-3.934788964837163803e+03
-7.367775290541997492e+03
-7.635502729802463364e+03
-7.658059623701339660e+03
-7.800743925912630402e+03
-7.925914703331018245e+03
-8.416844396085893095e+03
-8.317599381139727484e+03
-8.030293117106476529e+03
-8.807033152865673401e+03
-8.810814469815377379e+03
-9.370675091239036192e+03
-9.711592237396360360e+03
-8.753597434137100208e+03
-4.496743307362014093e+03
-3.616992001763430835e+03
-3.164306869245749112e+03
-1.830698467327729531e+03
-1.687363186227133383e+03
-2.384141102610433791e+03
-2.887829181878553300e+03
-2.739321714740014613e+03
-2.238594666723827686e+03
-2.165873334266028905e+03
-2.355124937542901989e+03
-2.956487779080520340e+03
-3.141134859255756965e+03
-2.670977032152354241e+03
-2.726949050789660305e+03
-2.359952936114957993e+03
-2.656116595291139220e+03
-3.044556641256691364e+03
-3.077087135198823944e+03
-2.810503004634215358e+03
-2.582617916052744931e+03
-2.618201133632149322e+03
-3.049202510998404705e+03
-2.786035167434040886e+03
-1.303482350570792278e+03
3.723359094790090467e+02
1.158930499255650147e+03
1.669514610721604186e+03
2.131062918114181230e+03
1.722086697221856411e+03
9.590490786796618750e+02
1.447644374004649535e+03
3.167670016714723261e+03
3.767970148665790020e+03
3.259530298276506983e+03
3.361005461946673677e+03
3.029851649202994395e+03
3.540549167289217166e+03
4.211010295266733920e+03
4.803423572746006357e+03
4.455496039370626022e+03
4.128423520850368732e+03
4.569630002213382795e+03
5.642335095871471822e+03
6.291519650454530165e+03
6.839226863267718727e+03
6.580909424967580890e+03
6.807114054450726144e+03
7.206779800772807903e+03
7.319309484064400749e+03
6.215028421909295503e+03
5.456412652633527614e+03
4.977412807290708770e+03
4.530335287454613535e+03
4.394915077660835777e+03
5.090523583951460751e+03
6.280936052225789354e+03
6.906974296951169890e+03
6.534827556555818774e+03
7.023859000396530973e+03
7.657427529737311488e+03
7.192824683655807348e+03
6.514948703594758626e+03
6.216566265030005525e+03
5.917913386903989704e+03
5.390538332173089657e+03
4.457178963738443599e+03
3.094679256489775980e+03
2.282081755612221514e+03
1.492031450125143692e+03
9.463210449087922598e+02
6.978358006648992387e+02
7.383112111713073773e+02
1.488801526220917367e+03
2.439672443063243009e+03
3.625325061970441311e+03
4.341814872196261604e+03
4.483949928442520104e+03
4.925983481357460732e+03
5.227443415667623412e+03
5.146414631911975448e+03
5.305235512013155130e+03
4.957185648373469121e+03
4.132778715809502501e+03
3.418739165210186002e+03
2.873532013844349422e+03
2.555206893847504944e+03
1.787591930683609917e+03
1.154719424039454225e+03
8.645752577465842705e+02
-4.440739450941141087e+01
-4.518796631875602543e+02
2.613065622591284978e+02
9.691981546957511000e+02
1.342064859096682540e+03
1.194725922437977260e+03
3.123677705159404354e+02
-2.743812476048619828e+03
-4.762747018684877730e+03
-8.539674647479796477e+03
-1.025460405952481415e+04
-1.104395839663532388e+04
-1.145512306446174443e+04
-1.144194517026577887e+04
-7.395711303735170077e+03
-5.284673243123370412e+03
-3.325559592000471184e+03
-2.292236341607077975e+03
-2.657637895639114959e+03
-2.264556763882399082e+03
-1.781719596125563157e+03
-2.019930794082597686e+03
-2.006045259315603971e+03
-1.829979819101381963e+03
-2.009378655121060319e+03
-2.912689727430458788e+03
-4.719498511137898277e+03
-5.511518235035984617e+03
-4.093530567619749945e+03
-2.109682353920892183e+03
-2.142585871382124196e+02
8.638407961644958277e+02
9.927059799404948990e+02
1.623117881907459150e+02
-8.884560222210939173e+02
-1.707433748374227434e+03
-1.889428798148960141e+03
-2.784286902616929183e+03
-3.673699480774651420e+03
-4.588317931619298179e+03
-5.600268901626382103e+03
-6.753023022705684525e+03
-6.373890238550021422e+03
-4.616238415222062940e+03
-2.252474272621781893e+03
-3.520457735755769022e+02
-1.010144557421428715e+02
-4.773856224472622216e+02
-1.109347618213014357e+03
-1.714653493604034793e+03
-1.679099221773245745e+03
-2.405681477646099665e+03
-2.832221354150841307e+03
-2.334582996497337717e+03
-6.387672522154452963e+02
1.727432393321206291e+03
3.133060844147421449e+03
3.350099307982190112e+03
2.927608427510050660e+03
2.999538981264119684e+03
2.991656083053449947e+03
2.394699366826621826e+03
1.914648559779018115e+03
1.350707435036026027e+03
6.893123125140256207e+02
3.866084379000719196e+02
-8.386457267839510621e+01
-6.769703416512020340e+02
-2.928960380609275944e+02
3.386090095583556945e+02
5.336996235008712119e+02
1.201456297061483383e+03
1.665660883657485329e+03
1.522192642002865796e+03
4.757252344644807067e+02
-1.471409680717431741e+02
7.825894123130250364e+02
-1.220749043164980385e+01
-6.837219943555894588e+02
-1.363156385176748472e+03
-2.608743028594545649e+03
-2.953949661095677584e+03
-1.538019191088593743e+03
1.949176123446987106e+02
1.422662511084332436e+03
2.093955238030594955e+03
2.441545501057526053e+03
3.133213681315950453e+03
3.681746805779579063e+03
3.977835234592648703e+03
4.549075093846221534e+03
5.228481668754437123e+03
5.299988474941782442e+03
4.399371810928358173e+03
3.338476056529242669e+03
2.401948805089739835e+03
2.660422545674084176e+03
3.292667532509093235e+03
3.609486688495219369e+03
4.188807640886864647e+03
4.447462474595225103e+03
4.217328698227149289e+03
3.854008661424400088e+03
3.920248855996384464e+03
4.640602929429197502e+03
5.169247754337025981e+03
4.756001676511114056e+03
4.073653427095212010e+03
4.004109952893977606e+03
4.223079969841051025e+03
4.315387472277507186e+03
3.864959510350310666e+03
3.119526241013691561e+03
2.412809361196639202e+03
1.604720098592171553e+03
1.576155388261049666e+03
1.787974306003057109e+03
2.818112036612236352e+03
3.800437316506739080e+03
3.629903369189778914e+03
2.850630311526404967e+03
3.173461186953820743e+03
4.330265353401248831e+03
4.885060696154248944e+03
4.785802604454824177e+03
4.663343997307870268e+03
4.194615794965590794e+03
2.844368017863200748e+03
9.305307135945519121e+02
1.723481092299602224e+01
-1.965117477385757923e+02
-1.329745160281829840e+03
-3.287303959777014825e+03
-4.893004411111051013e+03
-5.853984770911979467e+03
-8.047441870979100713e+03
-1.104546718312063967e+04
-1.490223835827372022e+04
-1.446859514791561560e+04
-1.497028958065297957e+04
-1.325077879836064494e+04
-9.429115703197525363e+03
-5.664325837427413717e+03
-3.532790138718391063e+03
-1.915876167398314692e+03
-6.594479590941592733e+02
7.231570427055322625e+02
2.036000781989674806e+03
4.798255802706795293e+03
8.108004910955498417e+03
1.008410837099306264e+04
9.638458079848269335e+03
7.658980879273044593e+03
6.818203691589767004e+03
8.990543683691219485e+03
1.278787056060029317e+04
1.559942549212944505e+04
1.578710793399965223e+04
1.410631029754320843e+04
1.318420709871990039e+04
1.192192949861654961e+04
9.286351941334922230e+03
7.167536644286721639e+03
5.522547992761434216e+03
4.393980654984185094e+03
3.223842157660684734e+03
1.231383779499966749e+03
-1.413997512648271595e+02
-9.748538929524975174e+02
-2.384733580663679277e+03
-5.695762843379140577e+03
-7.187743222075717313e+03
-6.727525056071125618e+03
-4.444081850363691046e+03
-2.493302598402848957e+02
2.557871598122964770e+03
5.494733829739605426e+03
7.739495766026017918e+03
8.007388937240830273e+03
7.747574086500283556e+03
6.768227711770374299e+03
6.032670820496624401e+03
2.902993967759508905e+03
-2.524597985730449636e+03
-6.118912874056814871e+03
-9.779658477938422948e+03
-1.450551831732803294e+04
-1.996415744146588986e+04
-2.804338111122644113e+04
-3.183907685702871822e+04
-3.559928122700893437e+04
-4.592698908693619887e+04
-5.508503915835655789e+04
-5.153117503356106317e+04
-4.574120990050252294e+04
-3.439406480440052110e+04
-1.581364830124288528e+04
3.233215335164356475e+03
9.851608994227854055e+03
1.316662449374435892e+04
1.440846488246594163e+04
8.488512334857839960e+03
5.733917093947956346e+03
5.858724847503550336e+03
4.169948685962441232e+03
-4.800288463516385491e+03
-1.291597593287652853e+04
-1.457312588272824541e+04
-1.598875938076532839e+04
-2.429191586955387538e+04
-4.130560226693118602e+04
-5.556670192970172502e+04
-6.773025156498342403e+04
-6.309726842941255018e+04
-4.600984683154540835e+04
-2.054800021348291557e+04
8.522761139961675099e+02
1.819012417845084929e+04
2.329448341346408779e+04
2.072216572105009254e+04
1.407208251217033649e+04
2.995125320308526625e+03
-1.376911210748650319e+03
-1.221520821183451699e+04
-1.015689925619437781e+04
8.515894598867189416e+03
2.033791413566152914e+04
2.355997675482432169e+04
2.326898357992717138e+04
1.639276949852281541e+04
8.209123532126317514e+03
3.201846830497494921e+03
4.370811229252712110e+03
1.512686816603071566e+04
2.732482441939931596e+04
3.571340220001786656e+04
4.118038409611745737e+04
4.418252233038856502e+04
4.216153916429851961e+04
3.869111282246316114e+04
3.673192136176509666e+04
3.737064596100701601e+04
3.670291015612678893e+04
3.023046951089082359e+04
2.226211786885449692e+04
1.711553105040150695e+04
9.800347358351604271e+03
3.192262192686840990e+03
-3.008062725993182994e+03
-6.520880964514529296e+03
-2.671446839715743408e+03
6.577951951606824878e+03
1.601588680719054355e+04
2.393693169099282750e+04
3.214678335174491804e+04
4.032353989551552513e+04
4.326419273488534236e+04
3.687397370415926707e+04
2.849519595590043537e+04
2.910756872016365014e+04
3.140610164440409426e+04
3.029347877342714492e+04
3.027520914382562842e+04
3.129415510535178691e+04
3.143529730870579806e+04
2.527022581138875830e+04
1.752876625586739465e+04
1.391555803865304188e+04
1.440627823834754963e+04
1.789442090950932106e+04
1.906656562667316393e+04
1.509549080161066922e+04
1.126592985809966558e+04
7.871288090204503533e+03
3.036244762239264219e+03
-2.647417365914294351e+03
-8.298075683034337999e+03
-1.449901902689151939e+04
-2.141345182705644766e+04
-3.032775183269114859e+04
-3.797426813497557305e+04
-4.190825959052552935e+04
-4.242487147878990072e+04
-3.946424411564524780e+04
-3.391866286668896646e+04
-2.932750495355422390e+04
-2.892404760628366421e+04
-2.850854680915255449e+04
-2.729816515685264312e+04
-2.698002227866127942e+04
-2.921316675566160484e+04
-3.114276191091466535e+04
-3.103799683968133104e+04
-2.962303406840384196e+04
-2.448290009308342269e+04
-1.332371474203801154e+04
-1.152594585728814081e+03
8.038393588021042888e+03
1.663825612122146049e+04
2.347286142569509320e+04
2.672099998999074887e+04
2.637755170363597426e+04
2.436748367261686508e+04
2.003589882489071533e+04
1.103482682916576960e+04
4.614351483216266388e+03
-3.505318977311815161e+02
-6.759834279508887448e+03
-1.182349875083384723e+04
-1.604943967390150283e+04
-1.961766465574095855e+04
-2.064430108306291731e+04
-2.155643027736893055e+04
-2.249985048639931483e+04
-2.281832606256947838e+04
-2.284165631359925464e+04
-2.425370225967405713e+04
-2.872935030462828217e+04
-3.465742105633892788e+04
-4.180476202885226667e+04
-4.577217551587873459e+04
-4.890345894282826339e+04
-4.986142829411722778e+04
-4.978386624627219862e+04
-5.391543595661567815e+04
-5.461301172772217251e+04
-5.234343606794646621e+04
-4.685449509583508916e+04
-4.176003236549318535e+04
-3.508680607920055627e+04
-2.983538900481231394e+04
-2.753850712838637992e+04
-2.331901738232628486e+04
-1.797876306773782198e+04
-1.227520942276151800e+04
-7.485972442163096275e+03
-2.834702040879930337e+03
4.579598037741880034e+02
3.776302464088563738e+03
7.095473373959745004e+03
1.107778504934687589e+04
1.416255905314372467e+04
1.674910559503559125e+04
1.872975144086737782e+04
2.049578284101029567e+04
2.196455252746406040e+04
2.136044367796031293e+04
2.240675327213021956e+04
2.477976356191148807e+04
2.693279762454113006e+04
3.037326878077855872e+04
3.268156071879993760e+04
3.222700786829784920e+04
3.088686086643186354e+04
2.915240368888983721e+04
2.809502006572784012e+04
2.627701074743844219e+04
2.438172400679253769e+04
1.829954553549203411e+04
8.634786401302577360e+03
6.710784155062959144e+03
8.251797046872034116e+03
1.024515654280862873e+04
1.239628395786335022e+04
1.515352055084787571e+04
1.648211271863536604e+04
1.696639225057516887e+04
1.807071623883592110e+04
1.903037157661512174e+04
1.867267662920173098e+04
1.828292563632378369e+04
1.713342814580579943e+04
1.496543532918789060e+04
1.265816804126072748e+04
1.088781092604624973e+04
1.000157764020248396e+04
1.050783824107461623e+04
1.069389500581298671e+04
1.073391337893262789e+04
1.175699272214001212e+04
1.318332266921384871e+04
1.459319351742738399e+04
1.682571793181868998e+04
1.729304535306757316e+04
1.651743020822812105e+04
1.591713847820476803e+04
1.555026158872053929e+04
1.370491460141349125e+04
1.154332024720165828e+04
1.108673743510435088e+04
1.006825578610036246e+04
7.564881795466410040e+03
4.722674198845720639e+03
-1.913669165144107467e+02
-2.970782514970485863e+03
-4.881908790643729844e+03
-1.312786757924807489e+03
3.103507512645043676e+02
3.223288108552301765e+03
3.307949760868280464e+03
2.281363549302026058e+03
-1.320513700656080800e+03
1.354283602068033815e+03
4.425693623626730187e+03
4.704588788892370758e+03
4.237715793143050178e+03
4.351919550858394359e+03
1.226193413402149645e+03
-1.472410232745750818e+03
-2.553828150737493161e+03
-2.912208965196582085e+03
-3.840923263049580783e+03
-2.920278314881125880e+03
-5.118392473548817179e+03
-4.008232553039320010e+03
-2.359771263311947678e+03
4.428296913753412127e+02
5.624836521960817208e+02
-1.665848010626428277e+03
-4.918297195986081533e+03
-3.211036445075433676e+03
-2.929271241232780540e+03
5.498914842074115086e+02
7.383416526374550813e+03
5.822111312550263392e+03
4.830755118727380250e+03
6.573262605187866029e+03
8.272640460949665794e+03
9.270598507051514389e+03
8.606828537771145420e+03
7.253992092626872363e+03
5.648699494092785244e+03
3.785808215134775764e+03
2.082048373180175076e+03
1.782655984056630416e+02
-2.090601399656820831e+03
-4.175706766839021839e+03
-5.228157960029545393e+03
-7.268143022129478595e+03
-1.018859046208761720e+04
-1.390039494168032252e+04
-1.660077857203893655e+04
-1.757282374603019343e+04
-1.633351198377694891e+04
-1.453982250914059478e+04
-1.343064001101074064e+04
-1.405943909718538271e+04
-1.539025289622988930e+04
-1.624722143430602773e+04
-1.638363785329784332e+04
-1.602350852230707096e+04
-1.633098065388431860e+04
-1.834088055880473985e+04
-2.084558906924699113e+04
-2.331267664019683070e+04
-2.517154705250760526e+04
-2.721018007419667629e+04
-2.707186351664032554e+04
-2.551580693310881179e+04
-2.471300340212766241e+04
-2.372269533941294503e+04
-2.136874067326425211e+04
-1.902654355260387820e+04
-1.805099215666258169e+04
-1.788958207573196705e+04
-1.795035309674793825e+04
-1.763452040848878823e+04
-1.605016806926422396e+04
-1.465465399325067847e+04
-1.402468068719778785e+04
-1.395741699548700308e+04
-1.354709494478999659e+04
-1.282880269945026339e+04
-1.082278569070098638e+04
-8.304083609472936587e+03
-6.814864149170669407e+03
-5.266683305837500484e+03
-3.397607517967224339e+03
-1.612036783398514217e+03
3.915533648373231017e+02
2.305880542346187667e+03
3.702177377892012828e+03
4.647012078285307325e+03
5.612675544667242320e+03
6.413779608187871418e+03
6.985671484473735291e+03
7.433940039166057431e+03
7.661974165706275926e+03
8.489810826685665234e+03
9.637149530006581699e+03
1.052832740702442061e+04
1.112117456128124468e+04
1.183590818642179511e+04
1.268880088998514657e+04
1.355014340285337130e+04
1.397258744290433970e+04
1.457048873504867151e+04
1.509898637318624787e+04
1.488418263582737745e+04
1.489644317313740976e+04
1.557954259758562148e+04
1.644394611800518760e+04
1.658977418239627514e+04
1.636250999590188803e+04
1.591445589301892505e+04
1.559584886367124091e+04
1.538183403091738182e+04
1.549004927041042174e+04
1.409511740162186834e+04
1.094298107363589224e+04
6.524770558139755849e+03
7.043478759479718065e+03
1.277813805585783484e+04
1.297528958350615721e+04
8.456917420635905728e+03
4.604521373031634539e+03
4.922713861886248196e+03
5.420527052814102717e+03
3.211383381239302707e+03
2.249414188396207919e+03
2.555703654348144937e+03
2.258556579842544124e+03
1.331698448694321542e+03
1.264566640495973161e+03
2.005108122066837268e+03
6.241425069720417014e+02
-2.134445054632420124e+03
1.026691415168948424e+03
4.624061206670489810e+03
5.604888914569384724e+03
6.100321290093495008e+03
6.515639007599454999e+03
6.760168932516071436e+03
7.363096771666672794e+03
8.560689719475771199e+03
8.922162164718780332e+03
8.472899206249612689e+03
7.560029903309287874e+03
7.013380053695200331e+03
6.442747901284611544e+03
5.798815719248127607e+03
5.435345847666791087e+03
5.300316221042869984e+03
4.939945777439672383e+03
4.529207454024116487e+03
4.106988711278020673e+03
4.264287492799189749e+03
3.999241605815161165e+03
3.170887633559323604e+03
2.438981412938818721e+03
2.115316131635329384e+03
1.496458177310218844e+03
3.346607537478939776e+02
-1.071517828173913813e+03
-1.972160106446041937e+03
-2.290500683179879616e+03
-2.917702717664785723e+03
-3.403673749324787423e+03
-3.822272047997142636e+03
-4.024459422696839283e+03
-4.384152305745795275e+03
-4.030999732919657617e+03
-3.942166875010243530e+03
-3.655805805791435432e+03
-3.916816502035393114e+03
-3.487349862729651250e+03
-2.805632653219659005e+03
-3.108874685111392864e+03
-4.531428123101770325e+03
-5.345491184230409999e+03
-5.646222569659462351e+03
-5.618873417663799955e+03
-4.960741118819149960e+03
-4.616946081485333707e+03
-4.557412984965057149e+03
-4.683168370478627367e+03
-4.762348409224293391e+03
-4.904362285370349127e+03
-4.986448313149214300e+03
-5.220027023806454054e+03
-4.012406169976502497e+03
-2.784347415510822429e+03
-1.842425869108340521e+03
-1.385235421863693318e+03
-1.487521211455703906e+03
-1.922560780425052599e+03
-7.568237644785654084e+02
-4.506067679941297115e+02
-1.852092430029409115e+03
-3.788848092152511981e+03
-4.739325501502552470e+03
-4.848958835986489248e+03
-4.580072743641177112e+03
-4.503068585127529332e+03
-4.017126004936698337e+03
-3.767592424663469956e+03
-2.796841542815923276e+03
-1.791230947645262404e+03
-1.183963264264046074e+03
-7.643029764338511995e+02
-4.585416190496163722e+02
1.160315984203129034e+02
1.278226540122703227e+03
2.523964823490911385e+03
3.513916775915250128e+03
3.864776111118255358e+03
4.056323653983482927e+03
4.372210353259561998e+03
4.460246061553300024e+03
4.464444694505178632e+03
4.163793754769673797e+03
4.177170860361144150e+03
4.054319903979815081e+03
3.808138841642246462e+03
3.676529983346788413e+03
2.950808924469194153e+03
2.587274338175277990e+03
1.997344451404740084e+03
1.346713052826776675e+03
9.721633805744797883e+02
4.355079366076000156e+02
-5.704961298836544756e+02
-1.079974621777393168e+03
-9.350804675240119650e+02
-1.463968729464641456e+03
-2.147779916672087438e+03
-2.940540204024786362e+03
-3.710255914038747960e+03
-4.082913105122797788e+03
-4.737389414926190511e+03
-5.354573912498498430e+03
-6.261545427599958202e+03
-6.569304063497481366e+03
-6.611924701358396305e+03
-6.150544088586394537e+03
-5.886296524652506378e+03
-6.026352925181521641e+03
-5.314777864341975146e+03
-5.352564286952056136e+03
-6.103749268353588377e+03
-6.885160440183027276e+03
-7.232692480142356544e+03
-7.569366055203446194e+03
-7.469095440616104497e+03
-6.941717023874327424e+03
-5.306145450444321796e+03
-3.266563743880659331e+03
-1.255948497450164041e+03
-5.786831940330465613e+02
-2.149315267239127934e+03
1.002854202295186248e+01
1.899349173802269888e+03
2.473000133647319217e+03
2.476078133477682968e+03
2.648028713052712192e+03
3.059305544955851474e+03
3.357706847246306552e+03
3.541536270757180773e+03
3.875184024549864716e+03
4.647189294842850359e+03
4.923584142839723427e+03
4.766674987172581496e+03
4.865603018448698094e+03
5.305316053800300324e+03
5.341559577323838312e+03
5.547553516576181210e+03
5.975963492629634857e+03
6.308895537269515444e+03
6.650050539660928735e+03
6.959106173046347067e+03
7.105849995982787732e+03
7.221884547563774504e+03
7.447501093028857213e+03
7.813457828335986960e+03
7.710074106540416324e+03
7.748095743880308873e+03
7.551348753868831409e+03
6.830790205431483628e+03
6.377733905352737565e+03
6.362614570945233936e+03
6.277571785597902817e+03
5.821777251328257989e+03
5.639080845933892306e+03
5.315038939271718846e+03
4.727997277853080050e+03
4.289351253170775635e+03
4.032306039243038413e+03
3.913120139357474272e+03
3.888029426219377001e+03
3.626264381784230409e+03
3.702172554279863107e+03
3.680181718686782460e+03
3.418356017816963231e+03
3.100629597568378358e+03
2.528034677367866607e+03
2.074792446128235497e+03
1.660179520215559023e+03
1.128457257969499778e+03
5.797013154937757236e+02
1.611804850058963154e+02
4.087858350285816300e+01
-9.832091294771549883e+02
-3.727820983522342885e+03
-6.451733522415226616e+03
-4.551760472840502189e+03
-5.597806301085441191e+03
-5.649819652355817198e+03
-1.544646753212448175e+03
2.833915751541167992e+03
3.079179539266017400e+03
3.084267949692435650e+03
3.140319715062447813e+03
2.665447870782897098e+03
-2.622145269444637506e+03
-5.631619486918180883e+03
-6.093975189121688345e+03
-6.433980606427889143e+03
-6.272644004726114872e+03
-6.512193145049969644e+03
-6.103419566999497874e+03
-6.330013686762666111e+03
-6.864986964013441138e+03
-4.900194811454335650e+03
-2.233588598602279490e+03
-5.199203871569570765e+03
-5.813026972468905115e+03
-5.301895160216688964e+03
-4.939709658775803291e+03
-4.411495906061303685e+03
-5.161234475581532934e+03
-6.076965441469807047e+03
-6.452746312494133235e+03
-9.847478782310379756e+03
-7.693101090647786805e+03
-4.992621976976268343e+03
-4.363997633189225780e+03
-3.943237958829762647e+03
-2.548337538030226824e+03
-1.065248407599625580e+03
2.950532193314249980e+02
1.687635871607437139e+03
3.086601520007232921e+03
2.908975236819630936e+03
2.541810953112998959e+03
2.130085816428020735e+03
1.487739985831000467e+03
1.403826882422091330e+03
1.487403062626288374e+03
9.374841366265916349e+02
2.240074665319219207e+02
-8.580072743991069046e+02
-1.260551518192524327e+03
-2.090555744616015090e+03
-3.309023447739308722e+03
-3.747933986005975839e+03
-3.619252242633357582e+03
-2.983987144910855477e+03
-2.402175433365004210e+03
-1.782824698138340864e+03
-1.352895121269752735e+03
-7.103648495023456917e+02
-8.792135109703747275e+02
-3.183827265990804563e+02
6.291451833481829681e+02
1.530314724579875019e+03
1.907216634119681885e+03
2.155013035852142366e+03
2.041947657197304352e+03
1.660733534972107464e+03
1.629807564572604406e+03
1.691468860868971433e+03
1.511203165293677102e+03
1.679033415008449765e+03
1.784596947204624712e+03
1.496785505820060052e+03
1.278747528495254301e+03
7.714509011785004304e+02
1.031851525783643865e+03
1.257914729046579623e+03
1.542600349411934303e+03
1.740857766483159139e+03
1.285569583763494393e+03
8.437617103110908374e+02
1.302503947819525365e+03
1.056287398217273449e+03
1.126955204750346411e+03
1.023589294297592801e+03
5.062151106028890126e+02
6.197791604006617945e+02
5.232288405378712923e+02
7.823631676413438072e+02
5.241403350115890589e+02
4.165789254044049699e+02
5.706292784542740719e+02
3.482669127703593972e+02
1.464600916567310378e+02
-4.838643966146665321e+02
-4.768666698271704831e+02
-1.746504682698285080e+02
-3.181528925759121762e+02
-3.574358723127724602e+02
-3.695651668734115560e+02
-5.386780570210887618e+02
-1.141864689631202509e+03
-7.161740726936036481e+02
-6.066304693957167729e+02
-5.442563399362425116e+02
-2.361285757740892279e+02
-3.530706408505503902e+01
-1.108568933312534881e+02
-1.008485883477977438e+02
1.066051323950443042e+01
