-1.885274043336097975e+03
-1.776551886130223693e+03
-1.604253701606456843e+03
-1.512289918224054190e+03
-1.099674456516459486e+03
-6.223834307435897699e+02
-1.939515436287599215e+01
7.812648966138262949e+02
1.775655970149359973e+03
2.674804287504611239e+03
3.094683166208725197e+03
2.866226417088922062e+03
2.528456769239541245e+03
1.956451580927295481e+03
1.148143019092498434e+03
7.304436360837789834e+02
4.334308729157208973e+01
-8.671555867724189284e+02
-1.618083294967658048e+03
-2.260484431835533087e+03
-2.871394433451269833e+03
-2.547759590707350981e+03
-1.572672272387447492e+03
-9.602056125892155478e+02
-7.583634617194881002e+02
-3.242041803490793654e+02
5.852529687818448565e+02
1.461038407681369790e+03
1.259187745403074587e+03
1.464653684043307521e+03
2.156456328720654710e+03
2.257615638098590352e+03
2.015170116321150999e+03
1.908080508297510505e+03
1.534298840039937886e+03
9.587744085124355706e+02
4.594639250901872174e+02
8.729117465333226278e+01
-6.708239086361736554e+02
-1.112907386430363658e+03
-1.355065475943142474e+03
-1.498336739935236437e+03
-8.538333111716908661e+02
-2.731952372846516823e+02
2.498879856147935357e+02
5.687741669569392116e+02
1.206103061305641631e+03
1.505491560536583620e+03
1.977919864867039678e+03
2.558420479765756681e+03
2.613789571045497269e+03
2.416079217146360406e+03
2.186445331511798031e+03
2.219528832727687586e+03
2.304156605526654857e+03
1.553418083590082915e+03
8.826952592013329024e+01
-9.109328484334140512e+02
-1.253649107257192327e+03
-2.006887791454126045e+03
-3.019951058445361014e+03
-3.252245554605849520e+03
-2.340961285892387878e+03
-9.527437952124133744e+02
-1.227951550650401558e+01
-6.419794516614942381e+01
6.564205897277731765e+02
2.091624871029599035e+03
3.442981643158498628e+03
3.950603866292277871e+03
3.681729345890013519e+03
3.361213316308548656e+03
2.961679788822449609e+03
2.728280159564561927e+03
1.984075758447711451e+03
1.644925517573127536e+03
1.484074293150320273e+03
1.351403244390709915e+03
6.367750570614533672e+02
1.792215470975223752e+02
-2.038790195403218775e+01
-8.909497167127578621e+01
3.481293496209212890e+02
5.953506324822711804e+02
3.894755448572451542e+02
6.604296161083491370e+02
1.243316491000892483e+03
1.939102160918734853e+03
2.572780549587997484e+03
3.345418198787560868e+03
3.671036760365264399e+03
3.041624833132780168e+03
7.531401839066008961e+02
-2.919370804633759690e+03
-7.542869538124230530e+03
-8.910401322135254304e+03
-8.698064189723660093e+03
-7.728938611117735491e+03
-7.679024609476709884e+03
-6.754299462679005046e+03
-6.373772556645053555e+03
-5.927414609402877431e+03
-5.466233685115660592e+03
-5.211235234980125824e+03
-3.953354237802519492e+03
1.351378404429214925e+03
3.385999613719827721e+03
-5.923420812791312073e+02
-3.616630975659988053e+03
-3.516834191983842629e+03
-5.198977385929075581e+02
-2.538169424231450932e+02
-3.311532173416687328e+03
-2.369013392627965004e+03
2.776717068172268227e+03
3.447667666410198308e+03
-4.311418871691467416e+02
-6.132740096779175474e+03
-7.107167009778736428e+03
-6.601407777754324343e+03
-6.492422721809714858e+03
-6.481144851870310049e+03
-4.995551599147838715e+03
-2.996318921000794830e+02
1.305613081890709964e+03
1.490213626772100952e+03
2.169211704466585161e+03
2.379673967522069233e+03
3.156628275649532952e+03
4.352079077881400735e+03
5.115072992019474441e+03
5.305759096834030061e+03
4.970195834671282682e+03
4.509465783786214161e+03
4.101609165165918967e+03
3.332571359250110163e+03
2.428354060225784906e+03
1.850927109511190338e+03
1.823328698537065975e+03
1.640535844932900318e+03
1.453546229668941351e+03
1.059426439016634049e+03
9.242158362382596124e+02
7.599351799125571461e+02
1.123631944660704676e+03
1.195276646194153045e+03
1.242843853946125819e+03
1.377500964909328559e+03
1.858278707285756582e+03
2.662248988891648878e+03
3.020485390526037008e+03
3.000019426433130775e+03
2.982848976082690115e+03
2.789036457197545587e+03
2.993582146214024760e+03
2.443447305951403450e+03
1.861693195922264522e+03
1.182412753927401582e+03
-4.946805439496063173e+01
-6.919501703015048406e+02
-7.880705627040271111e+02
-6.147073304791658757e+02
-5.115692402005077497e+02
-4.685468848017858363e+02
-9.114600386480758516e+02
-9.364078520778441543e+02
-3.283423957246789087e+02
4.840029094312976667e+02
1.106394147685008647e+03
1.220510190026355303e+03
-9.946176330495515003e+02
7.743111982665903952e+02
2.091076584975829974e+03
1.742676096409687489e+03
1.035529286253118698e+03
4.870702762695711385e+02
-2.805135717300871647e+02
-7.493619627235483449e+02
-1.040414208275010651e+03
-1.405687131937367667e+03
-1.193142048195337793e+03
-1.205806651901187251e+03
-1.542679171135271417e+03
-1.986731404513672942e+03
-1.726984641844866019e+03
-1.054413547820684698e+03
-3.119061587269632696e+02
2.656266567322510355e+02
6.731708808494709046e+02
1.260643301375544070e+03
1.579057647870122992e+03
1.807444052280815640e+03
1.959863758512654158e+03
1.642295637174988769e+03
9.847540537098709592e+02
3.001895958057419307e+02
-2.085205385494321888e+02
-6.593250664657999778e+02
-1.250220607419358885e+03
-1.793218680317954522e+03
-2.166393179353877258e+03
-2.773819557847185479e+03
-2.609512335693056230e+03
-1.909502652136800407e+03
-1.986742179931860846e+03
-2.086244225333520717e+03
-1.392084687194613025e+03
-4.522163934531582186e+02
1.018391047793421421e+03
2.194747968630784271e+03
2.243911346866156691e+03
2.162881903621249421e+03
2.325597951527721307e+03
1.971052079056645653e+03
8.982392364335958064e+02
-1.368790329543244582e+02
-3.963182216647255132e+02
-4.481005391600389203e+02
-1.057242776845496792e+03
-1.952823777088923634e+03
-2.177980005879705914e+03
-1.976647855118659663e+03
-2.409799351218623997e+03
-4.277561655364359467e+03
-7.633916065671060096e+03
-7.345798437701980220e+03
-2.464248410145312391e+03
5.897662706935511778e+02
1.555211703101149396e+03
2.197989256648311311e+03
2.445095924750001359e+03
2.490433064605072104e+03
2.273041171946205850e+03
1.866961407393712534e+03
1.143208187029950295e+03
4.576297040030991639e+02
3.831987626624892300e+02
-1.671064876116988955e+02
-1.080453610669955196e+03
-1.638848260734520636e+03
-1.809303773771062424e+03
-1.472834326554786230e+03
-1.140418826636260746e+03
-5.570984354550305397e+02
-7.118700705809753799e+02
-2.377888412082117497e+02
2.930646664325303732e+02
4.569102940562703452e+01
7.141885393224466725e+02
1.330630888352943884e+03
2.007958553050587398e+03
2.046034375104025685e+03
2.567919237763498586e+03
2.857709408863941007e+03
2.741427162960442729e+03
2.071956336677570562e+03
1.271165908670034014e+03
2.360932370705086782e+02
-6.302831255220281719e+02
-9.990032706451511331e+02
-1.415075771109314928e+03
-1.442678312142952564e+03
-1.174890312116923269e+03
-1.303580163924571480e+03
-9.096066023136497734e+02
-3.604251160319813607e+01
6.188819057665424452e+02
5.761889627005701868e+02
6.310408963190586746e+02
1.424492163654656224e+03
1.868552409745599334e+03
1.324145882154050923e+03
9.041601151641377783e+02
7.226615453154698798e+02
4.486479347597346532e+02
3.020822475072693010e+02
5.019669854731839109e+02
1.128263682656153605e+03
1.200949046813991117e+03
4.439810947554022960e+02
-3.406706761897836486e+02
-6.030207374941880971e+02
-6.789948586909005144e+02
-5.284782992012964087e+02
1.944308091922914272e+01
-6.336061352887449516e+01
-2.248878356886908989e+02
-1.878828757658105815e+02
5.327801134935430127e+02
1.204928029661085930e+03
1.545430108852594003e+03
1.876343504030793383e+03
2.642769339947908065e+03
3.024722991185770752e+03
2.709121046358012336e+03
2.620025200390238297e+03
2.086505178038607482e+03
9.094591938461285281e+02
-3.390267340475144920e+03
-6.317767786191836421e+03
-2.476041060554110572e+03
-7.250428543686887224e+02
-5.561787975419510076e+03
-6.393368173363136520e+03
-2.452721180049587929e+03
-2.661692456659530762e+03
-2.123253901860915448e+03
-1.938433826450272363e+03
1.341861260133994847e+03
1.772729417186595811e+03
1.934224869788911974e+03
1.766311462240514629e+03
-5.369090111441378212e+02
8.877410459885877572e+02
-6.338468532900335504e+02
1.174243986324933076e+03
-2.588673410299624265e+03
-3.016353019761439555e+03
-8.588378192031070739e+02
-3.986423600812845052e+03
-5.321243121861715736e+03
-1.624328706176779178e+03
-1.164703863947262107e+03
-1.054497562813008244e+03
-6.767136720926849875e+02
-2.870215434263035604e+03
-8.879435975773948257e+02
6.460946571259063376e+02
-6.420879232743449165e+02
-2.645635300272824111e+02
-4.182544640851854751e+02
-1.490993819782580204e+03
7.833544287473172290e+02
1.754726852532882731e+03
1.579849919606528601e+03
2.052653573514604886e+03
1.394086986424008046e+03
2.400698001163172535e+02
-4.293372619344150394e+02
-3.479332758351505390e+02
-7.055462798382259280e+02
-1.257147023482223631e+03
-5.146642262383911657e+02
-2.719060502694071033e+02
1.163386680810325480e+00
6.938638544600760270e+02
1.281504994405001526e+03
1.672001934121916292e+03
1.785914910702393854e+03
2.359996210905290809e+03
3.357121616315453593e+03
4.451349524011966423e+03
4.780513256940585052e+03
4.734785348798772247e+03
4.054321033767824701e+03
3.210079349249644565e+03
2.400834410110428053e+03
1.629617348895151963e+03
6.404092129978873800e+02
-1.279160441513275970e+01
-3.293934186148715071e+01
-9.869639136999961693e+02
-1.858110479343977204e+03
-1.985580277919234959e+03
-1.748181741227741441e+03
-1.328630923467718276e+03
-5.558545014029394906e+02
3.138680160694941605e+02
9.328705204172676986e+02
1.305414877297855583e+03
1.518818631790203426e+03
2.005001434473439758e+03
2.713396674410345895e+03
2.381264604113497626e+03
1.344791145083379433e+03
4.606297278330409313e+02
-5.013281169158727266e+02
-7.280603588906112691e+02
-2.695876305792671701e+02
2.200668127665616325e+01
-6.043409284959664518e+01
-4.266422031504584425e+02
-3.188868399385880821e+02
-2.073822126104813606e+02
-2.821322052340316873e+02
-8.519508025346609656e+02
-1.486966900023975768e+03
-1.508171416883666552e+03
-8.775416698927070911e+02
9.894744144451094314e+01
1.330334606931231747e+03
2.025668725960154688e+03
2.788986544250355564e+03
2.673334486743603975e+03
2.537725065894452200e+03
1.963152733173207025e+03
9.885059394251109097e+02
8.816713414498517523e+02
1.118651387431608782e+03
1.342476836113126410e+03
1.605147028395067764e+03
1.562628529190618792e+03
9.239320853364283721e+02
7.070803003255412023e+02
6.491204654913515242e+02
9.040036840734885573e+02
1.187658771268359942e+03
1.551131373193315540e+03
2.057490236612756689e+03
2.403775672821922399e+03
2.578014763439536637e+03
2.351149726295232540e+03
2.198275522923724566e+03
2.304396985013658195e+03
1.139457843409449424e+03
-6.944666352708162549e+02
-3.778387285957661334e+03
-5.877358738024399827e+03
-6.451355941567983791e+03
-7.584358346770059143e+03
-8.434431737655902907e+03
-8.417608254067670714e+03
-7.630939574981437545e+03
-3.026461955222531287e+03
-1.062142750248036918e+03
-4.090943768555224779e+03
-7.437787009714844316e+03
-8.207485849095708545e+03
-7.630301163161372642e+03
-6.837194919816472975e+03
-3.914074302448782419e+03
2.192079536657507106e+03
3.885351628432703819e+03
3.980843385594733718e+03
3.279483744106079030e+03
2.344274703023233087e+03
1.594221176609312579e+03
1.060207742509807531e+03
2.442130147730795784e+02
-3.907461655287157782e+02
-1.372643770430506493e+03
-2.226521394484964276e+03
-2.021401561547182610e+03
-1.044271637797357698e+03
-6.741121075814269261e+02
-9.808715719115280081e+02
-7.345077647213022374e+02
-3.330040535012009855e+02
-1.593463742119384108e+02
3.104943382956432743e+02
1.429592076569323126e+03
2.595040347547206693e+03
2.175888627087680106e+03
1.916128121673994656e+03
2.707731824709010652e+03
3.205759463820946621e+03
3.080209281003553770e+03
2.348035668077222454e+03
1.616271663731629815e+03
9.357999226653112146e+02
8.846172825926558971e+02
7.847617077185030894e+02
1.162496027249838733e+02
-1.193123349810451828e+01
4.205865142727341244e+00
-3.334618832656121867e+01
2.554246354107360730e+02
9.515907512680331592e+02
1.049210994749791553e+03
5.283066440777494108e+02
4.379119466939926610e+02
5.421202995797282256e+02
2.629586438883569031e+02
1.273865257250541845e+02
4.093936474710927769e+02
6.160473663212161455e+02
-3.906462863463744384e+02
-1.124754085445568080e+03
-1.523330137644333945e+03
-2.604317646550591689e+03
-3.604568398273179810e+03
-3.286938429841849484e+03
-2.907672285978198488e+03
-1.219136551052533832e+03
4.267112186529172959e+02
1.120041639530211569e+03
2.113919315310025468e+03
1.615360359532305893e+03
1.195367401935429598e+03
2.065069543881262689e+03
3.353506980415602357e+03
3.521658855119106192e+03
3.999526192993145287e+03
4.656048042453301605e+03
4.177280870934841914e+03
3.555300793957930182e+03
2.568051687431940081e+03
1.919422033715946554e+03
1.285494616935955264e+03
4.762280335917694174e+02
-1.194250665060371119e+02
-6.393804187446083915e+02
-2.007669667677794678e+03
-2.972327070733663732e+03
-2.864298739402681349e+03
-2.527692686221639178e+03
-2.592563374833431226e+03
-3.188946281580003415e+03
-2.893703327089530831e+03
-1.767862885478685257e+03
-5.654246726615974694e+02
1.186255154113503352e+02
-1.246647670687148235e+02
-2.893064018625977951e+02
5.971801924531754224e+01
3.133944783500765539e+02
7.336701984243655943e+02
-6.464635233778357133e+02
-3.179097678568599349e+03
-4.019305320017761915e+03
-2.396062938968073468e+03
-6.834294050101129869e+02
-1.511502786362574170e+03
-2.463241895461993863e+03
-1.888572686705456817e+03
-4.194661016199950723e+02
1.360015949097938119e+03
2.211867866112412685e+03
2.057084672236578172e+03
2.492630237287122327e+03
2.655421682240596965e+03
2.375507022405180578e+03
2.079879248663419276e+03
1.080463776406061697e+03
5.621537688102241646e+02
2.929324957439746981e+02
-6.261796606777357965e+02
-2.352226581426960820e+03
-3.127265361520442639e+03
-1.691323402971228688e+03
-8.714872261636521671e+02
-2.892850968404592095e+03
-5.087426240549236354e+03
-3.537164418350514552e+03
-2.851271947733771981e+02
9.106253897254495087e+02
5.740750920387632732e+02
5.321986380381697472e+02
1.524971118814719148e+03
2.901381125120550678e+03
3.409387470107993067e+03
4.305997097472465612e+03
6.633162444761166626e+03
8.241821363272236340e+03
8.064855521430181398e+03
7.386869252841545858e+03
6.564744904553555898e+03
6.162969604093793350e+03
5.207668638463775096e+03
2.988927404709623715e+03
6.146234249861500984e+02
-5.959722869652541988e+01
-4.394458163002670403e+02
-2.080060499354558033e+03
-3.383555973493836973e+03
-3.982187674256864739e+03
-3.942860568755392705e+03
-4.610411634999745729e+03
-5.303750207522838537e+03
-5.003870763972330678e+03
-6.318185832537265014e+03
-8.976488019100523161e+03
-8.716862488433460385e+03
-5.559699015078362208e+03
-1.594602810331376759e+03
4.222357216826242734e+02
1.807305895973584484e+03
2.797441592667571058e+03
2.555325207420465176e+03
1.138899182606750173e+03
1.891673023980418122e+02
1.093057519831913851e+03
2.245536521114305287e+03
2.572668542519780203e+03
2.833437789577817057e+03
1.702181586579553141e+03
1.269386590059333457e+03
2.240324385146625445e+03
5.642158191584660926e+03
9.117477785136397870e+03
9.461347144920846404e+03
7.955817119202491995e+03
5.233835098517588449e+03
5.484754183857356793e+02
-4.727178588230050082e+03
-8.202185946768771828e+03
-1.053762075663890209e+04
-1.391946185758842512e+04
-1.698572134250682939e+04
-1.793853109728511481e+04
-1.861383663805926335e+04
-1.490663184903225192e+04
-5.347981209975664569e+03
5.355117693382319885e+03
1.158072030475488646e+04
1.366584272705723379e+04
1.207347928641751787e+04
8.556637051579971740e+03
4.403318965665297583e+03
3.244578570644584943e+03
5.142459009059727578e+03
6.177029589448332445e+03
5.416358824266991178e+03
4.534486673965447153e+03
3.376432644487932521e+03
2.061252886145073717e+03
9.509495398521831930e+02
1.978420862880805544e+03
5.399707578567541532e+03
4.270160377468364459e+03
-1.572408013430615711e+03
-4.950047587962306352e+03
-5.110769186475117749e+03
-5.648565958989516730e+03
-4.059390716518893441e+03
-2.354176763561927146e+03
-5.923870103853720138e+03
-5.988424201397043362e+03
-3.935790321831129404e+03
-3.137991781084335344e+03
-2.866954566135158530e+03
-3.138533911847565832e+03
-3.367637227550830630e+03
-3.603216271286584742e+03
-4.209327777539617273e+03
-4.208992029443334104e+03
-1.797135855151234864e+03
2.801284697282168054e+03
3.546317321852582609e+03
2.147917131872352911e+03
-5.088639276800915212e+01
7.110030926799515782e+02
6.416264797102363673e+02
5.400621807962221510e+02
2.743385381050543401e+02
-2.905533975612540303e+02
-6.856216542832002006e+02
-5.147872987632126751e+02
-3.069829346612825134e+02
2.838300195351978914e+02
1.443773788029672687e+03
3.481892982168093113e+03
4.355271961667269352e+03
3.837041850005319702e+03
2.948160723150499507e+03
2.532592471160374316e+03
1.965409510514471776e+03
1.424610631578495486e+03
6.532644042516546961e+02
6.447139550694334531e+00
1.615627981428507809e+01
-1.855947366941193195e+02
-9.288170809315178076e+02
-1.567456309258715237e+03
-1.788459495816950493e+03
-1.509779456984598255e+03
-1.011352485221859069e+03
-7.881315513866317133e+02
-4.501664007625607411e+01
7.580388163969047355e+02
6.430397188869471847e+02
6.581710366827672942e+02
8.925259374165675581e+02
8.892592789599622165e+02
1.559332027781708121e+03
2.678648821703555768e+03
3.097218856148524992e+03
2.523262570402644997e+03
1.387861994533304141e+03
1.409683735350203619e+02
-6.175571323333064129e+02
-1.127563321862946168e+03
-1.211011401568147448e+03
-1.665080399744560054e+03
-1.706796597141102893e+03
-1.367918254901187083e+03
-1.454376732525294074e+03
-2.001349971677740768e+03
-1.605954845987502722e+03
-1.779785188686929871e+02
6.604599632637837203e+02
1.753377206423948564e+03
2.953806367096969552e+03
3.344767132417975517e+03
3.199260870154001168e+03
2.716285722005085972e+03
2.106853560398796617e+03
1.348000050959461305e+03
4.987000732285725917e+02
-2.861639536881476147e+02
-1.187671412189458579e+03
-1.841824944051390048e+03
-1.916537484199727260e+03
-2.155863948633461860e+03
-2.504846750509977483e+03
-2.791443729712295408e+03
-2.873663453531604318e+03
-2.373567597454385123e+03
-1.454177132949237148e+03
-5.834014901418772752e+02
-1.362662633641208174e+02
8.111476891583790803e+02
1.713822130022286046e+03
2.092792930731721754e+03
2.486121209631904094e+03
1.915792043867280654e+03
1.703788329802627004e+03
1.012022616750229531e+03
1.174124768562336385e+02
-4.140178967115351156e+02
-9.703242458466359039e+02
-1.030537889897063906e+03
-1.085744444365705021e+03
-1.423983549731857238e+03
-1.377295141913727548e+03
-9.336168066058992281e+02
-6.929521503996101046e+02
-2.513357707362387714e+02
2.502207780193224380e+02
8.217501945067608631e+02
1.439193401677175416e+03
2.344487517484947148e+03
2.916601974824731769e+03
3.152600115490834469e+03
3.033501100481447338e+03
2.845164743075133174e+03
2.693622335428572569e+03
2.039898699344479155e+03
1.239778012515505907e+03
7.871594550856780188e+02
-1.571091993375116544e+02
-7.660123846821692268e+02
-8.495720661059970098e+02
-1.159873757353656629e+03
-1.830853717381802198e+03
-1.234597615238882099e+03
-2.722353728562034121e+02
5.624596996855921560e+01
2.678540617875319185e+02
1.835629881086144906e+02
2.332941966027950400e+02
7.671648748673113687e+02
8.191880128944042099e+02
-4.126473203707686253e+02
-1.604452352529809218e+02
-3.161723502862907935e+02
-7.537566018505340253e+02
-8.172909018558028720e+02
-5.418938821443688312e+02
-4.076124137667118248e+02
-2.134961290906090028e+02
-3.556820507139028109e+02
-1.121249757195189659e+03
-2.287205257681444891e+03
-2.298492559502282802e+03
-1.991163809376531390e+03
-1.619312057369516424e+03
-1.241976109763836348e+03
-6.621387306678838058e+02
-2.807510525563043302e+02
1.091402999390693225e+02
5.224881862044022682e+02
8.952889270683199356e+02
1.328495795590973785e+03
1.193271601555509505e+03
5.907090200055162086e+02
2.644384533678685312e+00
-7.031728307686188373e+02
-2.038822248835324899e+03
-2.901128181386153756e+03
-3.351147764951804220e+03
-3.097987108836973675e+03
-2.397729645146125222e+03
-1.462455247211497635e+03
-1.137137218937562011e+03
-9.017326731683986054e+02
-1.275250602419189136e+03
-8.516504029282220927e+02
7.009150575012607476e+01
9.820072301022846659e+02
1.627200780456513030e+03
2.120611750027658672e+03
2.448260999583922967e+03
2.415226499218904792e+03
2.437537979057298799e+03
2.702158891855076945e+03
2.522922790749923024e+03
1.945819922969152685e+03
8.490380931274528393e+02
4.916131272951088249e+02
-1.987460912512314906e+02
-6.082275869277552829e+02
-7.836918364647167436e+02
-1.117040026326916404e+03
-1.365284075997326227e+03
-7.274929436395091216e+02
-3.126672286188308476e+02
2.834796100366865357e-01
3.693093381242353530e+02
-2.086844210470035534e+02
-3.253672726111891734e+03
-2.240513824310426116e+03
-1.688115648372484429e+03
-1.103593992650366005e+02
2.759729317917859589e+03
2.231797392145426215e+02
-6.238747924701575585e+02
-4.802950214179878117e+02
2.708165693010069504e+02
6.064273056690354906e+02
-4.683564060479861837e+02
-1.096501818936190375e+03
-2.795067829116307621e+03
-2.410086986152394275e+03
-5.464612962806182850e+02
-4.661525022612007092e+02
-1.907181324253645471e+03
-3.739358948034428067e+03
-3.144487952009365927e+03
3.182245438181588497e+02
-5.424101001412252572e+02
-8.645236416086059990e+02
9.001260179179439547e+01
6.302443263522327470e+02
3.160223885644036727e+03
2.866998389420948570e+03
2.559724438189019565e+03
1.788451319923330402e+03
-2.662998180686184696e+03
-2.482714585213739610e+03
-2.235633673746885052e+03
7.826160851657428452e+01
-2.525861337368948625e+03
-2.298987146099216261e+03
-6.672625084710730334e+02
-4.199063820352175753e+02
-2.291669013333120120e+01
1.590131181856441174e+02
5.010252477561123783e+02
7.922916623886495699e+02
1.625123698632563219e+03
2.177675357089465251e+03
2.626875488210613184e+03
3.014733815922487793e+03
3.001424112846865683e+03
2.553954580400295526e+03
2.329204390642577891e+03
2.192189769518262437e+03
1.614501782439238923e+03
8.655544692903447412e+02
4.960330754889866967e+02
-1.518971810980368105e+02
-6.349958745131900741e+02
-6.500490612621924811e+02
-4.398837725282956512e+02
-3.071495971887626411e+02
-1.758214695331188011e+02
-1.300853319060787783e+02
2.001007371072265357e+02
6.788687163959864392e+02
1.055261342749587811e+03
1.511385742845590585e+03
1.921406282265630352e+03
1.211191890139699581e+03
-7.215061503974110337e+02
1.369105263409941244e+03
1.624584654178240044e+03
1.243557403175654372e+03
4.644943330835894244e+02
-3.182353718955554882e+02
-7.603047057547892109e+02
-9.175514504108133451e+02
-9.832430388938063288e+02
-1.017222436973517119e+03
-4.764448992790435113e+02
-2.500814087713557683e+02
-5.860201149759278678e+02
-4.959110823881522379e+02
2.779145393097123815e+02
1.035984945117057578e+03
1.258433761138287309e+03
1.477643827723603408e+03
2.166581075384507130e+03
2.709012986012849524e+03
3.116858353395901304e+03
2.877391831567931604e+03
2.418410024505464207e+03
2.407976752053956716e+03
1.694829676683117441e+03
1.025943068064361569e+03
5.342068382868382059e+02
-4.939651472882218286e+01
-9.518492775690974668e+02
-1.010183987595101257e+03
-1.104429747411877088e+03
-1.055639705338885960e+03
-7.998857418688472762e+02
-5.691708979193083451e+02
-3.295926164412093158e+02
5.419323383004835932e+02
1.221473125715469223e+03
1.328015953433676714e+03
1.939531753797400825e+03
2.189097735113120962e+03
2.569718260706102683e+03
2.772380897048966290e+03
2.731975085428193324e+03
2.405368311414659274e+03
1.594583435857292670e+03
8.496522259194138087e+02
2.435283345249096669e+02
-1.588970141906865479e+02
-3.996584753710368432e+02
-7.357787014531603518e+02
-7.543147094664292354e+02
-6.403154179251703226e+02
-6.928230907818721107e+02
-1.957739339211972265e+02
8.186583237737632146e+01
5.911585682958574495e+01
-6.560150901365656182e+02
-2.076631477489853296e+03
-5.109803205016036372e+03
-6.180536499718122286e+03
-5.876743552900310533e+03
-5.558419352260963933e+03
-2.327537597705490953e+03
1.754857050441173214e+03
1.439690149250644254e+03
-3.229131867491232242e+03
-7.622564047338330965e+03
-8.505655888091914676e+03
-8.430471187780976834e+03
-8.182936901606487481e+03
-4.779055070759687624e+03
-1.305992160004486777e+03
-3.067934867935701391e+02
6.188742180466179121e+01
3.728353213171382663e+02
9.139840292622088782e+02
1.611372236118811315e+03
1.911036530330199639e+03
2.442995593241372262e+03
3.027313327548293728e+03
3.324990678578748884e+03
3.160029638457618148e+03
2.923465165468089253e+03
2.177358882583254854e+03
1.830715209979464362e+03
1.315450605518062503e+03
4.275245455415283686e+02
-1.360844095887144931e+02
-4.023129833583229811e+02
-5.051918989795073571e+02
-3.717801882777391711e+02
-3.801169851080724129e+02
-4.841277778448468894e+02
-3.016088069391612976e+02
-2.385933256938476745e+02
-3.623976138133183866e+01
5.734695280603085621e+02
1.220550689861281171e+03
1.978176812964701412e+03
2.633435434155442181e+03
2.557313352693638990e+03
2.429830242608608842e+03
2.340963473099427574e+03
2.326776403710626710e+03
1.402234078156144051e+03
4.563376383060560784e+02
-3.149082677676893809e+02
-5.285399102199945673e+02
-1.194584752428380625e+03
-1.721030385217632784e+03
-1.892812930529661344e+03
-1.631883798921343214e+03
-1.583144156812657002e+03
-1.455568209517156447e+03
-1.254209019610687392e+03
-1.063080802638141222e+03
4.590570712185743218e+01
1.758497659659525709e+02
3.577481522979231841e+02
1.315644349689051751e+03
1.375681786390444358e+03
7.358957682642142117e+02
6.226790687562068172e+01
4.527805143080385619e+02
4.655091892094210380e+02
3.817441019667458022e+02
1.292959134104912948e+02
-9.648892233836986634e+02
-2.216733880672836676e+03
-2.316126461358911911e+03
-2.885209506633089859e+03
-3.049953344877942072e+03
-3.553270977180510272e+03
-3.267175924964003570e+03
-2.546669535404042563e+03
-1.940605663503286678e+03
-2.050813006495870468e+03
-1.375349152664301300e+03
6.618277212202295914e+02
2.499748840027495589e+03
3.594387514785647909e+03
3.606699747080268480e+03
3.543769668960393574e+03
3.080573981642576655e+03
2.159146688075524708e+03
9.585648382403893493e+02
1.882899185590681590e+00
-5.600000730410248480e+02
-1.039099171010745522e+03
-1.360453160160433754e+03
-1.422014385809844043e+03
-1.385767478516852179e+03
-1.619668486954902392e+03
-1.635642760416252486e+03
-1.376639829536236903e+03
-1.098713534753148224e+03
-2.179612441589410423e+02
7.097546213182457677e+02
1.270625201538764941e+03
1.583665293062461160e+03
1.736794100891396965e+03
2.036047660294235584e+03
1.442485903621333819e+03
1.059121548442802805e+03
9.029343871710575513e+02
5.757384329000250318e+02
5.042095435661530445e+01
-9.090145088706980232e+02
-1.452551388558052849e+03
-1.689164399273702657e+03
-2.103925839805517171e+03
-2.220859735178275969e+03
-1.800011098729971536e+03
-1.790394860898934894e+03
-1.279020292839394642e+03
-3.718360449158943766e+02
-6.773135299435824663e+01
5.152711201884710590e+02
1.465110614242182464e+03
2.184761598365713780e+03
2.427263800323358737e+03
2.409634362097490794e+03
2.263818282446663034e+03
1.927904686510879628e+03
1.773883069387532259e+03
1.281658429377039738e+03
6.041661592597155277e+02
-1.266610613191893862e+02
-4.759527774678027754e+02
-5.227219643637777153e+02
-9.000084996599068745e+02
-9.218333933704398078e+02
-1.103116164439570639e+03
-1.401680820374543146e+03
-1.474924262019752859e+03
-5.514594547354701035e+02
2.253645780445131663e+02
4.803672619271294479e+02
5.037222130900158845e+02
1.382362694815918985e+03
2.183555581944647201e+03
2.608324165116554468e+03
2.665464272429139783e+03
2.857868317307948928e+03
2.456458680506103065e+03
1.795306391067049390e+03
1.161263520594181045e+03
3.451068104658780271e+02
-2.661722904264263434e+02
-6.095122561726947197e+02
-6.089715422394192501e+02
-9.893558024334823813e+02
-7.351954476372939098e+02
-6.752698477558808463e+02
-3.876167532888124470e+02
7.278098598857413037e+01
9.649826264064126917e+02
1.127706365731515689e+03
1.666091875905435245e+03
2.901935113781949440e+03
3.658479500885135622e+03
3.547240813723186875e+03
3.263394816333871859e+03
2.788932969185934780e+03
2.541875978647581633e+03
2.649400430608128772e+03
1.955194046409622160e+03
9.005163764976126686e+02
2.871152499677546075e+02
5.767259609781286827e+02
3.265469991037514887e+02
9.058560082211083397e+01
6.229689665130357525e+02
1.067324209095548667e+03
1.053553753577553834e+03
1.369676864301578235e+03
2.080783456200336332e+03
2.355877706476045205e+03
2.631978229052580900e+03
3.217039790809722945e+03
3.362074529194344450e+03
3.543102294395639092e+03
3.370097242106961403e+03
2.786014298891897397e+03
1.802863882007058919e+03
-7.743650752540546591e+02
-4.876705100050454348e+03
-7.238238581623966638e+03
-7.585019045563492909e+03
-7.419053682600228967e+03
-7.386331820438749673e+03
-7.665903384432552230e+03
-8.022836883886965552e+03
-7.745082276246190304e+03
-5.690612085525951443e+03
-5.233443824169640720e+03
-5.992470720058797269e+03
-6.730531661417759096e+03
-4.433917049378887896e+03
1.260467019829256060e+03
2.296673864152603528e+03
-2.468249224562164727e+03
-4.319286694327172881e+03
-1.653445626664994961e+03
-1.418754222010699777e+03
-5.054239440947265393e+03
-5.541935210192084924e+03
-5.850905679103192597e+03
-5.486263209544703386e+03
-1.276722447502395426e+02
1.516826318651697193e+03
-3.145812651699158323e+03
-7.128622084774775431e+03
-7.018523242716188179e+03
-6.570424311133909214e+03
-6.066365190070957397e+03
-2.802365580735989170e+03
2.131541554811696642e+03
3.251392702536281377e+03
4.489324419096542442e+03
5.743353695581125066e+03
6.497527511838473401e+03
6.150888952209217678e+03
5.564420407311960844e+03
4.965182889417366823e+03
4.130248709740340928e+03
3.609555351620545935e+03
2.624161288151421559e+03
1.212023112685099704e+03
6.121507961760200942e+02
2.375270085629805124e+02
4.231898100910499352e+02
4.761041428909767887e+02
3.931393643990639930e+01
-2.690575774949458037e+02
4.989610147272355789e+02
1.789512130398069530e+03
3.201649392302375873e+03
3.727338769047632013e+03
3.511652904140010833e+03
3.698671292652016746e+03
4.049518469501467735e+03
4.139225549617097386e+03
3.404828814244659497e+03
2.921393863833246087e+03
2.719886856133722631e+03
1.786273825985759231e+03
9.555553489729589955e+02
-1.033138705049920674e+02
-1.166263939686010190e+03
-1.607273129762730605e+03
-1.301326591809839101e+03
-7.183558335110272992e+02
-3.412086210755336992e+02
1.822559507408244031e+02
4.632465435034430357e+02
1.216689546981768672e+03
1.617542221355075071e+03
2.291795952401342220e+03
3.023261791118881320e+03
3.223645865278009296e+03
2.749574069001819680e+03
2.525674877918130278e+03
2.123734286583533503e+03
1.344474196623859370e+03
1.144682157082386993e+03
