1.906282710064248931e+03
2.124425618815220787e+03
3.050494981267068397e+03
3.906010214371538495e+03
4.224562737772768742e+03
3.912040052724411453e+03
2.969899428457272734e+03
2.349148951295884217e+03
1.878668919790513883e+03
1.404267522762628687e+03
1.303828805416517298e+03
1.993237972549606866e+03
3.023287480002516531e+03
3.937839820523422532e+03
3.438819979389521905e+03
2.239140929110558318e+03
1.240735821354690870e+03
3.166219736743345265e+02
-2.642593800197607266e+02
5.529660897649362141e+02
6.691594264753615562e+02
-1.507215495061228125e+02
-7.997241326456172601e+02
-1.200882890255984648e+03
-1.126287614852275965e+03
-1.279158378690405925e+03
-1.063564048465827000e+03
-8.125910172336283495e+02
-1.315238053007325789e+03
-1.451537707822244101e+03
-1.773622656146513236e+03
-2.943586529905308907e+03
-2.012535693232056019e+03
-2.343518054449562896e+03
-5.554581850161250259e+03
-1.030985710453232605e+04
-1.106340042511685351e+04
-1.040624438716275472e+04
-9.992472891776158576e+03
-9.211130875611052033e+03
-5.595275901114085173e+03
-5.295903419281276911e+03
-8.190135753928368104e+03
-8.490056957137012432e+03
-8.353471848853112533e+03
-8.729518535119650551e+03
-8.784368750049663504e+03
-8.557305925207927430e+03
-8.210295500460337280e+03
-4.925419201574489307e+03
-2.074529595728663026e+03
-5.647565828309848257e+03
-7.632485733452711429e+03
-7.317575748491291051e+03
-6.157925085422696611e+03
-6.645743343681976967e+02
1.159441436497523455e+03
1.662035449835876761e+03
1.656165669630724096e+03
1.611691462192784229e+03
2.125581534947853470e+03
2.691809463814617629e+03
3.125304104145328893e+03
2.829974367389209419e+03
2.371779365775845235e+03
1.739670396958903893e+03
2.161638627039610128e+03
2.197707191195155247e+03
1.609857102679346781e+03
6.899972359711982790e+02
-1.788889632366231695e+02
-6.478650806377131630e+02
-6.319883064117409504e+02
2.477465696972827232e+02
5.933973774214246077e+02
7.594135859718377901e+01
5.503798189006098482e+02
1.813728543223433917e+03
1.382944422521612978e+03
6.380315111842078295e+02
5.580882384121071027e+02
5.590559814673724759e+02
5.258016323599003954e+02
-7.577988272605624331e+01
-9.677662339503753230e+01
5.537570700675646549e+02
1.895873292011673129e+03
2.651607966495782421e+03
2.610043839486746492e+03
2.311187185651209347e+03
2.454897190787604359e+03
2.626110479946130909e+03
2.766879051080232330e+03
2.973225209669054493e+03
2.994114481753978907e+03
2.788630253948852896e+03
2.835741652979198534e+03
3.064505631062990233e+03
3.222102004139720975e+03
2.970697271777430615e+03
3.465211881142718539e+03
4.154464533402349844e+03
4.348477368312588624e+03
4.489104836799851000e+03
3.368706708985251680e+03
1.001070026426600975e+03
2.880181179849138857e+02
2.121095548421648800e+03
3.518045417442679536e+03
4.062633354946504824e+03
3.982870203946476977e+03
4.019854436011478356e+03
3.750584198725062379e+03
3.855165609853529077e+03
4.113644721781071894e+03
3.945022956633115427e+03
3.738240341156803879e+03
3.694324183839100897e+03
3.866306756534915166e+03
3.549274042056902999e+03
3.170339823821745540e+03
3.566571849647554700e+03
3.965094193753192940e+03
3.940988931638359190e+03
3.549194304904732689e+03
3.586730082774507537e+03
3.605752274778426909e+03
2.565404808407894052e+03
9.978666652807396531e+02
-8.875667066577265132e+02
-1.993860835379182845e+03
-1.927104148620366914e+03
-1.563453069894067994e+03
-9.739667950037176070e+02
1.094684283800104794e+02
4.349595216347999553e+02
5.149366532282062536e+01
-7.429058842013261028e+02
-1.036036856933105582e+03
-1.415838240649683939e+03
-2.118195721880300880e+03
-2.634966738445378269e+03
-2.507201339141796780e+03
-1.860728390548586731e+03
-1.833399961026167148e+03
-1.336046583061500314e+03
-2.754932833348470353e+02
2.932910190503898207e+02
6.914100941764227173e+02
1.345110038264478362e+03
2.666523437512544206e+02
-1.904695322193418178e+03
-3.583809485109174602e+03
-4.962725629070752802e+03
-6.269511948881754506e+03
-7.049059524180385779e+03
-6.899247048716028075e+03
-5.676983479230905687e+03
-3.807253324136337142e+03
-2.535060185573199760e+03
-3.736174363187109066e+03
-6.577457668014129013e+03
-3.352800183540737180e+03
-2.334087756891533445e+03
-1.537081489407805975e+03
-7.575967248680515240e+02
-1.011580944954550432e+03
-2.014974236088779435e+03
-3.407580311939010244e+03
-4.572035173778066564e+03
-5.103756579223086192e+03
-4.575997372391371755e+03
-4.654611229747384641e+03
-4.049127218047876795e+03
-3.321877834480364982e+03
-3.786516067578033471e+03
-2.242570912579687047e+03
-1.049374819845750153e+02
4.932540794317840778e+02
1.225419074230865817e+03
1.522815482799932170e+03
1.182084144688403967e+03
1.859381778955722382e+02
-1.123948156200209951e+03
-2.069439564440558115e+03
-2.672320719662570809e+03
-3.062440718492415272e+03
-2.984701112816442219e+03
-2.327447201608761134e+03
-1.600157725570734101e+03
-1.900531566648849321e+03
-2.659315689772523911e+03
-2.834297967140370929e+03
-2.669439891704270394e+03
-2.308594406399579384e+03
-1.647573133458424991e+03
-4.970765928809577758e+02
8.352884571697593401e+02
1.389480287498201733e+03
1.197595019519981406e+03
6.941828903860215405e+02
1.221955984528875661e+03
9.799595527100518666e+02
5.395526969007837579e+02
8.897428253797211255e+02
1.100975104755515758e+03
6.321567433531579354e+02
4.877462383765534923e+02
7.036522518315798607e+02
-2.188577413230742863e+01
-3.100394453615163002e+02
3.775601873661847776e+02
1.375161495014888942e+03
2.470686696452437445e+03
3.362284068916873821e+03
3.735163808296267689e+03
4.068337813121972431e+03
4.077802687052791043e+03
4.158560700491778334e+03
4.490858535785620006e+03
4.706799175071052559e+03
4.969404648559767338e+03
5.282828217780630439e+03
5.462153282772748753e+03
5.831517833552863522e+03
6.136982385169982990e+03
5.920672083516684324e+03
4.975689867226621573e+03
2.627092494377411185e+03
-1.171141895430280329e+03
-2.679986405085282058e+03
-3.056387103760442642e+03
-1.519391602758058070e+03
-1.902761953628468063e+03
-2.654062715030736854e+03
-2.553466023294483421e+03
-2.711048824510243321e+03
-2.176866350822453114e+03
-1.652863234673772467e+03
-1.774940182108834051e+03
-1.631088717866660090e+03
-9.904501032864892522e+02
3.328828303975229574e+03
6.457809768774208351e+03
6.484613877631333708e+03
2.747255005474878999e+03
3.177295050082053649e+02
4.056195891194048727e+03
2.426728407436437010e+03
-2.482747229474506184e+03
-3.355322975538079390e+03
-3.769034221905886170e+03
-3.776984868506665407e+03
-3.852277139375729803e+03
-4.549967147104956894e+03
-4.609106013307943613e+03
-5.496805932203833436e+03
-6.316036467356743742e+03
-6.960830421506087987e+03
-7.369369976457859593e+03
-3.174725860744439615e+03
-1.309902910003316947e+03
-6.277522487996883882e+01
2.793666516640632381e+03
4.397329184237893969e+03
5.407182653392036627e+03
6.675205061393877259e+03
7.616260183911066633e+03
7.420101388507962838e+03
6.846600279830646286e+03
5.944493377473355395e+03
4.408869614506388643e+03
3.348854612150190860e+03
3.366250382381629606e+03
3.424939101005537395e+03
3.283728891219652269e+03
2.581398147202690780e+03
1.968900017992082439e+03
1.905163842102324452e+03
2.728013121498921009e+03
3.843270663412662088e+03
3.296739038633414566e+03
2.649259403514865880e+03
1.400754439135670737e+03
1.221146173172222689e+03
1.735390106587508171e+03
1.480374638370072034e+03
1.091093167035522129e+03
5.266062941829241026e+02
3.806241510409423654e+02
2.811661806034891811e+02
-3.587221458008420996e+02
-1.141250442715911504e+03
-1.401815678638608688e+03
-1.575668219073366117e+03
-1.667060345257734525e+03
-1.987200366053038806e+03
-2.003508136430290961e+03
-2.144837169102453117e+03
-2.329074041375192792e+03
-2.036662021677107987e+03
-2.160698368677779854e+03
-3.205179302830657434e+03
-3.963244558601759309e+03
-4.464931414928134473e+03
-6.820408068477786401e+03
-7.282048308445417206e+03
-6.242082477698541879e+03
-3.179770912367099754e+03
-2.386405341985569521e+03
-2.050076679118466927e+03
-1.682876019480821014e+03
-1.243390084289919969e+03
-6.353541108728784366e+02
2.294084568743344477e+01
-1.206302294256569354e+02
1.998228696243180877e+02
6.520820445452663989e+02
8.689920302122072826e+02
7.152647145912183078e+02
-1.062277808430909971e+02
-8.476098082112549719e+02
-1.197131262796298643e+03
-1.047015894189345090e+03
-9.102624734290791366e+02
-9.321062418264386906e+02
-1.076727349218844211e+03
-1.879272483236225526e+03
-2.960920018382162198e+03
-4.016863193874047283e+03
-4.414282490009997673e+03
-4.683373272922611250e+03
-4.866877851372770238e+03
-4.558497954820316409e+03
-4.379287740883928564e+03
-3.861520730825189730e+03
-1.449701810066665530e+03
1.173723956596386870e+03
2.656417709729092621e+03
3.068242667811930460e+03
2.741382133161153888e+03
1.522883729831996334e+03
9.825246929074717173e+02
9.971879794044947403e+02
2.132155433382700721e+03
3.549176712705557748e+03
3.678656783248314241e+03
3.076670145666173084e+03
2.804760997184437656e+03
2.516623909589357936e+03
1.979667072457694076e+03
1.932894862845574607e+03
1.921059250834041450e+03
2.094315096534771783e+03
2.181237943578335489e+03
2.008620233562057592e+03
1.734164331332714028e+03
5.797547434935498814e+02
-1.131902801328069017e+03
-4.583544422635494811e+03
-4.118431589003382214e+03
-5.504117555099795936e+03
-4.644678839397368392e+03
1.588174118890087129e+03
3.974723557143754988e+03
4.292783992702029536e+03
3.919613905688279829e+03
3.818243444292619643e+03
3.433300757991004957e+03
4.217573045460723733e+03
4.879722665855383639e+03
5.150934789548496155e+03
4.655849459996215955e+03
4.057164005978132536e+03
3.128994357197596401e+03
2.051098991196340194e+03
9.912408884181348867e+02
1.265598339477632379e+02
3.621300542267171636e+02
6.779854229640786798e+02
-4.355923647109950139e+02
-2.513687230621002072e+03
-4.145589488033284397e+03
-4.587634617681226700e+03
-4.013847333790493394e+03
-5.839005142967414486e+02
3.569036092384185849e+03
6.647882759301931401e+03
8.178045390750533443e+03
8.497489457911920908e+03
8.681638995041013914e+03
8.863324778549642360e+03
8.082030525033561389e+03
7.079474578922291585e+03
6.277744269488344798e+03
5.582211266815525960e+03
5.391726057508457416e+03
5.429429625418692012e+03
3.738325925508552245e+03
1.631978465585177446e+03
1.753057879949074049e+02
-8.079587212160727177e+02
-1.977820906230522951e+03
-3.141334225986897764e+03
-3.841520871682204870e+03
-3.044236302200962200e+03
-1.188346990321025260e+03
2.206263835729374932e+03
5.526734939817357372e+03
7.333133000832235666e+03
7.735547330414544376e+03
8.007126438730646441e+03
8.263833100900983482e+03
7.683700037893726403e+03
6.352909958546528287e+03
4.849987918310152963e+03
3.871823335428705832e+03
3.349511200700136669e+03
2.719807492056464980e+03
1.963400467112744991e+03
2.854315499507460572e+03
3.595755357016068956e+03
3.160729389448176789e+03
1.916480718866928555e+03
5.233406225027106302e+02
-9.796756448918130218e+02
-4.765914150220579586e+02
-2.089066022710389007e+03
-3.675686942360158355e+03
-3.609123197486498611e+03
-3.655223838736586913e+03
-3.661892205920252763e+03
-4.411120590848215215e+03
-6.537151012756880846e+03
-9.009807382166965908e+03
-1.130673560112094492e+04
-1.038875921540179297e+04
-7.399716010648809970e+03
-4.098437281615029860e+03
-2.603642832746703334e+03
-3.482106188224693597e+03
-4.428588150139545178e+03
-5.285939765470910970e+03
-6.044952392039991537e+03
-4.515379469157857784e+03
-8.523074147181462195e+02
1.715063410130369220e+03
2.084834149557370893e+03
1.642103115375185780e+03
5.268408660620401633e+02
-7.288391683868030668e+02
-1.283935824586608987e+03
-1.858389615764182963e+03
-2.809151276141541075e+03
-3.582058821315208206e+03
-3.723766250549761480e+03
-4.203009418558613106e+03
-4.964634883168805572e+03
-5.554565204802664084e+03
-5.202481927946318137e+03
-5.032044339767249767e+03
-5.661086041109759208e+03
-6.117335747756739693e+03
-5.900440601478471763e+03
-5.485181246391574859e+03
-6.078527208068529035e+03
-7.066345211064161049e+03
-6.684423314026561457e+03
-4.579548047397796836e+03
-4.601431443464275617e+03
-4.385948700418626686e+03
-2.164016110189813389e+03
-5.983570003320324986e+02
-4.616512490424405541e+02
-2.076565415493369528e+03
-3.150889877811400765e+03
-3.088493583573566411e+03
-3.203318938980225539e+03
-3.018969545028308858e+03
-2.857099169206576335e+03
-2.801685074565652940e+03
-3.097833796123957654e+03
-2.862075224957303362e+03
-2.201816364507889375e+03
-1.320749663286826262e+03
-1.522732850557876645e+03
-2.107380137595289398e+03
-2.474617084850470746e+03
-4.796356468093427793e+03
-6.573761357362346644e+03
-3.434500963341773513e+03
-5.360048179220839302e+02
1.553534301063253452e+03
2.152777792898651114e+03
1.344493297035269052e+03
6.182379352730630444e+02
9.442200276828903043e+02
1.851792580023904293e+03
1.541829286416391824e+03
5.147711275603688819e+02
2.925183644909238865e+02
-8.578162656393418217e+01
-9.010846181694658981e+02
9.721151520800038526e+00
2.338378248537688705e+03
3.958005449125354062e+03
5.388211028608393462e+03
6.784658752938492398e+03
6.970281591095219483e+03
6.673070645068775775e+03
6.315668602051078778e+03
6.084075234023121084e+03
5.249342183470645068e+03
4.996384834050653808e+03
4.869116468243048075e+03
3.775455649248309328e+03
2.314218688491487683e+03
7.561588059841418499e+02
7.654852235280102377e+02
9.582512722356643735e+02
9.833215660557324327e+02
1.659474438156122687e+03
3.216558893613437249e+03
4.788375938318868975e+03
5.463762929304410136e+03
6.429655457978838058e+03
5.326760121219580469e+03
5.055451890614351214e+03
6.962161680497026282e+03
7.944647625093471106e+03
8.868652045596218159e+03
9.050868583115387082e+03
9.354955180861785266e+03
1.013661452464594367e+04
1.071357240271639785e+04
1.066254451046119902e+04
9.977190025829344449e+03
8.571178900613855149e+03
6.048399132811949130e+03
4.001832657579192528e+03
2.260454233691709305e+03
4.119866451564053023e+02
-1.318873470256190330e+03
-1.927372423954451733e+03
-9.647743092416604895e+02
4.857498025594449018e+02
3.449843695042433410e+03
6.334208551130273008e+03
6.270533649749196229e+03
6.410540638277655489e+03
6.863981340667786753e+03
5.990488961973484038e+03
4.770716180719329714e+03
3.293440417929998148e+03
2.697233649706175129e+03
1.916701537982090485e+03
-7.544052935347278890e+02
-2.787012722088592454e+03
-3.596641719404550713e+03
-3.998644151839330334e+03
-2.291228737609620566e+03
1.243669364862344793e+02
4.154009209663065121e+03
8.927401356962238424e+03
6.294224322469646722e+03
2.033201090331620435e+03
2.441199638136578542e+01
-2.633012921565743341e+02
-8.622014234899660323e+02
1.594468896111555068e+03
1.734437274077175289e+03
1.963462865286288888e+03
2.987373949725991679e+03
4.208861867725284355e+03
6.126695061890578472e+03
6.755721993219326578e+03
7.250696746105236343e+03
8.131500603078708082e+03
7.584039594727059921e+03
7.094111495611349710e+03
8.435477619535116901e+03
8.221009396586630828e+03
6.967630107412736834e+03
5.230198555701318583e+03
2.833684178813275139e+03
-4.479445019612839474e+02
-4.101681609483183820e+03
-1.008257878435733619e+04
-1.304265404183538703e+04
-9.339933629586441384e+03
-2.126463811990994145e+03
3.441794401587053926e+03
4.738825283039426722e+03
2.521493546186768526e+03
-3.311191194218059991e+03
-1.106506895112397797e+04
-1.737396946156029298e+04
-2.255673328334353209e+04
-3.005318669429267175e+04
-3.885922453412854520e+04
-4.501573140342460829e+04
-4.129964561568851059e+04
-2.933576475262601889e+04
-2.543277479428751394e+04
-2.547342806550539535e+04
-1.367558392377454220e+04
-5.327038536829975783e+03
-7.738572905037816781e+03
-1.325610720072952245e+04
-1.636340092840110628e+04
-2.499202404876816217e+04
-3.798243139895390777e+04
-4.375627237205065467e+04
-3.609023976096059050e+04
-2.882796862228991449e+04
-2.945710751331805659e+04
-3.294412116829676233e+04
-3.129500344275126918e+04
-3.107329837816986037e+04
-2.387276705619593486e+04
-5.958301330797182345e+03
1.150228485680481072e+03
8.620421406388831542e+01
-1.996784929418653292e+02
-4.696329294471637695e+03
-1.291738666515475779e+04
-2.715961311427750115e+04
-2.698265110361017287e+04
-1.681713334904708972e+04
-7.171611348524626919e+03
8.310351148318432024e+03
2.631811414531139599e+04
3.210005415768298190e+04
2.792856776750187782e+04
2.562602563970964911e+04
2.431671787182822300e+04
2.736096686633080026e+04
3.057522334489038622e+04
3.184992105153094599e+04
2.942043542007014184e+04
2.532305392418650808e+04
2.455500357255153722e+04
2.081436934846675285e+04
1.578729529914120758e+04
1.694712046710575305e+04
1.880724422766080534e+04
1.349202492887599874e+04
5.152736067281807664e+03
9.306707769935759416e+02
5.296174458855868579e+03
1.165359121818928725e+04
1.104821126690455822e+04
7.777370368274632710e+03
4.912391054610004176e+03
1.021459973490253560e+03
4.656806072106551255e+03
8.536708911031622847e+03
8.618306835439758288e+03
8.774688337439762108e+03
8.512013242774033642e+03
6.877430554823481543e+03
6.104129424933504197e+03
6.712290482151211108e+03
6.283943771089825532e+03
5.065810673242205667e+03
3.416706052596045993e+03
1.368666678814136958e+03
-6.041264018916305076e+02
-4.695660162255498108e+03
-9.925907610949090667e+03
-1.405878288401768805e+04
-1.201628137458132369e+04
-1.283943476638273751e+04
-1.706530839651834685e+04
-1.567802632134134728e+04
-1.328065744830187214e+04
-1.357430568589277391e+04
-1.290325758686317204e+04
-1.370668091949410336e+04
-1.436864192881894087e+04
-1.354328869804928217e+04
-1.526677844295129034e+04
-2.026027264098052183e+04
-2.360621319673126709e+04
-2.305669195751378356e+04
-2.052999565209955836e+04
-1.661852928838499065e+04
-1.224563009085089834e+04
-1.028064464154716006e+04
-1.137387594347890081e+04
-1.154954917881481379e+04
-1.054696113193159545e+04
-8.963459721894656468e+03
-7.563709398202489865e+03
-6.731381427393579543e+03
-5.223954072375268879e+03
-3.394766700210031559e+03
-1.681163513780734036e+02
3.635561996743257623e+03
9.026791257505121393e+03
1.747704273416934666e+04
2.531363650226124082e+04
3.020680918321767240e+04
3.433503231943870924e+04
3.786692104290053248e+04
3.995898078692446143e+04
4.215080075943294651e+04
4.271983478651060432e+04
4.221547752639725513e+04
4.047021958405103942e+04
3.848651885300073627e+04
3.768482225055860908e+04
3.699354650350470911e+04
3.513012018043371063e+04
3.224994874088748111e+04
2.955348080072802622e+04
2.791810085373102993e+04
2.630522902105945832e+04
2.529735194314705586e+04
2.554186914131480444e+04
2.656208222146927801e+04
2.596340840892427514e+04
2.320033022186554081e+04
2.029729574610413692e+04
1.807368824393441537e+04
1.727576093236410452e+04
1.575210970419862497e+04
1.232023841230155995e+04
8.790456796117061458e+03
6.254214209929908066e+03
4.852120389681598681e+03
3.547809621142634569e+03
1.503745810719952033e+03
-2.962657543679649280e+03
-5.362845345716471456e+03
-5.748296872374312443e+03
-8.468514260109153838e+03
-1.572493321512269358e+04
-2.060394949151468609e+04
-2.113503549469348945e+04
-2.057366098968564984e+04
-2.204020590785342210e+04
-2.292593769415589122e+04
-2.311420961039112808e+04
-2.290043884412593252e+04
-2.440157813658854138e+04
-2.514897210516382620e+04
-1.980835116009006015e+04
-1.620605066270216230e+04
-1.808229705178404765e+04
-2.427018060814933051e+04
-2.501079762942174420e+04
-2.454138940688739604e+04
-1.922317138416278613e+04
-1.413939077268893561e+04
-1.131707078738182827e+04
-9.750267130235873992e+03
-8.903137821277679905e+03
-1.220668729055753465e+04
-1.432488333273017815e+04
-1.350290624813234172e+04
-1.632990221948033832e+04
-1.544782990145051008e+04
-1.501468942507534121e+04
-1.446642428656336051e+04
-1.269382650080675012e+04
-1.484172559817247929e+04
-1.743798639229129913e+04
-1.827843587424836005e+04
-2.044485112885406488e+04
-2.333505550972419587e+04
-2.681887757599064935e+04
-3.235396782189040096e+04
-3.564299767688872817e+04
-3.680867241484722763e+04
-3.588979076123994309e+04
-3.220806578928967429e+04
-2.931312112713250826e+04
-2.578560254970716778e+04
-2.107425847922439061e+04
-1.481869458489330282e+04
-6.090442156809275730e+03
3.292887713281937522e+03
8.742956529365959796e+03
9.540197051211227517e+03
1.048590135835946057e+04
1.242563692363035807e+04
1.401594396484622121e+04
1.440943318099748831e+04
1.345063101013026971e+04
1.181509573349121638e+04
9.829440837105012179e+03
7.201301932393444986e+03
3.417345024661060961e+03
-1.088696332383037316e+03
-3.597131388065074589e+03
-4.258319537272504931e+03
-4.205593040799602022e+03
-3.732892087069155878e+03
-3.531199348280672893e+03
-3.322809574938797596e+03
-1.793624713093753371e+03
-5.333946920962804370e+02
8.927931806322693546e+02
1.624852958455752059e+03
2.296751533592298074e+03
4.168181403084296107e+03
5.441859510133376716e+03
6.239775254330287680e+03
7.870907844673065483e+03
8.151620014043107403e+03
6.668438284308189395e+03
5.050582031419853593e+03
8.664470180186977814e+03
9.228947418216257574e+03
7.485011084713307355e+03
6.076431720497823335e+03
4.649988257725738549e+03
1.984133752497295291e+03
-4.758189658780839295e+02
-3.031990663448014402e+03
-4.069057819943251161e+03
-2.930076614206659087e+03
-9.163692140977068448e+02
1.098638912675472284e+03
3.380712110756527181e+03
5.619557445122355603e+03
8.061724646110993490e+03
1.058880546341472655e+04
1.249428969957195295e+04
1.431982324065261491e+04
1.666197157902204708e+04
1.790342863158116234e+04
1.895881358200329851e+04
2.077468995334524880e+04
2.227377017996910581e+04
2.293462054276866547e+04
2.345964851134939090e+04
2.422050150768369713e+04
2.416779462833662910e+04
2.378805967188483919e+04
2.309088128646719633e+04
2.267384959568917839e+04
2.243047355158715072e+04
2.224449634906158099e+04
2.181412202855831492e+04
2.113922225633201015e+04
2.055875422235432416e+04
1.967110721039872078e+04
1.854686811374723402e+04
1.743361770543556850e+04
1.665103208526127855e+04
1.599265313682497799e+04
1.524978682161356119e+04
1.399766739119103295e+04
1.265979097609466226e+04
1.122360039900581069e+04
9.580180962827203984e+03
8.803846245702039596e+03
8.661883680260800247e+03
8.526853951677123405e+03
7.814144802146497568e+03
6.766786946730311683e+03
5.035861849919007909e+03
1.074148745430798726e+03
-4.039999113913300789e+03
-7.824699825187996794e+03
-8.632433251703869246e+03
-8.832693662744028188e+03
-8.884895224166224580e+03
-9.054195171355533603e+03
-9.529873307801233750e+03
-9.486541960958706113e+03
-9.838019750865407332e+03
-1.046283659170742249e+04
-9.966103695350886483e+03
-5.263596176393086353e+03
-5.236680227357430340e+03
-6.513023621752575309e+03
-3.742329290872557067e+03
-3.658926252826964628e+03
-3.747680277413774093e+03
-4.132449708261670821e+03
-4.494881545898240802e+03
-5.111267914757487233e+03
-5.492855968960315295e+03
-5.130204523464614795e+03
-5.251376478084148403e+03
-5.614292124526859880e+03
-5.800641316754027685e+03
-5.874078911467362559e+03
-5.719106753472251512e+03
-5.745153974740994272e+03
-6.006976499695955681e+03
-6.597071862079627863e+03
-6.858764773669112401e+03
-6.807228513605871740e+03
-7.024718235509467377e+03
-6.909859046605994990e+03
-7.330846650019660956e+03
-7.619995709900948896e+03
-7.711276763408165607e+03
-8.084276223290707094e+03
-8.932910351377235202e+03
-9.857364865335373906e+03
-1.123236679907153666e+04
-1.240209404724952401e+04
-1.346932224783499805e+04
-1.362915377797842120e+04
-1.207488837470926956e+04
-1.031803516713008139e+04
-9.958030632212594355e+03
-9.279988606177819747e+03
-8.802536747118441781e+03
-9.141982710177888293e+03
-9.994845699089210029e+03
-1.126960390985780577e+04
-1.168469772663594995e+04
-9.388759753958638612e+03
-5.666427313158119432e+03
-3.469119830289786023e+03
-3.289318917847902412e+03
-4.144468125461219643e+03
-4.314008165013226971e+03
-4.615442643079433765e+03
-4.533093936161080819e+03
-3.910415012587469846e+03
-3.674924523613604379e+03
-3.696347562659174400e+03
-3.431592666780563832e+03
-3.332232065682986104e+03
-2.969202571784165684e+03
-2.577114510473906648e+03
-2.317280270416012627e+03
-2.061207745924702522e+03
-1.440214858217524352e+03
-1.176734016679901970e+03
-6.373346879980922495e+02
4.708359734916237471e+02
1.157757010095406713e+03
1.969939696794671363e+03
2.464754026020783385e+03
3.178625211549190226e+03
3.626016410810198067e+03
3.987380714609760616e+03
4.106435468542593298e+03
4.242107592505903085e+03
4.500065701910083590e+03
4.972898186638124571e+03
5.282147455583688497e+03
4.964545874151506723e+03
5.199828736620402196e+03
5.712593063794148293e+03
6.099477267005504473e+03
6.746077782734524590e+03
7.474153901682140713e+03
7.757229323091734841e+03
8.266724323850654400e+03
8.467352675924026698e+03
8.296993077831990377e+03
8.106479203192960995e+03
7.513699708981750518e+03
7.684537573913354208e+03
7.445872323324581885e+03
6.952790368016010689e+03
6.912313887699611769e+03
6.586497223552849391e+03
6.406336584373533697e+03
6.676722827033684553e+03
6.690622894097832614e+03
6.038149480384988237e+03
5.692453305144894330e+03
5.873574870114200166e+03
6.098414666805225352e+03
6.504036411410492292e+03
6.873437450227520458e+03
6.431489939927269916e+03
6.193223170135238433e+03
5.625877132892933332e+03
4.557734406686905459e+03
3.991013124527702530e+03
2.944853721020722332e+03
1.748266318867645623e+03
1.320424860406041944e+03
1.285685380336219851e+03
8.382610221722834467e+02
8.802683032251891291e+02
9.306741157121232391e+02
7.885424208189847377e+02
4.431266605859914876e+02
3.989103880246658491e+02
6.318784830094589324e+02
3.760362052162471969e+02
1.568047043400341920e+02
2.377240209038373209e+01
-2.970437016652113584e+02
-1.024757390608653850e+03
-1.324417743500283905e+03
-1.273698021609188118e+03
-1.695406978524400984e+03
-3.263424930036903788e+03
-2.467715398507710233e+03
-1.973120601954228277e+03
-1.973482012557795997e+03
-2.288979710721087940e+03
-2.521845566556530684e+03
-2.068778979337157580e+03
-1.450791457817519813e+03
-1.542000671813209237e+03
-1.180817364773345844e+03
-1.301509783281209366e+03
-1.217028319486304099e+03
-1.376092956682917020e+03
-1.914421661854323929e+03
-1.999550854478975225e+03
-1.684221529540435995e+03
-1.626820125430061580e+03
-1.609515528038441516e+03
-1.552450040259619527e+03
-1.942617151301963304e+03
-2.277794936705325199e+03
-2.186865205680056533e+03
-1.849630212924573243e+03
-1.636946832786729829e+03
-1.127879788895918637e+03
-7.280203354089204595e+02
-1.129969234508060083e+02
-3.163674878593038997e+01
2.863021219224268066e+02
7.791931531470952450e+02
9.372513858673844425e+02
1.112642513183899382e+03
9.429334491048098243e+02
9.368571825663045729e+02
1.529401196474225344e+03
1.578592320934666532e+03
1.868357833270221590e+03
2.090570948973684153e+03
2.026906708292175608e+03
2.358221968360886876e+03
2.704819651933710702e+03
2.735079131776510621e+03
2.781100690412246422e+03
3.030955513302982581e+03
3.432688312945623238e+03
3.447412194005059973e+03
3.699328029366815827e+03
4.109621107437384126e+03
4.225426413587856587e+03
4.004848268758430549e+03
3.850122900124049011e+03
2.233435358834437466e+03
-4.663102752167336007e+02
-4.426189201023315945e+03
-4.829168302216528900e+03
-1.090114911449936926e+03
4.684096822184596022e+03
4.960363979796753483e+03
-7.384959081729598438e+02
-3.078418155048041172e+03
-2.770377630828510974e+03
-2.095328933508786122e+03
-1.867309498861337943e+03
-1.716439491174602381e+03
2.783386949179583780e+02
5.387235159748611295e+03
5.443174667450858578e+03
2.735122789261367416e+03
5.555152230165470428e+03
1.458227847434070100e+03
-2.623089329918010208e+03
-3.451559150763361231e+03
-4.053949773771820219e+03
-1.844285492653202709e+03
-1.923623255915823847e+03
-5.626855394026016256e+03
-6.284043074454019006e+03
-6.740064849711936404e+03
-7.170981027626450668e+03
-6.808045817417719263e+03
-6.807364612570559075e+03
-6.455979793062473618e+03
-2.048999263251023876e+03
-5.976033211777515817e+02
2.211043061914168391e+02
-1.800257934112654539e+02
-2.309835990068368687e+02
-1.348078630270323117e+02
-1.436037301023911539e+02
-9.140120087694998574e+01
5.467781940123610696e+01
4.914493084295436347e+02
8.718472358128236692e+02
1.390914578114899314e+03
2.019721771572867738e+03
2.761311164893142177e+03
3.086639563894336334e+03
3.549554242047464868e+03
4.063072893216811281e+03
4.137105617133789565e+03
4.754600505695465472e+03
4.684528771713550668e+03
4.768873511718727968e+03
4.501697311642280511e+03
4.757935833093821202e+03
4.947533255759509302e+03
4.928535826064608955e+03
5.163979704980565657e+03
5.199821382836174052e+03
5.651930618605430027e+03
5.974238320864008529e+03
6.226839861637485228e+03
6.581743286824038478e+03
6.925973002546423231e+03
6.411537924037191260e+03
5.562312543278532758e+03
4.611236879443613361e+03
4.143352689545461544e+03
3.864708966483802669e+03
3.292156067469794834e+03
2.323590148998151108e+03
1.533195392361696804e+03
5.705150035479950930e+02
-4.443972931909248700e+02
-1.551800952032813257e+03
-2.254777849794938902e+03
-2.794419215413361144e+03
-3.841704417027059662e+03
-5.325572319964488997e+03
-6.007233301999141986e+03
-6.336580901548356451e+03
-6.734507772612201734e+03
-6.278170029629935925e+03
-6.272023148265342570e+03
-6.361480924010068520e+03
-6.777725584084258116e+03
-7.484147582742796658e+03
-7.738627948005831968e+03
-7.680306727281108579e+03
-7.917267484498582235e+03
-7.777538871855572324e+03
-7.645061450245718333e+03
-7.850840397982096874e+03
-7.729934395636806585e+03
-7.550361033437524384e+03
-7.491058165615357211e+03
-7.719036493671404060e+03
-8.309283315435095574e+03
-8.697778628743799345e+03
-8.829445378052207161e+03
-8.809292222223220961e+03
-8.622262823321889300e+03
-8.749443949840702771e+03
-8.836936179166712463e+03
-8.203719298303578398e+03
-7.346712295472943879e+03
-6.530811617950997061e+03
-5.999029857870574233e+03
-5.328400318168031845e+03
-4.526880773101005616e+03
-4.202386752179983887e+03
-3.997872025894628223e+03
-3.453337809757831565e+03
-2.462723293009685221e+03
-1.979942519513578873e+03
-1.563028612385892984e+03
-1.087061177601200370e+03
-1.152008660373099019e+03
-1.081830023755599541e+03
-8.504962065364484260e+02
-8.949373035857171317e+02
-5.550888162229783802e+02
2.571281143853517506e+02
8.599894477184218431e+02
8.194435896836779420e+02
7.782456195389650020e+02
1.185322246733325528e+03
1.215739194126001621e+03
1.499668420419068298e+03
2.019245624492546312e+03
2.361494527541283787e+03
2.265536472103920460e+03
2.444551828605764854e+02
-2.751701838689812121e+03
-3.201862223635158443e+03
1.760056748272842242e+03
2.307038261067574695e+03
2.343259999475791119e+03
2.140834334737420704e+03
1.386878235857561094e+03
8.344215732239291583e+02
3.375200460764833679e+02
-2.567814831076624387e+02
-1.348415260049502876e+03
-1.791288887113407100e+03
-1.366238440920367339e+03
-1.431145185745062008e+03
-9.170884138686521965e+02
-2.951306231949031371e+02
6.891628619413448860e+02
