-7.440460034315046869e+02
-1.861996619510478297e+02
8.380495204538558482e+02
1.193671691962772002e+03
1.162644347954164914e+03
1.528983987570032014e+03
1.445647957706445141e+03
5.926636659575052590e+02
-4.519978662561974261e+02
-5.403383576119440477e+02
-5.314660258231920125e+02
-8.294354773205869833e+02
-1.302330989415300792e+03
-1.285116897278242277e+03
-1.364823197737964620e+03
-1.634976540236092148e+02
1.005357617513176820e+03
1.421552353718267568e+03
1.499967912038748636e+03
1.082242478371158995e+03
4.530145875720928643e+02
6.126465173434964981e+02
8.860494512541921495e+02
5.956437954406750350e+02
4.309459658494146197e+02
2.502153913752363508e+02
-6.578963427828087163e+01
-5.945259103766583166e+02
-8.932231154352454041e+02
-5.641038769173552510e+02
-8.692765209675798133e+02
-1.437782845876495458e+03
-8.777735658307285576e+02
8.987806459723391583e+01
1.746078808966022052e+03
2.887709827541582399e+03
2.960703408319557639e+03
2.147494435663924378e+03
1.228020897106350731e+03
1.090102901959738517e+02
-2.794110210406114447e+02
-3.545517617364538978e+02
9.560470143444555902e+01
1.031254068744915003e+03
2.322245123773600426e+03
2.954949404055581454e+03
3.304808101091757180e+03
3.065987466297563060e+03
3.038367617922600857e+03
3.059969314415103781e+03
2.338909106999634787e+03
1.794969395115403586e+03
1.334021001773783610e+03
7.251289039037548037e+02
4.183266218979238715e+02
8.415977991798240510e+02
1.635879360169460142e+03
1.621208375245842035e+03
9.526412406316993611e+02
6.060846961931185888e+02
1.102476106846214407e+03
1.970829254253039380e+03
2.447139782838319206e+03
2.736364747271174565e+03
3.240530451939133400e+03
2.537715426889581977e+03
8.639358979499168072e+02
-2.892882246032522289e+03
-5.018749537324502853e+03
-5.557673358894203375e+03
-5.296709291389638565e+03
-5.958897371034157914e+03
-6.028305434979269194e+03
-5.804904769242621114e+03
-5.914593088008937229e+03
-5.290292790220899406e+03
-4.583981558569700610e+03
-3.957640060414129948e+03
-4.061277867667432020e+03
-4.827896343849042751e+03
-3.981403422442878309e+03
-1.682718239711338811e+03
-3.507035290603065278e+03
-3.716432161485404322e+03
-3.314736384760210512e+03
-2.640005197494527238e+03
-2.467156549324564821e+03
-2.592123459260383243e+03
-3.208937504985648502e+03
-4.076580819147964121e+03
-4.751078597080284453e+03
-4.471433056015342117e+03
-4.436400856937301000e+02
1.757288753568762331e+03
-1.355615556278680970e+03
-4.076331742990194925e+03
-3.031855305889459942e+03
-1.480141115232194352e+03
5.368297622865175072e+02
-6.498278409984220616e+02
1.041982079482977497e+03
2.471194298515964874e+03
2.929752323684911971e+03
3.044792353483645911e+03
3.164296536850651137e+03
3.438239008272711544e+03
3.554733334721233405e+03
2.376872122680227676e+03
1.882650123958762606e+03
2.069018017651143509e+03
2.031983886501233428e+03
1.216551784741985102e+03
7.506658969817661955e+02
6.203370584670594781e+02
1.080748847802947239e+03
1.721925752905990294e+03
2.486901443185921835e+03
2.489684007322722664e+03
2.116301355974213493e+03
2.097877150814213564e+03
2.683402887491994534e+03
2.695889739017584361e+03
2.574335247925654585e+03
2.497756637742507337e+03
2.571218067636476462e+03
2.546770884206076971e+03
2.869447309098366986e+03
2.223273134338449381e+03
9.543591863416609158e+02
2.856700555460024020e+02
2.481799642607915359e+02
-1.301587732285372283e+02
-2.341572189086818767e+01
2.713967796448234822e+02
5.445263085739621829e+02
1.455281039999902305e+03
1.355873491486009925e+03
1.127185100169953330e+03
1.295243983602554408e+03
6.380782378842653770e+02
2.246328569544646712e+02
4.419730369526047298e+02
7.570326723246478196e+02
1.409759324712130820e+03
1.676147309455014465e+03
1.609974396387159459e+03
1.825764161040645604e+03
1.648084618659707758e+03
5.813193045053798187e+02
1.891053708690798771e+02
2.105616907452288729e+02
2.173262926901593346e+02
5.557903050866617605e+02
-1.660966381779434755e+02
-1.224331243422311672e+03
-1.162881869918212033e+03
-1.586910687149213288e+02
4.122664759394121461e+02
4.399969370573439278e+02
5.285423247095936858e+02
2.918415898187645894e+02
5.887438207415868163e+01
-4.763460933359227170e+02
-1.087828774816329314e+03
-1.411536624980504712e+03
-5.144538328795736106e+02
2.964331616401539691e+02
6.851928715350620678e+02
8.658526211732574893e+02
4.624020106058482042e+02
1.067274446913335026e+02
-2.672446279852742350e+02
-6.346094833924190652e+02
-1.177365843427713116e+03
-1.336455862120270240e+03
-8.488030312786677314e+02
-2.973748413194150544e+02
-6.731328394726422175e+02
-5.520954477562497686e+02
1.367596443163693039e+02
7.143539536168940458e+02
1.220642868480552806e+03
1.441583630569595016e+03
1.318234002118215585e+03
1.007610702782974840e+03
7.056367068286857602e+02
1.450310608521222321e+03
1.171683631747245727e+03
3.297742476658066266e+02
-1.174414110831636862e+02
-6.550636415978242439e+02
-1.344185033945698478e+03
-1.281868015174256925e+03
-1.460080642673547800e+03
-7.807397386606083955e+02
-3.157979750826451095e+02
-1.311275701256350203e+03
-3.356201557325436170e+03
-4.717620564294679752e+03
-5.158560480037181151e+03
-5.069014403906244297e+03
-3.844040249274817597e+03
-9.497178928018605575e+02
7.497953531494535184e+01
6.360255657126029973e+02
1.206518754516583385e+03
1.333560730520267953e+03
6.732353997681549345e+02
-4.705944122499465720e+02
-1.503143121787410564e+03
-1.535424413267437103e+03
-1.378492845062071183e+03
-1.133511472093771545e+03
-1.561387809364472560e+03
-2.504998517141022148e+03
-2.772371587483500662e+03
-2.301491281794179486e+03
-1.434453717138578668e+03
-1.032475562048260542e+02
1.213140084181143266e+03
1.804701005849873582e+03
1.257398371953881679e+03
1.404194248940451871e+03
1.773039670994500284e+03
1.170868669570183783e+03
1.721750478453228425e+03
2.645756655465336280e+03
2.425899964830080535e+03
1.551191064877471490e+03
1.645971046598922101e+02
-1.602953635470133349e+03
-3.104586469210840278e+03
-3.898303092273597031e+03
-2.915090073797431160e+03
-1.680948920733228988e+03
-2.184105476920033340e+01
4.632673541674977855e+02
-2.306607070399589361e+02
-1.321625762251337619e+03
-1.498585752183861814e+03
-5.014833454189587201e+02
-1.683457252311636410e+02
-2.462835418776601841e+02
9.106433322133253796e+02
1.633514329439379253e+03
2.106330242532388183e+03
2.932030303752880627e+03
3.693643346829829170e+03
3.355178814744232568e+03
2.283715184311580288e+03
1.207301988744846085e+03
9.049041461496791499e+02
1.464252575583131772e+02
-7.101728958517813908e+02
-1.320872894896065645e+03
-5.326908826797604206e+02
1.079434777008432093e+03
2.599565572325568610e+03
3.180662280793451373e+03
3.304653600295918750e+03
2.914624130409189547e+03
2.611588263665614249e+03
2.226480073058901780e+03
2.245438807768882725e+03
2.331553681110238358e+03
2.699776499964563300e+03
3.005940239645261954e+03
2.889044647724158949e+03
1.615191949254278825e+03
7.804743795097373322e+02
-9.881595065280653216e+02
-4.253781551091222354e+03
-3.632574218028060841e+03
-2.777497691265035883e+03
-3.034392483813861077e+02
-1.709396297131913570e+03
3.986152839994545047e+02
3.367490398551868225e+01
-8.521786268409073273e+02
-1.489739337639175289e+02
-3.024693405650277782e+03
-3.306297269221696297e+03
-4.952762553914854834e+03
-1.750995772132030197e+03
1.586133503339989147e+03
1.029578005302356814e+03
1.892324534697701893e+03
3.254391636940174067e+03
2.226689585054470797e+02
4.171245802919590346e+02
9.478448033847348597e+01
-2.565426781514283903e+03
-4.153646004744728089e+03
-3.905785396731325363e+03
-1.403609867267567779e+03
-3.369001647686211072e+03
-2.140920493390836782e+03
-1.090505481814492214e+03
-1.569906396875043811e+03
-1.242582585322614506e+02
-1.860514228158456490e+03
9.523801035610847521e+01
-2.610693463629924622e+02
-1.463456992207973599e+03
-1.174850326625767138e+03
-6.341683596693753771e+02
1.513630730309452247e+03
1.786594056514198883e+03
1.003706898363783580e+03
2.769472986735841005e+02
-5.686907537354001079e+02
-1.467223600997497897e+03
-1.871713568932855424e+03
-1.392253912743014098e+03
2.327493569822824071e+01
1.021981531274470399e+03
1.320909634996249451e+03
1.570039945044576598e+03
1.988219461374140110e+03
1.411493628389651349e+03
6.780617328493567584e+02
7.720516024895695182e+02
1.582570633812553069e+03
1.896387791691361599e+03
1.798868423773174754e+03
1.708174576149696122e+03
1.633179151183220483e+03
1.584641783740408073e+03
6.346102088213655179e+02
-1.370237095419574302e+02
-5.674066090650240994e+02
-1.073824815978204015e+03
-1.562106429404704159e+03
-1.431554511305957021e+03
-1.611105647980188905e+03
-2.553698044272133302e+03
-1.786005518131335293e+03
1.079610393281443066e+03
1.720135824500804119e+03
8.218704338400007146e+02
8.884952648060516367e+02
3.990890910965700300e+02
5.947100738280111045e+02
1.389212146768729326e+03
1.764598993149308171e+03
1.803253968671842131e+03
1.635129562819555304e+03
1.388454067858658618e+03
1.418323432643968772e+03
1.403067672976584618e+03
9.275762171762063417e+02
3.270708031311035597e+02
-4.607354775621826661e+02
-9.390023274273285097e+02
-1.308966005374548104e+03
-4.866942652122234563e+02
1.050418933523150827e+03
1.794813004217635807e+03
1.772708535595787453e+03
2.281162207479027984e+03
1.914145408831793929e+03
1.021485230235789345e+03
1.122106403334800234e+03
2.183964540779179970e+03
3.070088355462683921e+03
3.117514115804980520e+03
3.240285610855492450e+03
3.112379096385361208e+03
2.449940355431614535e+03
1.356060005351167092e+03
1.130735012189132931e+03
6.137490104038073468e+02
-1.402530489630421151e+01
-6.336454270003359852e+02
-1.107226740429210849e+03
-3.087917966964912466e+02
1.010685836882954845e+03
1.973208391735809982e+03
2.488895970765130642e+03
2.403883472302694827e+03
1.991205477675194970e+03
1.543809603198600598e+03
1.634601431714316959e+03
1.744529066586539557e+03
2.513757769176265811e+03
2.313479428604664918e+03
1.605697147724577235e+03
9.632996253184762736e+02
-3.077433465735477967e+02
-2.890610165351071828e+03
-5.220465686367071612e+03
-6.374431941178195302e+03
-6.901533964530755838e+03
-7.463633236048828621e+03
-6.770641487891944053e+03
-5.470569011650371976e+03
-4.650319300468547226e+03
-3.082860831226626487e+03
-2.699210694599202725e+03
-3.891320725846122059e+03
-5.184156038584251291e+03
-5.941690166576004231e+03
-3.500915968069788960e+03
1.960135861362755804e+03
2.842490176929394693e+03
-2.387606427374674922e+02
-7.256423905231532672e+02
-2.518111242408559519e+03
-4.770728033923036264e+02
-8.552985374175477773e+01
-5.034237685164820846e+02
-1.579754602243847557e+03
-1.615665725294905315e+03
-1.247262865954830659e+03
-7.184826283065212920e+02
-1.382063410671501344e+02
8.560241612458392524e+01
5.399182121478831959e+02
9.127566236001977131e+02
1.088329852727091975e+03
5.318567944679558650e+02
6.454019995330254389e+00
-1.859639302484436030e+02
-1.294485244763800438e+02
8.089951506291075702e+02
2.113421642132508623e+03
2.553014356552851041e+03
2.529822372205821921e+03
1.628733420445831598e+03
4.715960690588091779e+02
-5.026497179386614675e+02
-1.047967525530609464e+03
-1.361441346250263223e+03
-1.135073602157927553e+03
-6.017037864869961368e+02
5.457052524641475202e+02
1.499141648288225724e+03
1.797675346338511872e+03
1.808245393345090861e+03
1.762923848782946379e+03
1.598816707443447058e+03
9.179241197014717955e+02
2.802512982529135002e+02
2.826863581137499750e+02
6.383015722482061847e+02
1.653195462428013343e+03
2.215425863169868990e+03
1.169062711852313214e+03
3.961906448920471462e+02
5.317276686522066029e+02
6.667027336583749957e+02
5.620455931039900861e+02
8.676844691639065843e+01
-4.319151782022867110e+02
-8.549310477283037244e+02
-1.169400876953555326e+03
-9.152847214029437737e+02
-9.153513221646926468e+02
-1.457587251369671321e+03
-2.241023989314842765e+03
-3.328471844562211118e+03
-3.622161104352781422e+03
-2.806167445813693121e+03
-1.052425291677889390e+03
1.429141245129390882e+03
1.921568899992380011e+03
1.994863372953876933e+03
1.920011232686404583e+03
4.700209685459780076e+02
-4.021045423670819901e+02
-2.862939513904656224e+02
-4.064551663844471250e+02
-1.606310045798143449e+02
-5.949642110826616772e+02
-7.704854497964786333e+02
-1.611858486085156699e+02
9.889117505682793308e+02
1.851911790565597130e+03
2.633891116115740260e+03
2.365835310432638835e+03
1.022741717672560867e+03
1.006741144501644811e+02
3.035594591057093794e+02
8.443075222727477467e+02
1.031938346464868800e+03
1.114491397764734529e+03
1.303080442681279465e+03
8.317747400602335119e+02
7.406171295294229822e+02
9.235859132906780360e+02
2.005110843008290260e+02
-5.796236708268357916e+02
-1.167919824284724882e+03
-1.858416307388917176e+03
-2.258089598581643713e+03
-2.014851125073539379e+03
-6.267621642739715071e+02
1.579111340628457583e+03
2.691773399285279993e+03
2.322245979064925450e+03
2.104461583307897854e+03
1.624448929485662802e+03
4.841625336893862368e+02
-6.275177960471569349e+02
-1.562645916634105333e+03
-1.631170860316835387e+03
-6.190102308565087696e+02
4.348530848868840053e+02
7.623344616153118523e+02
8.324221556086473583e+02
6.390747898142910799e+02
-1.887327695498153730e+02
-1.080129546201983430e+03
-1.466265691238656245e+03
-1.343203995958036330e+03
-1.533890021627867554e+03
-1.174372576066842157e+03
-9.796361171127190346e+02
-1.289696062313658786e+03
-2.075113787078218763e+02
1.399893399279043024e+03
2.189476125307863185e+03
1.599203844848047083e+03
8.459999606410353863e+02
8.938403413227539431e+02
1.917777198157905104e+03
2.907771345159711927e+03
2.939862363136194290e+03
1.847070332522720037e+03
1.239058665978694989e+03
1.378847286633654221e+03
1.167458036956206797e+03
-8.987547212519709205e+01
-1.087575945605153493e+03
-1.110461016385242374e+03
-1.503507511971848771e+03
-2.548847354502115650e+03
-3.393212188847929156e+03
-4.375780574423170947e+03
-4.656446581511133445e+03
-3.612616351734705859e+03
-2.947377670368920008e+03
-1.668446679187034761e+03
-5.608679512985083875e+02
-1.284042671362800093e+03
-1.492807027241062769e+03
-7.691437091685736505e+02
1.600391840223037434e+02
-9.150970444580757430e+02
-2.167601554844231487e+03
-1.560743828317486759e+03
4.961981768435153981e+02
3.172456723170130317e+03
5.185744513431002815e+03
5.879051791231324387e+03
5.452518681786329580e+03
6.368980901418804024e+03
7.024666704579811267e+03
6.418437647313588968e+03
5.147299016971843230e+03
3.927135113427345459e+03
3.728826960164485172e+03
4.139463385013033076e+03
4.412743249328884303e+03
4.576689649664763238e+03
4.433421082271500381e+03
3.857905486546548218e+03
3.113111029870923176e+03
2.118017841431826582e+03
8.556929769724587231e+01
-1.586327615561216135e+03
-3.002815568940303365e+03
-3.971941884913589092e+03
-4.511657407729432634e+03
-6.832929123069347952e+03
-9.435872914507528549e+03
-9.991471755492646480e+03
-8.464702253773753910e+03
-6.294590308146714960e+03
-8.334179092504999062e+03
-8.756394974166554675e+03
-5.833203628000965182e+03
-2.339618516261247350e+03
-2.797245599042131516e+02
2.206441153856727396e+03
4.668972219295533250e+03
6.348921725170350328e+03
4.226329169138605721e+03
5.223251702948849925e+03
2.624683466208598929e+03
5.645428111052424356e+02
-1.706143844785317015e+03
-4.743237540409875237e+02
-2.087142445822697937e+03
-1.984778829649026193e+03
-1.836070649180348482e+03
-4.555864777388233051e+03
-5.949176876003813049e+03
-6.180971232769767084e+03
-8.858258543080666641e+03
-1.241003922640425117e+04
-1.183422704737200729e+04
-1.208471157356902404e+04
-8.804500535352710358e+03
-1.787624160443352366e+03
2.737876301355344822e+03
6.189066106798002693e+03
8.072123878763489301e+03
6.225046056964612944e+03
5.925871278127642654e+03
3.394612376790305916e+03
5.142845841719906730e+02
2.488826565239940919e+03
4.681485535707965937e+02
1.572306462757035661e+03
3.311408693668553042e+03
5.141504498714441979e+03
5.306760535376339249e+03
4.939306818187387762e+03
3.962137664750970544e+03
1.725254796478906428e+03
1.267122093605652680e+02
-3.383285131004283812e+02
-1.310957715677596525e+03
-1.237193446172565928e+03
6.190566985171332135e+02
3.512924195848899217e+03
5.047442605668778924e+03
5.774704093658178863e+03
6.455806670649642001e+03
5.086816898042663524e+03
2.667766302963807448e+03
4.155516187061404594e+02
-1.574946556521668754e+03
-2.858737566271297965e+03
-2.623716736565249448e+03
-1.709773672116256421e+03
-1.051789995311957910e+03
-1.635663557211484886e+03
-2.674373726157882174e+03
-2.717787546273898897e+03
-9.169409137402255965e+02
1.910260481712812407e+03
4.620813837401230558e+03
7.317674904940783563e+03
8.783941215710452525e+03
8.602997750850159719e+03
6.671990964588273528e+03
4.715913693826973031e+03
3.158808630718457152e+03
2.190718479807870608e+03
1.154612984433284737e+03
1.164223661314743623e+02
-7.628198894446676377e+02
-1.594126081429870283e+03
-1.919491575147455251e+03
-1.456719201207083643e+03
-9.467011117554640123e+02
-7.203692242224626625e+02
-7.367109427113791753e+02
-1.057113595228029681e+03
-1.552478250848990228e+03
-2.267566928199008998e+03
-2.385512039710791669e+03
-1.418029287527525639e+03
-3.224431968188103781e+01
1.092949540277366168e+03
1.632460760250001840e+03
1.080344266375511324e+03
-2.434706823190991543e+02
-1.602949480649861016e+03
-2.491086233342669402e+03
-3.379907802929359605e+03
-5.690423361111494160e+03
-8.943702870368582808e+03
-1.093974094039800912e+04
-1.101046118106615177e+04
-9.634777055681939601e+03
-8.053639560803510903e+03
-7.031035529843226868e+03
-6.515957623760028582e+03
-5.630438570084686035e+03
-2.900556210291032585e+03
9.126782490407463229e+02
3.705219189066208855e+03
4.634142101856141380e+03
4.258532884046614527e+03
4.285432750307581955e+03
3.508817863614563066e+03
2.316685344450091634e+03
1.708994694109902866e+03
1.604681851522838770e+03
1.670681090471401603e+03
2.453860424524097652e+03
2.249217832050680954e+03
2.421801814431788898e+03
3.425645740507701703e+03
4.052788579503177971e+03
4.470255833207646901e+03
4.240044365915023263e+03
3.508127941657660813e+03
2.796470757147166751e+03
2.589000341178518283e+03
2.711686785066081939e+03
3.385557347322649093e+03
3.453551964982872050e+03
3.316659554008425403e+03
2.804870689721671170e+03
1.885153791786897727e+03
1.723556839940644068e+03
5.880789083012128913e+02
-2.770347196640143466e+03
-6.120805078836466237e+03
-6.863399462722701173e+03
-6.479166796793027061e+03
-4.242039846632053923e+03
-4.069937152486044738e+02
5.789642092049361963e+02
6.307289520891205257e+02
9.772323176648021672e+02
1.289403922210244218e+03
1.151133524420711638e+03
6.135144577139903959e+02
4.814960998121969169e+02
4.629714601351523129e+02
4.470112825017907880e+02
4.955516975136734459e+02
9.534952119935289829e+02
1.367840740680625686e+03
5.495556925673771502e+02
-4.313338814251107465e+02
-8.289141633383121643e+02
-1.419289550884308937e+03
-1.304611093076888210e+03
-1.429935491358634408e+03
-1.159282833998746810e+03
-5.845921595056915976e+02
-9.875754336472181194e+01
7.411672197798617390e+02
1.140109256890982806e+03
7.450653893043513563e+02
-9.494272847024316775e+01
-4.099644474481120255e+02
-6.600938600015355178e+02
-4.593712405186401497e+02
6.216154268980002229e+01
4.414325241087719291e+02
1.479475516997699515e+03
2.432318909508908746e+03
2.254944734953175612e+03
1.174341691696578664e+03
5.534612520138066429e+02
-8.177881899218503747e+01
-1.745225998405749408e+02
-5.549166719259452520e+02
-9.069808981644797541e+02
-5.136183965672578324e+02
4.882087636076742001e+02
1.307530665270239751e+03
1.507394741372318322e+03
1.454845057218110242e+03
1.262894015580648784e+03
1.512461271873611622e+03
2.119438636159783528e+03
2.724736701216871552e+03
3.060311359039674244e+03
2.953158155621205424e+03
2.946333626412443209e+03
3.124931453819750004e+03
2.913930036653469415e+03
2.541296035065916840e+03
2.556995163318913001e+03
1.893030979296006990e+03
1.084295722483807140e+03
2.587850303041699931e+02
5.849675652355441713e+01
3.193483774064353042e+02
6.132966407336325574e+02
1.396423832071596053e+03
1.816825905016444494e+03
2.058545418400710332e+03
2.120553666259009788e+03
2.336757180876481016e+03
2.278088769226352269e+03
5.696094069800265061e+02
-1.998595657329310370e+03
-4.001565801402698980e+03
-3.379313203327030806e+03
-2.882790299339250396e+03
-3.806861196295671562e+03
-4.369498690439550046e+03
-5.030800236463881447e+03
-5.524729087333354983e+03
-6.128221190150908114e+03
-6.523381340326243844e+03
-6.799109741363740795e+03
-6.814377492570763025e+03
-6.463294621181074035e+03
-5.361857592151004610e+03
-2.398081379167872001e+03
-3.049948559322484925e+03
-6.290314135821083255e+03
-6.485157110532415572e+03
-5.505529091604472342e+03
-4.490520334534202448e+03
-2.788983807488064485e+03
-2.113828971461748552e+03
-1.800121922672750316e+03
-2.495990519860336917e+03
-3.582546532108700376e+03
-4.511795773606285366e+03
-4.854644448750610536e+03
-4.915001814829147406e+03
-4.879933473546561800e+03
-2.156474202431455069e+03
-5.034713655341941489e+02
-8.298142749357972434e+02
-1.000461409994496080e+03
9.385753985440555880e+02
1.687275594381550718e+03
1.614696531129345658e+03
2.364887211845573347e+03
3.080895450184138099e+03
3.540744018797444824e+03
3.888497974817481008e+03
4.236156467117718421e+03
4.692818197521550246e+03
4.874549833670980661e+03
4.603406417912434335e+03
4.646405896934460543e+03
5.472542639761751161e+03
5.366002662732800673e+03
4.521835608916584533e+03
3.575892759853697044e+03
2.978980932686531560e+03
2.661969343371348714e+03
3.049210814816431139e+03
3.710588268575831989e+03
4.425079816827593277e+03
4.146679077847836197e+03
3.277464672936398074e+03
2.344384069950392131e+03
1.839439036877812441e+03
1.939654100468303795e+03
2.635280253896765316e+03
3.261055925083718193e+03
3.449266851674521604e+03
3.625926572741133896e+03
3.474090480913575902e+03
2.930594113307292446e+03
2.376689745713589218e+03
1.820342850937796129e+03
1.309277932734200476e+03
1.132765447918928658e+03
4.418302384820890438e+02
-1.816230096293523388e+02
-4.943005261999741151e+02
-2.900899480460392397e+02
9.057049665412550894e+02
1.699187161193205611e+03
1.726079893400157516e+03
1.010983084057516407e+03
5.490285918935386462e+02
1.523367388759675578e+03
1.959991808795298994e+03
2.193759371213535360e+03
2.363332678480716368e+03
2.307320355678852593e+03
2.256061451586742805e+03
1.505845656874568704e+03
2.230287765310465318e+02
-1.215498111786542722e+03
-2.301633831867513891e+03
-2.884652861807440331e+03
-3.178615830488127358e+03
-3.292508426453694938e+03
-2.811215372812647729e+03
-1.981572434882437392e+03
-2.859393565737113363e+01
5.956007737075617570e+02
1.520567239309995387e+02
-5.032665797614796475e+02
-8.905229142265332030e+02
-8.158772767483503685e+02
-5.192957288948372252e+02
3.042143293888613584e+02
1.479627011130074607e+03
2.790141323500494764e+03
3.803868151406554716e+03
3.598824280260538671e+03
2.434955564526113449e+03
1.466265855604860235e+03
4.866688058016509331e+02
-2.230029960149253725e+02
-5.397828284471283951e+02
-8.126059959495988778e+02
1.265843467508353939e+02
9.937546059137065413e+02
1.779718416150758230e+03
1.338291567868030370e+03
-7.195726435629657090e+02
-3.673876404702594300e+03
-4.620579435537913014e+03
-4.820562248564194306e+03
-5.013710103469774367e+03
-4.794026504685552936e+03
-4.687528683628323051e+03
-4.118240739693192154e+03
-3.980095775718521509e+03
-4.100054344517078789e+03
-3.774122920744163821e+03
-4.902354577350566615e+03
-5.940500217230865928e+03
-6.724835004912671138e+03
-6.946536690451960567e+03
-3.594592618434794531e+03
-7.438562308364973887e+02
-3.313237256399950752e+02
-1.620040398999756007e+03
-3.244960574235818513e+03
-3.413094367544754732e+03
-1.422489115613308968e+03
8.667487128917898644e+02
1.231556705634498485e+03
1.233979983060401082e+03
9.430903145902125289e+02
1.337946495100420407e+03
2.026548396410775467e+03
2.539911000848446747e+03
2.589089417143403807e+03
1.805213408099706385e+03
7.243920049274823896e+02
1.405991125865122342e+02
-3.892950121982739802e+02
-6.134464230066544133e+02
-5.439224893579926174e+02
-1.627588263379257114e+02
9.560762398814165408e+02
1.985622704171060150e+03
2.409668280485290779e+03
1.812093608994136275e+03
1.009990854999996259e+03
6.595109007395449225e+02
7.567400630895110680e+02
8.786500493423749276e+02
1.243260366829672193e+03
1.864570058302365396e+03
2.354531026629870667e+03
3.161168518976301129e+03
2.545587548632199741e+03
1.345761084729438608e+03
4.166979430416609489e+02
-1.596465744047049782e+02
-2.793958943892272373e+02
-5.415463908410335989e+02
-8.210031477155509947e+02
-6.537007838022125270e+02
-2.066125579197571085e+02
5.853572858749625993e+02
1.222249282064134832e+03
8.730611572627753958e+02
-7.423816744192680517e+01
-1.505367898043705281e+02
3.723418330605697690e+01
-5.788612392538480833e+01
4.270951389281568709e+02
1.277111662853635835e+03
1.811293458062943500e+03
1.754815168064482350e+03
1.259755399392336130e+03
3.081291093013843465e+02
-1.530073413252270882e+02
-3.657977082104522424e+02
-8.763030752745570453e+02
-1.870542344390620656e+03
-2.293532438520438063e+03
-1.892248367853376067e+03
-9.997623797354751787e+02
2.230261458666012686e+02
1.192218069169316777e+03
1.229831750375941738e+03
1.045921749104010814e+03
7.165449646596139246e+02
4.157086114130269721e+02
2.843849461772823020e+02
6.205899342947213881e+02
1.184421925501224905e+03
1.404884845012813230e+03
1.673903967192377650e+03
1.229592022128547114e+03
3.219415426979898598e+02
-4.850147426423553725e+02
-1.265305017604970544e+03
-1.706024839827479809e+03
-2.447218075484305245e+03
-2.819918744518494805e+03
-2.371056104455854893e+03
-1.286518577745016955e+03
-2.092245737472441078e+02
4.388618811037229648e+02
3.537123331799444941e+02
4.383214356694439289e+02
2.676600835754321679e+02
-1.352228142693800805e+02
-9.742638356166557401e+01
1.320465784284152733e+02
3.822445626038033879e+02
5.862492790563389917e+02
7.720825439315829044e+02
8.557429433954995375e+02
6.681436514719742945e+02
-2.706399752615805596e+02
-1.329594017187299642e+03
-1.759800844709366629e+03
-1.995350259222602062e+03
-2.330262979868414732e+03
-2.153523472035678424e+03
-1.579075913041662943e+03
-9.078758692002724047e+02
1.296934760343586568e+01
4.974295854669684331e+02
7.549035942023198231e+01
-5.718054264883793394e+02
-7.154070023657773163e+02
-2.293279839867007013e+02
-8.470647346483897877e+01
1.574388861129746999e+02
6.630833348624379369e+02
1.144219475385423266e+03
9.640404408934159619e+02
6.706228022758509724e+02
-2.510259921358639019e+02
-8.840603255477363973e+02
-1.293661968806448840e+03
-1.172964118287049814e+03
-1.161076411640049400e+03
-9.259910208104458889e+02
-2.546395444698399899e+02
4.889377593773478452e+02
6.797162441074659682e+02
8.138701472529562579e+02
7.105164735994169405e+02
1.998588320851051492e+02
3.965665867482005780e+01
1.766593262105720763e+00
4.090728844684899173e+02
1.171563601695188936e+03
1.563463507854742375e+03
1.997348553437036117e+03
2.406286596469170036e+03
1.192359106164525883e+03
5.026147757523089012e+02
4.918329413039635938e+02
3.259861408556300830e+02
-1.937997599754928615e+02
-2.899108502456300016e+02
-2.095939710080572240e+02
-2.395529368556515237e+02
2.466189490194678058e+02
1.029465431591439483e+03
9.550364654771311734e+02
4.462611942943175904e+02
3.030306581985748267e+02
9.203877020184409048e+02
1.642050471309349177e+03
2.080293203552024806e+03
2.211866107157880379e+03
2.339890587946559663e+03
2.265141966353281987e+03
2.475798396667291854e+03
1.821713941572851581e+03
1.418548991987367799e+03
1.112219752898091883e+03
6.430038367172004428e+02
4.570376439379058979e+02
2.828521621901004437e+02
4.874029155004582208e+02
1.056931616943547397e+03
1.797216053110919802e+03
2.140184921250979187e+03
2.812903038935353379e+03
2.794461655775481631e+03
2.258798462100143752e+03
2.096825538243389474e+03
2.240514238144264709e+03
2.579828675721405489e+03
2.954696271602072557e+03
3.480066690223191017e+03
3.623051330085242171e+03
3.307625073251732374e+03
2.414825745931489564e+03
4.397352313172216896e+02
-1.934616260777668685e+03
-5.478375183297653166e+03
-6.402677827269749287e+03
-6.300605233862710520e+03
-6.057052009101153089e+03
-5.590947209987056340e+03
-4.493277031820537559e+03
-3.234055458290642946e+03
-2.578316630732256726e+03
-2.412073999584002649e+03
-2.571346798889448110e+03
-2.866993030662321871e+03
-3.507029145973520826e+03
-3.052477515100668825e+03
-2.193294763754503492e+03
5.353958256434465568e+01
-1.089907981766071998e+03
-2.344556268180652296e+03
-2.765453305214747616e+03
-3.670559865620750315e+03
-3.777938435064872920e+03
-4.196636185010666850e+03
-4.894710667402636318e+03
-5.122271425607547826e+03
-4.921259898623525260e+03
-4.656548557654751676e+03
-3.446027307617680435e+03
3.543537760764295399e+02
4.219484558179269698e+03
2.891488449402595052e+03
-2.346599809742328034e+03
-3.141712729612337171e+03
-3.388745861896889551e+02
-1.672152292926102518e+03
-2.667496559234243250e+03
-2.027811589810139367e+03
1.574081970152643407e+03
2.974242229841516746e+03
2.413631282322197876e+03
1.375279451760773782e+03
9.491748181407859875e+02
1.025267244785597768e+03
1.225587560781206776e+03
8.919577192177586085e+02
5.134728391615471992e+02
6.922963087088428438e+02
1.204534907695038555e+03
1.551277012436442647e+03
1.805567621883539459e+03
1.623466441652174353e+03
1.338975686392485841e+03
1.623027719925182510e+03
2.036628829648171404e+03
2.516790478620043359e+03
2.231599866899292010e+03
2.486129059598890763e+03
3.397443273649888397e+03
3.337634129754170317e+03
2.980730826381610768e+03
2.316742727385392755e+03
1.782695300941837331e+03
1.833557854465477249e+03
1.792295515517014337e+03
1.140828849447962057e+03
5.232507227093238953e+02
6.779448155354569963e+02
8.521527209535903467e+02
1.290878541650625039e+03
1.366167415811231422e+03
9.400310979753700167e+02
2.085180220251375260e+02
-6.523022087436218044e+02
-1.013503439935656502e+03
-1.064129426274755360e+03
-1.178101250677717417e+03
-2.161462264488031906e+03
8.119149025564623798e+02
1.713219523523451699e+03
6.265371959318620156e+02
-6.672602080092927963e+02
-2.972300666751186213e+02
-3.271752678677283654e+01
-5.618961750701060964e+02
-8.962894816530681510e+02
-8.096757799903983823e+02
8.693162574044765734e+01
6.144165105420402142e+02
5.387578589764502794e+02
7.479053666337717914e+02
8.719460671563737151e+02
7.719125431902631362e+02
2.297265914965445575e+02
-1.762458828970570934e+01
2.387668828010845061e+02
4.059284968056559819e+02
3.519536387193941209e+02
6.060079965183808781e+02
9.901058898777624790e+02
1.111235664491329544e+03
1.007379298028148924e+03
1.224434528957669102e+02
-9.136559894085063434e+02
-1.055918037355875185e+03
-1.758247803874256306e+03
-2.282585313107443653e+03
-1.898874671046836511e+03
-9.031731645083966669e+02
8.144564784084472819e+01
