3.233466770075564000e+03
3.854111075348958821e+03
4.085949610370820210e+03
4.097031432237802619e+03
3.726413506013798724e+03
3.537100926306994097e+03
3.318952286422499128e+03
3.035061795029738278e+03
2.974451477956188683e+03
2.840078869301014947e+03
2.835995095700851380e+03
3.183288845913308705e+03
2.541943701973706538e+03
1.845964419562381408e+03
1.103379189190165334e+03
6.941895634178359842e+02
4.043706803699543002e+02
2.790262001556104678e+02
2.232031065530598823e+02
1.014624282119844167e+01
-6.942411153684962244e+01
3.837048579942238575e+02
8.186879229494805941e+02
7.985853232876650054e+02
5.383296881586708196e+02
6.230174325550800631e+02
5.784756476296201981e+02
1.113623797831063484e+03
6.666677516906405572e+02
-2.363344397545517495e+03
-2.724427561902743491e+03
2.573280992197596220e+02
6.668071655811453411e+02
4.996870626936361077e+02
3.147034982287061098e+02
4.195067288372345615e+02
3.077417991396998787e+02
8.164095618070922455e+01
4.162775237696068302e+02
8.016233886131700501e+02
1.103746835225095992e+03
1.460249488166204401e+03
1.972008536703137452e+03
2.203058057797964011e+03
1.928362875008920810e+03
2.107902714729159925e+03
2.354654776358689105e+03
2.328559090608301176e+03
2.254608611324333651e+03
2.206847902802046065e+03
2.247243236920069648e+03
2.209688796395481404e+03
1.921095754193012908e+03
1.491467793818590053e+03
6.488534603782103432e+02
-5.481456973386072917e+01
-4.452049552472185923e+01
-3.053111641713671247e+02
-2.317358317162609538e+01
6.779022245719268085e+02
1.147912062261729716e+03
1.523855482557507912e+03
1.390690903312691717e+03
1.173424810047236406e+03
9.670477127345923236e+02
8.325718558530172686e+02
7.719757472438585637e+02
5.942355663862913389e+02
4.733036372871954995e+02
1.551772640418182903e+02
1.678957129714416965e+02
2.084321734833115443e+02
-1.772512483433364139e+02
-6.791688932234936829e+02
-8.933413959615244266e+02
-1.357733018734690177e+03
-1.442459449339693947e+03
-1.946697341106125350e+03
-2.348485385394867990e+03
-1.532774455351828465e+03
-5.905727694147600459e+02
-1.348861860830972319e+03
-4.166686806764405446e+03
-8.574072623447131264e+03
-1.044299579605138752e+04
-1.046733084209023218e+04
-9.545178905386874249e+03
-9.145580621741197319e+03
-8.097565116694821882e+03
-6.366112361950014929e+03
-7.403077035277279720e+03
-8.390516277602961054e+03
-3.478499496501627164e+03
4.889549904800394415e+02
8.338549389220110015e+02
7.642478683655408531e+02
7.990756812237192435e+02
5.463221982878261542e+02
4.360070493548001309e+02
6.902566305119443086e+02
7.681081899011118139e+02
1.215514452840085823e+03
1.413546253525121983e+03
1.203142433674251151e+03
1.755306012359428223e+03
2.140999014213475675e+03
2.016253998019740948e+03
2.530957618416370678e+03
2.742999238621953737e+03
2.329416875395289935e+03
2.389318386563198601e+03
2.011746938273862042e+03
1.788690436605396599e+03
1.633242968431892905e+03
1.229441420339350998e+03
8.352926849781597411e+02
8.237849898656139658e+02
8.207540433694226749e+02
8.751081379927286434e+02
5.020270108629080710e+02
6.714843907146483843e+02
1.205331917506150376e+03
1.482680678201109004e+03
1.529629408308613847e+03
1.523298094122670364e+03
1.387638992256254596e+03
1.150635903266548212e+03
1.237403060177430689e+03
1.544053569653902969e+03
1.464596598159119367e+03
1.823061033331948465e+03
1.381529476651755886e+03
9.390219224221596050e+02
4.684746240380599716e+02
-4.180348076966455437e+02
-9.563590943100036839e+02
-1.007506676473960738e+03
-1.092472462108534955e+03
-9.294303698234177773e+02
-4.623319569980703250e+02
-3.110899883354595090e+02
2.592714921477122516e+02
4.057964890243991931e+02
2.537414016664183691e+02
-1.399667306109925562e+02
1.876460275600296370e+02
1.855604094439420919e+02
3.647436083856001687e+02
5.542856447574966978e+02
4.902874692052689625e+02
3.668135180068381942e+02
2.479723082943127395e+02
2.637817040863699845e+02
-1.475859751120241526e+03
-2.096905014025096079e+03
-1.080258491521969972e+03
-3.081111750925863930e+02
-2.225031674767129743e+02
-3.012898662666568157e+02
-3.233363664538916851e+02
-5.959775887037473296e+01
6.539372133734611907e+02
9.083153635936006367e+02
9.295387736970834567e+02
9.137050869851753987e+02
6.168393582131081985e+02
6.748890070808389510e+02
3.288542941133475210e+02
2.427912656069873094e+02
2.207171893546742751e+02
5.456612310687685294e+02
3.477072619148764261e+02
-2.001135744279634707e+02
-5.597159746365391584e+02
-8.401445918995706279e+02
-1.249506177987329465e+03
-1.554851416454145010e+03
-1.013202698244697899e+03
-7.264901104604562079e+02
-4.746426678247602240e+02
-2.877164393071186055e+02
1.932298641148061904e+02
4.092198828321868973e+02
-1.287342743439102151e+02
5.730007579913459637e+01
3.973385869779523887e+02
4.885702741009707779e+02
4.199099101852243052e+02
4.083156617707886085e+02
4.738150453369817683e+02
4.094346954817218034e+02
-1.157913655085741595e+02
-5.849999674734675637e+02
-9.081873402606228183e+02
-1.296300983280696983e+03
-1.210363064598069286e+03
-1.471409775088501419e+03
-1.892589145106747083e+03
-2.915068589444418649e+03
-1.825284669980527951e+03
-1.277528069012553260e+03
-4.198486498965417013e+02
-2.872632649419579707e+02
-1.287822755267748391e+02
2.415417180098031054e+02
6.826981132194583779e+02
1.084718121914200765e+03
1.135526147706103529e+03
9.930676869431378009e+02
1.026318870803985192e+03
1.247264930928014110e+03
9.428913986128657143e+02
4.491139170243732792e+02
2.478469926492088291e+02
-2.868893296829192536e+02
-3.090844148157874542e+02
-2.018165279850484808e+02
-5.543339390681056784e+02
-7.896970099781813133e+02
-3.074179142362746120e+02
1.981488821238029274e+01
3.201076852244328279e+02
3.838852936647207343e+02
2.191598364271115145e+02
7.197234542155873669e+02
1.226540751820314654e+03
1.777771516385708537e+03
1.910018660450313973e+03
1.852658488948341301e+03
1.857889346899241445e+03
1.642100881884249929e+03
1.402282237454636061e+03
1.468185542531786268e+03
1.339192962353943585e+03
1.133869222060287484e+03
8.261470295359331431e+02
4.942370483461723438e+02
4.519513704739148920e+02
6.143755565063854647e+02
8.193467378087683528e+02
1.440182943153256701e+03
1.696363365865896640e+03
1.635580547861635750e+03
1.720936359959877564e+03
1.892420134187527765e+03
2.115142564355670856e+03
1.953571081722559938e+03
2.059504449450300399e+03
1.934286721839886013e+03
1.690911021781126237e+03
1.760482046331587526e+03
1.964992573211983654e+03
1.440329850858526243e+03
6.674652779909597484e+02
4.543658385231149737e+02
4.100173369473799312e+02
1.353218201305151354e+02
1.172229927341014530e+02
1.457014153644326484e+02
3.147408480160571571e+02
9.343695507992850935e+02
1.835638226646971589e+03
1.770497310778436486e+03
2.059898540265327028e+03
2.407927370943675669e+03
2.354579627640868694e+03
2.151824808232125179e+03
2.526593695955436942e+03
2.564851151245391065e+03
2.321620263193329265e+03
2.150898216005188260e+03
2.314665727531202265e+03
2.133931753884448426e+03
1.417708498654857522e+03
-7.840383129182794164e+02
-3.668265153677787566e+03
-8.277006785720202970e+03
-9.143292676030931034e+03
-9.073141877200059753e+03
-8.640576180271142221e+03
-8.427497432342213870e+03
-7.031944784986235391e+03
-6.863904977215677718e+03
-7.967193908290519175e+03
-7.793940756481991230e+03
-7.139065903411587897e+03
-6.696342733960067562e+03
-6.367930786678288314e+03
-5.933120443485559008e+03
-6.032729816110829233e+03
-2.263712416471812048e+03
-2.887011533149735897e+03
-6.699652639024403470e+03
-7.199626521723936094e+03
-7.286885053933477138e+03
-7.546451899330842025e+03
-2.551250489581924285e+03
1.582723327294454748e+03
2.197397134564684166e+03
2.430814203844812710e+03
2.920068881376119407e+03
3.367212330372761699e+03
3.721279657147596026e+03
3.515320029237605922e+03
3.351383769893878707e+03
3.350518209635371932e+03
3.521769088073890998e+03
3.650138877260194022e+03
3.531641487230716393e+03
3.301347467592173416e+03
3.379354960730173843e+03
2.953706436630248390e+03
3.037408371015276316e+03
2.480448925597958350e+03
1.744893634192936815e+03
1.320752648604853448e+03
1.267056879931827780e+03
1.165872517548207725e+03
8.052033266041436264e+02
1.076117988060203515e+03
1.440678456510154092e+03
1.820968440068773361e+03
1.957029926067544466e+03
2.177927544554886936e+03
2.163728042761103097e+03
2.151488179877378570e+03
2.490272098074082351e+03
2.485065785631164090e+03
2.321851486376438970e+03
1.977731562465260822e+03
2.083788476299553622e+03
2.330036803350527407e+03
1.767572635785515558e+03
1.339376665755560225e+03
5.234806411618448010e+02
3.859801117903189720e+02
3.338332383576371853e+02
2.229851866905854365e+02
2.825895321443182979e+02
6.988477418580298206e+01
3.711382869345312940e+01
8.550804099674443250e+02
1.422668639601104815e+03
1.059861007030221572e+03
7.680766229106696983e+02
2.694575321972814095e+02
4.157009707062442772e+02
3.320729648977194302e+02
5.717475788027051067e+02
1.007486400000307754e+03
9.470001361927963899e+02
6.423791259691267896e+02
4.065737206452590726e+02
-7.444729257338962292e+00
-5.516625434996043396e+02
-6.430347131599035038e+02
-5.695437438774616794e+02
-6.531811500824732093e+02
-2.859638161169838213e+02
-1.768805457302683806e+02
2.516686887063912792e+01
5.591579170476915124e+02
8.070697098131914800e+02
5.289732300778821354e+02
2.108647169427697463e+02
3.074832919852600810e+01
2.886751594478123479e+02
5.436084208245081300e+02
5.385880364672966607e+02
4.585940790095175998e+02
4.586124576136872406e+02
1.216829720166507371e+02
-2.416439954840130255e+01
-6.089733306201424057e+02
-2.060768824139498520e+03
-2.355555357306629048e+03
-1.782301995109979771e+03
-1.417052660762221649e+03
-9.798762105383092376e+02
-3.857945065766845119e+02
4.602493934748584934e+02
5.182733066982735863e+02
3.287567216273857174e+00
-4.056861448947900044e+02
-3.126964333657335828e+02
-9.278983234248961764e+01
2.040646061198683867e+02
2.337768765385640961e+02
1.833885180383794307e+02
-7.210889195770329252e+01
-7.969841249324043986e+01
2.996348995046867572e+02
4.548189745241139121e+02
3.867821446098353704e+02
-4.034968157619643989e+02
-6.030430455841394632e+02
-9.858832299800051260e+02
-1.559031183702661110e+03
-2.697556549572369477e+03
-1.882465941741558254e+03
-4.147793181674239804e+02
4.275600938611551669e+02
7.064839099519479078e+02
6.029561104903427804e+02
5.359765182012434934e+02
6.995256872055592794e+02
7.645835575030544078e+02
6.531003043895136670e+02
3.510242920160463314e+02
-6.157261436251326359e+02
-4.639912446982798429e+02
1.372057286080312224e+02
-1.303209109153093834e+02
-4.046253497038555906e+02
-4.388472189914583623e+02
-9.862006867608490666e+02
-1.288097679466286536e+03
-1.146802527617850046e+03
-8.569603794331196696e+02
-9.292559643367570743e+02
-3.953402189483612119e+02
3.813508382071505594e+02
7.274165184416210650e+02
5.627654321481612669e+02
5.849046796658660696e+02
4.610908956465916049e+02
2.455277712042802420e+02
3.477935118048940808e+02
4.099455637275008826e+02
9.861614348161542694e+02
1.352966257299404560e+03
1.292785541210212841e+03
9.776277483649960232e+02
2.633320442020921064e+02
-9.065338827238127450e+00
-5.084908267484340172e+01
-3.821363652966809354e+02
-5.416836912662441819e+02
-4.328632816897450084e+02
-2.520488687184311516e+02
-1.574755926640391408e+02
4.794318882638992250e+02
1.122156920306226993e+03
1.106409553460813186e+03
8.841150678749787630e+02
4.734984548186181428e+02
4.657564416949107908e+02
1.184508887067991054e+03
7.916650693862462731e+02
6.364729590424273056e+02
8.299717200175688276e+02
7.352149153885166015e+02
6.707389796001665445e+02
-4.609629290837661983e+02
-3.910054879165810235e+03
-9.585902572455855761e+02
-3.456820188929203255e+02
-4.943257663011329441e+02
-5.816381479116852233e+02
-6.598425383212235928e+00
3.407885427154732270e+02
7.995513131150069057e+02
1.097700766712413497e+03
1.341240685983019148e+03
1.589211058490927599e+03
1.862673311064841073e+03
1.826620310759640688e+03
1.686013228538556405e+03
1.480839601696693990e+03
7.521216862206956648e+02
9.238801907079713374e+02
1.468166600197521575e+03
1.430978084579109236e+03
-8.647345896853969407e+02
-4.521884299706487582e+03
-6.381534789511275449e+03
-2.379673146647192880e+03
-4.883270608064703083e+03
-4.988357020652593746e+03
-5.542879546904162453e+03
-4.575735469264351195e+03
-3.750037136549397019e+02
1.682314970927368449e+03
-1.920779710469605106e+03
-1.045233665677672434e+03
-1.126947330353397092e+03
-8.191689828827108499e+01
-1.977128764794034851e+03
-1.999586816335436879e+03
-1.546313568517322892e+03
-3.406247176428662897e+03
-2.319332293532392669e+03
-2.110556202177092473e+03
8.531042151093266739e+02
1.171659261748885910e+03
1.296119966418431204e+03
-5.904919926150428182e+02
-1.763169162907062173e+03
8.100601749723498415e+02
-2.678752387823125446e+03
3.923918588648375589e+02
9.035574180411981615e+02
-1.917236104150398887e+03
1.217117591636152611e+03
2.002583470478116169e+03
1.829246118790983019e+03
2.158142664254098236e+03
2.614302666340551696e+03
2.577668649261185692e+03
2.470307364082324511e+03
2.355294042294066912e+03
2.684621270991682650e+03
2.251270632158490571e+03
1.524331042777150742e+03
1.151774395044274115e+03
4.695608107006478917e+02
1.167407765059824527e+02
2.263563203548306717e+02
5.333033607811101717e+01
-7.082701160593883287e+02
-3.354039835905592781e+02
5.299491233123027314e+02
1.314824672537269862e+03
1.650248757860306569e+03
2.214206498016943442e+03
2.278795200698404642e+03
2.207968107267321557e+03
1.692731380745433171e+03
1.478081820469676586e+03
1.506018657075750525e+03
1.236569354983152152e+03
1.636951796002995252e+03
1.456034249156619126e+03
9.052983568375674395e+02
5.617373277964376257e+02
-1.376759027239180568e+02
-1.289977238419374430e+02
-1.114140473316104362e+03
-1.956330328463074466e+03
-6.186194316166188401e+02
-2.087456580625112679e+02
2.052334399458973735e+02
4.032326286757335083e+02
6.613059798354643135e+02
7.355316381920220010e+02
8.348082899546219551e+02
7.543556650294825658e+02
1.123614850203928199e+03
1.241471734306090184e+03
9.555685500517903392e+02
7.667501715990538287e+02
4.669504582866591704e+02
9.921685476296919433e+02
1.342901122327815528e+03
4.672955758582181716e+02
-1.702789899739899511e+02
-2.872330648116375187e+02
-7.637097487281912436e+02
-8.657398033238653170e+02
-6.533656247383149775e+02
-4.505902580470024645e+02
-1.053743107337750189e+02
4.753051336346448466e+02
8.034335271894461812e+02
7.729601866787903646e+02
8.549186195063251716e+02
1.553279168803628636e+03
1.831961148432201981e+03
1.623909197273669179e+03
1.298100212708800655e+03
8.895885393998145219e+02
5.233465568335572016e+02
5.133472783857765762e+02
7.605271201301923156e+02
5.188496577517398691e+02
2.334184782848495843e+01
-5.100773438309881840e+02
-6.764368799573023807e+02
-9.007845076643264974e+02
-8.411508844110883274e+02
-6.045664130535201366e+02
-8.898002687439293368e+01
5.935896635520520022e+02
9.740638655247016686e+02
6.164483023321781729e+02
4.947622930550101046e+02
6.669916312941891192e+02
7.180719241874406862e+02
1.214938574688782637e+03
1.341638646767501996e+03
8.251405239844613106e+02
9.774832241618153148e+02
1.463595477174996176e+03
1.146446886427951540e+03
5.270199210748749010e+02
-2.026730706380298273e+02
-9.966921089841468984e+02
-3.447112942313413441e+03
-6.987050513043015599e+03
-1.111153231924820284e+04
-1.117149149930392923e+04
-8.654939076173541253e+03
-9.102850109611312291e+03
-9.274183485426567131e+03
-7.589980542164024882e+03
-1.913302459690857177e+03
1.111833773672326970e+03
2.535386113531729734e+03
2.896368369400116535e+03
2.751770454017751035e+03
2.109619650801638272e+03
1.768905273413575060e+03
1.760595802190342511e+03
1.471606325292235624e+03
1.111949027722739856e+03
3.916296769142624612e+02
2.176334406634767902e+02
4.159478308133409428e+02
9.953183653405324094e+01
1.640190620524609955e+01
4.916211849902292101e+02
7.961736981342253330e+02
1.078994340610217250e+03
1.296033430158035344e+03
1.540273733619630320e+03
1.593748699768333836e+03
1.438469038257559532e+03
1.436403237832468449e+03
1.770595129274749070e+03
1.964026010052418997e+03
1.898724355024019587e+03
1.883831063672200344e+03
1.861276217393143725e+03
1.872975950103675814e+03
1.507913701761777475e+03
6.580581728248575928e+02
3.074351691150771444e+02
2.010575614958480628e+02
2.019695992069278248e+02
5.252024254216636336e+02
7.697340392923966874e+02
9.215891208186379799e+02
1.391838788717110901e+03
1.458473577140567158e+03
1.479430344955138935e+03
1.514704195183775482e+03
1.926389283367151847e+03
2.304482958307261015e+03
2.239971094605738926e+03
1.906884890596271134e+03
1.449253239227202357e+03
1.136128739241154562e+03
1.143509812293304321e+03
1.049466672880651458e+03
8.638742695217730443e+02
5.238341291863745255e+02
-1.785588862710019384e+02
-2.288506862094193082e+02
-9.344625733503283982e+01
-3.824379402568442856e+02
-1.238403387414840466e+02
4.013442108148068996e+02
9.311617976284443330e+02
1.209697074655017104e+03
1.205030761391636815e+03
5.591746279062781468e+02
2.303171014702556079e+02
8.273486441088915626e+02
1.252203127021527735e+03
1.442913232848817643e+03
-5.974938869317122681e+02
-6.203996262762957485e+03
-4.366517150505935206e+03
-5.134026954700148053e+03
1.804313240499695610e+02
-3.010132313789148611e+03
-1.834660499542574598e+03
-6.423186160611463492e+03
-3.539711946257517866e+03
-3.881992151039711416e+02
-3.707600907476018619e+03
-3.634945342953184991e+03
-1.011533956373950787e+02
-9.211274910594518133e+02
-1.356858985604648296e+03
5.476505147311937662e+02
-3.568620277029932822e+03
-2.303591707315380972e+03
-4.472540924586401161e+02
-5.658904774087410772e+01
2.344477667671475956e+03
1.431917473538425838e+03
-1.131247289943850774e+03
-5.799585021084699292e+02
-4.662236100943065139e+03
-6.610971338197817886e+02
4.064404115992143147e+02
-3.467606638372094039e+03
-8.832242956454196019e+02
-1.819412381707292752e+03
-4.137141357170052288e+03
-3.606398793874447620e+03
2.588124959749742402e+02
-3.134825888033197430e+02
-2.871275513480351037e+03
-2.489466792838091806e+03
-1.241041912750520623e+03
1.121984123826945051e+03
-2.042425076694471272e+03
8.116973928655705777e+02
1.917415070173211006e+03
1.758999032352422091e+03
2.416982682900952568e+03
3.045471593747412953e+03
2.771413695158151768e+03
2.077862844734887403e+03
1.193793083659406875e+03
7.841913852620101579e+02
5.910963018799357087e+02
4.334656106129281170e+02
4.214041216089276531e+02
1.002022556945690326e+03
1.753289829224129335e+03
2.318165193086855197e+03
2.146669584663291062e+03
1.794868813620227456e+03
1.743784447348715503e+03
1.802250165789286484e+03
2.192150309809814644e+03
1.973386956361817511e+03
2.239909629524262982e+03
1.507330899764692731e+03
1.411578135988807389e+03
1.444827061724304713e+03
8.847492751553813832e+02
4.773277376446182529e+02
9.332477930527549006e+02
9.121294805363891101e+02
7.581742339494963971e+02
4.741187753507937828e+02
2.214602991931737677e+02
8.440744572406739508e+02
1.457775536505420405e+03
1.851710447475677938e+03
1.887104645732242943e+03
1.596610618491384230e+03
1.563542012501113732e+03
1.860782735795672352e+03
1.897951266516410215e+03
1.819406092886855504e+03
1.799767499510557855e+03
1.842210425089220053e+03
1.970171698677837639e+03
2.497093089311590575e+03
2.118750574568199681e+03
1.687305080656206883e+03
9.062225700670672950e+02
6.024704583289000084e+02
2.326012334325243103e+02
5.067453323598660404e+02
2.601966186366214515e+02
5.401315406439554181e+02
8.857156407945944920e+02
1.738904596263384747e+03
1.835661728724402565e+03
1.705065801619816739e+03
1.816149109735292086e+03
2.006809906495077485e+03
1.806607382604636314e+03
2.224804836369668010e+03
2.290301010987631798e+03
1.532107872315389386e+03
1.177272940559665358e+03
1.674055480388232127e+03
1.437205878008886657e+03
8.376363462169518925e+02
8.114101694947499936e+02
9.544182997804030038e+02
9.665263917556467277e+02
8.846342083396273210e+02
9.857926749132072928e+02
1.982031231734039011e+03
1.995399646866335615e+03
1.899912617503756564e+03
1.898669244267638533e+03
1.281672628772281314e+03
-6.713008568785335228e+01
-9.417313054708009759e+02
-5.768266774421660557e+03
-8.218725019288029216e+03
-8.173117680174454108e+03
-7.664466443010136572e+03
-7.427697141244649174e+03
-6.039862860038504550e+03
-6.016928220935973513e+03
-7.971002848379506759e+03
-8.272961985927346177e+03
-8.200683967191474949e+03
-8.681311645573628994e+03
-8.565905529963285517e+03
-7.236412454525242538e+03
-6.705863682498957132e+03
-3.238208813645014743e+03
-1.863431914278181011e+03
-6.224531402250004248e+03
-6.632496612064831425e+03
-6.157300591250509569e+03
-5.956896521848299926e+03
-5.764272791723869886e+03
-5.988465544622726156e+03
-3.505478259809206520e+03
2.069785199917736009e+03
3.185353776988916252e+03
3.182200281248234205e+03
3.081390458402595868e+03
2.605873578919219199e+03
1.589644206510631193e+03
1.114742285201640698e+03
1.279155306624298191e+03
1.793882839959201192e+03
2.012967502743692421e+03
2.825513102352389978e+03
3.591530693569427513e+03
4.068956935824322045e+03
3.589836210678751740e+03
3.515263315198506916e+03
3.777296272529918497e+03
3.681977187083143235e+03
3.725344944207990920e+03
3.587371786599789175e+03
3.187037237009143610e+03
3.095402377389832509e+03
2.893529771428585263e+03
2.810479529243244997e+03
2.529278242124477401e+03
1.904950838542008569e+03
1.186560228212959601e+03
1.156097273691556211e+03
1.227511055935691274e+03
9.957978780767435865e+02
8.179858920663923527e+02
1.048192238790580632e+03
1.237483091607404958e+03
1.399884325439558097e+03
1.255406745643942031e+03
1.166051110550856265e+03
9.658970880283758333e+02
1.028026015661383553e+03
1.072410029782534593e+03
1.131021104647679067e+03
1.233919134719424846e+03
2.116174944799792684e+03
2.416717658223587478e+03
2.229470851544375819e+03
1.746850994143992466e+03
9.812991378988427869e+02
2.639737998184480148e+02
-5.353790536732047940e+02
-1.261977793520851492e+03
-6.146606885387266175e+02
-3.473761247819184632e+02
-2.252181620949151011e+02
2.855734379604356263e+02
7.934038063613571978e+01
-6.818527592473228083e+01
-1.690802204590930273e+02
3.465338536902218181e+01
7.512049705630873575e+01
3.082968589650881768e+02
-2.458083010912428676e+02
-7.731531668123350300e+02
-6.307496955640847318e+02
-7.215343752615265203e+02
-7.165294244998389104e+02
-6.837605167992145425e+02
-4.841654148809299159e+02
2.122025743414268675e+02
8.513494196857168390e+02
9.012954715653687572e+02
8.329689176292223465e+02
6.333971838135776125e+02
6.606079064322876775e+02
7.946388918189339847e+02
6.085217332323934443e+02
5.872551253642376423e+02
4.277873808357375651e+02
1.013716482606373503e+01
2.192885150232406772e+02
4.952305005739651165e+02
6.189349815782600217e+02
3.863574866864458954e+02
-2.464510625847908614e+02
-4.434463960133048204e+02
-1.116730520723775868e+02
7.784232801232435861e+01
-8.492294667644782180e+01
-7.950164987095270135e+02
-9.924692451012534775e+02
-1.823166961067501290e+02
7.133641011303692494e+02
4.916099338878652816e+02
-1.756233843542135844e+02
-1.583182857218269817e+02
-1.644905452332484970e+02
-1.251379210278530678e+02
-4.624730459241780522e+01
-2.784533382118754119e+01
-4.649185325123522716e+02
-8.134998552376723637e+02
-8.207101726239600339e+02
-3.350542124401452838e+03
-6.381001344450813122e+03
-7.070104799362405174e+03
-4.898444047136822519e+02
1.396645110162105539e+03
1.690430086273015377e+03
1.117554881379232484e+03
1.589121348346909102e+01
-8.066122730856191083e+02
-1.063947960590125376e+03
-7.801519348334060169e+02
-8.853026588416968252e+02
4.466824569835637249e+02
1.373891103435178820e+03
1.890213915888377869e+03
1.751604551781571672e+03
1.536057593432367867e+03
1.463694692246805289e+03
1.481852488065542502e+03
1.756006808359903516e+03
1.626268964909907936e+03
1.505083905210661669e+03
1.477090867140016826e+03
1.385931120940340861e+03
1.371028019127277958e+03
1.258807452221695257e+03
9.081418488696878057e+02
-1.144744418816971461e+02
-8.012492736295071154e+02
-7.495336012624341038e+02
-5.380727664957170191e+02
-6.329197688120019620e+02
-7.033003900814254621e+02
-2.768317935766166826e+01
2.444751782062819530e+02
2.241085463817550476e+02
3.963053709879481517e+02
2.858388205222982492e+02
4.329249996985366806e+02
8.507349428391999027e+02
9.930209165007943284e+02
1.011157673236600090e+03
6.875081580193622131e+02
2.571948523527163957e+02
4.475781649206916768e+02
7.151856034002349816e+02
6.632853122260581813e+02
3.410021057137899447e+02
-5.888913829596009464e+02
-1.178697563617428614e+03
-1.013111571690653477e+03
-6.799054209463527059e+02
5.170110682583381134e+01
1.103616958463940819e+03
1.551689800047363633e+03
1.607391476332395769e+03
1.175313842269124279e+03
1.249540608605706211e+03
1.751113018767937774e+03
1.843956570434105515e+03
4.170574941091443293e+02
-5.765006006858905039e+02
-1.379696189726652165e+03
-2.699508255217759142e+03
-3.554954369140044491e+03
-5.321030438493474321e+03
-6.006710670848920017e+03
-5.126962057629375522e+03
-4.259881425394627513e+03
-3.962478040915989823e+03
-3.302688377376269727e+03
-1.462452976624972507e+03
6.742363826905553879e+02
2.145395681972395778e+03
3.109050449739399937e+03
2.557170484506698358e+03
-1.628116242078994901e+03
-2.368743507785320332e+02
2.025960801561422159e+03
1.703801416312321351e+02
7.523883514348076460e+02
3.968056593297742893e+03
3.257379346255474047e+03
-1.103660752727144427e+03
1.063974433724050868e+03
-1.184690030797346253e+03
-3.183631586836806946e+03
-2.554830500899539857e+03
-5.129349700931063126e+03
-4.533177936749895707e+03
-3.593262782710113697e+03
-5.293556296086453585e+03
-1.884951185887244492e+03
-1.650448514962917443e+03
-3.315994586088468623e+03
-5.885521688143145411e+02
1.414834645337164147e+03
4.493192817079433553e+03
4.345356147288540001e+02
-4.891529291334188088e+02
-4.251873578061529770e+03
-1.851498470604750310e+03
1.461965967543578472e+03
-1.594426848248145689e+03
6.082959020783898723e+02
1.634162208782838206e+03
-1.588499549549940753e+02
-1.596665661312935526e+03
-1.658350296221691224e+03
-1.427936306778860626e+03
-1.044418242363929039e+03
4.762899827634273038e+02
3.199283989743353231e+03
5.579568243476061070e+03
3.080133331596262451e+03
3.190035038064912897e+03
1.669257274962417796e+03
4.408084391214301263e+02
-6.532364133624452052e+02
2.298099171932718946e+03
3.268755970495136353e+03
3.221824667296378266e+03
3.593336344621833632e+03
4.020249355800670855e+03
3.640556803524030784e+03
2.093235792620378106e+03
7.263517206497446068e+02
-4.100070251839362356e+00
-5.071947323934367660e+02
-9.298491308282855243e+02
-4.560581712431242067e+02
5.941924918021254598e+02
1.578917962776805098e+03
2.738133412414786562e+03
3.165766627927246191e+03
3.380277777190048710e+03
3.058874842278344659e+03
2.514422766424817382e+03
2.411859022435225597e+03
2.266189556411645299e+03
1.354275015212862172e+03
-1.544902627101991584e+03
-8.891488280334224328e+02
9.484685931311487366e+02
1.331957721197012006e+03
7.373112888752585832e+02
8.244445893510808219e+02
2.301999567699895977e+02
1.538142132733939036e+02
-3.611070920188945621e+01
1.630833752294881265e+02
2.111825163851149227e+02
1.100026757240900466e+01
2.974689574168882018e+02
4.435492972180304037e+02
8.742608831292048990e+02
1.093630354871436566e+03
1.073699689900468456e+03
1.272947761704539289e+03
1.360256733744403846e+03
1.679639267689206235e+03
1.415097046372544582e+03
1.082631013294410877e+03
9.912931960940157978e+02
6.170117202607100353e+02
1.997066671921496663e+02
-2.196363603869966425e+02
3.396812138492437327e+01
2.864015004677095249e+02
1.166146481903994925e+02
-1.863855167698308151e+02
-1.445272091858054182e+02
1.281400573701072858e+02
4.725856606998788720e+02
9.998475081813862744e+02
1.199884183429877794e+03
1.055718517335531942e+03
7.683829882305822139e+02
4.678038450737417975e+02
3.149465009547943737e+02
3.737520896635533632e+02
2.402261424407269601e+02
8.464436069565256275e+02
1.298387804070867105e+03
1.115983259832275053e+03
7.382032676435565008e+02
7.064955017987070818e+00
-5.354770670066834555e+02
-5.434911938728888572e+02
-3.019649448877042346e+02
-4.079021030092047226e+02
-4.122759126478410394e+02
-4.310372837494501397e+01
3.746162491869587825e+02
7.628771534172911970e+02
8.836898051234954892e+02
5.800512795610512740e+02
2.989518328161517502e+02
-1.888702459365947561e+03
-6.625908031093850695e+03
-9.496668253611282125e+03
-9.323875429527128290e+03
-9.000522819485739092e+03
-8.661686245781571415e+03
-8.455282493892196726e+03
-9.229319395221655213e+03
-9.578883446760006336e+03
-9.375902978138374237e+03
-7.254445537686324315e+03
-1.465577685454976063e+03
6.597580216195581215e+02
1.075587099472717227e+03
7.819579873453837990e+02
1.019847002830393308e+03
9.453013758173343604e+02
1.108284700485963413e+03
1.381893482738506918e+03
1.209148624909122418e+03
1.190001598002501623e+03
1.193471805515892811e+03
1.131573966113853430e+03
1.258261842807234189e+03
7.545174909801335161e+02
8.153411192991145526e+02
1.057751173244685560e+03
3.267925299689161420e+02
-2.584972745580839728e+02
-5.400903067710369214e+02
-5.389987402557741234e+02
-3.272280487011620949e+02
9.925995871121301661e+01
3.634684819990922620e+02
9.554909604665105007e+02
1.283404022458194959e+03
1.684190386031228400e+03
1.882850267133912439e+03
1.644408777081478320e+03
1.737934521912010723e+03
1.928492047124202827e+03
2.087034436640482909e+03
2.307537794572531766e+03
2.580056474595797226e+03
2.879662647201652362e+03
3.050422733142103425e+03
2.954321233923417822e+03
2.411290845532781987e+03
2.132338813137310353e+03
1.348575575503917889e+03
8.910800460027777490e+02
8.478083604580677957e+02
1.198758077594450697e+03
1.690980880968937527e+03
1.883543753409302781e+03
2.399493597458354088e+03
2.977877430704245398e+03
2.621710757446221123e+03
2.500014928443347799e+03
2.479911731816462179e+03
2.321455758438054545e+03
2.042947388448035781e+03
7.091001827828056321e+02
5.667454815340009873e+02
9.159424592519258113e+02
4.927465872701744161e+02
1.263439622855758948e+00
2.947727082873799631e+01
-2.475953534759047727e+02
-1.673966122930426309e+03
-2.774643115209842563e+03
-2.322647246440409617e+03
-1.869942458760579711e+03
-1.632529663845665482e+03
-1.204312805579086671e+03
-1.318271797761627568e+03
-1.357375428661672686e+03
-7.476333129387919598e+02
-7.140279697203875457e+02
-7.754883603604220070e+02
-4.660030111149870891e+02
-2.566132546056308001e+02
-4.713019022986920277e+02
-4.960489190506456794e+02
-7.968303146012081015e+02
-9.766311501188952207e+02
-5.034066418963490719e+02
-1.801815952139064052e+02
-2.429948345367037064e+02
-5.238149620253029752e+02
-9.916350094410175871e+02
-6.925131640388502774e+02
