3.273208591027883813e+03
2.928568101218228094e+03
2.525873833281603311e+03
2.538170802977230323e+03
2.746539656926692260e+03
3.179143325223475586e+03
3.077096721702295326e+03
2.858620720653960689e+03
2.915909271073815489e+03
3.238133481977718475e+03
3.301429351878437956e+03
3.323819140173916367e+03
3.112362801521610891e+03
3.389208286075987417e+03
3.954471734351659052e+03
4.544272311117259051e+03
4.536789629783006603e+03
4.390161116862120252e+03
4.649493788432511792e+03
4.268979131849350779e+03
4.056566884793775898e+03
3.988355806321525506e+03
3.927484651787637631e+03
3.801002351391155571e+03
3.995030641820215351e+03
3.995665807844615301e+03
4.038059925401555120e+03
3.808358543294346873e+03
3.808677340405115046e+03
3.940977145370839935e+03
4.140408348332675814e+03
4.341135132360770513e+03
3.781280728461496892e+03
3.890862752927410838e+03
3.768007363412580162e+03
3.789774981314667912e+03
3.677270095014010622e+03
3.709658579773662041e+03
3.261170320364419240e+03
2.742057226179485497e+03
2.444480269543475060e+03
2.000320162215218716e+03
-7.724699317365931392e+02
4.810341850973401279e+02
1.410681132630963702e+03
1.310523866514864949e+03
1.393806855030829183e+03
1.135721469899130852e+03
1.246399273559015001e+03
1.221104511060519599e+03
1.150528719428896238e+03
1.093201572244872295e+03
1.186915698456371501e+03
8.739584568164110578e+02
6.445329755737982502e+00
3.183456587364988764e+02
3.477178005603694828e+02
-1.308914361585567121e+03
-3.011298105074277373e+03
-8.453914010834886312e+02
-2.890462663927261815e+02
-4.362231044406831870e+02
-8.187574810339757505e+02
-1.224566711273952251e+03
-1.319727406256355835e+03
-1.140954991365792239e+03
-5.391338611632272659e+02
-1.643837673378327509e+02
4.049939701809882386e+00
-1.749758290062862329e+02
-3.294276878256919758e+02
-3.185376327894123847e+02
-7.560030756764268745e+01
-1.395923301313613933e+02
-3.343078168986485252e+02
-7.656340367710562305e+02
-1.180672140421524773e+03
-1.100332472846863766e+03
-9.375691731292286022e+02
-1.469425869073982767e+03
-1.876917009815155097e+03
-1.872499085891717414e+03
-1.665263149771088820e+03
-1.538083728875035604e+03
-1.740941689851854562e+03
-1.941842571697344738e+03
-1.918822609215875673e+03
-1.717937275099802264e+03
-1.338323357230097145e+03
-1.139035560303636203e+03
-1.263173064827451526e+03
-1.226738306349267759e+03
-7.206231795371602402e+02
-7.326574652906257370e+02
-1.032846033685887733e+03
-1.371153650410079081e+03
-1.500513736189180918e+03
-1.314204218019362315e+03
-1.173654299209873670e+03
-1.259077159751100453e+03
-1.396471114077131688e+03
-1.282758163222383473e+03
-1.302958404438840716e+03
-1.189191008338286338e+03
-1.084539453705370079e+03
-1.484963036890214653e+03
-1.618447468908676683e+03
-1.535966666804624992e+03
-1.365588907305854264e+03
-1.641420903069332098e+03
-1.891603094849269610e+03
-1.895338496728201562e+03
-2.171784603899469857e+03
-2.273955611381718427e+03
-2.145881621989128234e+03
-2.013633951349087056e+03
-2.466352620235776158e+03
-1.958135541869788767e+03
-3.506938480290139069e+03
-3.526755751021576543e+03
-2.064520618713502245e+03
-1.563631350021003300e+03
-1.539010454986439527e+03
-1.532680716728115613e+03
-2.129854603712622520e+03
-2.260164374651369144e+03
-2.290959575551280523e+03
-2.666210462537149851e+03
-1.948693418887969528e+03
-1.478560558690478274e+03
-3.815856252305321732e+02
1.175667077861996631e+03
3.825545757224791487e+03
5.327543521071637770e+03
5.604954742322699531e+03
4.865477315776597607e+03
4.411394368065352865e+03
3.913744020068448663e+03
3.724907467251589424e+03
3.458808649187616538e+03
3.288577631335852402e+03
3.247032582673573870e+03
3.168500656204814277e+03
2.736464431580236578e+03
2.465119450354263336e+03
1.790217996182263960e+03
2.271999627958927704e+03
2.340009376247733599e+03
3.345443200530222384e+03
3.252280466353754491e+03
3.721331699157180083e+03
4.288874389236703792e+03
4.305754766539867887e+03
3.841876243337021151e+03
3.650974145271874022e+03
3.967078533067946864e+03
4.197111616215091090e+03
3.400069022336556827e+03
2.018884592580966228e+03
2.565366721392929321e+02
-1.088877087069692635e+02
-2.993639019159652435e+02
-5.030782219888010900e+02
4.809333109442739556e+02
1.670556184750125794e+03
2.773881267661693528e+03
2.870764357141718392e+03
2.290158463403407040e+03
3.549088082044145722e+03
4.873515670406747631e+03
4.586396837119104930e+03
1.864868715667643755e+03
-2.120031348677219285e+03
-3.270386735427005533e+03
-2.223164049093763879e+03
-2.091312743773006787e+03
-2.055771287680164278e+03
6.894118671891847043e+02
5.040157521054888093e+03
4.616474609198377038e+03
-3.116872505933569073e+02
-2.601360634552038846e+03
-1.636535370699172972e+03
-2.067931335563893754e+03
-2.909623099115484365e+03
-3.403642290474519541e+03
-2.820927550327124663e+03
-2.137446611913632296e+03
-1.089051742979326491e+03
1.221278043497196450e+03
-1.307416627317565144e+03
-3.370126986737685911e+03
-4.201813474349047283e+03
-4.439423146817099223e+03
-4.439938793773221732e+03
-3.851237568289378032e+03
-3.594303055254194078e+03
-4.456154124409343240e+03
-4.710696065754256779e+03
-4.407837251441192166e+03
-5.356528053373580406e+03
-5.565735238431565449e+03
-5.087442901026918662e+03
-1.558510213336933930e+03
7.480947346126293951e+02
1.256379379304819849e+03
2.102352806265208983e+03
1.514131621292502359e+03
-4.412094960050877148e+02
-1.210611495824842450e+03
-6.329750900265647715e+02
-1.362294904770944299e+02
9.787728009699176255e+02
1.873211138114795176e+03
1.879056064715340426e+03
1.615379320933534473e+03
5.243128889059973972e+02
1.148944803003752497e+02
1.066160720529388072e+03
8.691317809555198437e+02
7.879086907379067952e+02
1.133598911269242080e+03
1.559287884269842152e+03
1.153032639263105693e+03
4.669402155440898810e+02
3.071611399120507144e+02
9.577887920449825288e+02
-1.491780012078093307e+02
1.102341946310615413e+03
1.136452573133833766e+03
-1.126709149865602967e+03
-1.871018982769725199e+03
-7.855760298387584726e+02
-2.355220680540645844e+03
-4.345836964478558912e+03
-5.811405852885212880e+03
-4.361988965650022692e+03
-1.272493347054176638e+03
-2.554238599817907840e+01
-5.068452187701020648e+02
-8.461244949780246998e+02
1.074695466517681837e+02
-2.249571300569221535e+02
-1.165218249493813346e+03
-2.539157517414224458e+03
-3.430610334512776717e+03
-3.213716506953593580e+03
-5.805664840767134592e+03
-5.359379077428517121e+03
-3.354902069786314314e+03
-3.780130469964841495e+02
1.033694155933498223e+03
-2.700202239540436153e+02
-1.184213458784164743e+02
2.983656912516503780e+03
4.588541751992430363e+03
6.068403245517582036e+03
6.669961170758744629e+03
6.822180102783663642e+03
5.949152929260227211e+03
4.513069269771607651e+03
3.276965684873683131e+03
1.956796263694407344e+03
1.414650946313476197e+03
1.332487218041173264e+03
1.948544482055448725e+03
2.669919531616370932e+03
2.129436379904188470e+03
7.180072760610867135e+02
8.336328331477802749e+02
1.844253772324538204e+03
2.643056521196893755e+03
2.419015604538068601e+03
1.630299217997160667e+03
1.395933896841226215e+03
1.589955823195539097e+03
1.655422387816208811e+03
2.029260488505385183e+03
2.528447720131154256e+03
2.274180705499285068e+03
2.144753384036129773e+03
1.271117899942535587e+03
1.751269046851950861e+02
-1.941452293390178738e+02
-2.258073333677160974e+02
-1.344973657245163167e+03
-2.638618446139237221e+03
-2.559789100585491269e+03
-2.714651189554579560e+03
-3.898244247191082650e+03
-5.103713342318539617e+03
-7.233961069068514917e+03
-9.081909126260286939e+03
-1.024047607518221048e+04
-1.017351268796097065e+04
-7.444994310524217326e+03
-3.775079570836942366e+03
-8.797665108309923880e+02
8.571029385911522240e+02
1.115777508717101682e+03
-6.570382885332514888e+02
-3.444142241071938770e+03
-5.882539079201265849e+03
-5.440855909632995463e+03
-3.680851756655507870e+03
1.055141812246137079e+03
8.299232745991312186e+03
9.024322874354151281e+03
7.421248329735042716e+03
6.319732498321287494e+03
4.804873205041129040e+03
3.801653532067629840e+03
3.707559594599702905e+03
3.288231151817582941e+03
1.168377954522328764e+03
-1.458571137854354220e+03
-3.135335952139964320e+03
-5.142203050137601167e+03
-6.541611230607289144e+03
-7.431354243892998056e+03
-9.063027951679314356e+03
-6.419902644819050693e+03
-1.405042231408178395e+03
3.247363167558913574e+03
5.478868391963987960e+03
6.117972219633506029e+03
8.765757289645489436e+03
9.796301264942863781e+03
6.771421314602072016e+03
3.473672130487029790e+03
2.277272472502316759e+03
2.196377798425833589e+03
1.272528140914417008e+03
1.479827205977124322e+03
3.243282798413889395e+03
6.258657752565439296e+03
9.527750737052831028e+03
7.615089227145035693e+03
4.894056547493183643e+03
4.042887405640762154e+03
3.514453480705797574e+03
3.287858341481497519e+03
3.408023688774520906e+03
3.481038993877539269e+03
2.541229189550043429e+03
6.794335849826975391e+02
-2.238221483391372658e+03
-5.500095777967751928e+03
-7.656515153654693677e+03
-7.161862804111931837e+03
-5.402930644609078627e+03
-2.730756370692236487e+03
2.149015204429786991e+03
6.591341789824894477e+03
7.209288615206331997e+03
5.146871712485968601e+03
3.195770661320942054e+03
2.392806751004238322e+03
1.233634643907756299e+03
1.285107117331851327e+02
-1.324883864584994399e+03
-2.001378258058186248e+03
-2.110536284779681409e+03
-8.365991551558171295e+02
7.234872283499416881e+02
2.439889335576421217e+03
3.724188245736452245e+03
5.223463910718985971e+03
4.887717536745308280e+03
4.347171439602947430e+03
4.806108988869345012e+03
4.992559655153732820e+03
4.252243676736778070e+03
3.367987327392732823e+03
3.072140181468570972e+03
2.315299099658739124e+03
-2.746343746535976607e+02
-3.997136218084814118e+03
-5.380389231885900699e+03
-6.033031870352705482e+03
-6.702388209363783062e+03
-7.176914911156812195e+03
-7.284346550674076752e+03
-6.759747136957053954e+03
-2.845319930116189425e+03
-2.409048540058482104e+03
-7.286911645491185482e+03
-1.096513901579063895e+04
-1.078391554290816384e+04
-1.013920890751981824e+04
-1.046972346336362716e+04
-9.628300791627039871e+03
-8.063854910914239554e+03
-5.253296158915271008e+03
-3.988596752811963142e+03
-6.178658296969327239e+03
-6.533296532587354704e+03
-5.797484855125755530e+03
-4.628100635426865665e+03
-4.483946741620397006e+03
-5.226858409541873698e+03
-5.731839950847334876e+03
-4.535643668459835681e+03
-4.517255784682943158e+03
-5.306759217650545907e+03
-5.757154464295579601e+03
-5.752230341875211707e+03
-5.153124048181080980e+03
-1.050700884830216182e+03
2.307708381880251636e+03
2.038635734895322685e+03
2.682485654001067815e+03
2.889652668618791267e+03
3.294359232815550513e+03
3.367807247057502082e+03
2.718510779199522858e+03
2.194760880176952469e+03
1.641039863636452083e+03
6.422619760624812670e+02
3.807787242418938263e+02
5.061469924509828502e+02
1.335810705808330340e+03
1.596860772545142481e+03
1.299468270530946256e+03
6.706039758648992120e+02
1.900425921503227755e+02
-8.301560982915664511e+01
3.269277299126736693e+02
1.391536485602415269e+03
1.342098874330811668e+03
1.472724799859376390e+03
1.831550143398061664e+03
2.998755271400349102e+03
4.456598056189630370e+03
4.637285120368115713e+03
4.309912473675858564e+03
3.679435364378906343e+03
2.467141022965407501e+03
1.213450570929754349e+03
9.996245964407502242e+02
4.890874055451863569e+02
-1.680271176556286150e+02
-8.917827097696012970e+02
-1.845086492096957045e+03
-1.818015085932841657e+03
-1.546603631342665722e+03
-1.173621313252917389e+03
-9.486417626938515468e+02
-9.755227504388127500e+02
-8.932113138171033597e+02
-8.376618905368269452e+02
-5.009480301251948049e+02
-4.871152535823115954e+02
-1.037976764435762561e+03
-1.790328313499585875e+03
-1.762220599752767384e+03
-1.994603243408795379e+03
-2.069300696544963102e+03
-1.390162464308744802e+03
-2.875594265880564535e+02
7.544310235138676717e+02
1.138258471006550280e+03
6.290817465451168573e+02
1.526248946217359901e+02
-1.560905008739480593e+02
-5.497547260946863616e+02
-8.323591134677280934e+02
-5.378948048134461715e+02
-1.062315674185381567e+03
-4.878598156975661482e+01
3.095679044134599280e+02
6.227403178835975268e+02
1.836626811263905665e+03
2.829339683532922663e+03
2.918771980705306305e+03
2.700724489970717514e+03
2.364250586470491271e+03
2.394332288106190845e+03
2.282905701685603162e+03
1.727813409537411189e+03
1.497945005388641903e+03
2.551252620721486892e+03
3.323617589125625727e+03
3.284748718486278904e+03
3.375584894581055323e+03
3.636730891329479164e+03
4.660028641998633248e+03
6.444559788389413370e+03
6.204093143253758171e+03
6.147276331037448472e+03
7.140093214330792762e+03
7.140465633836002780e+03
4.705211516020426643e+03
1.389787010520872627e+03
-8.001869484728931639e+02
-2.130841812365893929e+03
-3.160250567861718082e+03
-4.468680263704882236e+03
-5.622418678360812919e+03
-5.169591372539453914e+03
-2.282409231013453791e+03
1.540936271564573190e+03
4.259231035047305340e+03
5.615125512548717779e+03
4.567558629539243157e+03
1.893171198987381331e+03
3.396336198326183080e+02
3.401575115239824299e+03
3.856867007804975401e+03
1.378304995442059180e+03
2.960885398542726762e+03
5.377998420288261514e+03
9.613439568399238851e+03
1.031198810022585894e+04
9.121488329262103434e+03
7.891754869985747973e+03
8.669662939833930068e+03
9.675123738203012181e+03
9.888922818921819271e+03
1.019491324026282564e+04
9.074865994035928452e+03
1.078153013578723039e+04
1.418059171888369383e+04
1.519888213343419557e+04
1.466940980723298708e+04
1.319907030895406751e+04
1.050960224894942075e+04
9.777794369777038810e+03
8.228481372270785869e+03
7.705633865575998243e+03
6.873185019838254448e+03
6.485994641776672324e+03
5.791849637547010389e+03
3.661793418162595572e+03
4.598753225555028052e+02
-1.004118687775454532e+03
1.188673428920124024e+03
3.634193023935682049e+03
4.428473062707015742e+03
6.662515400758619762e+03
7.727412676016617297e+03
7.818133902017845685e+03
8.707684418772603749e+03
9.565003574889096853e+03
8.614864738642887460e+03
6.221200997167874448e+03
2.045270954134422709e+03
-1.816873379869109840e+03
-5.112149245637184322e+03
-7.916416729210181984e+03
-8.719624241640531181e+03
-9.485776562116750938e+03
-1.248404886026218810e+04
-1.561852433326996106e+04
-1.699413245403309702e+04
-1.757167857769091279e+04
-1.752492108271765028e+04
-1.367664458355156421e+04
-8.876598921824162971e+03
-1.070658558914135210e+04
-8.896664319943676674e+03
-9.940843206227978953e+03
-8.690070446090472615e+03
-7.363554572927106165e+03
-6.786726049438650080e+03
-8.622178406323449963e+03
-8.697734030478963177e+03
-8.446117686812429383e+03
-1.299316044388946466e+04
-2.306559659306215690e+04
-2.642318788198598486e+04
-2.352451189043303384e+04
-2.432721958875960263e+04
-2.947705894321063897e+04
-2.702766861059324219e+04
-1.946382077043591198e+04
-1.681421745631270460e+04
-1.525043708967188468e+04
-1.194164176083803068e+04
-7.887851607834252718e+03
-7.303779518308714614e+03
-1.208999598177557164e+04
-1.547908073046265963e+04
-1.673792878922151067e+04
-1.887313031683092777e+04
-2.590198460349275047e+04
-3.013008607359300368e+04
-3.151626710889135211e+04
-2.364832166037764546e+04
-9.826782903914852795e+03
-3.732421592427856012e+03
3.158937879444204555e+03
1.069851763862250482e+04
1.598757859556293806e+04
1.666085198487589514e+04
8.956770372574123030e+03
-6.094058424828191391e+02
-9.605426093443307764e+03
-2.030700163470229381e+04
-3.055081353291566847e+04
-3.678756063541883486e+04
-3.016382071580806587e+04
-1.770518728766119602e+04
-4.995212475171029837e+03
9.170468905394320245e+03
2.493304997770877162e+04
3.566466012048179982e+04
3.637557179418543819e+04
3.004092387152679657e+04
2.366572202979703434e+04
1.893513245097076651e+04
1.515464217955410095e+04
7.286702290804333643e+03
-3.773415297162979186e+03
-6.395453572219790658e+03
-4.417254519992306086e+03
-4.700641607288769592e+03
-8.733946749688541331e+02
1.158064861154119717e+04
2.613963821175189878e+04
3.305659997927908262e+04
3.154863213996811464e+04
2.443486526338007388e+04
1.775035873239969078e+04
1.061815792871140366e+04
5.440581145960632057e+03
4.098771823857387972e+03
4.029733434337985273e+03
7.235019411812155568e+02
-6.113787865750936362e+03
-8.090057825555883028e+03
-3.800501877119166238e+03
2.366235807025768736e+03
5.752457374852493558e+03
7.053359118452552138e+03
1.396849868906580741e+04
1.845409588275747592e+04
1.697484787911645981e+04
1.953756915969311376e+04
2.207656343076128906e+04
2.189264830376188547e+04
2.308820347399413367e+04
2.464734092836341370e+04
2.393024061198275012e+04
2.076593424586017136e+04
1.845608198659174741e+04
1.843712546314265637e+04
1.880836864860191417e+04
1.841220427055932305e+04
1.836244779264002136e+04
1.740972123872336670e+04
1.667389062161918264e+04
1.698704574630605202e+04
1.644248921311126469e+04
1.618120926941026300e+04
1.712593058043044584e+04
1.866039103638305096e+04
1.894747444250060653e+04
2.057847077560171601e+04
2.234023432600714295e+04
2.106921433983268435e+04
1.860846638712666027e+04
1.525746054668805482e+04
7.303138811869663186e+03
-3.201289635307775370e+03
-1.007730894539673500e+04
-1.445046358585291455e+04
-1.669996924687108913e+04
-1.600398690128940507e+04
-1.468005779094526406e+04
-1.412958906535657479e+04
-9.717902060305676059e+03
-3.476406874058909580e+03
-4.611612386404376593e+03
-1.016886751093204111e+04
-1.527052150700056336e+04
-1.522701619038631725e+04
-1.108676494550583629e+04
-7.144284867221743298e+03
-3.481962188134322332e+03
-3.012156592378198184e+03
-6.535263296208173415e+03
-1.074668113068567436e+04
-1.364184650247038917e+04
-1.393919486421333386e+04
-1.559921674882839216e+04
-1.667922027528535546e+04
-1.655465654601576898e+04
-1.756595474079877749e+04
-1.809358278354588765e+04
-1.508196912458583211e+04
-9.660398430670058588e+03
-1.096514571462679305e+04
-1.718561252795223845e+04
-1.984306500759306437e+04
-1.856588834254707763e+04
-1.473261571847957021e+04
-1.090822115906530234e+04
-9.054119218573758189e+03
-6.295735620844890946e+03
-5.723371810461555469e+03
-6.935431171067196374e+03
-5.184218637678559389e+03
-4.161064274069804924e+03
-2.741331989152160077e+03
-8.682954918578685692e+02
1.146872226497177962e+03
1.408956152946633665e+03
4.296352522660871500e+02
3.416258051696722191e+02
6.458288876270452192e+02
-2.979228386856850079e+02
-1.150844035537598074e+03
-2.121158915318799245e+03
-1.291107368882778701e+03
-5.572836960696235110e+03
-8.804572022225895125e+03
-7.433459876969453035e+03
-5.388618622372708160e+03
-6.551109522173045661e+03
-9.594956417528983366e+03
-1.107226509245462876e+04
-1.193614179480997882e+04
-1.130567651581733844e+04
-9.503985047444493830e+03
-8.278002929848189524e+03
-8.027880430084898762e+03
-8.086572971807048816e+03
-9.361124081215484694e+03
-9.707643419010393700e+03
-1.025706238256504366e+04
-1.123127808646741869e+04
-1.177120748294211262e+04
-1.139280214643092040e+04
-9.938996935152381411e+03
-8.671668696169694158e+03
-7.999670548866186436e+03
-6.593949532010088660e+03
-4.192479461183275816e+03
-2.397111227093299931e+03
-9.736357763407449966e+02
-4.194574561810141944e+01
-8.984604710056726162e+01
4.487425113473159399e+02
1.498935584090317661e+03
2.386063506274625524e+03
2.833338951160696979e+03
3.983880343696431282e+03
5.714985103615303160e+03
6.209104068101575649e+03
6.815604051524491297e+03
7.235720205327576878e+03
7.912585024489761054e+03
8.015462420315507188e+03
8.654667431199930434e+03
9.466758437525100817e+03
9.773946516878018883e+03
9.791329582515611037e+03
1.019407477541967455e+04
1.008438000832574653e+04
8.825638541414409701e+03
8.438408350414376400e+03
8.622097867705648241e+03
8.634991447744214383e+03
8.971068168538913596e+03
6.606802837128638203e+03
8.285808910297440889e+03
8.632247716931826290e+03
8.299351846291836409e+03
8.122054968966433080e+03
8.039834712095104805e+03
7.883157150959793398e+03
7.588373116480140197e+03
7.888661241059247004e+03
7.881371476675139093e+03
8.112898540710386442e+03
8.483471692952925878e+03
8.468549194978939340e+03
7.390194926633493196e+03
6.424592304053949192e+03
6.382201885750665497e+03
5.909457604984208956e+03
5.323768845381730898e+03
4.872573508555436092e+03
3.993065050142712153e+03
3.328573862838962214e+03
2.561420909744287201e+03
1.746955580329040686e+03
-3.275725415063969308e+02
-9.738704778706301113e+02
7.355351504311358894e+02
1.352046572672219327e+03
4.348598737969390982e+02
-5.280570524881854908e+02
-1.427607525587680584e+03
-2.387406155889347701e+03
-1.043336741873783694e+03
1.062889205698391834e+03
2.823543983951056362e+03
3.894769319853479374e+03
3.443733429250820336e+03
1.548747529704965018e+03
1.330169619228114470e+03
1.094354882331464523e+03
-3.247981436069935057e+01
-3.201190342545943963e+02
-3.404030530145769831e+02
-7.630910627390892387e+01
1.323167072008547791e+02
3.180728158040141551e+01
-3.236298787476187044e+02
-8.400260025188583768e+01
6.967246733712656805e+02
4.774984654427577766e+02
4.305897692684740008e+01
-9.367778014684849097e+01
-3.851793464764113537e+02
-1.417660808673479323e+03
-1.228981583073757378e+02
4.768860139835359178e+02
5.096691303019331372e+02
7.225410070749114766e+02
6.416967843958500453e+02
4.670029536170932829e+02
-4.381494519952687483e+02
-3.025152237344691457e+02
-6.616048562749333541e+02
-9.389094112415477866e+02
-1.252101246429457888e+03
-1.384930656718932369e+03
-1.123087058009666634e+03
-1.278326805323257304e+03
-9.552279569798835155e+02
2.793935058076754672e+02
3.104981400033483396e+02
-3.951550115310944307e+02
-4.628300751922060385e+02
-4.844966441425382868e+02
-3.178639592387673360e+02
-4.290814863258829632e+02
-5.693828531616776445e+02
-1.588051179871474119e+02
2.830051168495049865e+02
2.507954789759519656e+02
-4.887848495233956783e+02
-5.206734160549422086e+02
-8.397196257998618876e+02
-1.436710149408867892e+03
-1.646029290516490164e+03
-1.714035829633338608e+03
-1.647801998801358650e+03
-1.675172244740297629e+03
-1.079602422452616565e+03
-1.218905377369606640e+03
-1.636077661548461265e+03
-1.771917765875187342e+03
-2.162498726529553551e+03
-2.309190154571954281e+03
-2.492176406612884875e+03
-2.479302370145423083e+03
-2.728037542277947068e+03
-3.973956501238039436e+03
-5.012703574012265562e+03
-4.571284957143692736e+03
-4.158187381573323364e+03
-3.700029239452870570e+03
-3.503752911418934218e+03
-3.360437730693243338e+03
-3.377207074786954308e+03
-3.291850450466302391e+03
-1.757014342281014478e+03
-1.257314698789613203e+03
-1.252278921074522259e+03
-1.597904314531086129e+03
-1.737714119032639474e+03
-1.670669208331361688e+03
-1.777382002452344750e+03
-1.893651680923523372e+03
-1.470872470382972097e+03
-1.962618715570136601e+03
-2.986934370278424922e+03
-3.112787340486376706e+03
-2.915299363760573669e+03
-2.678812972411678857e+03
-3.084487101191129568e+03
-3.619109884122578933e+03
-4.235413179620343726e+03
-7.895845558477376471e+03
-8.398936045607471897e+03
-7.315041932271460610e+03
-5.150058400765507031e+03
-6.622009455651425924e+03
-4.203502691039572710e+03
-4.993530381422828214e+03
-7.762717619102483695e+03
-5.392469844114128136e+03
-2.853860211258590880e+03
-2.590731453758760836e+03
-2.196218267631869367e+03
-3.889381205017520642e+03
-3.410067658980000942e+03
-1.546970158876026744e+03
-4.174116540701870690e+03
-1.441763754913727325e+03
-2.527040918354779478e+03
-2.385836674642164326e+03
-2.448070042496121459e+03
-2.270677270250322181e+03
-1.263701983225905451e+03
-4.817179186062066947e+03
-4.424129698402151917e+03
-3.162554787874953035e+03
-2.189472534274543705e+03
5.950703346779135927e+02
-1.699860413039491732e+03
-1.433619364641147627e+02
-2.674490037461880092e+03
-1.310920904868221896e+03
-2.162428447970483376e+03
1.469128345885062345e+03
5.382638904575790093e+02
2.275363234986264615e+03
2.202310369890452421e+03
7.170735829400084640e+02
3.093528999366601965e+03
3.475523553716368951e+03
4.012041509611234233e+03
5.460112675549364212e+03
6.237348122445615445e+03
5.622583887997773672e+03
5.446504673440359511e+03
5.329720406954392274e+03
5.363528922499514920e+03
5.810561681006965955e+03
5.810232767078590769e+03
5.726575343509288359e+03
5.769584596544380474e+03
5.577349000874290141e+03
5.545164948135087798e+03
5.275263443627027300e+03
5.370564703041613029e+03
5.263795707617416156e+03
5.446246400363386783e+03
5.192110009292551695e+03
4.758269117734282190e+03
4.278887095525882614e+03
3.819969200568003544e+03
3.478208632802963621e+03
3.966575254292010868e+03
3.698690935209046074e+03
3.912570708931344143e+03
3.433910619855475488e+03
1.160716819745040539e+03
3.295852852482475555e+03
4.664305801662018894e+03
4.828212099038455563e+03
4.918435132246371722e+03
4.792327259170587240e+03
5.051964456335733303e+03
5.193943156320956405e+03
4.242575194428062787e+03
2.866824789836358832e+03
2.665576989670264084e+03
3.073629101722911400e+03
2.943090925927325316e+03
1.796122943741097743e+03
1.476801279025954273e+03
1.358108536566149951e+03
1.854123200338845436e+03
1.720841495098424502e+03
8.243132901788704885e+02
9.424726475597424269e+02
8.600081976988199131e+02
9.627077110277253951e+02
7.482821108800761749e+02
2.640219315773098856e+02
7.309600160820887140e+02
1.228062384038019218e+03
1.295203034639477664e+03
1.085248353475464455e+03
5.819733908414901862e+02
5.273246560171149895e+02
5.103365425410015632e+02
8.420682104371858259e+02
7.265511708801061559e+02
7.290631077721137387e+01
-3.195228553689019790e+01
-6.702350889386985955e+01
8.847631709289803581e+00
-3.142836060403870988e+02
-4.965701156360585742e+02
-3.681274426201551933e+02
-9.583632970630257830e+01
-3.306287004812172654e+02
-4.486885427125540673e+02
-4.202059048447379723e+02
-2.621845058927558512e+02
-6.266373830142048291e+02
-4.426662669957859180e+02
-5.961649244590876151e+02
-5.810660822855013521e+02
-7.285255730563615089e+02
-7.146037002996428100e+02
-8.430990157358190800e+02
-9.919108064885784870e+02
-1.210025569541200184e+03
-1.586326589355385977e+03
-1.869782033512450198e+03
-3.658334741341560857e+03
-6.040128256223075368e+03
-9.217237866404446322e+03
-9.451687036516541411e+03
-9.140596846935310168e+03
-8.311968244514619073e+03
-7.089756882624086757e+03
-7.372857974849173843e+03
-7.490029679918567126e+03
-6.798168575334989328e+03
-7.034295811182615580e+03
-7.265463946486529494e+03
-7.152681369606798398e+03
-7.316015625399509190e+03
-7.044185019722730431e+03
-4.686539151964284429e+03
-1.536003822401197340e+03
-2.604961942820682452e+02
1.680380546581440626e+02
3.796672830924820232e+02
4.445414990876558363e+02
4.356934231327680891e+02
1.165083276700790748e+03
2.273780577504507164e+03
2.360794318514234419e+03
2.583216228943416809e+03
2.286115576183341545e+03
2.486616088995026075e+03
2.663739806511327060e+03
2.813510218861677913e+03
2.939017704388429593e+03
2.875312002239707454e+03
2.794417613635047019e+03
1.771521596704311378e+03
1.612665104632869998e+03
1.652907952450130779e+03
1.451322540218661516e+03
8.200600562216703793e+02
8.291171840482629705e+02
7.673463092528385232e+02
1.019936723539271384e+03
1.449038450748875448e+03
7.846277177200087181e+02
6.528609009612800946e+02
8.548487735695219953e+02
1.180505149000673782e+03
1.434713076784070381e+03
1.794439306352614039e+03
1.960799472177934831e+03
1.788003446389216379e+03
1.922227657929873885e+03
1.681473905994280358e+03
1.253912966945164953e+03
1.149630480281759219e+03
8.765151569700972232e+02
6.295639846788245677e+02
5.538039181764493151e+02
5.533422405661558514e+02
1.010212265998688281e+03
1.471397429996268102e+03
2.021865188013822717e+03
1.534569216983013348e+03
1.103694725414168033e+03
8.995502378599693429e+02
6.302223108603420769e+02
7.098360712572956572e+02
5.176062812382057245e+02
-6.687542876755063617e+02
-2.268203358983239468e+03
-3.687415750067522822e+03
-5.595453681677692657e+03
-8.183485455422651285e+03
-5.100706828253841195e+03
-3.222058391213764935e+03
-1.524594810226391473e+03
-1.061187190233377180e+02
-1.305785731517286479e+02
6.529853421321441829e+02
1.549540439770562216e+03
1.185029060098660921e+03
9.815935703783090958e+02
8.081807552521530624e+02
9.275964083871016328e+02
1.883956890478814103e+03
2.886309259067109451e+03
3.105604464337071931e+03
2.704906722113313208e+03
2.269144363300977147e+03
2.022349437222790584e+03
1.746463324390913613e+03
1.801510320298509669e+03
1.972547977404969060e+03
1.843581243242587561e+03
1.921621037993569189e+03
2.082608807451000757e+03
2.017496998755041432e+03
1.541232674033644116e+03
9.278267416558524019e+02
7.621159820234174731e+02
7.640765354863929133e+02
4.477394343677178199e+02
4.440092293736804550e+02
8.258108863865845706e+02
1.950212581819425850e+03
2.387251300858587001e+03
2.401762417193850524e+03
2.614551060995147509e+03
2.832548931311828710e+03
3.017728287893318793e+03
3.134067843180896944e+03
2.618590708863209784e+03
2.425264058816334455e+03
2.191862306381102826e+03
7.353386546080168955e+02
-1.263402185559092459e+02
-4.429737867608394453e+01
2.173750396025376119e+02
-6.174127313357979574e+02
-8.157197743351741792e+02
-3.107360776639712867e+02
-1.642489618591397971e+01
2.660920257151776696e+02
3.167788073633612385e+02
6.415342097695178154e+02
4.642813732763730172e+02
-5.570213627973226949e+02
-1.504308219129305257e+02
5.098432440329748374e+02
7.028429446369999596e+02
4.003459500577045560e+02
1.662536055310009147e+02
-2.194795115410964002e+02
-3.019342802757845448e+02
-4.113408639305733061e+01
1.027685209191042048e+02
-6.674147971632622784e+02
-5.542174831383200626e+02
-6.499964647291133133e+02
2.190135791763786131e+02
4.086548991375361197e+02
3.887974285830134136e+02
3.183644425966752465e+02
1.703499466273599410e+02
-4.773943657817652024e+02
-1.012929657915687926e+03
-1.605557014933771370e+03
-2.152031277359689739e+03
-2.523633461293827168e+03
-2.919277467608277220e+03
-2.027176876092002203e+03
-8.967466838544155507e+02
-7.505554446716309940e+02
-1.832095390056232418e+03
-2.408023969906349521e+03
-1.613448733867671763e+03
-8.585124155367831236e+02
-6.025693979859235014e+02
2.385329528172630091e+02
-1.601381135207676607e+02
-7.076523390345442976e+02
-4.585231173927170403e+02
-8.272345035314302208e+01
-1.444126342603447597e+02
-2.391232630597269520e+02
-9.934814385155924583e+02
-1.123874961959413895e+03
-4.398388769344252864e+02
6.374912801000813545e+01
7.556012815863051628e+02
1.092866519327644482e+03
8.832068410924141517e+02
8.857820193861808775e+02
8.581735150420855973e+01
-4.781685362622425259e+02
-8.461359516247816828e+02
-1.947136155288074178e+03
-4.433291789863824306e+03
-6.930602112186957129e+03
-8.388030101861648291e+03
-8.004659201307722469e+03
-4.789470321355942360e+03
-1.441394445720722615e+03
-9.185233525099424696e+02
7.181665056696128886e+02
3.054756652984744051e+03
3.788232772884206952e+03
3.495595165841919879e+03
4.013807825692128063e+03
3.425008615532021850e+03
6.202492095484434458e+02
-1.113395327704265128e+03
-7.589766635556438814e+02
