1.323119798820700908e+03
1.640644668675069397e+03
1.944189537923894932e+03
2.103719655353211692e+03
2.113243614589009667e+03
2.095778665352791450e+03
1.935243294574428091e+03
1.935687999802744571e+03
1.767165288766257390e+03
1.755696288491717951e+03
1.860260267574583168e+03
1.459868333453118794e+03
1.050464744265464333e+03
5.220016051621911402e+02
-2.305320404026995789e+02
-1.161727343865002098e+02
-1.418831749541877514e+02
-2.407283290943740042e+02
1.761362715641764964e+02
8.996716077279214687e+02
1.095304705136969233e+03
1.447124935323940463e+03
1.459138916522233103e+03
1.672497080990082395e+03
2.201019590744229390e+03
1.786729783182287974e+03
1.744653810076285936e+03
1.858045795558650525e+03
1.323114934089427152e+03
6.533769041498576371e+02
1.274451777377324333e+03
1.224657818702266468e+03
9.761098723689957524e+02
8.483119019782670875e+02
1.798511742967942268e+02
-1.675539851244350871e+02
-1.307717544759561292e+02
1.102099719853953843e+02
7.603619739740066734e+02
1.040678950385113012e+03
1.496094774356646894e+03
1.755613893105858779e+03
1.822260854857108598e+03
1.698654648521173840e+03
1.993939559664165245e+03
1.882258417565212767e+03
1.842154826026841192e+03
1.932583196154422239e+03
1.600562300846215066e+03
1.353032251700705729e+03
1.541001827404287496e+03
1.225389473315927489e+03
8.691797274391237806e+02
4.032820568780908843e+01
-9.022118777080895313e+01
5.705135561736896079e+02
7.275405503720758134e+02
7.128456789579623774e+02
1.044383284375519906e+03
1.970112002326817219e+03
2.496063633117057179e+03
2.280259730376662901e+03
2.086665733622812240e+03
2.265243891682730464e+03
2.280038491736505421e+03
2.191022139654312923e+03
2.344116797852526361e+03
2.643382211844447738e+03
2.630825236349442548e+03
1.763408390211795904e+03
1.450117505489251926e+03
1.134853402462835902e+03
7.506222877585872766e+02
8.064463762766640684e+02
1.022449233532932311e+02
-6.497811933707639298e+01
-1.702530031483088351e+02
-2.706068189331335248e+02
-1.820496267384721421e+02
6.238556982574257859e+01
1.997807796039402888e+02
-2.044859023989973366e+03
-5.661527066179215581e+03
-9.549206804197920064e+03
-9.572954886247442118e+03
-9.467746355847415543e+03
-8.878521651651457432e+03
-8.782313258101208703e+03
-8.384140910464149783e+03
-8.354981882436359228e+03
-8.671801637936127008e+03
-8.316628042673517484e+03
-8.498506917557646375e+03
-9.032368822805272430e+03
-4.550137364554116175e+03
-1.849979217946150584e+03
-3.346858793830587274e+03
5.352510169955851325e+02
1.887413698990557577e+03
2.175588040987551722e+03
2.500839388473028976e+03
2.365204690486110849e+03
2.073628092530047979e+03
2.656232798424714474e+03
2.755028183045718833e+03
2.501057044239126753e+03
2.699355118649481483e+03
2.563985749684166876e+03
2.525926949485564819e+03
2.029239668160840438e+03
1.892949176316248668e+03
1.529089902713767742e+03
1.354717557412991937e+03
6.228206423204511566e+02
1.443044352289462395e+01
-3.514387670312504497e+02
-5.678206589237285016e+02
-2.937105245805649929e+02
-3.790180287878887384e+02
-1.316916585995066953e+02
5.984635349967364846e+02
1.112448194029501792e+03
1.416261087101004023e+03
1.872909942075202707e+03
2.188503536490304214e+03
2.180031507210065229e+03
1.937561429673767407e+03
1.752146911064343612e+03
9.988946991765918710e+02
9.168314215918913987e+02
3.950206969999574085e+02
3.034640552145991705e+02
-2.677753673414845252e+02
-1.191680335392950155e+03
-1.323225850205272536e+03
-3.113389512262857579e+02
3.610128321248169527e+02
1.298292934858019692e+02
3.031217174481444658e+02
7.529588952134724877e+02
1.089471064395757367e+03
7.937185468170674767e+02
9.037755518164502746e+02
1.344619578293725681e+03
1.881363193449888058e+03
2.077993088676541902e+03
1.628718286460339186e+03
1.431605779523795491e+03
9.026918531771524385e+02
7.428814528988167467e+02
4.063048263535829960e+02
-3.280412543693035445e+02
6.278424858390414443e+01
1.958783314468375636e+02
-6.226833353732474734e+02
-1.392949126861741206e+03
-2.023968707809504849e+03
-1.169621728210036963e+03
-9.099383011237903247e+02
-5.448064844160918483e+02
-3.811374884126334450e+02
-3.868703026365761843e+02
-1.229892054050903312e+02
2.024831733705813406e+02
2.036341890605931439e+02
1.905599511722859631e+02
5.052118520199766749e+02
9.866176269084190835e+02
1.114822258776363014e+03
6.068351209918292852e+02
-4.533607629912972214e+01
-5.346459938273839043e+02
-8.491241942008484784e+02
-1.008740596575384870e+03
-1.739528224409458062e+03
-2.482471970397296445e+03
-2.283567971540900999e+03
-1.831838793719212845e+03
-1.665209233758856044e+03
-1.359693108179737010e+03
-9.402782469529703349e+02
-3.980289954935568630e+02
2.250593338317682992e+02
2.890263751806269852e+02
2.808972844445193005e+02
3.496872277271963299e+02
3.883134232424962420e+02
1.397981258412914087e+02
1.271727151085448497e+02
1.924460027767528345e+02
6.496469649574926279e+02
8.776884856670289992e+02
9.525435471438661352e+02
6.961695370982052964e+02
1.695224759290396150e+02
1.655185128845344522e+01
-9.918256951912562727e+02
-1.703618798814416323e+03
-1.083809569670836254e+03
-4.744280545487038694e+02
-1.934777209437794738e+02
2.080432094171727897e+02
1.320621077909301846e+02
1.295524820137111703e+02
3.525373772716602048e+02
6.060122142535865351e+02
8.859077595314061000e+02
1.042138372561677670e+03
1.163651940228756303e+03
1.112483890802375981e+03
9.645611684436869382e+02
8.587828428460983332e+02
1.180755739884876903e+02
-6.555963607293676887e+02
-1.099260031709518444e+03
-1.349946716650306598e+03
-1.009754521929877797e+03
-5.217387916945084498e+02
-4.009989618092459978e+02
-1.075361640008014490e+02
1.635745019290812365e+02
5.880718521603616864e+02
6.004913440524585440e+02
1.494792576907415423e+03
2.426516275454240258e+03
3.034149031170581111e+03
2.731285859604806319e+03
1.314816391583536415e+03
1.355746591299539887e+03
1.790066229593649268e+03
1.657887890833441361e+03
1.525762344604665714e+03
1.832279793081454955e+03
1.616121161715199833e+03
9.252344178464620654e+02
1.753207088217639296e+02
1.659230606483404244e+02
8.907022136452108896e+01
-3.270138161196560844e+01
1.051312202824235129e+02
6.024195775549814016e+02
1.393268663556054889e+03
1.744518169641662553e+03
1.488197666238516831e+03
1.503151867781800775e+03
1.892292557578924971e+03
1.990787983952710874e+03
1.747531872919317493e+03
1.622563831741500962e+03
1.830457164811082293e+03
2.171703154716924473e+03
2.374337406764270781e+03
2.309980881544629028e+03
1.382535193809451812e+03
7.618381663691367294e+02
6.757739959399810914e+02
5.332795569546315164e+02
4.922821135714902425e+02
6.597275202758123669e+02
1.328560951760382295e+03
1.949761151041231415e+03
2.185362011072685618e+03
1.736311011325264190e+03
1.627540930213910087e+03
2.204008288971162983e+03
2.538749438958872815e+03
2.876705228621833612e+03
3.483819522817539564e+03
3.502073134978413236e+03
3.527476846378317532e+03
3.370985421810984008e+03
3.199656358925628865e+03
2.942441772775759091e+03
1.292247734061910705e+03
-2.697909076369397553e+03
-8.360053273268487828e+03
-9.592230183383802796e+03
-8.899416807060322753e+03
-8.824633589936365752e+03
-8.587859403645588827e+03
-8.188983601587929115e+03
-7.627946930802540010e+03
-7.312759096523204789e+03
-7.497443864966127876e+03
-6.549161995540972384e+03
-5.893897620108779847e+03
-6.750709207367801355e+03
-6.566276982503316503e+03
-5.231737343984247673e+03
-1.617179439193745566e+03
-4.529627815464111336e+03
-7.518994376871070017e+03
-7.829208657283742468e+03
-7.846267302408916294e+03
-7.988244636530818752e+03
-7.952113617317995704e+03
-7.563761392361421713e+03
-7.651203898419757934e+03
-7.586440899147592063e+03
-6.914496903283234133e+03
-1.682208179402338146e+03
4.344483110428035616e+03
5.194661189861330968e+03
5.423333480500795304e+03
5.561571993892876890e+03
5.523513650419575242e+03
5.577131548900176313e+03
4.978382907573454759e+03
4.848324982048798120e+03
4.716991983288022311e+03
3.952505175930391943e+03
3.611860015422874767e+03
3.681985991322924747e+03
3.749008082033756182e+03
3.128015029170483103e+03
2.273006253492251290e+03
2.082942607869709718e+03
2.184919066966651371e+03
2.208084048137874561e+03
2.396466795240645297e+03
2.620101530430520143e+03
2.812107992915267005e+03
2.199574094729727221e+03
2.393499370417318914e+03
2.823946569157291833e+03
2.855021820131387813e+03
3.152810985490973508e+03
3.239327984781226405e+03
3.189634069902428564e+03
3.205830932791262512e+03
3.050992680114791710e+03
2.726206674316006684e+03
2.842419702380042054e+03
2.576573947165984464e+03
2.155730375286256731e+03
1.408932191041943952e+03
1.330231188594118748e+03
1.472701813639726652e+03
1.659625709690124950e+03
1.919159210388930660e+03
1.862452846415226531e+03
1.712380750065942721e+03
1.974921208132872835e+03
2.175039810676331399e+03
2.095791766201931750e+03
1.868593894811783912e+03
1.569589242252075110e+03
1.312821690161712695e+03
6.052191334317171822e+02
1.267322738555773611e+02
8.054651798826238291e+02
7.923687273185331605e+02
5.725545705584532925e+02
-6.004483741097803318e+01
-4.299507829661372398e+02
-1.248955881714352699e+03
-1.352989996063215813e+03
-1.384101627361918872e+03
-1.630179864970244125e+03
-8.271443742029121040e+02
-4.139900095007232039e+02
-2.936631876509249537e+02
-1.891736025579558884e+02
1.104361805435783310e+02
-1.607038215785450177e+02
-1.774990724342714543e+02
-2.778687878737218853e+02
-2.928785894925319440e+02
-1.384920250218838476e+02
-5.486077425181774743e+02
-6.102287928063332174e+02
-3.813436830472070369e+02
-5.439796297017556981e+02
-1.274211611102258530e+03
-2.075173168500898555e+03
-2.758894447785967259e+03
-1.990455539208397113e+03
-1.397964246190635095e+03
-1.286353630749293870e+03
-1.380491996248733130e+03
-1.234320978972256171e+03
-8.798283093751097113e+02
-4.559042272141849139e+02
-5.325303435046143932e+02
-1.337885694166361930e+02
4.312610737792365967e+02
3.535669220022753052e+02
-3.587396918705634334e+02
-4.497383309013636108e+02
-4.644349994122702014e+02
-4.549116717466458226e+02
-2.553028807070737969e+02
4.527609889745647109e+01
4.912653438832456310e+00
-7.582479352946497784e+02
-1.781285520485508869e+03
-2.010331126079352316e+03
-2.016497907609000094e+03
-1.713699054691235233e+03
-1.500897116114400887e+03
-1.403145075160812667e+03
-3.849458196111459074e+03
-2.771898783148814800e+03
-9.104742065810892200e+02
-4.270646219488482416e+02
-5.249442495546940108e+02
1.796762770654854364e+02
8.928859073694983408e+02
3.907478369587820453e+02
1.701250019315691304e+02
6.479798735562561660e+02
9.164163346013459659e+02
1.704248032362028198e+02
-2.741020337587441986e+02
-1.073297289968655605e+03
-1.366087535446305310e+03
-1.074535370726421434e+03
-8.587072750268533810e+02
-8.856702309233198775e+02
-1.100432522355630908e+03
-6.570511596130952512e+02
2.754807596442300337e+02
5.051273108319974767e+02
6.297906081916997891e+02
1.002443870448241341e+03
1.159095331486493933e+03
1.127794635888162247e+03
1.045525286601282914e+03
9.942539167013969745e+02
9.389004437557972551e+02
6.164624690716974555e+02
2.869432147117255454e+02
1.272607938106387024e+02
-1.767798972435674187e+01
2.370502067365764844e+02
6.304228367703561844e+02
8.984070249830006105e+02
1.116000472599369004e+03
8.101473124858764550e+02
5.577741883324808896e+02
8.788980937551458510e+02
1.220600744021030550e+03
1.017960437831312106e+03
9.768742006041997001e+02
1.136314492994755938e+03
1.552137111619843836e+03
1.977290833216064584e+03
2.016767238897339666e+03
2.247579982290493717e+03
2.170697146945738950e+03
2.117081970021182769e+03
1.880763130552900975e+03
1.435686055450032654e+03
8.179217590394481476e+02
2.394364529454681190e+02
-4.348688892725474489e+02
-7.890358779736528732e+02
-3.360552443510899252e+02
-6.009427869736392722e+02
-7.546641794859858692e+02
-3.962216895306926290e+02
4.693922324379022939e+02
1.141114946047536023e+03
1.161082739343713001e+03
1.009172535308607166e+03
1.110216557332064895e+03
1.162788771371170242e+03
1.047700284399502607e+03
4.758264502130908795e+02
1.032080931639430474e+02
1.978380443510856992e+02
5.367048915898328687e+02
6.138066134090854575e+02
6.090676829253908409e+02
2.649167975523473473e+01
-1.958974423848476363e+02
-6.801363378850131767e+02
-4.876146891534603128e+03
-6.044000964799617577e+03
-5.722624079810556395e+03
-8.605093318686173006e+03
-5.445402507393248015e+03
-2.570455126493107400e+03
-2.507171084318222711e+03
-3.685493302805512940e+03
-2.982475852457305791e+03
-3.296127819224540417e+03
-8.183991644092675415e+02
-5.327321903448692865e+03
-6.112863373507736469e+03
1.350331046443486969e+02
-1.366580828594432433e+03
-1.034676389809918419e+03
-3.258281488254209307e+03
-8.514324488764596026e+02
2.371932379279860470e+03
-1.936210793919645084e+03
-1.160876024061604539e+03
-1.854090355993519552e+03
-3.026767744256589140e+03
-7.329002254470977959e+02
-3.510466457588084268e+03
-1.702428517478027970e+03
-8.927140226108144816e+02
1.356684326923373874e+03
-1.623216892004639703e+03
1.335603740384887260e+03
-2.841864110594127851e+03
-4.696511534848646647e+02
1.277264268522120801e+03
1.886036633117616702e+03
2.387673705266936850e+03
2.440115967558188004e+03
2.303409833538012208e+03
2.094560952823222124e+03
1.706523061409358661e+03
1.379331068820816654e+03
1.870011427295615931e+03
2.239591289312166737e+03
2.051121151575064232e+03
1.813538168845679593e+03
2.286858790617371596e+03
2.623075582735061289e+03
2.795149820598163842e+03
2.499109689704832817e+03
2.503015694823541708e+03
1.895883638737705041e+03
1.813732601078436801e+03
2.185573648559622598e+03
1.390322114929587542e+03
7.230107621722124804e+02
3.228936287727597687e+02
-1.866128733627810163e+02
-8.604883168906731044e+02
-1.698827007169390981e+03
-2.773689815902583177e+03
-2.264055746191764229e+03
-2.649562529407812121e+02
1.092580704496679346e+03
2.818472883876304422e+03
2.807803668212462071e+03
2.119444477056687901e+03
-1.146098780045346217e+02
3.026718819300628184e+03
4.239471278688640268e+03
4.029766897713957405e+03
3.248967462344152864e+03
2.535371226122562803e+03
2.580259477001663072e+03
2.775462988800365110e+03
1.870950605279859928e+03
1.329683409435690010e+03
1.608616275433151031e+03
1.619703228924821133e+03
1.061975406186333430e+03
-6.926372832698789352e+02
-1.309161626425563099e+03
-1.301695787655037748e+03
-1.062740740390443534e+03
-1.178256763214997363e+03
-7.192924960099430791e+02
7.551375565188060364e+02
1.653088666546582772e+03
2.038515448976082780e+03
2.131467080631279259e+03
1.937899289282230484e+03
2.071820154874665150e+03
2.143274523824900825e+03
1.476220755941907328e+03
1.273646238731603717e+03
1.403531353085445744e+03
1.254879317723039094e+03
5.847023505338801215e+02
8.497137520029497182e+01
1.463428236857860298e+01
-5.003483145720718994e+02
-1.068005263381654458e+03
-1.033327956369352705e+03
-6.612668653031863641e+02
-7.407567115114741227e+02
-5.278892873554137850e+02
1.542953372586441105e+02
3.488467263998448971e+02
4.257489690273107499e+02
4.990282537595191457e+02
1.084701150885923653e+03
2.583819877989721590e+03
4.055401592860141591e+03
4.887389739873335202e+03
4.372731135784917569e+03
3.809458964750533596e+03
3.162565111023642203e+03
2.549107329216015387e+03
2.020045400518335100e+03
1.677294408820441504e+03
3.348468733080605944e+02
-1.349314603096751853e+03
-2.235145555130801768e+03
-4.220580330903219874e+03
-7.328640727886449895e+03
-1.171339412286243351e+04
-1.152877211834878472e+04
-1.020872970295284722e+04
-8.929288974330458586e+03
-8.166468013266031448e+03
-9.087175180053653094e+03
-9.835290696091858990e+03
-5.711965243807385377e+03
-1.661983225234754684e+02
9.250528723317532922e+02
7.268443674174700391e+02
9.650874764093980502e+02
8.868940236814798936e+02
-2.367551215530915840e+02
-9.898397377128036396e+02
-1.440360357106111678e+03
-1.295410284701470118e+03
-1.141928125875483147e+03
-1.870822043939609785e+03
-3.278074256175039409e+03
-3.887728893072013761e+03
-3.502678866774157996e+03
-2.691886747781996746e+03
-2.534343255649908315e+03
-2.345011438780929893e+03
-6.468270050348206723e+02
5.942720672688351442e+02
2.214234201251430022e+03
3.990022573456366445e+03
5.254722670727864170e+03
5.509434015315336183e+03
5.043175075051050044e+03
3.706988099046783191e+03
1.129791337021863455e+03
-1.244382463779239060e+03
-2.452474760320944370e+03
-2.807436612742120815e+03
-3.054269674627587392e+03
-1.976973245433887541e+03
-4.775457529803761645e+02
4.291041434116007167e+02
1.189999087172985099e+02
-1.868315843156631502e+02
1.002686398390766158e+03
2.049645625260550787e+03
2.975081166041629785e+03
2.664990115284103013e+03
1.372409158755997851e+03
-2.086406824114697258e+02
-7.491757065974442185e+02
9.487200330755645439e+01
8.616262357443783912e+02
7.451291243727813480e+02
-6.736817372433430364e+02
-1.536763039095154454e+03
-1.236111063606351308e+03
-7.177257612606429120e+02
4.522921678180344998e+02
1.252132931497712434e+03
1.896752599350802939e+03
5.221646380518004662e+03
5.548925665161174948e+03
3.735248568819820321e+03
2.966568684341591506e+03
2.839858839611998974e+03
2.456194514063025508e+03
1.751628094287599652e+03
1.740096581512762214e+03
1.974602664109045008e+03
1.225328114413323874e+03
6.102247549592929090e+02
9.643608892064660267e+02
1.298737818257862727e+03
1.181282489293313120e+03
4.439961158537957431e+02
2.829003561834507536e+02
-4.394184220886779002e+01
-1.315776360093777271e+02
-2.410394379485228740e+02
-8.612906426522291667e+02
-1.215348995393240557e+03
-1.342193611885229984e+03
-1.042751130717370188e+03
-7.200501461868336719e+02
-2.590342044851178116e+02
-2.446822189801400214e+02
3.619794471232400497e+02
9.229518949011138602e+02
7.182622253237897212e+02
5.828897135474783227e+02
1.588603958971579857e+02
-4.819187089331926472e+02
-1.110540947337600073e+03
-1.278950382718240007e+03
-1.612167182353721046e+03
-2.457185417073111239e+03
-3.465013172988203223e+03
-3.281676536613091685e+03
-1.433178991975448980e+03
-2.165205401135531815e+02
9.462518050192663850e+02
8.991022621499474781e+02
5.030331929127930266e+02
7.010591077138138871e+02
1.293187543321817884e+03
1.739365675823525862e+03
1.630601387537812343e+03
1.731867225976682676e+03
1.618177507524229213e+03
1.581501241463988435e+03
1.323776673310758952e+03
1.238013766529390523e+03
8.612004387917105532e+02
4.162720480014050963e+02
-2.689379581916361417e+01
-4.912965221488802285e+02
-9.729404274270607402e+02
-1.130881214800186854e+03
-2.113237974635177579e+03
-1.241071396856942101e+03
-1.996343438581444843e+03
-5.484090059876782107e+03
-1.764384111618785255e+03
1.038053996666979799e+02
6.634519843415156402e+02
1.091553966211815577e+03
1.223090698876568922e+03
1.362006130241993560e+03
1.563196177202730723e+03
1.323587158207891207e+03
1.267132358329397221e+03
1.107864043127801096e+03
4.926397641147161153e+02
7.642341812105527197e+02
1.791669674957299492e+02
-6.325782914761567355e+01
-5.585729726814190599e+02
-1.002345164546038973e+03
-5.217868390867370181e+02
4.773725673103100320e+01
-1.528264147741084571e+02
9.727492154211166309e+00
3.627693887003709960e+02
7.017879541305346720e+02
3.681636284401221815e+02
6.826447647981995033e+02
1.071936394907701242e+03
1.385933835763226853e+03
1.665823054530662148e+03
2.090426129966190274e+03
1.750329623354105706e+03
1.869605616268980157e+03
1.703756014593430564e+03
1.516743300592200058e+03
1.124791325709891908e+03
1.266129852106453654e+03
5.888198897019856304e+02
-4.967358328678999069e-01
-1.589225383598652819e+01
4.741252725217302100e+02
5.071439897917484245e+02
5.817262538444638267e+02
1.104600135722750338e+03
1.587299215490823826e+03
1.407410673767639082e+03
9.292403939338198597e+02
1.174710359750359885e+03
1.465891112077820253e+03
1.222803908498827013e+03
1.251410654732332887e+03
1.226680458644955934e+03
5.395969400033173997e+02
6.391456568890743029e+02
1.079354362804725497e+03
1.525151114859455674e+03
1.826484350850646933e+03
1.400390662216479313e+03
1.761904526638004199e+03
1.802976694639203515e+03
1.213592318782782286e+03
1.143726365801514703e+03
1.197451596679493150e+03
1.356772525654080027e+03
1.468770678552367826e+03
1.574404034113797934e+03
1.656640386454513987e+02
-3.208320716773270306e+03
-7.527523354869019386e+03
-1.050200431200623461e+04
-1.010573956338957214e+04
-8.898675997252938032e+03
-8.846772347976359015e+03
-8.240985010892176433e+03
-7.621438429318268390e+03
-6.864235439711276740e+03
-7.198366334613264371e+03
-6.894856797484706476e+03
-6.906625469732357487e+03
-7.006466342618959061e+03
-7.655285061654323727e+03
-6.690478325704153576e+03
-1.969901515333998304e+03
-1.724397967207247802e+03
-4.235884931230854818e+03
-4.156324016567596118e+03
-3.769719682124508836e+03
-3.211032401314718300e+03
-2.982117984517389232e+03
-2.903972457561031206e+03
-2.742619138997612481e+03
-2.293022965974551425e+03
-2.281084813736848446e+03
-1.548663474795517004e+03
4.418189602932343405e+03
7.726491682038613362e+03
8.018274792172016532e+03
7.421564025578539258e+03
6.667340562009534551e+03
6.594543372508628636e+03
6.211264442456115830e+03
5.877604029844887009e+03
5.485546692849417013e+03
5.319194773387036548e+03
5.164618001260155324e+03
4.929902224446725995e+03
5.131123334675799015e+03
5.379304522209527022e+03
5.129465753914645575e+03
4.743678560549445137e+03
4.668029187738407018e+03
4.366541034620847313e+03
3.554212566971369597e+03
2.512074448320689498e+03
1.589229770387235476e+03
1.335669821320942447e+03
1.159403171697878406e+03
6.054906630591792691e+02
-1.860465554371805013e+02
-7.341841462788726176e+02
-1.202869148933785937e+03
-1.501065799805037386e+03
-1.698797408733248176e+03
-1.024981397868302565e+03
-2.765068177624534584e+01
2.462005410616247048e+02
3.656085259353467336e+02
6.146911649522622838e+02
5.924726039622597682e+02
9.150679625431499744e+02
1.428467167402723589e+03
1.140701414033639594e+03
7.767744950093062926e+02
1.985992485281039421e+02
-2.467500596645741382e+02
-2.611818152975259011e+01
3.879662717706054877e+02
-1.283588637780752606e+02
-1.659060666934541359e+02
1.460657696906613126e+02
-3.756544410559699543e+01
-6.948175732976216068e+02
-9.897469402196055626e+02
3.458185958279630086e+02
1.077991800453967699e+03
1.192450573279570563e+03
1.537330825654446471e+03
2.037578614122106273e+03
1.344048956996780817e+03
1.202634306907481914e+03
1.212340275939678804e+03
1.371241347025276582e+03
1.051310683794921715e+03
2.995261024473306861e+02
-3.041342237093367089e+02
-2.766880899325895484e+02
-2.660823907364477918e+02
-9.392525121235277084e+02
-1.221272040600103992e+03
-1.136226841329683566e+03
-1.364143118342751222e+03
-1.407016702514820054e+03
-6.779135766194405051e+02
1.130833445828237842e+02
3.179871558993369263e+02
-3.085660407363535751e-01
-1.871064464723566578e+00
2.613104678673805665e+02
1.422780043722784740e+02
9.909579696061325649e+01
9.079019994830383666e+01
1.324699194884323390e+02
1.591918796549615536e+02
2.288445109628991929e+02
1.183652370717475719e+02
-1.683091105285453182e+02
-8.003640104880372519e+02
-1.286871053663296379e+03
-1.476828874493994817e+03
-1.495208068253560668e+03
-1.562050228638690442e+03
-1.656480603875276074e+03
-1.178501510123114031e+03
-1.034135001162533399e+03
-7.803198850254891568e+02
-3.889813890089810116e+02
-4.271250339159982445e+02
-3.228202771501875077e+02
1.978542384898189255e+02
4.478301623004750240e+02
1.040975646623168558e+02
5.575149945687466868e+01
-9.276608543446172916e+00
-5.741401748886560199e+02
-3.346852711016073499e+03
-7.905523841577976782e+03
-1.113519810745577524e+04
-7.152992191143709533e+03
-2.007124848689687497e+03
-1.399377949959615989e+03
-6.826178694241193625e+02
-3.179575224834691767e+02
-4.755375691802591973e+02
-5.927722204011345042e+01
4.187600470383573281e+01
-2.551587371861272970e+02
4.805292055345479980e+02
5.859868050990648953e+02
8.533811861738292919e+02
1.377544797801369668e+03
1.412375833555584904e+03
1.241853125871313750e+03
8.790272670245690279e+02
8.898283024412060058e+02
8.202620592168442499e+02
8.582990946945582209e+02
6.649141070709247288e+02
-5.691054436725666221e+01
-4.551987255828205434e+02
-1.699514547220375391e+02
-5.151997158035470648e+02
-2.830042357113354115e+02
2.915594526721436637e+02
5.975421402256496322e+02
6.389373520052752156e+02
1.001734176100797981e+03
1.328963629505939025e+03
2.177643610925558278e+03
2.475811377365668250e+03
1.851442520937703193e+03
1.947580687188276897e+03
1.932174073202681939e+03
1.543184882070856474e+03
1.070622160418489329e+03
9.345446389567748611e+02
1.041900172603797728e+03
8.044998382007252076e+02
1.933462048102325639e+02
-6.245477854320707820e+02
-1.001123631947624062e+03
-8.533499406829970440e+02
-6.212559539980693444e+02
-5.198952692813132899e+02
-2.642494015654945656e+02
2.675853536617494299e+01
7.421741765936960746e+02
1.273972969592706477e+03
1.117197547126829704e+03
1.369921861142342095e+03
1.688150609549298906e+03
1.848911498598669368e+03
1.699206681314663683e+03
1.234038728508278837e+03
1.159413358143896630e+03
1.402349122200473175e+03
1.279850908763758298e+03
7.899570164201174975e+02
6.295722429970446683e+02
2.368432858030524812e+02
-4.969306495822584679e+02
-4.502974890574963638e+02
-4.002059231745293459e+02
-3.965914041108433139e+02
-6.401784284176852857e+00
7.864357151066383267e+02
1.254938052479257067e+03
1.171137131152589291e+03
9.241353767361829341e+02
9.649297209791275236e+02
-1.564740629313714635e+02
-4.732982478620548136e+03
-7.376721389356372129e+03
-3.017576028942984976e+03
-2.973521057287058738e+03
1.065011660195054901e+02
-6.137510791227786285e+03
-3.619635521699585752e+03
-3.278813916225710727e+03
-7.459855213549826658e+02
-4.020195835422060100e+03
-1.521474632356301754e+03
-3.258808281246213028e+03
-2.173123864447607957e+03
-1.001371755917796577e+03
-6.269536723229295603e+03
-3.196639317747331006e+03
6.913183601253830375e+02
-3.001616141034670363e+03
-8.063861255720674990e+02
-2.967017419095737296e+03
1.615390968564606453e+02
-1.396708112708582348e+03
-1.174728946336271065e+03
-2.975970263568174801e+02
2.197693812700767921e+02
-5.604529721451261139e+03
-3.165055246828537747e+02
1.857590797846128510e+02
-3.083746631134332802e+03
-2.303024192697274430e+03
-9.710528640604228485e+02
1.434173967281285968e+03
1.943663436770248836e+03
1.722457919164870418e+03
1.854558849495089589e+03
2.689000696072560459e+03
3.060809584528483811e+03
3.118017334909922738e+03
3.053613363958093032e+03
2.675647254182155848e+03
2.750078982927907873e+03
2.921844234672822950e+03
2.520906895641362553e+03
2.043262063763010701e+03
1.901965489689196829e+03
1.910954101756493174e+03
1.709223307883214602e+03
9.758474207220561993e+02
5.217984518213505680e+02
2.540360851995934581e+02
2.494873728308299121e+02
3.313214108802771563e+01
8.088941748558325173e+01
5.068220583248660205e+02
1.239088168239137985e+03
1.286152941357056989e+03
1.264147373226060154e+03
1.460812736518022120e+03
1.703056660015975012e+03
1.883943305017838838e+03
1.785401595734316288e+03
1.977363524809805540e+03
1.856723894034341583e+03
1.892632252444837377e+03
1.051905901387703580e+03
1.742571205170653684e+03
1.427675421017415374e+03
1.071180835623480107e+03
7.551946973475997993e+02
7.109213757282341248e+02
5.864320381839075935e+02
3.472855905460071426e+02
2.333188703988730026e+02
3.573779451559407221e+02
7.454789896366826270e+02
9.686130895636475771e+02
1.272762488889631186e+03
1.367865147350622465e+03
1.655865214713121077e+03
1.823818598385445284e+03
1.664601485759181060e+03
1.769836423167120529e+03
2.111850898648032853e+03
1.959326928462384103e+03
1.607142878099885820e+03
1.106253680555935716e+03
8.926181370208482804e+02
1.070250948937878775e+03
1.661175486928841281e+02
-4.948196385710539857e+02
-6.146169757516360050e+02
-2.012790531922391608e+02
-1.388590881021650887e+02
3.459219438458075757e+01
2.791060860732818014e+02
6.886321129202340217e+02
1.137205163317043343e+03
1.460780974754123463e+03
1.652384499014889343e+03
1.147033079076993317e+03
1.188718463924474918e+03
1.135406512427555754e+03
1.059049585976895514e+03
8.056284461494688003e+02
5.721081182772924194e+02
7.374812284625043048e+02
7.477523818661752557e+02
6.428963503197651335e+02
-3.670688421117641838e+02
-3.121433493509970276e+02
1.055360067713843506e+02
6.249415412861289951e+02
9.261275145258298380e+02
1.044083837333580732e+03
8.327854216356432744e+02
1.498239208994391902e+03
1.602375942560195654e+03
1.684197794347674062e+03
1.509782182244123760e+03
-1.822847501564770255e+03
-6.327701430062348663e+03
-9.781794925256790521e+03
-9.406137704212031167e+03
-9.305743390208159326e+03
-9.319541381377561265e+03
-8.805578937393966044e+03
-8.630921394617793339e+03
-8.524616990000766236e+03
-9.696449176826816256e+03
-1.081742379687316497e+04
-1.082068878579471857e+04
-9.601182721144195966e+03
-3.000927816095655544e+03
6.000663272725726074e+02
1.748812821229237898e+03
2.143486309020696808e+03
2.405103945306765127e+03
2.489702504349148512e+03
2.398296873974204573e+03
2.195982420754191025e+03
2.350788394493727083e+03
2.466721915379651364e+03
2.442765327868838995e+03
2.428945987273126775e+03
2.127339367791399582e+03
1.789967837379866751e+03
1.864858328157033839e+03
1.662067360737057697e+03
7.646056602187710496e+02
6.544204804574814034e+02
8.925403823706866433e+02
7.700711098228905485e+02
5.831141611842982684e+02
6.446775666918197203e+02
6.887826045841418363e+02
1.120531873347810233e+03
1.101018868239883886e+03
9.882866608439414904e+02
1.524430417654479015e+03
1.762520593431779844e+03
2.310566701653374366e+03
2.561596437496758426e+03
2.244661363895375871e+03
2.101835414118128483e+03
2.068196125698856576e+03
1.597787712713347446e+03
7.316825140838050174e+02
5.693664091241763714e+01
-2.344077068705658746e+02
-3.403729286753105612e+02
-4.638809631663059463e+02
-4.498746184490524342e+02
-8.272931124265687686e+02
-1.004103458638697816e+03
-2.821929000661846771e+02
2.814585121980013582e+02
4.299328252708605191e+02
7.813402092935486962e+02
1.011722029559777297e+03
7.971303786482914120e+02
1.193665434198258254e+03
1.591541379871941899e+03
1.812931220192049750e+03
8.917274657435523295e+02
5.986377103626167582e+02
9.810038420139125037e+02
1.187702541212430106e+03
1.020765895564763582e+03
-2.547660441383528678e+02
-6.848363296083764453e+02
-6.014771654178854305e+02
-6.026313876802156528e+02
-1.220156612780825299e+03
-2.165093360500474319e+03
-6.053487143755647821e+02
3.961503616527116378e+02
6.454165918229624594e+02
5.284779125883188726e+02
6.303952939040400452e+02
5.962435699427072677e+02
7.060561905576425943e+02
9.498389863703514493e+02
1.152575996761953320e+03
7.603362801225255225e+02
3.462038077426262817e+02
2.591678096054386060e+02
4.701813848032923602e+02
2.183235183880070736e+02
-7.194332396974434687e+02
-1.425087604079373250e+03
-1.478611716271039541e+03
