-1.513277670461849084e+03
2.883231442554964730e+01
9.303693035946960208e+02
1.837368757350599708e+03
2.215869829981906150e+03
2.158839325803782685e+03
1.831343980867359051e+03
2.024357280304832329e+03
2.723954182694704741e+03
2.975125398125003812e+03
2.137659406123914323e+03
6.534863070858865512e+02
3.576024199832882005e+02
1.265887561104169208e+03
-5.307043594481633590e+02
-4.837163517098219927e+03
-7.534472492779655113e+03
-8.655599288014092963e+03
-7.984510357105574258e+03
-7.563319301644724874e+03
-7.129094690127709327e+03
-7.745926496819145541e+03
-7.997818840968699988e+03
-8.035746620959053871e+03
-6.394688246582783904e+03
-1.590634591500624083e+03
-3.490124969754147433e+00
4.108694541206385225e+02
1.723943448445681952e+02
1.550996930846392843e+02
2.345805371686575427e+02
5.701900522234975597e+02
3.361617396052499771e+02
-5.747035247793080543e+02
-3.657775772506149536e+01
1.316555172100518348e+03
1.460715705575242509e+03
3.546991997449181326e+02
-8.164391856927325080e+02
-1.563484019118921537e+02
1.669993589316874534e+02
-6.894881643067271852e+02
-1.160268351229570101e+02
1.381201760141830391e+03
2.490165379123156981e+03
2.268889375471815583e+03
4.423827831140230842e+02
-7.942603663748097915e+02
-5.428898913123741750e+02
3.464757223616759347e+02
5.818442137645140519e+02
5.292987322474359644e+02
7.878029389187294100e+02
9.344217508567335244e+02
4.902842715758003465e+02
-7.876723448736923956e+02
-1.983267120198759358e+03
-2.858105443140868829e+03
-2.934273146494296725e+03
-1.764972248338897316e+03
-5.773061756845718264e+02
-4.453508129437619800e+02
-4.140705269391027628e+02
-1.274099020267517517e+02
3.015145676055832382e+02
2.267647380796952916e+02
-3.025114855259710680e+02
9.867898669636623765e+01
8.333421495203715494e+02
6.635304662802680014e+02
7.842202720803338707e+02
3.735716470268862963e+02
-2.032165760322954839e+03
-6.304996917221197691e+03
-8.659834288900910906e+03
-8.671711647184469257e+03
-7.132598806205266555e+03
-5.083441320477540103e+03
-2.175366971911420478e+03
8.506554082220118289e+02
4.755781018939765090e+03
8.662176542556046115e+03
8.360163289133812214e+03
6.374094942572633954e+03
5.458612862065340778e+03
4.985639274874522016e+03
3.899364103082612928e+03
2.515720876009625499e+03
1.275325487289805551e+03
3.451664638232443281e+02
-3.792541037850036901e+03
-6.784542895431507532e+03
-3.674630287755915560e+03
-3.617876536780921469e+03
-1.526356993268484757e+03
-2.447956170670324809e+03
6.152388513263247205e+02
-2.217778901441632115e+03
-1.528051948041937294e+03
-3.020817294101177140e+03
-1.838020174664611886e+03
-3.678526977993230503e+03
-9.172457120746173587e+02
2.006014091468983906e+03
2.495326906743175641e+03
2.149824350321083330e+03
1.440442407242571335e+03
3.580296816221398331e+02
-1.839508261481970749e+03
1.595887615918674101e+03
1.576395170319088038e+03
-1.536064326258258461e+03
7.015293250682201460e+02
-2.534796848582562234e+03
-1.754042873752936657e+03
-6.390559348271733597e+02
-3.702801259977288737e+03
-1.600444047398352723e+03
2.071168364158005488e+02
-2.343800339751029696e+03
6.418531150719752532e+02
2.239550622768041990e+02
-3.170646538032020999e+03
-1.136956637394072686e+03
-3.679816593951533832e+03
-2.585091140204471230e+03
-2.100006247256376355e+03
-4.521825022063891083e+03
-1.483532011158132718e+03
6.629879504543083613e+02
1.743722332723965792e+03
1.832674062495960925e+03
9.997848807139906739e+02
8.029524301830209652e+02
1.867007281332173307e+03
2.754889917389142738e+03
2.686707806860394157e+03
2.429584483122532674e+03
2.405614160884070770e+03
2.485798132755548068e+03
1.982204632105990186e+03
1.408711387657330306e+03
6.291730116663226227e+02
1.544172791996294620e+02
2.814852610010514127e+02
8.394829495276875377e+02
8.264571606137384379e+02
5.195315399021191070e+02
1.196896355831535175e+03
2.133506352161342875e+03
1.407030629030599584e+03
3.563061025170044331e+02
1.911606303486461798e+02
4.762892805823658477e+02
5.780163309523084081e+02
2.827142998204375317e+02
1.185431909793279829e+03
9.078166420538268540e+02
2.824112391014832610e+02
2.070991669760781235e+02
9.481670529057852548e+01
4.178092146234997131e+02
3.301333836875868428e+02
5.601589834756973687e+02
1.162152152466363077e+03
7.182776062779462336e+02
2.625575931803851404e+02
-7.273875423190523861e+02
-1.882544188284272650e+03
-2.961748157777469260e+03
-2.813540058193172172e+03
-1.377427461373477627e+03
-2.876147747875432970e+02
2.499151460488081966e+02
-1.968360948385212055e+02
-1.400056419976128609e+03
-1.570018480621809658e+03
-7.536131664985988436e+02
9.223053025350295684e+02
2.542338417015228515e+03
3.332678534952000973e+03
2.835384707367270039e+03
2.066150537683166931e+03
1.563047432102555376e+03
1.222926979617231837e+03
1.870525402562400132e+03
2.459792907954916700e+03
2.496813973792215620e+03
2.672733618692803702e+03
2.801522031492902443e+03
3.714082132756494047e+03
3.852393682488472223e+03
4.341402630639187919e+03
5.321915244398191135e+03
5.563029356603999076e+03
5.286886910030129002e+03
4.978432940034431340e+03
4.413393487246965378e+03
3.858820731774741034e+03
3.282887161137418843e+03
3.234545316254694171e+03
3.246646556260917350e+03
2.456088024943118398e+03
1.103966533888989943e+03
4.763004087770096930e+02
3.201043908378883884e+02
3.872941789582274055e+02
6.718423028980497520e+02
1.312773400416872391e+03
1.683096732818361033e+03
-9.511711189225025009e+02
-6.357747684520142684e+03
-1.167256496861364758e+04
-1.244774919741754820e+04
-1.372368515120431584e+04
-1.536644617113488493e+04
-1.417873867691445230e+04
-1.242848810770375349e+04
-1.090550095130570844e+04
-8.916753980295645306e+03
-9.706458075999536959e+03
-1.140381211124008223e+04
-8.977755505175084181e+03
-4.890282449399782308e+03
-1.941347992059944545e+03
1.102022393322577273e+03
4.118920075819738486e+03
6.196514306000048009e+02
-3.042533310113272364e+03
7.803405695282867782e+02
5.106316757945340214e+03
2.552391477676243539e+03
-1.772527431543412604e+03
-6.277349761874739670e+03
-4.347826158095260325e+03
2.250902036640480048e+02
-1.186533056608652259e+03
-4.055938498400386379e+03
-5.408158580089870156e+03
-6.562160143730834534e+03
-8.737020547304055071e+03
-9.493744996584911860e+03
-8.716129770295137860e+03
-4.863940339057232450e+03
-1.699133784764691427e+03
-6.721732366788206292e+00
2.194213050851109983e+03
4.372725591544711278e+03
5.397857035349045873e+03
5.031700469439775588e+03
5.815358563766527368e+03
5.330895350311785478e+03
4.273430072547070267e+03
4.030130399212819157e+03
3.988095579345819260e+03
3.837322886961253971e+03
3.546916817555933903e+03
2.685844159886211855e+03
1.545015528546370660e+03
8.435454132862064398e+02
1.084520376809893150e+03
7.520357110020818254e+02
6.691859542855395375e+02
7.350522856765621782e+02
2.475736976229292850e+03
4.579306330276845074e+03
5.444860114730418900e+03
5.465596338683618342e+03
5.582680359622439028e+03
5.334980733610241259e+03
4.529328713935286032e+03
3.341198916758065479e+03
2.769350124684288403e+03
3.225373320341928320e+03
4.919877657082823134e+03
5.712099525701677521e+03
5.548185971307711043e+03
4.157180137519261734e+03
2.463244027295666911e+03
1.048478960994946419e+03
-7.727793260699189659e+02
-2.729889920544440884e+03
-2.433718816433425218e+03
-1.650142895379321772e+03
-2.477226204833886641e+03
-3.473754700265592874e+03
-5.156897788139841396e+03
-4.910773369435205495e+03
-2.493551221319901288e+03
-1.644300430062593932e+03
-1.292929857929132368e+03
-1.195516505433742509e+02
4.459167709842927252e+02
-1.905320282415847259e+03
-3.446366594832979899e+03
-3.312074163312703234e+01
4.302404930562045593e+03
6.572606862897385327e+03
6.890779728357954809e+03
6.786580156195829659e+03
6.336011146406179250e+03
4.835830222013344610e+03
2.849994309461788816e+03
1.102438962413767058e+03
-5.094736403741306390e+02
-2.149529887977328144e+03
-2.647851457782604939e+03
-2.126449891094668146e+03
-3.250727212203232739e+03
-5.113203344669423132e+03
-6.034824207925827068e+03
-7.500470865723823408e+03
-7.476935294622826405e+03
-2.952449272922102864e+03
1.706027259557137768e+03
4.528388942410610071e+03
6.270181875144910919e+03
7.469282992771213685e+03
8.502176132706948920e+03
8.821874118600147995e+03
7.496859961167570873e+03
5.958245712461092808e+03
6.090306638676123839e+03
6.039499909823009148e+03
5.023163904594696760e+03
3.317103323157498835e+03
1.983932158783468594e+03
1.530735888933616252e+03
7.632928321276959878e+02
-9.414694783593323564e+02
-1.775879890794920811e+03
-2.467342784394749742e+03
-3.314544268807010667e+03
-4.406018164957606132e+03
-5.841498722063910463e+03
-7.497991706218143008e+03
-1.032681825696639498e+04
-1.389405806780438797e+04
-1.272992400855952837e+04
-7.157842800208520202e+03
-5.701053255688552781e+03
-5.505149376339123592e+03
-2.900766087186530058e+03
-9.004254543386864498e+02
-1.925945995342727201e+03
-1.984225432721384095e+03
-1.453440820941623542e+03
-9.513965064372248435e+02
8.632663800457569323e+02
8.786821210508061313e+02
5.963839227665006959e+00
-5.246578583422186739e+02
-1.577203615318525820e+01
2.147220646274156479e+03
5.346946745952945093e+03
6.665065772714874583e+03
6.993686807250193851e+03
5.711211108296745806e+03
4.040887964060528702e+03
4.059872501014657246e+03
4.669177487647003545e+03
5.841608098272031384e+03
6.427798685563343497e+03
6.208520509763740847e+03
4.729551985856080137e+03
2.806451356268278687e+03
1.817165136310403568e+03
1.021530194700529250e+03
1.703045800612982816e+02
-8.431311549319046890e+02
-2.308864971711813268e+03
-3.142737238430503112e+03
-3.917315139375405579e+03
-6.954367311756491290e+03
-8.884767434477955248e+03
-7.341552249574689085e+03
-4.961089648276446496e+03
-3.176054725222383240e+03
-3.218320974580472921e+03
-3.810096880700114070e+03
-2.136273819359054869e+03
2.460634429339194412e+03
4.907966894798778412e+03
3.537722321456180453e+03
2.589582323470591746e+03
4.314131212696947841e+03
4.587161873725197438e+03
4.498238117598569261e+03
5.729738053630238937e+03
5.559453921265430836e+03
2.432077641497805871e+03
-1.259916567558554334e+03
-3.260518861877020754e+03
-3.819582645032523033e+03
-2.568084493425474648e+03
-1.311828122759477253e+02
2.169240246133635537e+03
3.376636878392686867e+03
2.809365657156838552e+03
-9.131708770239463036e+01
-1.796586344411384971e+03
-1.326680224220240916e+03
-9.668105984874899832e+02
-1.319090657851420701e+03
-3.232357325372398122e+02
2.149906697582271590e+03
3.887263883222809909e+03
4.292902173812931323e+03
2.532952056670339971e+03
-2.459349732971453705e+03
-4.050621531514686922e+03
-3.057674254631388067e+03
1.492487243762065418e+03
4.709822005316603281e+03
4.896537135629798286e+03
2.911770476440789935e+03
8.933038438449043497e+02
1.328088412644944810e+03
3.957274886646553114e+03
1.094093345661019384e+03
2.546865516038608348e+03
1.284059798762853688e+03
2.924011305704043480e+03
1.015834729440214801e+03
2.585038047459031077e+03
-4.749619882191115039e+02
-1.071345971374634701e+03
-1.084962253321866001e+03
-4.070504031557119106e+03
-3.277094370491221980e+03
-2.352555625241286180e+03
-2.658592665124321684e+03
-5.843885642902711879e+03
-6.970197012785396510e+03
-7.115456579000519014e+03
-1.145971503386379845e+04
-8.011923648248167410e+03
-5.206720367681612515e+03
-4.167121899298286735e+03
-3.129275190726177698e+03
-3.175146784238568216e+03
-5.394523992135164917e+03
-6.912218217060440111e+03
-6.476889789741291679e+03
-5.414224483528850214e+03
-4.002936707820657375e+03
-2.782865553792275932e+03
-2.389097033085097337e+03
-2.470390516226008913e+03
-3.942457562910526576e+03
-4.328201101108697003e+03
-2.939461917920601991e+03
-1.769049299156919233e+03
-2.602768125972023881e+03
-2.542483509524419333e+03
-7.570686321154081497e+02
5.667500367576682265e+02
5.330545159616366391e+02
1.060634184496438905e+02
9.999136109982718779e+01
4.637764706670610053e+02
1.341377178495221187e+03
1.524824365666790300e+03
4.192019067154623713e+02
-1.269570143956512311e+03
-3.199581392908075486e+03
-4.595896714190716921e+03
-2.167009099865525059e+03
1.186623831379488138e+03
4.182988753230920338e+03
4.148808813389320676e+03
2.814545583779591652e+03
2.420520039937311594e+03
1.854199987524820244e+03
2.602256243014090160e+03
3.881761043204725866e+03
3.447034161498141202e+03
1.222843585055416952e+03
-8.985865136154249910e+01
-9.188215303687238702e+02
-1.654561151349504371e+03
-3.033830299033846131e+03
-3.780123741485690516e+03
-4.501230643661931936e+03
-4.354714228335204098e+03
-4.171585483126466897e+03
-4.300740482372870247e+03
-5.075434702702602408e+03
-6.626027471435000734e+03
-6.321446224975361474e+03
-3.226148733961212656e+03
7.792616572393557135e+02
5.039418569369721808e+03
6.750546078167656560e+03
6.590853760999116275e+03
7.268380289192079545e+03
7.714946436327728406e+03
6.764398023777792332e+03
5.488360625757391063e+03
5.808548433945172292e+03
7.592799735313530618e+03
8.639139415640242078e+03
8.278441692974982288e+03
8.038441538728257910e+03
7.816219585837551676e+03
7.987929486210535288e+03
7.968505657325305037e+03
8.125550482833720707e+03
8.509855870310657338e+03
8.933510173401164138e+03
8.847526987022092726e+03
8.471774776367579761e+03
8.796221803280310269e+03
8.919692320147609280e+03
8.205193760042559006e+03
7.571864914072953070e+03
7.262429012459002479e+03
6.798469729476113571e+03
6.074828717521002545e+03
4.892392356715881760e+03
4.370101152828954582e+03
4.314724997196861295e+03
4.273014678383270621e+03
4.739800102516494007e+03
5.650024595046129434e+03
4.961718717837099575e+03
2.024898372232602924e+03
9.483734385020828768e+02
5.967916353076816449e+03
6.316399303381174832e+03
1.329662678589395682e+03
-5.604667452910489374e+02
-1.852993149760889764e+03
-3.631888645956825258e+03
-5.660073602929324807e+03
-7.372547367000534905e+03
-5.263463296909737437e+03
-6.454960406385757778e+03
-2.180044853443119337e+03
1.730981005222171689e+03
4.123132702607293140e+03
9.026512231343247549e+03
1.252922113991945662e+04
1.493154919060486463e+04
1.541121672955905706e+04
1.390391713834073380e+04
1.188458309647960050e+04
8.766991062477221931e+03
6.719855452569446243e+03
5.485944707196219497e+03
3.383682958237918115e+02
-5.706876813502659388e+03
-1.216309737779160969e+04
-1.538040422388724255e+04
-1.707281529584057353e+04
-2.316322036240982925e+04
-3.008859787889673316e+04
-2.835893513079982586e+04
-1.366610725516055936e+04
2.195893410602280710e+03
1.364304826043285357e+04
1.862345055672612216e+04
9.609203955364868307e+03
-2.731747641106690935e+03
-1.015649065127065660e+04
-1.223987037784939275e+04
-1.410673309722917475e+04
-1.535898532357672957e+04
-1.494445632383254815e+04
-1.788005525817401576e+04
-2.078489333257465842e+04
-2.505514022738299900e+04
-3.543987928031037154e+04
-3.531906841165376682e+04
-2.867261656388196570e+04
-1.946734948637009074e+04
6.199011562810347868e+02
1.470639928680078083e+04
7.896311559262768242e+03
-8.755345733643196581e+03
-2.360145502100621161e+04
-2.975080884543629145e+04
-2.890617036178738999e+04
-4.028240436168060842e+04
-5.836044153732211998e+04
-5.545608362470909924e+04
-2.931212674859014442e+04
1.038578454973473072e+03
3.416116565120452287e+04
5.831574713018062175e+04
5.227541282992308697e+04
3.303746494516971143e+04
2.070015282710422616e+04
7.024677739198490599e+03
-1.138477237827800673e+04
-2.997042848730429978e+04
-4.412055545247944974e+04
-5.474778804840972589e+04
-6.192892429300261574e+04
-6.420404805009150004e+04
-6.422597538414192240e+04
-3.226341508287352917e+04
-6.654312802138704683e+03
1.194537241843200900e+04
1.388578374391760008e+04
2.730490043559211335e+04
4.539794541725495947e+04
4.750809250022018387e+04
4.029944350964668411e+04
3.187205824262477836e+04
2.530878897275267445e+04
1.727253447009270894e+04
7.527566136163438387e+03
5.480090415699227378e+03
1.940432227135581707e+04
3.223736096531892326e+04
3.720412375747739861e+04
4.031368278261634259e+04
3.979509591577997344e+04
3.689328819989336625e+04
3.080521071447972645e+04
1.612398345610673823e+04
4.310610087647098226e+03
-8.548793873014880091e+02
8.227433234657991079e+02
1.063486243679657491e+03
-5.234618691125232544e+03
-5.742478994814308862e+03
1.728904537619285520e+03
1.084670044439235426e+04
1.668921722009113728e+04
1.026528894827221666e+04
-7.760525768077769499e+03
-1.924560344888125110e+04
-2.044601771756472590e+04
-1.373061372149620365e+04
-1.156338323124659837e+04
-6.335595713102526133e+03
1.004033396446758525e+04
1.671439779248160630e+04
1.766986450378055088e+04
1.971664052298384195e+04
1.958641043453058955e+04
1.262919795392465858e+04
8.483915728382889938e+03
1.384226815079044900e+04
1.701125710849927782e+04
1.506204969155820254e+04
1.279770940056283143e+04
1.098415386311355542e+04
8.556186029921625959e+03
3.033496297014501124e+03
-2.639252451648391343e+03
-4.525239600428666563e+03
-2.440584314941767843e+03
3.070617873989631789e+03
7.247379930235986649e+03
9.202509791820004466e+03
8.559721835494161496e+03
4.740873105639753703e+03
2.774849164128503162e+03
2.769423642629219557e+03
1.268313189382010933e+03
-2.628689434754015565e+03
-7.543722758083106783e+03
-1.081602648388328271e+04
-1.016620432261946917e+04
-7.990450296336121028e+03
-7.066021199670020906e+03
-6.385646591983292637e+03
-5.125539791290255380e+03
-3.438830721071059543e+03
-5.434393359235459684e+03
-1.037515993031692960e+04
-1.567083938339893939e+04
-2.130259392766924793e+04
-2.526121827785638743e+04
-2.475093006379012149e+04
-2.214489063124975655e+04
-1.903745948894337562e+04
-1.010836130679250527e+04
5.452713865639785581e+03
2.119598344253473624e+04
2.891603669125616216e+04
2.896469754611703684e+04
2.569225019286691168e+04
2.211812744776976251e+04
1.911139031909362893e+04
1.717507938974954232e+04
1.750401675938733024e+04
1.855683805757186201e+04
1.889276526358636693e+04
1.882210776950808577e+04
2.182674741646509210e+04
2.239076465046935482e+04
1.877930048394350160e+04
1.299384821545089653e+04
6.940753116276493529e+03
1.270104816648570932e+03
-2.761256085308067668e+03
-5.713462498954967486e+03
-6.951596006530566228e+03
-7.989836976323937961e+03
-1.134319557230902683e+04
-1.466862243526419297e+04
-1.601014670273030970e+04
-1.728870027937584382e+04
-1.899755080884332347e+04
-2.070891347379039871e+04
-2.184776770852349364e+04
-2.339190259350747510e+04
-2.526930191468523844e+04
-2.539704266488942812e+04
-2.531008460945029583e+04
-2.330034897287277272e+04
-1.986679055376963152e+04
-1.850737562468368560e+04
-1.795606264224235929e+04
-1.741379696703328955e+04
-1.619946469229666036e+04
-1.639683556917103851e+04
-1.826272129579129978e+04
-2.259492879639239254e+04
-2.527136329126971395e+04
-2.579617619343680781e+04
-2.874439328085918532e+04
-3.282688102402034565e+04
-3.256030763643151658e+04
-2.857744290835097127e+04
-2.820719362856787848e+04
-3.155025351030261663e+04
-3.459250913288402808e+04
-3.267886289595316703e+04
-2.164299409995899623e+04
-9.025551322219362191e+03
1.750667040867229161e+03
1.178086117440424096e+04
1.430626565155597018e+04
1.219916728321445225e+04
1.441871809694313924e+04
1.722417209982623172e+04
2.057374096330265093e+04
2.155563242650223401e+04
2.216811503613764944e+04
2.614751930043353786e+04
3.077223259909886838e+04
3.003640145287499035e+04
2.880802226108566538e+04
2.749625057181254306e+04
2.438521291635973830e+04
2.282636376130602730e+04
2.425320015689660795e+04
2.515290393557018615e+04
2.426574728863240671e+04
2.070013612832667422e+04
1.555239110455623631e+04
1.264568172600372782e+04
1.143820123808804055e+04
8.971278076843836971e+03
4.922277903958869501e+03
3.373498423783061753e+03
4.680156550581405099e+03
5.819571248817347623e+03
4.734094814625434083e+03
7.509994168588405046e+02
-2.111441750208989106e+03
-2.989991859789332466e+03
-3.981261892739987161e+03
-3.982971006389108879e+03
-4.899017686194191811e+03
-4.898111187070404412e+03
-1.537958574094245023e+03
9.266939009756036967e+02
9.621354785720393465e+02
-4.628085048738239493e+01
-8.722179003742927534e+02
-7.333189961740490617e+02
1.526317243603359657e+02
5.009040264679803727e+02
-6.962863205701553397e+02
-2.136896023705518928e+03
-1.671821267378737275e+03
4.622867955567751892e+02
1.339844446712758327e+03
5.690070821516744815e+01
-1.419981383737915394e+03
-2.944337809417389963e+03
-4.202506552428734722e+03
-5.090224755796288264e+03
-5.425282274869299727e+03
-4.966429739597267144e+03
-3.846476805494850851e+03
-3.510180567275973317e+03
-4.832912784170828672e+03
-6.169425268647081793e+03
-8.893846298441443651e+03
-1.040993718553727740e+04
-1.173179284419313808e+04
-1.147978087619228427e+04
-7.153883721229810362e+03
-2.766012544813101158e+03
2.181028450720082674e+03
7.149408961274246394e+03
1.071222538875771352e+04
1.304765106105687664e+04
1.290463597061261862e+04
1.130911375476760077e+04
1.005441055287571726e+04
1.032067179874220710e+04
1.162802151270551076e+04
1.195124984612230037e+04
1.231426349908794873e+04
1.273540403286470246e+04
1.299680031071517260e+04
1.361572476097606523e+04
1.331389322554234786e+04
1.215282283043331154e+04
1.139848267342187501e+04
1.109008336892876287e+04
1.045064624673180151e+04
9.044521175403357120e+03
6.959371673659554290e+03
4.575706549659213124e+03
2.801400095519622482e+03
1.244273929418969828e+03
1.207040517349374568e+03
4.477829904834075023e+03
6.799487100070899942e+03
6.550969864767045692e+03
5.147705131500602874e+03
3.246752446193578180e+03
2.170353787473735338e+03
1.242922587045328555e+03
4.290639700282004583e+02
-3.593125557424594376e+02
-9.889003790597993202e+02
-1.865889877770222938e+03
-2.857317275452891408e+03
-3.535912215857851606e+03
-4.165404132016569747e+03
-4.955966152843473537e+03
-5.361972178857641666e+03
-6.117172451996798372e+03
-6.080964507318253709e+03
-5.938516684383884240e+03
-6.326970630804982648e+03
-7.906470542030358956e+03
-8.098047382267423018e+03
-7.194673802264206643e+03
-6.861799695012447955e+03
-7.229346410874192770e+03
-7.776795085974056747e+03
-8.042089162593018045e+03
-8.401445093939484650e+03
-8.836010354416868722e+03
-9.193220612505549070e+03
-8.674628199271970516e+03
-8.753620823841220044e+03
-8.809250291310321700e+03
-9.197952671804063357e+03
-9.101991275345402755e+03
-9.025496160893741035e+03
-8.992864661898223858e+03
-9.062012150857550296e+03
-8.938648578497903145e+03
-8.114328516126110117e+03
-8.277907956489751086e+03
-9.305728291639927193e+03
-9.400062534144199162e+03
-8.600559402931219665e+03
-7.554633366743450097e+03
-6.716968963736665501e+03
-6.169042793869042725e+03
-4.541545330406303947e+03
-1.489521679385220978e+03
2.130387574901426433e+02
1.610957285209435099e+02
-4.329087455581701533e+02
-2.693481505642923821e+03
-4.996765685549788941e+03
-5.022325139108434996e+03
-5.519461532641586928e+03
-6.342450990519661900e+03
-7.028797454581743295e+03
-7.548028496020106104e+03
-5.797119476734521413e+03
-1.904097591927967642e+03
1.602693575860162355e+03
4.085531801248909687e+03
3.915265526980418144e+03
3.231480406189284167e+03
3.545424204622721390e+03
4.185322417069237417e+03
4.735323818428872983e+03
4.636004663643015192e+03
4.043202480174260472e+03
4.140372233319738370e+03
4.224662620554669047e+03
4.157365995153385484e+03
4.424339029776687312e+03
4.538070713586103011e+03
3.524437442529047985e+03
2.359601417650342228e+03
1.057556022572472557e+03
3.489852817399796550e+02
1.119747859412730804e+03
2.404041163218691963e+03
3.693928743302852126e+03
4.385693018161642613e+03
5.321487486816768069e+03
6.225117541028947016e+03
6.265301549520201661e+03
5.573807693319947248e+03
4.845676707340804569e+03
4.379850397205775153e+03
4.091531620721464606e+03
3.674105513430648898e+03
3.934498444944067614e+03
4.840561618564458513e+03
5.297489587230354118e+03
5.199601968355709687e+03
1.397188623804474901e+03
1.462537672029434361e+02
1.181560700334020112e+03
4.276103898552593819e+03
5.126072866861486546e+03
5.383443118739784950e+03
3.454247043258875692e+03
2.641472679953506031e+03
4.549405500786517223e+03
1.735495019226583281e+03
1.239964674834649259e+03
-1.860284444043305143e+02
2.008464234091530216e+03
1.880172698204505423e+03
2.259063640475736975e+03
5.141153621983649828e+03
5.045904536266819377e+03
4.953572643666336262e+03
3.361821644643311174e+03
1.534371713042187366e+03
1.700064265148812638e+03
-2.967987896551293829e+02
5.148246701313906897e+02
2.885104059943035281e+03
1.472318725495121498e+03
-2.137508167289155153e+03
-7.865965099270158589e+02
1.809900373030442097e+03
-8.099689919639082518e+02
-1.214091459056195390e+03
3.958706757521059671e+02
-3.302784729111634078e+03
-2.831742936780926357e+03
-2.558715765241970075e+03
-3.229471802564490190e+03
-2.985855516689044634e+03
-2.026633355736106296e+03
-1.879882377392318858e+03
-9.857649290538531659e+02
7.660275698094021664e+02
2.575604632463896451e+03
4.462785137224720529e+03
4.186672173545169244e+03
2.976394990735911961e+03
1.843065589997154348e+03
1.095783572329950857e+03
1.010665879583666424e+03
1.638757014216215794e+03
2.474920002771219970e+03
2.714204520139253418e+03
2.395495644185989477e+03
1.994691835052940633e+03
1.534925070484009893e+03
1.360274714491186842e+03
8.828025561246367943e+02
6.175340398611543833e+02
4.176000026444779678e+02
5.321378360041875339e+02
4.324762260701673995e+02
7.486080658904558049e+02
7.163216042819763061e+02
1.055843593157982468e+03
1.085212212725049312e+03
4.190641504353143887e+02
-7.695438470100006043e+02
-7.594191093165327402e+02
-2.621349731010395203e+02
-9.241389878418269177e+01
7.788532569709120423e+01
-1.408048235887938837e+01
2.273885897766990070e+02
5.231969272142624732e+02
9.581709348211840052e+02
1.341787516742416983e+03
1.060434835205143827e+03
7.487815001732335531e+02
8.037111957110267895e+02
3.861618999602439430e+02
-2.617311281657606514e+02
-8.892447380897529001e+02
-1.072163189095674397e+03
-1.096147473588504226e+03
-1.407309441570073204e+03
-1.409491933023623233e+03
-2.094684707072862693e+03
-2.468744189633938277e+03
-1.752652025129012372e+03
-1.354533273755383789e+03
-1.199428649402401561e+03
-9.951818030328282703e+02
-1.028440311039168137e+03
-1.208939651215231834e+03
-9.277473392281482347e+02
-4.819959751660824168e+02
-3.726104346615883287e+02
-1.373641312899572711e+02
-1.021199439457853941e+03
-1.346388564898831874e+03
-1.075957570012218639e+03
-7.686203680071438384e+02
-2.469611629924958720e+02
-1.270298159808734937e+02
1.058005085420163823e+03
2.212088473141248414e+03
1.927081662919515793e+03
1.656122451016708055e+03
5.952527660609584927e+02
-1.077759711247279483e+03
-2.624826748887877784e+03
-3.526811205279638216e+03
-3.934556345571226302e+03
-3.664998869997201382e+03
-3.185233094043708661e+03
-1.585412651226265098e+03
3.315028855709752520e+02
8.638130417451612857e+02
6.556075011929499397e+02
6.786784803565884658e+02
7.777809792315169943e+02
3.351241368979988238e+02
-1.814995703674020660e+03
-4.960534014760217360e+03
-8.672444834709895076e+03
-9.539650507138796456e+03
-9.659154785138873194e+03
-9.314980329009486013e+03
-8.932129848152195336e+03
-6.903621897669507234e+03
-7.011424679068566547e+03
-8.717245472559530754e+03
-7.527970829637989482e+03
-2.941471285403023103e+03
-3.477539338225304846e+02
5.322385580138187606e+02
6.543698442064873007e+02
9.153822505946086494e+02
1.653080202683932839e+03
2.092354987313712627e+03
2.525455364343142719e+03
3.328193338727337505e+03
3.964705934264310599e+03
4.293221795533631848e+03
4.274894474665919915e+03
4.044805600994350698e+03
3.769917012847993647e+03
3.311171654415824833e+03
3.256697194693957954e+03
3.071600329196105577e+03
3.055035017430958760e+03
2.874147777988108828e+03
2.600981489331019930e+03
2.666565095218598344e+03
2.939968730066354055e+03
3.065167208101040615e+03
3.302189551432994449e+03
3.561157359419306431e+03
3.624178843884445996e+03
3.366384481744317782e+03
3.181949788442913359e+03
3.018887785586336577e+03
2.938294846122861600e+03
3.221148041816400564e+03
3.263221440786194307e+03
2.972620071043502776e+03
2.723562776158650649e+03
2.236214274614557326e+03
2.240695675690843927e+03
2.271971795483453207e+03
1.982076937946586668e+03
1.813062121050245423e+03
1.202015116332314165e+03
7.949241189176885882e+02
4.898708121613328785e+02
-2.500329889764159930e+02
-1.022757963476711552e+03
-1.646258299759179863e+03
-1.442438717222350078e+03
-1.140357225620442705e+03
-9.459683267599270948e+02
-5.832497791296233345e+02
-4.292182227998367807e+02
-4.937736066803043968e+02
-1.308090062414618728e+02
-1.744166103964601007e+02
-3.166442202415981910e+02
-1.292440816896267052e+03
-1.560736532235327331e+03
-3.113524476752027567e+03
-4.286818570248164178e+03
-3.669690198944901567e+03
-3.925202275791695229e+03
-4.039290207055932115e+03
-3.480021541335461279e+03
-2.100366953417842069e+03
-1.384339322470359775e+03
-2.013910249812716074e+03
-2.523078370754268690e+03
-4.959740948722263056e+03
-8.327895968106968212e+03
-5.956650822812136539e+03
-4.876003150575957989e+03
-2.223068383114276912e+03
-1.043972353779983905e+03
-4.561742055721430006e+03
-5.729443549613433788e+03
-3.433010715733058532e+03
-2.347604456928830587e+03
-2.489250658422554807e+03
-1.927008519258723709e+03
-3.860226150680032902e+02
2.844965990701006717e+02
-4.924289244438376159e+02
2.158321600076895720e+03
2.002716682307736164e+03
1.117796601775610497e+03
-1.140464770018399122e+03
9.317127065541275215e+02
2.422893906010536114e+02
2.251784525688547376e+02
-3.768992345394173071e+01
-2.720320604531648769e+03
-4.849246212490890571e+02
-2.590790611382375118e+03
8.149724537793686068e+02
2.164309804739983520e+03
2.308322000132119683e+03
2.767961910382484348e+03
3.293075649703801901e+03
3.624545180101367350e+03
3.652289125259861066e+03
3.683321355961018526e+03
3.691675756494425059e+03
1.217161911153410529e+03
4.660655893408129486e+03
5.354118189378630632e+03
5.030442841599711755e+03
4.755667869696498201e+03
3.487823172021568098e+03
7.628133724556465722e+02
1.765632862421025720e+03
3.618601082653860601e+01
6.002731165400368809e+02
8.646557746363893102e+02
5.132115828194822598e+02
3.188875513529268915e+02
2.366285624029351595e+02
3.573035839347118099e+02
1.905859327313138465e+03
4.100375101322739283e+03
4.025737226027798897e+03
3.616804392040871790e+03
3.872508065884367625e+03
3.758835904070978359e+03
2.715647169533253873e+03
1.582830472622241359e+03
5.122940300656387080e+02
1.267796296865083860e+02
-4.452100169861421364e+02
-1.376672682423228480e+03
-1.327077739035201375e+03
-3.145245319179251737e+02
-3.209156665726421807e+02
1.494254900970716733e+02
5.236097051670247993e+02
-8.662595906691061032e+01
2.754571935756522407e+02
1.055681293362687711e+03
1.343654623831217350e+03
4.460807896293327417e+02
-1.072206041920285998e+03
-1.650058129412061135e+03
-1.739327575530404602e+03
-2.365618808056392481e+03
-4.001787748643107534e+03
-7.461672054724221198e+03
-8.452640695674428571e+03
-6.499388733765045799e+03
-5.372187836526912179e+03
-6.224127791698047986e+03
