2.431374526316118136e+03
2.641059432443419610e+03
2.966738839115107112e+03
3.260493199222687963e+03
3.590328338196486129e+03
3.728314102401483524e+03
3.516569439843075088e+03
2.401173580237462829e+03
1.525131870661169614e+03
1.134416477340703068e+03
8.140346771054638566e+02
1.959459966467203742e+02
-1.149864931815995703e+02
1.533524484123199159e+02
1.107178656027962688e+03
1.957562075930230094e+03
2.618447743148139580e+03
2.321824919917402894e+03
1.796799827220826501e+03
1.385745360342904860e+03
1.167765461047015606e+03
1.288708611883658932e+03
1.703546950111648130e+03
1.764418896294451997e+03
1.580362575513200227e+03
-5.436266405160542945e+02
-2.095408259337144727e+02
-2.902874493110583103e+02
-4.497763477190159733e+02
-1.845027571781798997e+03
-2.610096820275003211e+03
-8.230417915555892705e+02
-2.698176706913272369e+02
7.691207057996911090e+02
9.147366266138155879e+02
1.091244786566215907e+03
1.768871465883456949e+03
1.928888797960584725e+03
2.216980668542400508e+03
2.147512171218896583e+03
1.624304794189174800e+03
1.422049534133999714e+03
1.402734371117457158e+03
1.519394482672813410e+03
1.884991882929493840e+03
2.152595257821151790e+03
1.538333389601735689e+03
7.501778395989881574e+02
-3.925523322240761726e+00
-1.919608379600957733e+02
-7.879502561979871871e+02
-1.355113866391972124e+03
-1.482622356450387542e+03
-9.343045586031263383e+02
-2.970665224411628174e+02
7.731032069627051442e+02
1.150158292701089522e+03
7.831309923913053126e+02
5.010599253133104867e+02
-1.400677269287353397e+02
-3.063421646178693436e+02
3.331912479495939579e+02
5.605048389665284958e+02
7.595445512548634497e+02
1.170337568273034549e+03
1.459902020248576036e+03
1.132237403727635183e+03
3.583212550125678035e+02
-1.987127053427178325e+01
-1.454031679453901802e+02
-3.272755546996422140e+02
-7.215897145204410208e+02
-1.085470793159909363e+03
-1.242946803047819458e+03
-9.419571714741987307e+02
-1.644175772168042613e+02
1.336090985913249654e+02
-1.168884118180410496e+02
-1.709072314755744344e+02
-8.054201355115202432e+01
-3.208127546302135897e+02
-1.403727311705304601e+03
-2.010402244056999507e+03
-4.575844217783372187e+03
-5.658085972999299884e+03
-4.810120828671898380e+03
-4.442934621110062835e+03
-5.698542887904461168e+03
-5.343902576642053646e+03
-3.353070204544529133e+03
-7.780263329612068901e+02
-8.032454439430791808e+02
-2.222675761803774094e+03
-2.210192017766725712e+03
-1.107698899545402810e+03
-2.032144643056078905e+02
4.671104223844371859e+02
3.602284656520924955e+02
-5.885563847814263028e+01
-1.811454093302884871e+02
5.583291884603597737e+02
8.375678826464034046e+02
7.694471007975588464e+02
6.679740845335398944e+02
1.357138437651624599e+03
2.152986317616381712e+03
1.569503989012537431e+03
1.147623965979930290e+03
1.218383426431911175e+03
4.947043665490216426e+02
7.756086462475906274e+01
-2.041591262423297337e+02
-2.685691827199709110e+02
6.183908997886832140e+02
1.295731827222781703e+03
1.561477127363623367e+03
1.243598804481184288e+03
3.770937352238145195e+02
-8.360317832663397439e+02
-2.277827242335458777e+03
-2.415301057835099527e+03
-1.698507244515989214e+03
-1.770452145059031182e+03
-1.568034544501204891e+03
-1.086252951699708774e+03
1.318253486984050937e+02
1.054216274557746146e+03
9.949192907565037558e+02
6.394185340468185075e+01
-9.107561805820904510e+02
-1.741184700131805585e+03
-1.597417598833725378e+03
-1.194560631817013473e+03
-4.585754696465704683e+02
9.096759460069051784e+02
2.567225246426423382e+03
3.874051773111920284e+03
3.539195963431413020e+03
3.071678267848516498e+03
2.249508245183678810e+03
1.388650830191545992e+03
1.670113779154894701e+03
1.663888222798617335e+03
1.783914301403523496e+03
2.221473007171516201e+03
2.150598295158408746e+03
2.031224273789496692e+03
1.866310482351252176e+03
1.366923994008793443e+03
8.240845050005784742e+02
-1.692488747862849152e+02
-1.247218193741093728e+03
-1.159863991453357812e+03
-3.471255422846681427e+02
-1.858947010599764326e+03
-3.379298270268574470e+03
-1.726816111548851040e+03
-3.083636494320945076e+03
-1.183801491296924269e+03
-1.163263058235777180e+03
-2.222975593040936019e+03
-1.513930641525765395e+03
-1.511405363669457245e+02
2.664126554589463467e+02
-1.277197145353063661e+03
2.226099655148866532e+03
1.578322095143852493e+03
1.064517534997957682e+03
5.476922270708986389e+02
-5.521300185690605531e+02
-2.189834411267509324e+02
-1.883913994674609967e+03
-4.630278562608932020e+02
-2.532218710830601083e+02
-1.624327363632371316e+03
-9.343170285530910633e+02
1.243826506966202487e+03
-1.790863178963847304e+03
-1.119318897964937150e+03
-5.884315046669297544e+02
-2.179241022024206359e+03
-1.665753702391906700e+03
-5.900240570649714300e+02
-3.420990588461316293e+03
-1.815581845472422174e+03
-2.160768556612745215e+03
9.335101269023274426e+02
2.182255140116941675e+03
1.464463979886793140e+03
-1.470813882596100029e+03
-2.593613857186606310e+03
-3.923945751283574737e+03
-7.209102301339055430e+02
3.535258355762803717e+02
-1.394532707867571162e+03
4.459956690356834201e+02
2.107134322212617917e+03
2.198915454429993588e+03
1.835426899003842209e+03
1.479729068730873450e+03
1.119968589610078197e+03
1.081114924904045665e+03
1.100053622966565854e+03
1.799711542878942510e+03
2.278082081081330216e+03
2.165218968266944103e+03
2.419131168684136355e+03
2.480797938419520960e+03
1.414339340976571066e+03
8.147873344915425378e+02
6.422096629921779254e+01
-8.543263282838144050e+02
-1.743107555925519137e+03
-1.911121566725758839e+03
-8.982741874328129370e+02
-8.555693936831083590e+01
-2.599455563888535039e+02
-1.288524869478005030e+03
4.479232022296764626e+02
6.655242769520074262e+02
7.801183362979443245e+02
1.717599773306883662e+03
1.838020845126483209e+03
1.192105141690617984e+03
9.430391672918640324e+02
1.153888341685503974e+03
1.732641584716827538e+03
1.571588601109099500e+03
1.027541639209108098e+03
1.299238547392662213e+03
1.229916421129218179e+03
1.731924055295254163e+02
-6.079938690237692072e+02
-7.634195416007419226e+02
-5.601467834753397028e+02
5.145978401730338874e+02
1.151047776472337318e+03
1.762713862425903699e+03
2.249866109515493463e+03
1.852850705089294252e+03
1.228407227326435759e+03
1.314032609381937618e+03
1.155089499158389799e+03
8.577473463775118034e+02
1.465844525190191462e+03
2.247131495993410226e+03
2.578802315321997867e+03
2.075800678138480635e+03
1.185087101399012681e+03
1.072623431516613437e+03
7.903134028862078821e+02
1.800786439431062433e+02
8.481532535910656634e+01
-1.755533308045091303e+02
1.491541332650965899e+02
4.880589416018543716e+02
9.052357405360045277e+02
1.147611020422322099e+03
1.179250673410185527e+03
1.048147270721004134e+03
4.711159050208666486e+02
6.106213757139174447e+01
5.069829027273023598e+02
7.237422952210098401e+02
1.067286290465198817e+03
1.668638805887028639e+03
2.456752862886585717e+03
2.603523244961908404e+03
1.440944863108425352e+03
9.330059698300057107e+02
9.196899230372825969e+02
8.369021185607326743e+02
-8.839361802460938122e+01
-2.374151818453802662e+03
-5.253282334190349502e+03
-5.545830694012065578e+03
-4.587794429133443373e+03
-4.246073153999604983e+03
-4.776610054331116771e+03
-5.472425173896758679e+03
-5.571470694992469362e+03
-5.392807221070047490e+03
-5.373291943621605242e+03
-5.321138602242077468e+03
-5.147467524463058908e+03
-3.892267350032653667e+03
-2.564397801250918292e+03
-1.313855538949545917e+03
1.543177292007994311e+03
1.649719349989639795e+03
-5.703700999399490001e+02
-3.628061630253569092e+03
-5.978357138280167419e+03
-6.214334098005911983e+03
-5.967974387112608383e+03
-1.675328309018233995e+03
2.416646579768704214e+03
3.019011319785539399e+03
2.833807167666400346e+03
2.319136475046894247e+03
1.611015712639076582e+03
1.413425822362517465e+03
1.777389109511926790e+03
1.745916225110285041e+03
1.524961623616146653e+03
2.130458871336887569e+03
3.338425212635077969e+03
3.305052375120362740e+03
1.322456577953371152e+03
-2.142024870116700086e+01
-4.907203034261188463e+02
-8.744649522871453655e+02
-1.418880085557817438e+03
-1.039036731592210117e+03
-2.098108229256897346e+02
1.158872528379081814e+03
2.182157502213350199e+03
2.937087548049145425e+03
3.514569089696946776e+03
2.613616752978679870e+03
1.587288319586387615e+03
1.400665109691834004e+03
1.355785722298606743e+03
8.037528001149345300e+02
6.446598023743506474e+02
9.836156105444349578e+02
1.613626013976737113e+03
1.925659850880531849e+03
1.337640599465346895e+03
-6.349726094603776971e+01
-9.858458421926515030e+02
-1.260379516149360370e+03
-1.544103691141933268e+03
-1.071021137034093272e+03
-3.741498858926253206e+02
-6.578631752560700541e+00
8.659537399924420242e+02
1.801516829391917099e+03
1.712190395179364941e+03
9.199611872446237157e+02
-9.581807453475036596e+01
-8.411442442577426846e+02
-8.371721864081489457e+02
-6.698226638585563251e+02
5.131354301013606545e+01
4.143040317728853665e+02
1.030154827237862037e+03
-3.028614083856815853e+01
-1.457744691450511255e+03
-1.270013238714952649e+03
-7.205656069899351905e+02
9.318884983733388694e+00
-1.486581975414962358e+02
-7.157142848958168315e+02
-9.726171957156778944e+02
-7.213356054256462357e+02
3.996647323644612726e+01
1.121199202831965067e+03
9.564205085245694136e+02
2.717725568209838798e+02
-3.806949939978176758e+02
-1.200610652568563665e+02
1.737695837928109199e+02
1.069098786834308896e+02
8.582446677422303765e+02
1.587747357218263915e+03
2.213666227121146676e+03
1.686974194197404358e+03
6.467603797850071032e+02
1.572889016901255559e+02
-5.675807404826805396e+02
-1.123931143718285966e+03
-1.257794378056963069e+03
-1.171894942361411722e+03
-1.052184515968504911e+03
-7.927767920260589563e+02
-9.772754494394689573e+01
-7.830260002591161594e+01
-4.258048172657862551e+01
3.666996992332939271e+02
2.246489266623659375e+02
2.328501530234073513e+01
1.043156518300319107e+02
5.934833155579913182e+02
1.260805355647588158e+03
1.762203828331208570e+03
1.988734391367667513e+03
1.929554043574993102e+03
1.006608989250166701e+03
-1.331512146078421779e+02
-5.577270855028264123e+02
-6.631426707882541223e+02
-9.484988615135346208e+02
-9.528708277235609785e+02
-6.380829747360724014e+02
-4.249938395057013167e+02
-5.551065737818834833e+01
3.473481689864573809e+02
2.674339053078197708e+02
-1.522267969180617001e+03
-5.197790081947787257e+02
1.558714397427486347e+02
9.297447937969766372e+02
1.005856200244192678e+03
1.220185575839550211e+03
2.001760095139110263e+03
2.653591141872397657e+03
2.192707174767761444e+03
1.098124086069525447e+03
1.857834214393404579e+02
-1.330400735082336269e+03
-3.966250857197484947e+03
-2.336793127241122420e+03
-2.041320756484499498e+03
-2.179564757956276935e+03
-1.815747359638368835e+03
-7.777613180399022212e+02
4.214638984959992172e+02
1.017859977675759069e+03
6.003666344794304450e+02
-5.000831923959418646e+01
3.098597779112205330e+02
4.945354725269010032e+02
1.057263769473785942e+03
1.388025369930808665e+03
1.778842484303993160e+03
2.212763439557720631e+03
2.214709020156160932e+03
6.728652927410469147e+02
-3.380311554228829891e+02
-4.459214836159366655e+02
-8.416696784692795745e+02
-1.511449001046227750e+03
-1.685441616914092037e+03
-1.646178362496856380e+03
-3.379432694373307982e+02
8.522278719195369376e+02
1.215520942250969483e+03
1.034878997288605660e+03
6.873008261021385579e+02
1.701047414631121342e+02
-7.602065546126085849e+01
1.790039353030348366e+02
2.767344600873892091e+02
5.901930221692948635e+02
1.096552133460746518e+03
1.400090541036104014e+03
1.679763485646764138e+03
8.745521874088608456e+02
-5.419343862318772835e+02
-1.628618974968692783e+03
-2.580232088015012778e+03
-3.471112601269297556e+03
-4.339289104918729208e+03
-5.144592130274955707e+03
-5.098931894044406363e+03
-2.780276225179046833e+03
2.703920605313490455e+02
2.092033850972111850e+03
2.705652662760203384e+03
2.326200004293228631e+03
2.537709034266662457e+03
2.615190788888771749e+03
2.251533429880855238e+03
2.146751704740919195e+03
1.677986067559901585e+03
1.404235691934799434e+03
2.036531440736806644e+03
1.392897262831168064e+03
-1.735862320889502826e+02
-1.051950134346171126e+03
-2.505342839174327764e+03
-4.039835971791010707e+03
-6.489357098975735425e+03
-5.870781573784297507e+03
-2.963240893552982016e+03
-2.126639352082851929e+03
-1.932986522652869553e+03
-1.351329131853480249e+03
-4.340604461344662013e+03
-3.086677759759570108e+03
-2.596535181499613827e+03
-4.983226295282946921e+03
-1.660866325879877877e+03
1.175804732513672377e+02
-6.118062591225580036e+02
2.150917692058311331e+03
8.828284539546906444e+02
-3.139925359021572149e+02
9.464603539020773724e+02
1.247166931642466579e+03
-1.461921534031820329e+03
-7.319324706929645572e+02
-2.485851347071798500e+03
-1.976846658653846305e+02
8.736282200519596017e+02
1.513287491505507205e+03
-5.176912544397266629e+02
-1.950467626558127904e+03
-1.725008378020954751e+03
-1.911269106455450355e+03
-1.659319097100717727e+03
1.227976501854598013e+02
7.850503097481026771e+02
9.954335084173553696e+02
1.516994627558188768e+03
1.099761866262148260e+03
5.497806676052526882e+02
-1.268877797113366569e+03
-4.298262790752527508e+03
-6.321421956498319560e+03
-6.759460575163296198e+03
-6.014435920511207769e+03
-5.277341242002518811e+03
-3.035235310450863835e+03
3.059317590997868024e+02
2.313203271285111441e+03
4.012600143056935849e+03
6.387141700772703189e+03
7.419785492643853104e+03
7.090530899387134014e+03
7.356359613017098127e+03
7.743222207274494394e+03
7.029063353735131386e+03
5.893855361404153882e+03
4.796554515604575499e+03
4.110078723007030021e+03
3.101401631958295184e+03
1.693692487255268361e+03
8.050812999426151464e+02
1.747395042648955439e+02
-1.485220840187971362e+03
-3.419005737174077694e+03
-4.140868335145627498e+03
-3.690791679670959638e+03
-2.812686346150304871e+03
-1.129520508067623496e+03
3.350560372713492541e+01
1.251461329307265487e+03
2.415409124662712657e+03
1.892280862868363556e+03
1.419156135043339191e+03
1.376707193655759056e+03
1.922652275819263423e+03
3.185109310038896638e+03
4.184871563471958325e+03
4.336239000584927453e+03
4.234575014483197265e+03
4.255551936341174041e+03
3.922998689414572254e+03
3.349025768935409360e+03
2.109608994052916842e+03
7.563086975274429733e+02
-7.278864286175582947e+02
-1.823795040451089108e+03
-1.607547476268567380e+03
-9.681735854009450577e+02
-1.217041792204441180e+02
1.224884997725477888e+03
1.995565509925236483e+03
1.835331918238459821e+03
3.621568253374891810e+02
-8.951149008856339151e+02
-3.986003534368966257e+02
1.711793397370740649e+03
3.900170236070625378e+03
5.393523760097898048e+03
7.210827693474900116e+03
6.890019907916941520e+03
4.716048724327456512e+03
2.707826475316926917e+03
1.016296902959099498e+03
1.913638732376138023e+02
-2.902895681014374318e+01
-9.258837231525991456e+02
-2.464175455533504646e+03
-3.845828825782552940e+03
-4.388760494345643565e+03
-4.855001718994871226e+03
-4.966583308541565202e+03
-4.719440476905379001e+03
-2.807602064583139963e+03
-3.031257635970752631e+02
2.118869608590920961e+03
3.557366786414253511e+03
4.139396326292921913e+03
3.452075278233302015e+03
3.239407921119553976e+03
3.341390835001726828e+03
2.782050067992588538e+03
8.862902873420736114e+02
-3.013949511439057460e+03
-4.379666447502147093e+03
-5.867975418984869066e+03
-8.143897731208459845e+03
-1.137128548321522612e+04
-1.345899367686465121e+04
-1.534297769782382420e+04
-1.826926386184464354e+04
-2.166185222805188459e+04
-2.242372368628816912e+04
-2.108202659580955151e+04
-1.736169804322899290e+04
-1.372957580734405019e+04
-7.842636396923379834e+03
8.401563428686843054e+02
6.415733689899810997e+03
1.086806856799618981e+04
1.225617767346072833e+04
1.074812159167433492e+04
1.133904313605239440e+04
1.206789116281373936e+04
1.079060489503882309e+04
8.818122902111554140e+03
6.650389775095548430e+03
5.469609949029969357e+03
4.503944644722528210e+03
2.974444804032134471e+03
2.630105113556651304e+03
2.184993016509173685e+03
-1.788410514935793003e+02
-3.260438493930664208e+03
-4.746769835364096252e+03
-7.040861686630735676e+03
-8.799625486353897941e+03
-7.114965209805733139e+03
-5.890893961683183079e+03
-5.619295296165221771e+03
-6.161069099222262594e+03
-3.545201891181038263e+03
-2.766612507361385269e+02
1.580583090281719251e+03
2.539560613520127390e+03
1.169312931810573673e+03
-6.511307193825241484e+02
8.329667781631532364e+01
3.090682311730589390e+03
7.805036379306995514e+03
1.086944696120696972e+04
1.119603539443637783e+04
1.104283780648729589e+04
8.695866541430945290e+03
6.275127767341994513e+03
5.486618834575375331e+03
4.832341122737159822e+03
3.765434750244406587e+03
3.068989546738069293e+03
2.991108238853719286e+03
2.316839353534489874e+03
4.822682642068538712e+02
-9.605981415689940377e+02
-9.368278832648097705e+02
-4.434307277748285969e+01
6.538380945715139205e+02
7.097449845330195330e+02
4.024863195116011525e+02
-3.069312738438106436e+01
-4.589023936058771937e+02
-5.201572152542453296e+02
-3.425447798152146675e+02
-3.828101630167662393e+02
-3.946114793401568477e+02
-3.211783202718407324e+02
-4.216006955874209439e+02
-5.868476232627286890e+02
-3.257471060368731059e+02
-1.322117409850802403e+02
1.188417204436405541e+02
-2.504170139262279804e+02
-1.234263212909044796e+03
-1.798579442821598377e+03
-1.840365040515384862e+03
-2.036595466812049153e+03
-2.513324330065805043e+03
-2.024626320943983956e+03
-1.075431991293647570e+03
-4.076186137449145122e+02
1.183712903316762954e+01
3.549373328121773739e+02
2.027841612644062366e+02
-1.936534843268810562e+02
-4.343309550332782578e+02
-8.442478307506121382e+02
-9.134713062314114040e+02
-6.490461118397803375e+02
-5.828559759569334346e+02
-6.749098065085458984e+02
-6.882137881277189990e+02
-9.116985116283681236e+02
-1.673337028974925715e+03
-1.792146098650153590e+03
-2.182119712876261474e+03
-3.145400728782182341e+03
-4.213089681958184883e+03
-4.153192496258466235e+03
-3.172613922861545689e+03
-1.914313290961858456e+03
8.673561286847504448e+01
1.872508100993355583e+03
2.060920330826518239e+03
1.204012175210150417e+03
4.688155840759138187e+02
5.342777192468566909e+02
1.445330611660307113e+03
1.773857198716671292e+03
1.949912292247803407e+03
1.534581982552937916e+03
1.625864801195822338e+03
8.637591392493652620e+02
-2.577218104194615194e+02
-8.076103883175487681e+02
-8.309039104283062898e+02
-5.597476820286992734e+02
-1.404605332059377645e+02
6.081987112188371469e+01
3.621367969108883358e+02
8.505657245407462597e+02
1.819160025256335985e+03
2.534822136234710342e+03
2.168521643168702667e+03
1.641302561742490525e+03
1.480127608735274862e+03
1.440955442710148873e+03
1.368722330596009670e+03
1.085277947160418535e+03
1.577651926607150017e+03
2.345894554162863642e+03
2.559972828378622580e+03
1.739851466255281366e+03
6.044582465401301761e+02
-3.039841970664967334e+02
-2.545622196522909917e+02
-3.446640638446755815e+02
-7.974797675193087798e+02
-1.101813634865876338e+03
-1.486952670150423955e+03
-1.093417786031522382e+03
-1.837187151067325317e+02
6.743671504138621913e+02
5.187646617711258159e+02
-5.675511416449231206e+01
-2.890736674599703520e+02
-6.291710818455034087e+02
-4.143425012338798865e+02
-3.365114350481001679e+02
-2.008429779216959048e+02
1.814602086408345656e+02
3.156084224999727326e+02
-2.573040286239016154e+02
-1.097629047416726962e+03
-2.198159498503865052e+03
-2.787108675414237950e+03
-1.668424843659073758e+03
-4.523738564594063405e+02
-5.309437199207019376e+02
-4.590069105172042327e+02
4.953336202043103498e+01
7.764311564621260686e+02
1.494634921856981009e+03
1.645159371606094965e+03
7.997388472831162289e+02
-2.273751982161228398e+02
-3.642045716705460450e+02
-7.282357902630604940e+01
9.166457564570500836e+02
2.054298255388347116e+03
2.700196604112999921e+03
2.795332029821730885e+03
2.325627599435956654e+03
2.159934159302169064e+03
1.117234476395243291e+03
4.413180229037062077e+02
1.490204549840558741e+02
-3.846909066423819468e+02
-5.818487887128586635e+02
-2.935212710098522280e+02
1.043390222008205797e+02
7.898781557633760713e+02
1.612050745930247786e+03
2.522806496322321891e+03
2.946298473798774467e+03
1.439565698629118515e+03
-9.863338833185207477e+02
-3.800470328716465701e+03
-4.816874210199989648e+03
-5.096506394305632966e+03
-4.716409194340485556e+03
-3.736530563127495043e+03
-2.680727767922097883e+03
-3.156962621294474502e+03
-3.680274831423563683e+03
-3.708760800167797242e+03
-3.275488647026145372e+03
-4.720607505005546045e+03
-4.852089209254732850e+03
-3.849898603894047938e+03
-3.086999060553447180e+03
-3.032888857692719284e+02
3.912520611638350942e+02
-1.944398782279173247e+03
-2.502225431612110242e+03
-3.395252949509281279e+03
-2.429462863829372054e+03
1.628194117641712637e+03
7.527070854004302873e+02
-2.455953046071991139e+03
-2.482717274172885027e+03
-1.835468451804022834e+03
-1.671076906931756639e+03
-1.214639671943141366e+02
1.718414338413473615e+03
1.779552485648252969e+03
1.365866603433434420e+03
3.913006620932919759e+02
3.548175537137075253e+02
9.794133140214710238e+02
1.727177056407589362e+03
2.458245067693048895e+03
2.540733894520998092e+03
2.288701820449718070e+03
2.473097432303083224e+03
2.078799697518934863e+03
2.078803766676828673e+03
2.803165779700323583e+03
3.177805442022683110e+03
2.951846283878775012e+03
2.766524259156724838e+03
2.745965622652454385e+03
2.583194786349120022e+03
1.808198663813602707e+03
1.004006421480346944e+03
5.727706552526565247e+02
-4.004646432688151094e+02
-6.637450611985262867e+02
-4.891153057105793778e+02
-4.035234924462545791e+02
1.660793050587757591e+02
9.907420544129679456e+02
1.968346782001596466e+03
2.107817625295474500e+03
1.932243701486743475e+03
1.175654621164738501e+03
7.631010192191710075e+02
5.537464399119402287e+02
8.496022116660342363e+02
1.568595667045413620e+03
2.024726946044361739e+03
2.163159353147344518e+03
2.157136404670884076e+03
1.178499521053062608e+03
-1.394997945754082878e+02
-8.296452110759637435e+02
-6.618125089708349833e+02
-4.660576013571969725e+02
-7.203694596355502426e+02
-4.802986713409483741e+02
1.350857195493706229e+02
-7.037542874930397829e+02
-1.359837880466869137e+03
3.557642280216385871e+02
6.562275050420774960e+02
4.852903764697364295e+02
6.074081645187050071e+02
5.676196256215379208e+02
8.158784351779846702e+02
7.293088923600216731e+02
1.762169307560887546e+03
2.185392463205742843e+03
2.009861552313801440e+03
1.178746123688227954e+03
-5.427803033069563980e+02
-1.557681751762500880e+03
-1.749000948012791923e+03
-1.952689833570736710e+03
-1.859640181324135710e+03
-1.185966241352866064e+03
-5.226931027531970813e+02
1.843629075278133769e+02
1.139346073606566961e+03
1.459236853587313135e+03
1.242147730531398793e+03
9.060417306308145271e+02
1.968536744321638210e+01
-5.349264128224046999e+02
-4.527811227218246586e+02
-4.468898911845199677e+02
-4.035337172875515535e+02
-5.278181286282025440e+02
-7.436821000001829134e+02
-4.810501828703149840e+02
-1.104725171522807614e+03
-1.638641909716186319e+03
-1.295014859842834767e+03
-2.047105737459874035e+03
-2.608206387879944486e+03
-2.003256762271216758e+03
-8.870410225319702704e+02
3.724704738937293200e+02
1.337548284786947306e+03
1.598251419758215889e+03
9.014451573984009656e+02
1.681236441006788880e+02
-7.746571479664120261e+02
-6.439328331065629527e+02
-2.057767975334584492e+02
6.368381613710101874e+02
1.404999668494943307e+03
1.112737702671752913e+03
1.151967106133651214e+03
5.095584862937394064e+02
-4.295645828816741982e+02
-1.243356196305888716e+03
-1.618762008125807597e+03
-1.295817647721709136e+03
-1.888562906858476254e+03
-4.280084881960586245e+03
-4.963372591498315160e+03
-1.239402969051461469e+03
4.018080961573299419e+02
6.822098140375597950e+02
-3.281740407683123522e+02
-6.334137540604502874e+02
-3.783816418827402686e+02
-3.960547850165557406e+02
-3.125933177349044172e+02
2.788695768128658159e+01
5.365090609009129139e+02
3.214938522937844709e+02
6.256078402405046290e+02
8.457861888023086294e+02
1.939929067364469404e+02
-3.986130112449300782e+02
-8.323102374938104049e+02
-1.802079100941939032e+03
-2.214862091674215208e+03
-1.636668912161236904e+03
-1.047568444907456524e+03
2.318743155235363318e+01
1.406932209751209257e+03
2.223636350226333889e+03
2.053266836555507325e+03
1.423004162592654666e+03
6.025235453662634200e+02
2.479235110584922666e+02
3.671532000880674786e+02
4.343015852972657740e+02
7.373725154227300891e+02
1.497127315732947181e+03
2.117917247506774402e+03
1.780793978713613342e+03
6.464206928860829748e+02
1.007629152458883794e+02
-1.399525770100841839e+02
-2.281147375758983173e+02
-3.217168147505001912e+02
-8.929817530083859083e+02
-9.404893015545272874e+02
3.872269862147349073e+01
1.163603508645815509e+03
1.823002677604650444e+03
1.341762413214177286e+03
5.453370029548248112e+02
1.097674467018107975e+02
-8.421577363885599254e+01
-9.049401469313119151e+01
3.409218394156808927e+02
6.679413659789780695e+02
1.467546575861451174e+03
1.767728092785509261e+03
9.764403720115935812e+02
1.226593307538167323e+02
-4.806358672154735814e+02
-6.324328490833918295e+02
-6.037141784225013907e+02
-7.985162150660219140e+02
-1.044822633595252228e+03
-6.855595478283630655e+02
5.423747344565349948e+01
5.146156192232601825e+02
9.146260428425075588e+02
9.532300636039411756e+02
6.234088892698097197e+02
2.012037140873855492e+02
2.605914139406619370e+02
-5.084759029998585333e+02
-2.424979704911575936e+03
-2.571872676194348060e+03
-4.909916735690984524e+01
1.419273885283036179e+03
-5.467558985788438122e+02
-5.910295065472490705e+01
-2.379741205023782641e+03
-2.066715897093088188e+03
-3.855091937890334975e+03
-2.780917056028676598e+03
-5.376150769312986995e+03
-4.716751195707709485e+03
-2.399656652876776661e+03
-1.109833072586278377e+03
1.241754341030325122e+03
1.733088310929554154e+03
3.422271490625628303e+02
-9.358337356266872575e+02
3.238584990869171634e+02
2.052347379294695600e+02
-8.236754395279376695e+02
-1.447816241592025790e+03
-2.401937963838063439e+01
2.358733957669750907e+03
1.931238106006198905e+03
-1.116590324675984903e+03
-2.439621248216935783e+03
-4.127147656312253048e+02
-1.293896375791326136e+03
-2.121278121069832196e+03
-3.589663424104816727e+02
-2.384933043283174811e+03
-1.187996984182706683e+03
1.009910051326082908e+03
2.195760695419503008e+03
2.113574597370650736e+03
2.057255718515060835e+03
1.242803040318138756e+03
9.033061983887339466e+02
1.231765385410236831e+03
1.308222143594963200e+03
1.796647665304181373e+03
1.905138617561226283e+03
2.094651657234396680e+03
1.456194268412814836e+03
6.238633852326877332e+02
1.586573622324663120e+02
-5.874657571248682189e+02
-7.095521481281984961e+02
-7.416790676127607185e+02
-1.191912020180764785e+03
-7.571629493634825394e+02
-3.214307561991775515e+02
8.583509150848451554e+02
1.605286317665393881e+03
1.532677073910328090e+03
1.212557007514437373e+03
4.249519751122989533e+02
2.258127855244287332e+02
5.220478622362114720e+02
5.824876271221337447e+02
1.033260392839936230e+03
1.461481242613013364e+03
1.648110377323266903e+03
9.150838417920175516e+02
9.054895912774216526e+01
-1.936061797428096725e+02
9.255601060766576893e+01
-8.482538804334438964e+01
-3.413716149248849661e+02
-8.379412076482377643e+02
-7.580949537216996532e+02
-2.088689963221774235e+02
5.178201721776498516e+02
1.069895335326012855e+03
1.005293404765898117e+03
2.640479524318359381e+02
-5.099723845771999891e+02
-5.919233885807889237e+02
-2.206304226499704555e+02
5.039560411067063797e+02
1.123934738447665950e+03
1.517006976125866913e+03
1.778170371748330354e+03
1.511417334046088627e+03
6.667691537000896460e+02
-1.783206443039160760e+01
-3.894496104043440710e+02
-3.091016993293825976e+02
-7.198607926183291283e+02
-1.038748211551646364e+03
-7.896228782710061296e+02
-4.864951067375064895e+02
7.961355030560611112e+01
8.907018016541019279e+02
1.103767194392833972e+03
4.288098829034612436e+02
-2.418701538155772823e+01
2.657519181797304100e+02
2.795954391336961748e+02
2.053284039390474049e+02
5.729323127612365170e+02
1.868412559651214224e+03
2.622813342418773573e+03
2.209202662240004429e+03
1.233550504749795664e+03
2.198589771172788687e+02
-5.008887844739447246e+02
-7.247865405612922132e+02
-9.619441825819412770e+02
-1.494438351667763300e+03
-6.831691959783279344e+02
-2.101042829859353276e+02
-3.247103391019485752e+00
7.344284169552515777e+02
1.812978374524966057e+03
2.043331893001110075e+03
1.077489170825064548e+03
-1.065620844441877608e+02
-1.649861306946795139e+03
-4.287464788864367620e+03
-4.959233181850869187e+03
-4.472008513644896084e+03
-4.255937374459545936e+03
-4.584150682311986202e+03
-5.471627992719891154e+03
-2.120319678266629580e+03
-4.272919355166009723e+02
-3.898588556169177082e+03
-6.299127468035933816e+03
-7.078932091317697086e+03
-4.603167896639296487e+03
-1.326717104293139300e+03
1.794227999307456969e+02
1.134207082312867669e+03
1.717737376696519050e+03
1.448054796642022211e+03
1.331178967341373664e+03
2.236973364320866494e+03
1.833446712160851575e+03
1.213586726866824165e+03
1.483398912132561009e+03
1.341975808202054623e+03
1.006369145592095492e+03
1.076540963729620444e+03
1.638550252202689308e+03
1.680376282743912725e+03
1.064916063457722430e+03
2.971531902557259173e+02
-2.459899560028486576e+02
-9.256622608677474773e+01
3.084976062083358102e+02
3.582629006038076227e+02
1.021757904667101570e+03
1.838066439453315752e+03
2.341205784468617821e+03
1.990199177958956852e+03
1.467104084840133282e+03
1.002893436596031506e+03
5.715667782657544649e+02
6.260993600797788758e+02
9.814705039935713557e+02
1.534770116640458355e+03
2.010012865687913973e+03
2.100111105799293910e+03
1.178141306611314803e+03
2.561702489309089970e+02
-3.058981483316387084e+02
-1.053152085441381814e+03
-8.496289584220834286e+02
-4.203815781953520627e+02
-3.373303244186534471e+02
-2.363290013749159755e+02
1.456674369674372258e+02
4.498073735961145303e+02
5.429892457022718872e+02
4.641962286697905142e+02
1.504185403784887001e+02
3.646570921738167499e+02
1.101965147848735796e+03
1.544259497286575652e+03
1.266481035085111216e+03
1.216647012263345459e+03
1.760930066888877718e+03
1.954664725871436531e+03
1.769807772553781433e+03
8.672222632493428591e+02
4.240706385560870331e+02
2.332538491173003194e+02
4.837612119965880453e+01
-5.635382855971533900e+02
-9.423349828830705519e+02
-2.324831306032823250e+03
-1.467032633172998885e+03
2.509974312413537518e+02
5.302879678034971676e+02
-1.278121723053711321e+03
-2.461192848911750389e+03
-2.159310473468998737e+02
4.567222936939784006e+01
-5.014480551840838416e+02
-1.892342294388779464e+03
4.106378565167212003e+01
-5.371640059252260926e+02
-8.090182277159476598e+02
-1.733927295216429059e+02
7.957115260133199399e+02
7.521827324469830955e+02
-3.156948709244776637e+03
-3.009732185036179089e+03
-3.334237786682148453e+03
-3.715516816121180909e+03
-9.134888407008384092e+02
-2.032082129199940027e+03
-2.008199303424157506e+03
