-1.675223634371903700e+03
-4.772606910929769697e+02
4.630212864114787408e+02
8.465311428149500443e+02
1.898188105125727361e+03
3.904851506628330299e+03
4.020456216363154454e+03
3.588964891553889174e+03
4.083288888198196673e+03
4.345182393688624870e+03
3.309589877034884012e+03
2.271361665269829700e+03
2.366415405319617548e+03
2.563682788464103396e+03
2.564179047792178608e+03
2.695874462717951701e+03
2.400743922870201914e+03
2.444761581745338390e+03
2.124789278359717628e+03
2.220786217672798557e+03
2.293738793086250098e+03
1.898573240420488901e+03
2.206283801972296715e+03
2.304782063599368030e+03
1.291099055948658588e+03
5.940610405204923836e+02
2.517115899107513997e+02
-3.800607399428249096e+02
-1.434310989638322781e+03
-2.307071652526309663e+03
-2.860306593164571041e+03
-3.172018266318169935e+03
-3.451175738046992592e+03
-3.720736578049741638e+03
-3.892747182100220925e+03
-3.730113215338029931e+03
-3.499792398509471241e+03
-3.060842259421286599e+03
-2.782290621552042012e+03
-3.338166690514025504e+03
-3.428441884690350435e+03
-2.913138900306771575e+03
-2.419275024347119597e+03
-1.798782363717852149e+03
-6.096118787704745046e+02
3.842914561857169815e+02
3.368303629348631034e+02
3.970074463465447252e+02
2.059842410307486205e+02
-2.071642051322550628e+02
-1.532352858624343298e+03
-4.575536873387702144e+03
-2.506925299192402690e+03
-1.185425840828479068e+03
4.620938440925137343e+02
5.927067514825547505e+02
1.324520084747848159e+03
3.137647058314881633e+03
-8.799135554791452023e+02
7.868847205678642922e+02
1.773988959859090983e+03
1.351403757258722180e+03
9.113167643737024264e+02
6.087784451455551107e+02
-1.873152015691066936e+03
-1.921484593291079591e+03
-1.940161729435626057e+03
-5.500212608447483035e+03
-7.527148993747063059e+02
3.862181240640153419e+02
-1.890164840418002768e+03
-3.864772211765834527e+03
-4.029671647722380385e+03
-4.641704494721373521e+03
-4.544760428018375023e+03
-2.119705631960072424e+03
-2.012513764105482778e+03
-2.155998211265348800e+03
-1.129935271254439613e+03
-2.466362204094999925e+03
-3.121401710348962752e+03
-2.488092340082167084e+03
-1.844274490760508570e+03
-2.427810848825390167e+03
-4.109712737467774787e+03
-1.196957363843937173e+03
-1.151421146985497217e+03
1.580764282717982496e+02
1.175657532671367335e+03
5.993428190314891708e+02
-3.849835810267325655e+02
-1.295126898380297916e+03
-1.567785545963505911e+03
-1.570387612014970102e+02
1.424156150325592762e+03
1.707986823476958307e+03
2.356520959693607438e+03
2.480770718775332170e+03
1.817810751003672294e+03
2.382793422374869806e+03
2.885896730312887939e+03
2.447028050286335201e+03
1.164310724095583282e+03
-4.300247220800662262e+01
-6.304656043296988628e+02
-4.653646939168798440e+02
-4.358122266427887439e+02
-7.737975514440908000e+02
-5.662961841720584744e+02
7.947882125233260240e+02
2.123382759598842313e+03
2.814582137794686787e+03
2.703728742297966619e+03
2.861949914603641901e+03
3.837711096943017765e+03
4.617042551160297990e+03
5.411268397051676402e+03
6.189421798397974271e+03
6.401746472598709261e+03
5.320615216702086400e+03
4.448591318605839660e+03
3.810429854943068221e+03
3.291173376686450865e+03
3.214815116839475650e+03
2.741568036394623050e+03
2.734360801947514119e+03
2.554224307371096529e+03
2.070018659393036614e+03
2.161680186888188473e+03
2.377177029160673101e+03
2.592433442686883154e+03
2.856646517535173189e+03
3.023943076900366123e+03
2.683382522745214828e+03
2.760850981052676161e+03
3.409694233446312865e+03
3.826734082359099375e+03
2.802629692198740486e+03
1.626346563670305159e+03
1.158548918599529998e+03
2.590168780310630723e+02
-1.977474949630232913e+03
-3.189880402157435128e+03
-3.294112211540385488e+03
-2.718268575125372081e+03
-1.780266134518167064e+03
-9.109908489937898821e+02
1.560730092370835791e+03
4.520663530221398105e+03
5.204716829709366721e+03
4.122978183519720915e+03
3.559374233476564314e+03
2.894092801447490729e+03
2.143639627685704454e+03
8.319078367752905478e+02
-4.114224028160048761e+02
-8.088093742169036204e+02
-3.475128845695301720e+02
1.300016677699775300e+02
3.969322595880546487e+02
1.553065693670589553e+03
1.079700670821136328e+03
1.699698639798600198e+03
3.834597656840566287e+03
5.544742447250084297e+03
5.970529724884483585e+03
3.272882091507715813e+03
-3.760603787407917480e+02
-5.643709050681600274e+03
-7.011443111924470941e+03
-6.754968946009332285e+03
-6.581850188071719458e+03
-6.483936934494828165e+03
-5.667078360864511524e+03
-5.419067420208731164e+03
-6.997480006906143899e+03
-8.118505892030382711e+03
-7.510127407077864518e+03
-6.383533910641521288e+03
-7.272650576826111319e+03
-7.948605570338808320e+03
-7.117696452773443525e+03
-2.796977223618652260e+03
-4.320303560443122478e+03
-4.037761642311926607e+03
-1.864761103432930440e+03
-1.393895826556539305e+03
-5.499659664908885048e+01
1.568675810516850788e+03
1.609722226194892528e+03
4.873683001383645887e+02
-9.017121238474318261e+02
-2.492309101129816099e+03
-2.849645644943692332e+03
-1.469698093290911629e+03
-5.344392789334840472e+02
5.699452621498799090e+02
2.277635666393154224e+03
1.609917650219517100e+03
6.328979398656223339e+02
2.815163924846533519e+02
-2.053509077943451473e+02
-1.056349790311112429e+03
-2.081778350488591514e+03
-7.498799330803423118e+02
7.177406905039161984e+02
1.795011350554525507e+03
1.664912722896687683e+03
2.036345886184073379e+03
2.909166045178737932e+03
2.184087131967754885e+03
1.499409923701257185e+03
1.304817626481905336e+03
1.124482179309988851e+03
1.409361039503746269e+03
1.924882883375277743e+03
2.065454340173153014e+03
2.982782411509415397e+03
3.516300589021866926e+03
4.479242299807922791e+03
3.400720575043685130e+03
2.266050586250901233e+03
1.673923383519840229e+02
-8.034254655430461298e+02
-5.222813343487941893e+02
-5.431150004874360775e+02
8.217733355191055011e+01
4.148239870402267115e+02
3.488370002218640025e+02
1.563873802978589822e+02
-2.443749889405292564e+01
1.557231161639017728e+03
1.699487055741251879e+03
1.887905132863729705e+03
1.437763807374115004e+03
5.924371897604094102e+02
6.079657663190749872e+02
-4.166343955168035791e+02
-9.512458463512535900e+02
-1.433465621421646119e+03
-8.017866860711711752e+02
3.042979363146502081e+00
-7.549705380702251887e+02
-1.181707619421320260e+03
-2.077052668080336844e+03
-3.008769650425034797e+03
-2.478087023802778276e+03
-2.086214282328972786e+03
-2.182042169479832410e+03
-2.257052944823516555e+03
-1.898342427585703035e+03
-1.066561394950134854e+03
-3.151647862709838250e+02
-6.775147126482290787e+02
-2.557462632161470083e+03
-3.823253500776042983e+03
-4.225281723371523185e+03
-4.104374678602824133e+03
-3.553586377189268205e+03
-2.202911699051190226e+03
-1.492167167808289378e+03
-1.681066488040846707e+03
-1.415630999926127288e+03
-6.394843708570573426e+02
8.096764151584385445e+02
6.940518140006208796e+02
3.747098589549461281e+02
-5.872471222435043501e+02
-1.258940993037768294e+03
-1.562175502927567550e+03
-1.674407943316622323e+03
-2.230158450347563758e+03
-2.206372816123326174e+03
-1.547019743321810211e+03
-1.825016217603972109e+03
-1.936326256631650949e+03
-1.729125711166112978e+03
-1.510229797034064404e+03
-4.472233713560690944e+02
1.069021035325060041e+02
1.476001957825243380e+03
1.486257205837592210e+03
2.235836801485525939e+03
1.904699398583501306e+03
8.889106771126504327e+02
-7.035746337521935345e+01
-4.123200218327502853e+02
-1.096127365712631217e+03
-1.793423309624780586e+03
-2.150847293605214873e+03
-2.541310439743157986e+03
-1.860815897593092359e+03
-6.794230754514204591e+02
-4.951591437668147364e+02
-2.704519361359023577e+01
-1.189238779169286744e+02
-9.081272447124233338e+01
-3.088845616744416134e+02
-1.063177689390722435e+03
-1.335463414807557001e+03
-1.052592203951952115e+03
-5.086262844761472479e+02
-1.164651262841349535e+03
-1.779808418632150506e+03
-1.819135786708100341e+03
-4.927833247379556383e+02
1.409202878609053641e+03
3.463606880601126704e+03
2.525894918038188734e+03
1.216153709632178106e+03
5.551264988052039371e+02
5.968343696966537237e+01
3.355485498698027413e+02
1.273790864499069812e+03
1.242201717017649571e+03
1.310270296596610478e+03
1.467027921909116913e+03
7.915483242676485816e+02
1.076835964790648177e+03
2.005659911901941769e+03
2.074717110045695790e+03
1.671017767438109104e+03
2.508292922090878164e+03
3.278207903118340710e+03
4.074585407209491223e+03
3.689283980458150381e+03
4.159365325027202744e+03
5.047711670033027985e+03
5.022330986662992473e+03
5.055065432782104835e+03
5.012707589884949812e+03
5.704704170100629199e+03
5.154896370231088440e+03
5.265093470995469943e+03
7.771140171347343312e+03
1.045476332698323677e+04
1.172488839464853845e+04
1.165234764899341462e+04
1.110667977069830704e+04
1.144176668960142160e+04
1.114621471364796525e+04
9.653163017802206014e+03
8.492534148980847021e+03
8.658484686168359985e+03
9.319677749954758838e+03
9.384433167968332782e+03
7.110397156516415635e+03
5.727105816883367879e+03
7.372371128861344005e+03
7.003015808223914973e+03
5.874616655694860128e+03
6.080803822899882107e+03
6.115132775903680340e+03
5.423241538153285546e+03
4.236739338740995663e+03
4.208332859717484098e+03
5.580566863612229099e+03
4.851980060116186905e+03
2.879370793446219977e+03
1.435493856492936402e+03
3.218114092793918189e+03
3.751024933227128713e+03
2.852675073523702395e+03
9.386342422231969067e+02
-1.331488566366683017e+03
-2.608169176237202009e+03
-2.939960401929177351e+03
-9.380642670942263521e+02
3.917265598701899762e+03
1.054276566897512748e+04
8.833093224174324860e+03
3.430879319099257827e+03
1.465977829186962026e+03
-7.647293582540540910e+02
-1.534643888006121699e+02
4.494479861681249531e+03
4.036889906504028659e+03
7.695334454232842063e+02
-7.207365224930221075e+02
-1.557958165229295673e+03
-4.144172916634858666e+03
-5.891408283313289758e+03
-4.286774737313226979e+03
-1.718310753851068512e+03
-6.471326176959072427e+02
-1.722348928236081065e+03
-3.998920191735869594e+03
-4.564739377267960663e+03
-3.058765644398995391e+03
6.029720605949131595e+02
3.934514249052467221e+03
1.969948832378043790e+03
3.043761563834810318e+02
5.020854308689604295e+03
9.225531604729761966e+03
1.026254698602063399e+04
9.844032278859374856e+03
6.839378032013451957e+03
3.435735043182862228e+03
9.611463402662569706e+02
-2.912226360489770286e+03
-6.838246058739339787e+03
-9.219740621637196455e+03
-8.992511870625914526e+03
-1.079348984277682393e+04
-1.428061526991888786e+04
-1.608855148463654950e+04
-1.960083011489281489e+04
-2.187214797834879937e+04
-1.599712365929953012e+04
-8.619407955596947431e+03
-2.886541365301869973e+03
-2.431113626814580584e+03
-5.797801646987468303e+03
-1.489429496252513127e+04
-2.235426344583009268e+04
-2.024142582460169797e+04
-1.211646175894026055e+04
-1.492862404426455441e+03
7.690706300493951858e+03
1.177452281287981168e+04
1.020700438224945356e+04
8.837652206041764657e+03
9.613176630232348543e+03
4.820136348745379109e+03
-5.297729011172052196e+03
-1.279798175022816213e+04
-1.623926907508631484e+04
-1.743211163615978876e+04
-1.621103234540848644e+04
-9.232456504923044122e+03
-7.679787939690839266e+03
-8.825407705927991628e+03
-7.948840766124423681e+03
-7.742542755276081152e+03
-8.473989881376593985e+03
-1.058270827393117906e+04
-1.544025780458927511e+04
-2.244315047733653410e+04
-2.466340897526227127e+04
-2.916137550903954252e+04
-2.666138121231750119e+04
-1.706503768364197094e+04
-1.650676905753528445e+03
1.605205931398892244e+04
2.015774212744398028e+04
1.438310630293998474e+04
2.676476652040017598e+03
-7.515635237240930110e+03
-1.018367775969866852e+04
-1.347123551470988423e+04
-1.600783914701248068e+04
-2.108593003398074870e+04
-2.425609725645478102e+04
-2.391991975114115121e+04
-2.015875872426150090e+04
-1.618317839179797011e+04
-1.224779678043198874e+04
-2.314097874666384087e+03
7.066430672860211416e+03
1.497626149646331214e+04
1.781358655792520221e+04
2.012282460473929314e+04
8.675458169364599598e+03
-7.895034760657956213e+03
-1.842045947551040081e+04
-2.121757786748817307e+04
-2.024091600631023175e+04
-1.064208924678824224e+04
4.033236705120063561e+03
2.280425840221577164e+04
3.833828061778846313e+04
3.615052848309203546e+04
2.753116758921222936e+04
2.284729451936321857e+04
2.044113478567034326e+04
1.751892806262998056e+04
1.760899250968715569e+04
1.828444952995792846e+04
1.669759799130569081e+04
1.471241412911894440e+04
1.214964962468228987e+04
1.089235147435965337e+04
1.036254803208257181e+04
7.079213816160133319e+03
5.728362050066492884e+03
5.264862831207148702e+03
5.407075281325395508e+02
-6.927241925440887826e+03
-9.874030495078261083e+03
-8.765820606530138321e+03
-2.203618947495915108e+03
3.796382259067404448e+03
6.694909708889203102e+03
7.798780560156428692e+03
6.827789748069794769e+03
8.992589114142485414e+03
1.168181882452613718e+04
1.410028022826939196e+04
1.581300316060744808e+04
1.807660917109015645e+04
2.152663491880014044e+04
2.007648805791881387e+04
1.295464954662024138e+04
5.273699609892090848e+03
1.322142259203388051e+02
2.936673646495199137e+03
1.071047486120663598e+04
1.230407711891789404e+04
6.475924627545196927e+03
-2.354531233379620517e+03
-7.014640986946485100e+03
-6.408071346062289194e+03
-3.857470443437219274e+03
-2.905413963244357092e+03
-4.122600375254121900e+03
-6.006794467742543020e+03
-5.817628604124116464e+03
-6.905713279374027479e+03
-7.192749107030347659e+03
-6.330467701888283045e+03
-3.701718173044074319e+03
-1.918185809894617478e+03
-2.148514277618287906e+03
-7.002420422979622344e+03
-1.168375277033404018e+04
-1.199632533492361654e+04
-7.856924694774570526e+03
-3.772309859808506644e+03
-7.023219423869820730e+02
2.763157493863435320e+03
5.318455021644690532e+03
4.531666847892027363e+03
4.343954366165061401e+03
7.832518581387487757e+03
1.157049056027470215e+04
1.248297789512164127e+04
1.337813676161386502e+04
1.568810165920354666e+04
1.697203310578101446e+04
1.786619413953182811e+04
1.966073964087384957e+04
1.765489992526848073e+04
1.195986701890986660e+04
9.009836139598757654e+03
9.579050441437240806e+03
1.079156015877358732e+04
1.170553546664623536e+04
1.184231138831118733e+04
1.129687548033803614e+04
1.025163278214424827e+04
1.087576942423519358e+04
1.026286713431123280e+04
7.278282214265999755e+03
3.603162084690099164e+03
2.430736131993305207e+03
3.634216769506168475e+03
5.528765903382754914e+03
7.273608246225569019e+03
6.952157263622168102e+03
6.758857971206260117e+03
4.747128708273886332e+03
1.963336571853480336e+03
-5.223202722997256387e+03
-9.294110487675105105e+03
-6.430589885987820708e+03
-5.575133283621275041e+03
-4.170287971646813276e+03
-6.408401444083875504e+03
-5.883083381486561848e+03
-4.948860779027626450e+03
-1.706891466193352699e+03
-3.667620940908824650e+03
-3.436301406776901786e+03
-2.428265769913771237e+03
-2.392760604827720272e+03
-4.389218124713759607e+03
-7.278816756147602973e+03
-1.002056761493854356e+04
-1.585890281002317533e+04
-1.315787732291467364e+04
-1.392569178930696035e+04
-1.432738711729295937e+04
-1.768209435165358809e+04
-1.913095225004990061e+04
-1.839589267488246696e+04
-1.784181651853551739e+04
-2.118868208970998239e+04
-2.138758187564410036e+04
-2.324628093927852024e+04
-2.469462611516587640e+04
-2.551678186452836962e+04
-2.677159161393945396e+04
-2.665381835363102437e+04
-2.803115183541356237e+04
-2.749626724968996496e+04
-3.011395676044574429e+04
-2.910788973965530749e+04
-3.426365846744868759e+04
-3.750592758310445060e+04
-4.104540511990716914e+04
-3.687380475619174831e+04
-3.436462632332704379e+04
-3.454409946193408541e+04
-3.360377645175856742e+04
-3.025155682413008981e+04
-2.579771163907321898e+04
-2.054253506343267509e+04
-1.718364966897072009e+04
-1.328241767631577932e+04
-1.013603719630669366e+04
-7.026930445327117923e+03
-3.975507187087213879e+03
-2.411102190767723187e+03
-1.329914129993666165e+02
2.246591461837686438e+03
5.827379240465910698e+03
1.211401248586491602e+04
1.716947774844435844e+04
2.145166593978469973e+04
2.491648984068989739e+04
2.707684060334435344e+04
2.727048804838929937e+04
2.879320727671452914e+04
3.037459315786734078e+04
3.136427624967621159e+04
3.144293914925416902e+04
3.061011552572678193e+04
3.066758563975594734e+04
3.236781779280762203e+04
3.449012777583516436e+04
3.524529726742157072e+04
3.411295924572555668e+04
3.163627566769109762e+04
2.858101461047945850e+04
2.611017575440918881e+04
2.461572759127620884e+04
2.344475591761829492e+04
2.227514707358308442e+04
2.128150840752906879e+04
1.893562985994888004e+04
1.577949534134932219e+04
1.312013862859966321e+04
1.175849092338304217e+04
1.095135093636007514e+04
9.437528116551047788e+03
7.239651947378755722e+03
5.676660932257705099e+03
5.226690849415645971e+03
4.502271515911789720e+03
2.881244444900489270e+03
9.693321124966929574e+02
-5.757340182090081271e+02
6.990291688917537840e+02
5.826784977680149495e+02
-4.760068792015371173e+02
-7.972834747371221056e+02
-9.622701607331422338e+02
-8.320927422292882056e+02
-6.050229470171879029e+02
-2.156247385825085416e+02
-9.700297119159924932e+02
-2.803389577546300188e+03
-4.352074167377690173e+03
-5.751336355949692006e+03
-6.657547170350522720e+03
-7.612836101807240084e+03
-7.841946006628610121e+03
-7.387236024287680266e+03
-6.471760496172459170e+03
-5.040764494960490993e+03
-3.654175996426966321e+03
-3.511426485184372268e+03
-3.216769150557201556e+03
-3.118339276989555401e+03
-2.972105125761479030e+03
-2.865795328995362070e+03
-2.988810867659699397e+03
-3.577343801872938002e+03
-4.610015772626342368e+03
-6.710705978677025087e+03
-8.791691048553620931e+03
-8.707110344234390141e+03
-8.931756077178331907e+03
-9.519617597239459428e+03
-1.072965281171479000e+04
-1.038593640112135654e+04
-9.238869598800869426e+03
-8.580954618065126851e+03
-8.315909128079023503e+03
-5.775847959175876895e+03
-1.652643348914929675e+03
6.348732019338551709e+02
2.316886829881282665e+03
5.671593934761152923e+03
6.685155481659562611e+03
3.590309549135554789e+03
3.487148628913183529e+03
3.793964178173502205e+03
4.676945524296221265e+03
4.579259648111925344e+03
5.891203258516077767e+03
9.167328331449607504e+03
9.070154932307175841e+03
8.231145875163239907e+03
7.099181103180830178e+03
5.459486863845727385e+03
5.073900118490506429e+03
5.419068164737185725e+03
5.296947743054116472e+03
5.442155708679355484e+03
5.578056478026422155e+03
4.802976257153540246e+03
3.313347681066135465e+03
2.223640710312697138e+03
1.419855261638376078e+03
7.103793719580540937e+02
-6.053115457227748948e+02
-1.356390830067078696e+03
-8.883873790544736266e+02
1.224076216084586974e+02
-2.758612867607542967e+02
-1.501891858786403873e+03
-2.684724087057877568e+03
-3.253222880242092288e+03
-2.923673331529772895e+03
-3.682245939626767267e+03
-3.408196818693108980e+03
-2.866245020129734257e+03
-3.302664943331125414e+03
-4.377390061320642417e+03
-5.383207882503445944e+03
-4.868790970310918965e+03
-4.008642627973643357e+03
-3.334571074692445109e+03
-1.152258116203618783e+03
9.908710310226315414e+02
5.942890430030603284e+02
-7.049489377595860162e+01
9.585257866060572951e+01
-1.633193083539294719e+02
-3.124030430737819302e+02
-1.884129241322616281e+03
-3.055213119098197240e+03
-3.013977116433531137e+03
-3.331800326350413798e+03
-4.035599930091786064e+03
-3.487051362509883802e+03
-3.595231323629137478e+03
-3.906815987409476747e+03
-5.030293218604851063e+03
-5.533164670015630691e+03
-7.439817568017686426e+03
-9.633854699059895211e+03
-1.039531527736519456e+04
-7.795894270361143754e+03
-4.523134988657802751e+03
-2.223768942231405163e+03
-2.346511251849845394e+03
-2.278550795085416212e+03
-1.827926560165652518e+03
-1.135967401497247920e+03
-7.322931409086576195e+02
-1.102051935792434051e+03
-1.095245722035900371e+03
-1.125003611501826526e+03
-2.202207599186604511e+03
-2.313001181218793590e+03
-3.263021729714786488e+03
-4.265169280410773354e+03
-4.201089693068474844e+03
-4.292071199879841515e+03
-4.731453661713878319e+03
-5.089568475861395200e+03
-5.348979635704502471e+03
-5.121981407680252232e+03
-4.315044661551403806e+03
-3.943611773309122782e+03
-4.260281842599716583e+03
-3.396353548168245197e+03
-2.548994809225065183e+03
-2.497171659427147461e+03
-2.642113447734906913e+03
-2.633482593315960457e+03
-2.673947276566867458e+03
-2.692902014383344977e+03
-2.945548588365741125e+03
-2.203260240124041502e+03
-2.352221647084562846e+03
-2.393478437842843960e+03
-1.969230174894137917e+03
-8.540400908510306408e+02
-6.750857970087405420e+02
5.786195503215528788e+02
3.169254927840369191e+02
7.655104141665071893e+02
1.479279659452899523e+03
1.086177899032995811e+03
1.076068130528146185e+03
1.688157220928492961e+03
2.025702175197936413e+03
2.957484166274549352e+03
2.168233043635128070e+03
4.108237800698934166e+02
1.129190094439877612e+03
-6.335739244777699923e+02
-1.415396348167035512e+03
-2.968203730040862865e+03
-8.600088452266402328e+02
3.232358328253094442e+03
6.212036468550586505e+03
8.322245903169958183e+03
1.001590732315570494e+04
1.044489280070018140e+04
9.701180301492653598e+03
8.138941469260744270e+03
6.961371152364391492e+03
6.325667980011460713e+03
6.558998188161327562e+03
6.251561803470917766e+03
5.480394875616855643e+03
5.920477425769719048e+03
5.850519653402989206e+03
5.205371226988227136e+03
6.012299445735709924e+03
5.337972426950101180e+03
3.697603306366713241e+03
3.973806543155626969e+03
3.225751130584469593e+03
3.657167692348338733e+03
2.888107531999185539e+03
3.544540970319130338e+03
2.809778169119006179e+03
1.863227530073547086e+03
2.970175072482436008e+03
2.222703663275204690e+03
2.916840634147082710e+03
3.032104015667839576e+03
2.789245143177463888e+03
2.637732690831190212e+03
1.772017130210898586e+03
1.013077922556088197e+03
1.430268101966403947e+03
1.971054088228543378e+03
1.313310993735070042e+03
1.178035244296562723e+03
2.212605786451455515e+03
2.130422508847637346e+03
2.766813679017476261e+03
3.093200144994791572e+03
3.354725332013292700e+03
4.078758040001452628e+03
4.909154134524876099e+03
5.611551467522069288e+03
5.980203048180685983e+03
6.105834135452020746e+03
6.302759472180858211e+03
5.457341201663538413e+03
4.771245108737113696e+03
5.480722356166670579e+03
6.396257193484766503e+03
5.160964067313180749e+03
4.423902531079837900e+03
4.682194702575027804e+03
3.552942336616697503e+03
2.590487440373339268e+03
3.188939374778243291e+03
2.290544613973783271e+03
1.341552520486344974e+03
1.821237549045258902e+03
6.169887988611174023e+02
-1.947023169635514705e+03
-5.105581105509009831e+03
-6.981557546638749045e+03
-7.165926584128689683e+03
-7.404478416244568507e+03
-7.484970103916611151e+03
-7.309143774098353788e+03
-7.109734855675691506e+03
-6.720326748547468014e+03
-6.811694579225268171e+03
-5.777557815735928671e+03
-3.216630990148160436e+03
1.156437469867488744e+03
1.598738628927025047e+02
-4.365974345976756013e+03
-4.818018940773713439e+03
-3.970230942678368137e+03
-1.271326704103672228e+03
9.221180681342685830e+02
-1.975548053575974336e+03
-2.980870372049942034e+03
-2.919549730065521544e+03
-2.660400272228086124e+03
-2.230256789508579914e+03
-2.145873298216847161e+03
-1.879906300285828365e+03
-1.395105556832929551e+03
-1.142346354357693144e+03
-2.062409264287975020e+03
-2.959169143109071683e+03
-2.588448905296226258e+03
-2.403924361683396000e+03
-3.832999418207456301e+02
4.865544903909543564e+02
-3.301124073555625273e+03
-3.882197293622579082e+02
2.588402830279605951e+03
2.306855789304209793e+03
2.932295276592298251e+03
4.101615840705590017e+03
4.147836482313405213e+03
4.038177673363262329e+03
3.241660671011610248e+03
3.020350226418741386e+03
3.712343898867938606e+03
3.382735007514232166e+03
3.122654940412608539e+03
2.749297449664638407e+03
3.156724959045056039e+03
2.704010315624427676e+03
3.002251721510249354e+03
2.720324899192601151e+03
1.472206333180786942e+03
1.228856947847802076e+03
1.824237260849547283e+03
1.275370986721997497e+03
6.151522023505207244e+02
5.885171528611753047e+02
4.355865491113887060e+02
4.493690057492818255e+02
6.678327546957526692e+02
5.719767331256069838e+02
-3.734031363601666698e+01
-2.021910686317353338e+02
9.145808206279951946e+01
1.115856784174084595e+02
-3.628205188224115432e+02
-4.498902998641957538e+02
-5.506316914594788159e+02
-5.038770575872363224e+02
-5.428470046660901289e+02
-1.164523974624201855e+03
-1.959077657876225885e+03
-2.192659122100844343e+03
-2.657468334405949918e+03
-3.630563396696972632e+03
-4.235214840360126800e+03
-3.972787330233634293e+03
-2.842218750200033355e+03
-2.255590832108361610e+03
-2.573283407166482448e+03
-1.567114254807992211e+03
-9.669158648003196959e+02
-1.002230233693008245e+03
-8.138194156304051603e+02
7.094976131879708703e+01
1.145405512901845213e+03
1.223382154596784176e+03
4.871758897727235080e+02
3.088247901202653338e+02
5.010692510751540567e+02
1.536067381736797586e+02
1.353758924526931366e+02
-3.648702699816667518e+02
-6.812872059928619137e+02
-4.648975818332839367e+02
-3.429187119270138737e+02
3.033804211005662523e+02
2.868701603451767710e+02
-1.055157004917639654e+02
9.418373382730533194e+01
2.417552495834716808e+02
3.798673504613842056e+02
7.004552803537601449e+02
5.314627446475639090e+02
8.266899163933921955e+02
6.958557779263303473e+02
8.308959341734054078e+02
5.327837174866439227e+02
-3.536749205245617418e+02
-6.296920658417442382e+02
-3.474951140304165733e+02
-3.322000143818965512e+02
-1.059056551379353095e+03
-1.241220983164348809e+03
-1.057863881986015940e+03
-1.343038510850935836e+03
-1.376897417106223656e+03
-1.426792972265375511e+03
-1.483933262685511181e+03
-1.863438032122753839e+03
-2.350557921990493014e+03
-2.697400872413662000e+03
-2.623082145051109364e+03
-2.274819228692877005e+03
-1.652768807474590176e+03
-1.136096734371549701e+03
-4.600664485775956791e+02
-1.037038674236430182e+02
-7.831559316488667264e+02
-2.955637344700203812e+03
-6.393249574188738734e+03
-7.150993713980563371e+03
-7.351096139702633991e+03
-7.163715303389515611e+03
-7.260026803930210008e+03
-7.255151747206889922e+03
-6.407223669910978970e+03
-1.546189983934337761e+03
-4.320604227235801318e+02
-7.698486918143420610e+01
7.756890127569151900e+02
8.007702857426810397e+02
8.601476398635646774e+02
1.050852484045776691e+03
1.029776934089888755e+03
1.308796747342455774e+03
1.475766077144425708e+03
1.401582372892011108e+03
1.564347635619444418e+03
1.750020688040930281e+03
1.967444116175427553e+03
1.748548062829466517e+03
1.995173539488504048e+03
1.541309271565139170e+03
1.048960441688438323e+03
1.595040676651624153e+03
1.326589439179972032e+03
1.256607013680961245e+03
1.208026221150119000e+03
1.271839894932862080e+03
1.014142477757459119e+03
1.276855516068203087e+03
8.588783705309608649e+02
9.281888949325384601e+02
1.585662318739799275e+03
1.801231349430542423e+03
2.229956054271178800e+03
1.887931000167943921e+03
1.701172064078978110e+03
1.021762956000706822e+03
1.050733914713532840e+03
7.631882123126157467e+02
1.043011839206207242e+03
4.524059814358139988e+02
3.624539838526867470e+02
-4.759038444114065669e+02
-1.587261532326880911e+02
-6.298803250029325085e+01
2.973755885085947170e+02
1.185581740089620979e+02
-3.734377153625536607e+02
-3.905596656628333108e+02
3.563597664205106526e+02
1.135525009743862029e+03
1.512042191089648441e+03
1.428955198486126392e+03
1.665193729920106762e+03
1.600938860685035252e+03
7.854693087622240455e+02
4.537496633084514883e+02
1.250557394346052007e+02
-3.256169237622985406e+02
2.919256489484407666e+02
1.558527397317021041e+03
1.193047410994387292e+03
1.234621705300683516e+03
1.185500302913805399e+03
7.448808562987934465e+02
-2.789391579353035695e+02
-2.537723598343049218e+02
-1.227505406166205148e+03
-1.368032689772926688e+03
-3.546263763757211109e+03
-7.212150621289323681e+03
-5.525442868944425754e+03
-4.109887448105061594e+03
-1.194465615271507204e+03
-3.925972480308272225e+03
-5.251174587009279094e+03
-4.231991561989464572e+03
2.629165561287295532e+02
-1.893163141596478226e+03
-2.025302291910807526e+03
-4.053934122774555249e+02
1.416548314144711640e+03
1.043739889507495718e+03
7.042030167547100064e+02
9.920855013788263932e+01
-1.870986823785333172e+03
-7.620309208727941950e+03
-8.567483585035648503e+03
-1.142951374397172367e+04
-1.165731115365998630e+04
-8.745614883567119250e+03
-6.249336062288864923e+03
-5.843331259169578516e+03
-1.703490866965774103e+03
6.561283672090686196e+03
6.549058001461884487e+03
5.536008681676139531e+03
3.540230619854403812e+03
2.737729299025997079e+03
2.817682696194415712e+03
4.219089085588957460e+03
5.455998510271182568e+03
6.493437195374609473e+03
3.655458246063298702e+03
1.301195351165724787e+03
1.744764899920259950e+03
1.176281805283753329e+03
1.892906950611414004e+03
2.727834264065428215e+03
3.788213348354498066e+03
3.934018099159417943e+03
4.489049310712037368e+03
4.258272397212963369e+03
4.220855065825630845e+03
4.377790260978508741e+03
4.411027297025034386e+03
4.546737125397948148e+03
3.958958852428905175e+03
2.916585831232962391e+03
2.016817017698552263e+03
1.627747788042798902e+03
1.720336687379488239e+03
1.631615051873151288e+03
1.427620184381214813e+03
1.216465233276708204e+03
1.820322830602317026e+03
1.890221732685031611e+03
1.968925286322373495e+03
1.987142083628772980e+03
1.148837935369933575e+03
2.010999034688552456e+02
-1.125568537547881665e+00
3.741269709328145723e+02
7.828244709348657580e+02
1.663726790099704431e+03
1.080590785578607893e+03
2.515868973493802514e+03
4.060867180650221144e+03
3.833890260774766830e+03
2.907383677124206770e+03
2.107465483483902972e+03
5.489489213810321644e+02
2.409283926958619304e+02
6.924138955808698483e+02
1.242252935623339454e+03
1.153304608223001878e+03
1.195456123504107836e+03
3.175582586367919248e+03
4.467523086231405614e+03
3.407079935379133076e+03
2.244200803831789472e+03
8.458355764316839895e+02
-5.731050475539419722e+02
-1.225722546771936550e+03
-1.388042906411691092e+03
-1.741230441866856609e+03
1.661757509018507051e+02
1.873168012228746420e+03
2.828366230629128040e+03
3.095790948762873541e+03
4.004339711596214329e+03
5.299571981788350058e+03
4.409271152307736884e+03
3.909423081072326113e+03
2.969909954743283834e+03
1.661580642695892720e+03
6.762364148014250986e+02
-3.023677068067432927e+01
3.981029615996142752e+02
1.676104732193732843e+03
1.963666292155558949e+03
2.678484574582049845e+03
4.353474922803014124e+03
4.595517687574165393e+03
4.011564247993758272e+03
3.213681184734913131e+03
2.385878005468330684e+03
2.455952180229286569e+03
2.069862759986364381e+03
1.214500882686277464e+03
9.744845624461718216e+02
1.400601590446540058e+03
1.776773744721520643e+03
2.889926188576157074e+03
2.875969267856025908e+03
2.229655861133435337e+03
2.032939485032129596e+03
1.574054351681308390e+03
4.298534939960302381e+01
-3.457501819172175146e+03
-4.850512241498791809e+03
-3.391207129295135019e+03
-4.047806374952815986e+03
-4.307495472816667643e+03
-4.098404419468380183e+03
