-1.997905965675470043e+03
-2.392358989781910168e+03
-2.684643725590979102e+03
-2.522793707899212677e+03
-2.231791948166025577e+03
-2.051692406904533527e+03
-1.878524327606457064e+03
-9.962468067295465062e+02
1.720412726888665134e+01
5.319220411326033400e+02
1.212902314939490225e+03
1.940188942190555053e+03
2.081873007579914429e+03
2.801888065377791918e+03
2.486157061723006336e+03
1.381669750481639539e+03
4.463996805226910851e+02
-4.624317661545147118e+00
-7.514490099589063448e+02
-1.478096297215274490e+03
-2.282691323296815426e+03
-2.095264893844127528e+03
-1.872868783004887064e+03
-1.771213479902216704e+03
-1.751015304018612824e+03
-1.912475952119451676e+03
-1.243493275759927883e+03
-4.632023011461211013e+02
6.934728098357238650e+02
1.419547594165362170e+03
1.681964350431076127e+03
1.824773310127900913e+03
2.042726843165836272e+03
1.653936411116925228e+03
1.201944370363468124e+03
8.401458506160429351e+02
7.356607532018848588e+02
4.927276186272229097e+02
-5.250921146299633619e+02
-1.484999903099427684e+03
-1.020835529179410059e+03
-6.896660567279199086e+02
-9.564612962779607415e+02
-1.263323040801601337e+03
-9.060577973998772450e+02
-1.434417883264059981e+02
3.702726640675368230e+02
1.317976762306039120e+02
1.500503223399021522e+02
2.554204684845104225e+02
1.019513270035628238e+03
1.973901833699429972e+03
2.740064449062953372e+03
3.472935171454783813e+03
3.533940385469357807e+03
2.843055576788602593e+03
1.865330407482048486e+03
1.028882147378647687e+03
2.644963750376686562e+02
-7.312657484351221910e+02
-1.191553047752781140e+03
-1.336269229101036899e+03
-1.150468494063134585e+03
-8.491077851434357626e+02
-9.372141163357143796e+02
-1.477848324711441364e+03
-1.327893409080191304e+03
-1.141335417035066484e+03
-7.222290630964336060e+02
3.054421220370305718e+02
1.226722863710019055e+03
1.795611565749014972e+03
2.618086774951922507e+03
2.387175393962951603e+03
2.019916407126787590e+03
1.806285278991996393e+03
1.713234035719117173e+03
1.405734850155927006e+03
7.367618126197654647e+02
-1.567321830003032517e+02
-9.448072739002523122e+02
-1.569447703631910372e+03
-2.035702877095949816e+03
-2.039568158610250293e+03
-3.065086336459311042e+03
-5.364312356552099118e+03
-3.826014391756196346e+03
-2.604092182565982512e+03
2.953237346240401280e+02
-1.567789611581741156e+03
-1.143301580952545464e+03
2.875823191564899389e+03
3.587573333534624453e+03
1.355994566844378824e+03
1.661000027595478059e+03
1.765591433784510400e+03
-1.152226484184813444e+03
1.524727126422988022e+02
-1.983618533102709023e+02
-5.937461238729471233e+02
-9.577155376973661305e+02
-3.579250739742974929e+03
-3.229311697294830992e+03
-3.233909460646729258e+03
-2.965068707599722529e+03
-2.395738376399761364e+03
-3.216929274206680020e+03
-1.756059998164728881e+02
-1.459721108439961199e+03
-1.227280581085396079e+03
1.693780130133060766e+03
1.473527852966109776e+03
3.549932713598122405e+02
2.436161043123594936e+03
2.590024961288715986e+03
2.404653691303297819e+03
1.513027735552302147e+03
1.034074807482790447e+03
4.028449204578616332e+02
-3.776620055541273473e+02
-1.132502999468389589e+03
-1.484657865859789354e+03
-1.696128060375854602e+03
-1.657910404925898547e+03
-9.619315597122218833e+02
-5.262071222905021841e+02
-4.226824966176481553e+02
-1.273747504487241855e+02
2.997072418097233140e+02
6.563566807708208728e+01
8.314930402996925523e+02
1.780365326076336487e+03
2.929274405249821939e+03
4.060196646430037163e+03
4.117145878536503005e+03
3.253154857102010283e+03
2.259250620284529759e+03
9.864172950571094134e+02
1.964608653948005923e+01
-1.218076390871921831e+03
-2.384652893294221030e+03
-3.429188405575449906e+03
-3.202721060878307071e+03
-2.092088716835707601e+03
-1.021012551704899806e+03
-5.427909058272620086e+02
-5.994220249406208723e+02
-4.917121496870716442e+02
1.184550292823875566e+02
7.071721576160612130e+02
1.279774232518806002e+03
1.152070757737963049e+03
8.317781782421604930e+02
1.169663505860390160e+03
1.552821092834816000e+03
2.758609889461287821e+03
3.393002237432638594e+03
2.994005279433829401e+03
2.401281576346688325e+03
1.218771046104561719e+03
-5.063406571348512557e+02
-1.194752731232116730e+03
-1.333679451246130157e+03
-1.853292673535325093e+03
-1.895560346834983648e+03
-1.658478644288442410e+03
-1.379075125741918328e+03
-8.773409957328341306e+02
-3.643172808387861892e+02
2.780568577349849875e+02
1.151861945108389591e+03
1.992117279759924713e+03
2.169850581898544533e+03
2.292048138668330012e+03
2.324711829039579698e+03
2.049833480570109714e+03
1.314425187096881018e+03
6.845362386629261664e+02
-3.198927403706455834e+02
-1.242905321236253030e+03
-1.703513159855727963e+03
-1.916693076880999570e+03
-1.558450381036313274e+03
-1.263809156874268410e+03
-1.541764296753865665e+03
-1.441266591773941627e+03
-1.152247825830457941e+03
-2.637401607729368607e+02
-1.218203969216286993e+02
1.795483407454119913e+02
9.583423183550872864e+02
1.877515853830866945e+03
2.203065452209804334e+03
2.089055467524672622e+03
1.590476934323178057e+03
1.259398804996920035e+03
4.968025057371142452e+02
-4.333524222439304481e+02
-5.771320162402702181e+02
-6.185881033017554955e+02
-1.018743887182108551e+03
-2.283621440017887380e+03
-1.553245262795408735e+03
-1.242637998087815959e+03
-2.566786940509738997e+03
-6.580717856135253896e+03
-8.975452076194747860e+03
-8.839013802504045088e+03
-7.958398035348847770e+03
-7.472587054141796216e+03
-6.334478265060961348e+03
-4.752058938343919181e+03
-2.317325032072693375e+03
1.510765083493557313e+03
4.582199299833881923e+03
5.045845069351061284e+03
3.851674267686211351e+03
2.268675959498385055e+03
8.478829978936241787e+02
2.702485969117637978e+02
-1.922681987584787748e+02
-4.417401261005891229e+02
-2.643081520039709176e+02
1.498465874172375933e+01
2.801285164443749522e+02
-6.945391548699163309e+00
-3.920342213983054336e+01
5.913566160353592522e+02
3.718286993657101789e+02
-1.758648383505500590e+02
1.000214181714346637e+03
3.239121188671085747e+03
5.042855704196233091e+03
5.575416480835392576e+03
5.205894087201548246e+03
4.892272985561045061e+03
3.953416470107407804e+03
2.917269537393565315e+03
2.143749269376786287e+03
1.145831660067297662e+03
5.845489960742739868e+02
4.158941896871352810e+02
1.937932187621912874e+02
4.326664582778624180e+01
1.722603225111126335e+02
2.927874312031062232e+02
5.347802052677881193e+02
6.012146947639369046e+02
6.911226820197840652e+02
1.437535737304955092e+03
2.860460365922833262e+03
3.249933693263754321e+03
3.310961384300984719e+03
3.429566993332941820e+03
3.609768709356360887e+03
3.744556269577929925e+03
3.600850542751059493e+03
2.826582214645928161e+03
2.680770960558220850e+03
1.752394664115364549e+03
1.345347158982008295e+03
8.286063306557283568e+02
3.292065055801083417e+02
-3.878204187999062924e+02
-1.029495227372100771e+03
-1.316788663154468850e+03
-8.566533281897410461e+02
5.984592263588680794e+01
1.645727000621964635e+03
3.169023121953225655e+03
3.755700744499031316e+03
3.894772792569870035e+03
3.691246376389110992e+03
3.609061877242353148e+03
3.437195470814762302e+03
3.345657535873632241e+03
1.560469428145760048e+03
-4.834536032904982790e+02
-4.126175233021718668e+03
-6.515314596294691000e+03
-6.584054014145461224e+03
-6.172526153791782235e+03
-5.828696296939321655e+03
-6.845480229425013022e+03
-6.801921140225935233e+03
-6.304036574881101842e+03
-6.667793143778503691e+03
-6.216155463765626337e+03
-5.790102382012275484e+03
-5.228602097545573088e+03
-3.603599698464287030e+03
-2.940102606009305873e+03
-1.312087461380259128e+03
1.168371541689548849e+03
-9.306960249277838102e+02
-9.625481674056302950e+01
2.711671357243769307e+03
-7.101520665130303200e+01
-5.544328723336288022e+03
-5.952196243078904445e+03
-5.410522884177363267e+03
-5.151403426484651391e+03
-5.489955738971834762e+03
-6.138099069010128915e+03
-6.279708812938832125e+03
-4.575779369622530794e+03
8.927281095732940912e+02
2.690753284959568646e+03
4.762943145877201800e+02
-3.795628257941241372e+03
-3.820932578950846619e+03
-3.672491261898051562e+03
-1.959261934478952526e+03
1.696831828386176767e+03
3.129909166764435213e+03
4.053066615012957755e+03
4.021281125293775858e+03
3.622466060946871039e+03
2.634510457388987106e+03
2.024290316937053603e+03
1.334827040468223458e+03
9.119561217113800922e+01
-1.084564946547737492e+02
4.138597730356682973e+02
5.172339042477159410e+02
5.686941929359319374e+02
1.125147575841685239e+03
2.070617063017690725e+03
2.868171580594287207e+03
3.604861240705147338e+03
4.209716478078116779e+03
4.556772913110248737e+03
4.924013736330047323e+03
4.934263266345331431e+03
4.375464022242168539e+03
3.911666191216739662e+03
3.078189677213240429e+03
2.095129905743634481e+03
1.388573758612711345e+03
7.814921115102090425e+02
-8.511509936809281953e+02
-4.237253871449652252e+03
-4.502600357133751459e+03
-3.195431314525355901e+03
-2.869717961571736851e+03
-3.269466038004111851e+03
-2.065168972034576200e+03
-4.008864573282588140e+02
4.291815427473595150e+02
2.031118456119494795e+03
3.039575956082823723e+03
3.815183713194104712e+03
4.625903512777631477e+03
4.787134845004262388e+03
4.332661365066470353e+03
3.770891051233294547e+03
3.064032592286025192e+03
2.161653076689739464e+03
1.278605390815008832e+03
6.376594628647284253e+02
7.211453624445453237e+00
-3.226815948288423215e+02
-5.819967334849616236e+02
-5.946290259235207714e+02
-4.058850430564471594e+02
-3.812707306549675081e+02
-2.963163752443546173e+01
8.987836884892237777e+02
1.479922965055238819e+03
1.798881920850103143e+03
2.195099771422352660e+03
2.784508532789596302e+03
3.155129139145993577e+03
3.071216658702009681e+03
3.236849319169185492e+03
3.013898195382638278e+03
2.287270466095305892e+03
1.576977376892589064e+03
7.730137491847777937e+02
-9.966360121194099975e+01
-5.160800910114872977e+02
-9.713583493394971811e+02
-1.167508486909049452e+03
-1.000490822554828355e+03
-1.050412489645396818e+03
-1.289333091076980054e+03
-9.881167370507503165e+02
-2.788505084494656394e+00
9.026346217250708150e+02
1.636109666620615599e+03
2.074560693594860822e+03
2.290080964788510755e+03
2.599701421034242685e+03
2.465416293195607068e+03
2.208392506040368517e+03
2.608625944112460274e+03
2.249093858571482087e+03
1.423728639972593783e+03
9.134993597262525782e+02
-1.376350042316948645e+02
-2.075784922562781048e+03
-5.238997477695761518e+03
-8.639227144978405704e+03
-9.847473053368283217e+03
-9.713860925945344206e+03
-7.898478797286915324e+03
-2.606219725378228759e+03
7.429160605036091738e+02
1.217954307601075925e+03
-1.911107713069235842e+03
-5.507325172476183070e+03
-5.017661805114108574e+03
-4.625230966661712955e+03
-3.751037897971626535e+03
-2.344013122203039075e+03
-3.593126017523311020e+03
-4.143349817903766052e+03
-2.194626831895938722e+03
-4.260776664557255913e+02
-4.687584356312565887e+02
-3.466230253421786642e+02
3.329127541558478498e+01
1.379825615766583553e+02
2.024460449186674964e+02
-2.743157384914530894e+02
-3.433089033716757399e+02
5.043168608861103763e+01
3.959000286473265078e+02
9.912287586068778182e+02
1.375529642462897527e+03
1.561762456266589425e+03
1.712866840983933116e+03
1.912885398572286022e+03
2.194856003992314072e+03
1.841712187514802963e+03
1.503452292181664689e+03
6.300922123730833846e+02
-1.024026025994554914e+02
-7.100561666865975212e+02
-1.513948040539672320e+03
-2.322039841318155595e+03
-2.636281397645024754e+03
-2.046683224054861512e+03
-1.030240555349904525e+03
-3.790242379289207406e+02
3.120476719440978286e+02
8.130300326049220985e+02
9.258947600540235499e+02
9.826428100331607993e+02
1.251312805467873659e+03
1.535960757933878313e+03
2.099671383219811105e+03
2.406459778535278019e+03
2.748376246471870672e+03
2.949422814321223086e+03
2.584569585928994911e+03
1.782822608592515053e+03
9.151132713583813256e+02
-1.382806490294808839e+02
-8.945820210882812944e+02
-7.928149362099843529e+02
-1.146822050211515034e+03
-1.684384859243410347e+03
-2.428772585486811295e+03
-2.988963572198477777e+03
-3.345742865626382809e+03
-2.900054917879841923e+03
-1.990928577583073775e+03
-1.312355368404816318e+03
-7.974130691685060128e+02
3.959546143140815389e+02
1.057453890564208677e+03
9.971480133507516257e+02
7.461592456370833588e+02
8.585675114915591166e+02
2.033416833220380340e+03
2.557676733661500293e+03
2.739406662496437548e+03
2.505527720085143301e+03
1.978910433661853176e+03
1.111508647418135297e+03
2.893426513988762849e+02
-3.585238913088977597e+02
-8.890675444337896351e+02
-5.693543100888409754e+02
-3.042779805739878611e+02
-4.037702322602883669e+02
-2.869077041810879791e+02
-1.480794025509694478e+01
3.735470753277242579e+02
1.907220162362580368e+03
3.484286952838546767e+03
3.627777102803005619e+03
3.443735949563533723e+03
2.751189436881168149e+03
1.859130669894461789e+03
1.085577042079216881e+03
4.085155004037775939e+02
-4.391083178277982597e+02
-6.333175844617524035e+02
-9.641219327438246864e+02
-1.222544971950423587e+03
-1.819652199779267221e+03
-2.347418680436888735e+03
-2.559819137786137617e+03
-2.325828961443202388e+03
-2.072501034192950101e+03
-1.495885310650201518e+03
-1.046912324360798266e+03
-7.005898794704174861e+02
1.350700346757891168e+02
1.319087411006076309e+03
1.657474379665409970e+03
1.395223934691144450e+03
1.393369253231294806e+03
1.245854638818706462e+03
1.436706870468325121e+02
-1.262213041900232156e+03
-2.523777737838709982e+03
-3.552068497423578265e+03
-4.144101821722456407e+03
-3.982920799194330357e+03
-3.367522424645977935e+03
-3.117962718261869213e+03
-2.236329702392214585e+03
-1.121694718690764830e+03
6.448970426112821315e+02
2.020530456941269676e+03
2.809224069950149442e+03
2.856007979471869476e+03
2.925870006496053065e+03
2.656809465020295193e+03
2.423788660190733481e+03
5.348348193692892210e+02
-1.849094112221464457e+03
7.422850674172300387e+02
1.286057984116996749e+03
-9.791216589793958747e+01
-1.690760757760935803e+03
-1.577545389323734753e+03
-1.827165451431134670e+03
-1.807746224519818725e+03
-1.638375461682802325e+03
-1.431934617656116188e+03
-1.090500740370732728e+03
-2.040362375584583390e+02
8.662863856408832817e+02
1.778383070394573451e+03
3.125403584930367742e+03
3.843271677213235307e+03
4.839472794138188874e+03
5.414724369007982204e+03
5.417789451255278436e+03
5.376965636865263150e+03
4.908583405225051138e+03
4.514291327364860081e+03
5.078738496029382986e+03
4.985792146868693635e+03
3.545392559811323281e+03
2.538525082917430154e+03
1.996206164398495048e+03
1.372381322418245645e+03
9.808573634723231862e+02
1.823455824874642985e+02
-7.067827924485653739e+02
-1.837561059883583994e+03
-2.249022718187956343e+03
-1.903534238922842633e+03
-2.141636545380113603e+03
-2.257407154030197489e+03
-1.103446957338031552e+03
1.341777430434892494e+03
3.350057385928529584e+03
4.799312752769576946e+03
5.049551949027459159e+03
3.659782113839609792e+03
2.093956324556315849e+03
4.540401429939205968e+02
-4.199879910000019549e+02
-1.293229318360599336e+03
-1.323717855020933484e+03
-8.944562678955651336e+02
-1.101455565540968109e+03
-1.170744610445261060e+03
-7.373576115481906754e+02
7.587340146001114363e+02
1.730536996691309014e+03
2.984055110249153131e+03
4.181328667919462532e+03
2.966337535455036232e+03
-4.887169549994768403e+01
-4.091227978481681930e+03
-5.424758426738032540e+03
-6.188390581024891617e+03
-6.218103800120199594e+03
-6.953908777372601435e+03
-8.259882739164724626e+03
-1.006296919471366709e+04
-1.145065159472931919e+04
-1.277728153811520133e+04
-1.428308029392773642e+04
-1.403800135804270758e+04
-1.180492877326767120e+04
-7.584974645036739275e+03
-4.031637888169615849e+02
6.978603610936216683e+03
7.744270117952603869e+03
5.835957824478941802e+03
2.558601573952057606e+03
2.271976190906264037e+02
-1.461184838524724455e+03
5.595384264941092169e+02
6.092441700782393127e+03
6.832564369087095656e+03
2.599931858902689328e+03
-3.222401337459599290e+03
-5.299414738580621815e+03
-6.815092449433904221e+03
-7.987452011707973725e+03
-9.611485039518578560e+03
-1.149417314482624897e+04
-1.136649767957547920e+04
-7.324434537414381339e+03
-2.115938542555124059e+03
7.709898052601423615e+02
4.830375073406228694e+03
5.803306975252509801e+03
4.345854011522115798e+03
2.514058179269741231e+03
3.079993175265811715e+03
5.415745365832132848e+03
6.406333438503858815e+03
6.154788704241645974e+03
6.020171407806130446e+03
6.305568034881658605e+03
6.367027382460646550e+03
6.592598585089904191e+03
6.204238230902639771e+03
5.682001332522791017e+03
5.545883965324715064e+03
4.317908466620162471e+03
2.340142728852432356e+03
1.272622053988057360e+03
9.653633147611431014e+02
1.002369293615779270e+03
1.174655295149291078e+03
8.032995175921505506e+02
8.373836699058319937e+02
3.469789873343885347e+02
-6.188765596997416196e+02
1.239367164101687138e+02
1.253425143383318300e+03
1.968519514075351026e+03
1.856262770620207675e+03
1.304772196060087936e+03
1.570324146353298147e+03
1.752947202564273539e+03
1.821746757723938344e+03
2.370822133285446853e+03
2.775356329998333877e+03
1.860299104027152680e+03
2.596708950885530953e+02
1.032902603996818556e+02
2.285973485770461764e+02
1.996739959225524501e+02
-9.447258247972238010e+00
-1.854640704245532845e+02
4.291696523848522702e+02
8.772251187873426943e+02
1.129743122030574114e+03
1.446657229244506425e+03
2.049053359612179520e+03
2.392085881302545658e+03
2.740485404343584833e+03
2.353445047748198249e+03
1.637700341839517932e+03
9.502486095112722069e+02
5.502795669894852182e+01
-7.150022545698620888e+02
-1.605821096287843147e+03
-2.316425457336845284e+03
-3.146787795251553234e+03
-4.422920311553126339e+03
-5.704855039760421278e+03
-5.238562204896445110e+03
-3.643061405482667851e+03
-2.236318467728921860e+03
-1.434321451770648537e+03
-2.080730106554812266e+02
1.211447949891540929e+03
1.941225886101181004e+03
2.140317005254005380e+03
2.388718470802046795e+03
2.475459351561566564e+03
2.363511607580214331e+03
1.657854250936991320e+03
1.255498358979314617e+03
7.254584234762204460e+02
1.835990628685842978e+02
-2.931926976329233980e+02
-1.227968508940859692e+03
-2.089747378952456529e+03
-2.319571299013719454e+03
-2.503440449585188162e+03
-2.505343364614876918e+03
-2.640279317209140117e+03
-2.681254441257232429e+03
-2.241274161208909391e+03
-1.601416016830533181e+03
-9.056339008235091796e+02
-6.329331705247566333e+02
-1.863417486051393439e+02
3.691597888844873978e+02
-6.104301740485615255e+02
7.698666876592577637e+02
1.288045343002990194e+03
1.084039274248972333e+03
9.097192486326438257e+02
-1.859292418771231326e+02
-4.895940720054733902e+03
-8.339341808484372450e+03
-8.847163885505375220e+03
-9.156424704947912687e+03
-9.215204807581174464e+03
-8.470621237797695358e+03
-7.291692292664974957e+03
-2.595360871466890330e+03
-8.747295268523948835e+02
-3.948070839520095205e+02
-2.126012461063853607e+02
1.169006556501147429e+02
7.256155415941179854e+02
1.552459749115447039e+03
3.322431507619959120e+03
4.456481652419618513e+03
4.370585525147167573e+03
3.637728944453555414e+03
2.922879810156257008e+03
2.166013070432466520e+03
1.644078563988858377e+03
7.140279870205298494e+02
2.875558019384587283e+01
-4.737637256490980349e+02
-3.025428274765866945e+02
-1.956234388319270181e+02
1.989791121615554630e+02
4.062183202901431400e+02
6.579893246539679694e+02
1.274237269414518323e+03
1.744060259414972734e+03
2.254478916872009904e+03
2.793485616334993665e+03
3.196087096573852705e+03
3.785304063473273345e+03
4.101080405341404003e+03
4.075417724501447992e+03
3.964205428584229139e+03
3.838426084685615933e+03
2.790035086991588742e+03
2.048021735532009188e+03
1.363376937900573012e+03
9.550516014891458099e+02
5.979511502879199725e+02
5.800722509050161761e+02
7.514097926644807330e+02
6.369351047820163103e+02
5.006496369689955941e+02
8.425276545330370936e+02
1.583540475410423369e+03
2.259731372897157144e+03
2.921123414278823020e+03
3.717702746952079451e+03
3.746483628266333653e+03
3.942543592600748525e+03
4.438915896640595747e+03
4.529573679878983057e+03
4.228493623807905351e+03
3.350670960301114064e+03
2.799020389918885030e+03
2.425446965231049489e+03
1.659962595092800484e+03
1.042498138781067155e+03
2.449958506257791839e+02
-2.865727410141210285e+01
-2.504057889066759799e+02
-2.281700646009435047e+02
-4.867817620543596568e+00
4.224786245560131874e+02
7.729308910848287724e+02
-2.944493866515853142e+02
-2.872511080187947300e+03
-4.420098106866591479e+03
-4.295621764235257615e+03
-3.484970352110243766e+03
-3.434998020819428348e+03
-3.787651240263906857e+03
-4.025029556343855802e+03
-4.707131924799286935e+03
-5.880008492391253640e+03
-6.218664912624957651e+03
-6.440104828857181019e+03
-5.656332861673292427e+03
-6.469370644123173406e+03
-6.809206006231763240e+03
-5.392861378342110584e+03
-2.810368735774641664e+03
-5.054630986833248244e+03
-2.182659417614872382e+03
1.650620562207482863e+03
-5.047227518448027581e+02
-4.461670090050351064e+03
-3.983139793338410527e+03
-3.200089718934998928e+03
-2.599544837435826594e+03
-2.473471898846236400e+03
-2.799734691702865803e+03
-3.065331221964643191e+03
-3.335302660851050859e+03
-3.773595653465655687e+03
-2.805205917017861339e+03
1.193897578169186545e+03
1.586752393499559957e+03
-1.391587449567222166e+03
-6.111107626907477425e+03
-4.917864158200388374e+03
-2.102776778744550029e+03
-3.968786807103582305e+03
-1.094389359689995267e+01
2.100668297752839408e+03
2.969028366402215852e+03
3.998178574080094222e+03
4.813246658584644138e+03
5.628428757896318530e+03
6.143774627826058349e+03
5.808293604530148514e+03
5.086981687324187988e+03
4.736929154201928213e+03
4.043086407378669264e+03
3.103338457086093058e+03
2.262747123214540352e+03
1.445345783992843735e+03
9.750970599261354437e+02
6.729070007233638080e+02
4.077850777062040493e+02
5.026683236836136075e+02
4.335718611659745534e+02
6.327456641288488299e+02
1.142449200206030127e+03
1.283849902860295970e+03
1.830797136640626377e+03
2.305287579147398901e+03
2.724248998563490659e+03
1.927744154122737655e+03
7.168382603420101873e+01
2.379450293466490166e+03
3.094122475118269449e+03
2.587468597542296720e+03
1.575661188368848116e+03
9.415528625530728277e+02
2.147302402268122421e+02
-3.735662448082804303e+02
-5.160682996316968456e+02
-5.940544601754917267e+02
5.012398932831510479e+02
6.227747186726979862e+02
6.416392113699856736e+02
7.031017838518098415e+02
8.721630758535965242e+02
1.498676094299458782e+03
2.116181257742971411e+03
2.401901629803056949e+03
2.903248730547540163e+03
3.476316185987989229e+03
3.843087394404519728e+03
3.821639059728085613e+03
3.459642624038236590e+03
3.040487286814477557e+03
2.552062320829238161e+03
1.621142671077243676e+03
9.972308792234272232e+02
5.042820835344195984e+02
-4.965228164586574735e+02
-1.210537134048922553e+03
-1.517523085775141226e+03
-1.524270460349835503e+03
-1.158692483740441958e+03
-4.999295284043020047e+02
3.178189995360074249e+02
7.746533420794262383e+02
9.226753845349239782e+02
1.585832990386990559e+03
2.232115476987132297e+03
2.875555711454449920e+03
2.817107500419250300e+03
2.798846249585728856e+03
2.338744903653945585e+03
1.904737023102014746e+03
1.530920823726830804e+03
7.213378686223128398e+02
-3.911081249674679583e+01
-5.974824306272660124e+02
-1.503829112955740129e+03
-2.086191313680755229e+03
-2.412522584339093100e+03
-2.556862317848408566e+03
-2.608102109357016616e+03
-1.994109540987883065e+03
-1.897041340887397382e+03
-2.604012682351897638e+03
-4.345046182817862245e+03
-6.182047350382877084e+03
-4.902974049544936861e+03
-4.227881902285068463e+03
-3.789770481076880060e+03
-4.428641648521197567e+03
-4.278557966376153672e+03
-3.415594894026460224e+03
-9.776251267965490115e+02
1.410424203004411993e+03
9.944021072796808767e+02
3.973119725530223150e+02
-2.994841014111306777e+03
-7.878133370567536076e+03
-8.092603002011122953e+03
-7.866333704016404226e+03
-7.257283646743176178e+03
-6.991379052918619891e+03
-4.682642371123150042e+03
-2.663096839351708695e+03
-3.694701971938936367e+03
7.355591255445082197e+02
2.809753391534734419e+03
3.531924592031050452e+03
3.661113978705553563e+03
3.521358490917165000e+03
3.340595158452469605e+03
3.079804250403265996e+03
2.426008633265276330e+03
1.759197686144017553e+03
9.903309110393302035e+02
4.884598976005395343e+02
-1.250197357608586124e+01
-2.306991628993322649e+02
-4.440958877933045414e+02
-7.007066362063723091e+02
-5.476017986777719670e+02
-3.277971803297240285e+02
1.507106252314463575e+02
7.699531629353748485e+02
1.358948879762902379e+03
1.809740086267888273e+03
2.234362881904538881e+03
2.745915247728341001e+03
3.640377288093681727e+03
3.489812359032740005e+03
3.011181258714328123e+03
2.674499165790541156e+03
2.107845848765030951e+03
1.321216531451981155e+03
5.814967050008890510e+02
-2.373728170706440039e+02
-9.983866161062566107e+02
-1.446494924238549402e+03
-1.659671305619705890e+03
-2.279967190993369059e+03
-2.208346252145074686e+03
-1.684827493453430861e+03
-1.112434972013243623e+03
-3.571428443444222580e+02
3.399857013625888271e+02
1.037101329526190284e+03
1.827409813118532156e+03
2.424871360866208761e+03
2.682315497112515459e+03
2.754538880042815435e+03
2.514938098959642502e+03
1.908974328879961377e+03
1.208653726065757610e+03
6.727683493133920365e+02
2.672241791974906846e+02
-7.099008995065989893e+02
-1.743762909809680650e+03
-1.726309922784662831e+03
-1.658737062285061938e+03
-1.514164632000426536e+03
-1.665561952721273656e+03
-1.427880315407946682e+03
-1.434126240918649501e+03
-7.452776279868419351e+02
1.496590616418827153e+02
8.145925944420432643e+02
1.344552379087409918e+03
1.890663047002545227e+03
2.045008971303356248e+03
2.196519256662094449e+03
2.157209960546560524e+03
1.875185910300149089e+03
1.412518438327071863e+03
9.771250022079107111e+02
3.239372414234082385e+02
-4.061222745273974510e+02
-8.730193641636603843e+02
-1.476809357050743984e+03
-1.763503328867285745e+03
-2.007077244891362398e+03
-1.863515758670742571e+03
-1.368774703756652116e+03
-1.175756038601691216e+03
-9.184759775125074839e+02
-1.703317888883090347e+01
5.955503728729356681e+02
1.368342130862017711e+03
1.710399476102660174e+03
2.033720547771363272e+03
2.153349130941036947e+03
1.986348561609070202e+03
1.888689962956981844e+03
1.620332676706013899e+03
7.072810948908988848e+02
-1.374876971945736273e+02
-5.400230180787513063e+02
-1.227339226765601779e+03
-1.869478630739150503e+03
-2.137473774828025853e+03
-2.019319055270172839e+03
-1.804985022491347991e+03
-1.719469405897678371e+03
-1.421780452271442300e+03
-8.929339975157648723e+02
-2.328868761914085610e+02
4.994015515892158987e+02
9.289402447365259832e+02
1.175814868797990812e+03
1.792045038728263989e+03
2.237577178522314625e+03
2.144383359681322872e+03
1.981449996679196374e+03
1.696790175551790526e+03
1.069367451936530870e+03
-2.377987474618968804e+02
-1.135751599576558647e+03
-1.550551753506284967e+03
-1.702229778757425720e+03
-2.307765433472205586e+03
-2.745308238090914074e+03
-2.592866188308174060e+03
-2.549326229964087815e+03
-1.560412651775423456e+03
-7.539421565924499191e+02
-9.806152490574058334e+01
3.881602348626889238e+02
9.418222552664797149e+02
1.753965439561936591e+03
2.211570013681937780e+03
2.155612734032390563e+03
2.005106353779584651e+03
1.645913549604033051e+03
1.124062191252276534e+03
6.964299798588316435e+02
5.680608826876659805e+02
-9.292183296697110961e+01
-8.876476143324855457e+02
-1.224594124072064915e+03
-1.596666005425423464e+03
-1.587796499667234457e+03
-1.513130343205375766e+03
-1.570664226651798572e+03
-1.395074121139391991e+03
-9.783883474168039811e+02
-6.369862706994668855e+01
5.470171120422750164e+02
1.189884310584920513e+03
1.809921500420294478e+03
1.942915337784163057e+03
2.275891257119189049e+03
2.532856019320619907e+03
2.328668181899426145e+03
1.912022388357924910e+03
1.242205684488999623e+03
8.386511526937008512e+02
9.224946974588824844e+00
-8.806535014815455042e+02
-1.429329061632889989e+03
-1.604452515502695633e+03
-1.388994676091451765e+03
-1.616037759718691632e+03
-1.783646993342220640e+03
-1.620865586895060687e+03
-9.497025425863247392e+02
-3.551174567141010812e+02
-3.571454988900566150e+02
-2.417346529941042377e+02
6.771562899905549102e+02
1.690502053720954791e+03
1.630314382791709249e+03
1.506659755441306061e+03
1.702539396870327664e+03
1.793861640979878302e+03
1.798556453353818370e+03
1.473652546677309147e+03
5.321519667554759963e+02
-4.209979739251947990e+02
-1.005803842040998461e+03
-8.922900332710103157e+02
-7.374974636441293114e+02
-6.403503982799713867e+02
-3.728827737860223124e+02
-4.970703752577453542e+02
-7.729034308908036337e+02
-3.524257233185973746e+03
-2.586022832402260519e+03
-2.595089409795718893e+02
-1.022615005154015535e+03
-9.328373526477244582e+01
7.955364508028590080e+02
-1.454151696971309548e+03
2.484685097803374447e+03
1.959073889132690510e+03
-4.249887968570876069e+02
1.337444813403132230e+03
-2.917543385737366179e+02
-3.533559369367020736e+03
-3.607922400368570379e+03
-3.600816541582457376e+03
-1.456326256748321157e+03
-2.764911855009383430e+02
-2.026722531876938049e+01
1.324249027607806966e+02
-1.626416289338580100e+03
-9.947577467804990192e+02
1.162451842997765880e+03
-7.767209761549420364e+02
1.661725847355136011e+03
2.551815087260622931e+03
2.639600602904592961e+03
7.441093806589564110e+02
5.433352386778614118e+02
1.669285143400639527e+03
4.389684946136880512e+02
-3.356129456261263613e+02
-1.022481337857316362e+03
-1.475635185007418158e+03
-1.476045462754924074e+03
-1.850724986392330038e+03
-1.811696771075602328e+03
-1.489946054652469684e+03
-1.683387996453405549e+03
-1.501005082294167551e+03
-8.927642205457801765e+02
-4.576561059360405466e+02
5.943476490218914705e+02
1.383283733062206466e+03
1.894281921048496315e+03
2.681390667949086037e+03
3.118550482622873005e+03
2.971809736553606399e+03
2.773222322325400910e+03
2.272854095768385378e+03
1.379752003183140005e+03
4.098507331777159379e+02
-8.668418422963524108e+02
-1.451316382562386707e+03
-8.726349086601344425e+02
-3.489271221488553465e+02
-4.860534682829675717e+02
-1.050741199047517739e+03
-1.112825806095208691e+03
-1.043198671538050348e+03
-7.440619773590611885e+02
-2.403782887106845010e+02
4.308788647677899917e+02
1.163078749060890232e+03
1.112124891429903755e+03
1.462576482633427531e+03
1.960126008719430956e+03
1.912062515344338181e+03
2.364950113584342489e+03
3.013555015342370098e+03
2.624859539304488408e+03
1.671801634139677162e+03
2.874642972723801790e+02
-8.251017678954511894e+02
-1.215899876952515569e+03
-1.823807082684641500e+03
-2.432317275668542152e+03
-2.735378712725521837e+03
-2.733521444446514579e+03
-2.565058768380079528e+03
-2.217001966072446976e+03
-1.302429883584117988e+03
-3.297521562144744234e+00
6.994047045791173787e+02
9.897612332874922458e+02
1.734792811580452053e+03
2.246550314634628194e+03
1.553994043357217151e+03
1.094118449017309786e+03
1.175925429864486205e+03
8.234237288032745710e+02
1.181532652715562563e+03
