1.085446981576626285e+03
6.751648731336940727e+02
8.587947829270785860e+02
7.594202418108859547e+02
4.610343574382912379e+02
2.516726262819719580e+02
4.273264902340839626e+02
4.790666215932499767e+02
8.219279909362335275e+02
7.179614353713026276e+02
8.182260052261606234e+02
1.270718822729344993e+03
1.364475122114600481e+03
1.146521102888475070e+03
5.759363125390974574e+02
6.427343756332888915e+02
8.748938707933855312e+02
7.234847324713114176e+02
4.166984190115323941e+02
5.187124636633337786e+02
2.946656156439952383e+02
2.774374969860115812e+02
1.098778711712048874e+02
1.348723916952898492e+02
-7.152654846815882195e+01
-1.876687387395845406e+02
2.043824694111727069e+01
2.502394279578325609e+02
7.181706703491478549e+01
-3.481398548849274903e+03
-1.831667376887296768e+03
3.218996749860918953e+02
5.490042205606491734e+02
7.501491866291391943e+02
7.812359584808622230e+02
5.732138305167600834e+01
-6.709922183695127273e+01
9.208376905007391144e+01
-1.896355493907074674e+02
1.657776360503109174e+02
1.436662800688084474e+01
-6.121591743825828758e+01
-1.759465084937336883e+02
-4.947963865286423015e+02
-7.297944053438936862e+02
-3.949188809874044637e+02
-3.650974200387523751e+02
-1.293284418442762274e+02
5.333841024377721141e+01
3.089242329629328765e+02
4.304477248053818812e+02
3.849117325786085075e+02
5.083640956589216557e+02
5.207735651008413242e+02
3.971711812281610605e+02
5.255315110629399555e+01
-8.008883991166830185e+01
6.922890117435758839e+02
6.766505609489960307e+02
1.809172088971843380e+02
-4.759001005952811170e+02
-6.528142626520540261e+02
-3.458496345445873885e+02
-2.998968185888543871e+02
-1.499772086448284654e+02
-1.611616358733398044e+02
8.521080075267155607e+00
-7.291950545316663579e+01
-3.634728077315201631e+02
-2.701615978956041317e+02
-1.098354998404929006e+01
4.010832583567401457e+02
4.590289038361020744e+02
7.877970156386094231e+02
4.883501725064132870e+02
2.706724507497640957e+02
1.797651484154206685e+02
1.936448341516784240e+02
3.722727929690631186e+02
3.625767041826703689e+02
1.115516097195404228e+02
3.901850567992938750e+02
2.344383626036182591e+02
1.783099515855301149e+02
1.777886205621618103e+02
7.775920220093058788e+01
-1.181780470477053768e+03
-3.762835039724738181e+03
-8.083413082086301074e+03
-1.019055158241465324e+04
-1.019025545025029169e+04
-7.931570128196927726e+03
-1.089502961252496107e+03
6.048914836055025717e+02
1.505658968573210586e+03
1.380585780735401841e+03
1.292493509520078987e+03
1.437490979803686969e+03
1.351882428431479866e+03
1.386688614689482392e+03
1.426568303761488323e+03
1.207498824346508854e+03
1.143311007875376390e+03
9.558159992772774558e+02
1.077077638022608426e+03
1.230296467578438524e+03
1.327588169555657714e+03
1.469126378429659326e+03
1.803026788961683224e+03
2.173476397592352441e+03
2.261365075524570784e+03
1.996497796412863408e+03
2.076261721163316906e+03
1.962835636426226074e+03
1.826377944710372731e+03
1.999475414785764769e+03
2.116063855001018055e+03
2.253847066035362332e+03
2.211303336312905230e+03
1.965209203168684326e+03
1.991184636551380663e+03
1.920682918735774365e+03
1.179609646496842515e+03
1.307482752828883577e+03
1.729191238939827599e+03
1.911187235780665105e+03
2.047509274959811592e+03
1.802129456349635802e+03
1.997153967744181955e+03
2.328734724493865087e+03
2.498396693852276258e+03
2.891039871864908491e+03
3.079622910435936319e+03
3.191078818382972258e+03
2.927190567463474054e+03
2.745197982109358691e+03
2.659419481178092610e+03
2.700432042396143970e+03
2.711193637843873603e+03
3.036608251956318327e+03
2.831281421681244410e+03
2.262558684830417860e+03
2.436126229943306043e+03
2.286715632270563219e+03
1.823993380297257318e+03
2.294910649706275763e+03
2.134431881653008077e+03
2.149556223041880003e+03
2.401270447191691801e+03
2.628570315237091563e+03
2.877373915579704317e+03
2.882693763484293868e+03
3.017524468039040585e+03
3.055901733726151633e+03
3.150828056412309252e+03
2.848257350857650181e+03
1.830176123009607863e+03
-1.169371247779384021e+03
-5.489384445945067455e+03
-8.223910749986800511e+03
-8.455936508678170867e+03
-8.355386854726826641e+03
-8.366335723138226967e+03
-8.038776196814416835e+03
-7.667669171420179737e+03
-7.267069586712104865e+03
-7.462920127737055736e+03
-7.384208509167730881e+03
-5.128884528197419058e+03
2.032054748616621964e+03
3.463680760829689007e+03
-1.161959288365052771e+03
-7.203834278350747809e+03
-6.649989766828704887e+03
-4.359429478287195707e+03
-6.611287960331640079e+02
-3.640051923935126979e+03
-6.696149427000502328e+03
-6.990398992123976313e+03
-6.899786365860015394e+03
-7.098236288998833516e+03
-6.815749742214387879e+03
-6.878261586295843699e+03
-6.489757872062466959e+03
-6.200226572773387488e+03
-6.148693806490797215e+03
-5.733042804973903912e+03
-4.521203315704233319e+03
-5.391868539148126729e+02
-4.328917385964310597e+03
-1.615355109337904196e+03
5.315397288616516107e+02
-4.427205611778945240e+03
-1.939474418167379781e+03
4.190790644870655342e+03
4.143602824363925720e+03
4.310007984405090610e+03
4.782138640681853758e+03
4.310019279326119431e+03
4.030584256478544376e+03
3.763834125178932027e+03
3.722815305359719332e+03
3.807609750936112960e+03
3.573311908177497116e+03
3.613939066360018387e+03
3.674523719622644876e+03
3.874119639240176184e+03
3.724832633307204560e+03
3.726693974447722667e+03
3.858702924155804794e+03
4.064921479346887736e+03
3.699421451573727154e+03
3.582313051656747120e+03
3.201596442862380172e+03
3.013191796921349123e+03
3.183223318727806145e+03
2.899663489265791213e+03
2.683688216045331046e+03
2.198843198683037372e+03
1.895660297090811810e+03
2.035822750938439185e+03
1.375734688386490916e+03
1.608953358647642517e+03
1.754353912020856569e+03
1.174698684064517238e+03
1.335838415217169768e+03
1.755304965056367337e+03
2.031757072220109421e+03
2.019590333896920356e+03
2.072439566403525532e+03
2.231667467118783406e+03
2.269029681995252758e+03
1.889631549334640340e+03
1.892985988077126194e+03
1.822266399798598286e+03
1.403397891385386174e+03
1.330703518323667367e+03
1.144874289437755579e+03
6.475599632956617597e+02
7.543794546569372415e+02
9.867557272370746659e+02
7.749611248347168839e+02
4.134646706050596094e+02
3.355390247805032686e+02
5.544341115684933357e+02
5.366870810393106694e+02
4.604955466917303397e+02
5.491587397947320142e+02
4.373355855666251273e+02
7.429896674569637298e+02
1.257016604254492677e+03
1.197395332253943252e+03
1.264106171189078623e+03
1.245161740989026839e+03
1.076502826997942293e+03
9.421085443079371089e+02
4.850103401914441861e+02
1.072577869587649957e+02
-1.211530796407352568e+02
1.097065084044621273e+02
8.884276329847557463e+01
2.052502349621266831e+02
6.587764056762536313e+01
-2.513091551865186943e+02
-3.543096790362677666e+02
-9.914108083591976595e+01
1.901706252622975910e+02
2.315614731794341310e+02
3.229743454424348670e+02
4.264591498670582155e+02
5.880164701600756416e+02
7.536211540174863330e+02
6.811890123713010325e+02
4.756622232363156968e+02
4.370894734336048373e+02
5.734496073686021873e+02
-1.963533985007141212e+02
-2.883457121386922495e+02
-4.035243655336110464e+02
-3.721936543883605736e+03
-8.700701356589157513e+03
-5.114826357252273738e+03
-2.043424610273313249e+02
-2.303282723016671298e+03
-4.001755555088810524e+03
-2.087475834706278306e+02
4.011342909710462550e+02
-1.723573001312803626e+03
-8.770029770598854157e+03
-9.755154772543775834e+03
-8.705988441257042723e+03
-8.491534079650409694e+03
-8.300778938307301360e+03
-4.760872378633877815e+03
-6.385899569751598392e+03
-6.855827502870306489e+03
-1.143710190670771681e+03
1.288383639692812721e+03
1.821382206986051187e+03
2.154269190117677226e+03
1.952046191241525776e+03
1.434681278385462974e+03
1.553083323475507314e+03
1.873241213342820174e+03
1.684169133059220030e+03
1.526807299977589309e+03
1.633038619466430873e+03
1.710832833741145805e+03
1.893217673257544448e+03
1.868202329213016128e+03
2.336694191503695492e+03
2.370590385898752629e+03
2.493922336956692106e+03
2.741645621005289286e+03
2.762624920720431419e+03
2.544915631748876422e+03
2.372506681562047561e+03
2.093404008709009304e+03
1.645548213776266039e+03
1.533861614716285203e+03
1.740351956314334302e+03
1.526980153049186356e+03
1.221725087198143001e+03
1.237541464512105222e+03
1.360478681979648172e+03
1.293535278322390468e+03
1.091642924650940131e+03
1.554783930880865682e+03
2.097942026070232259e+03
2.293143447959822879e+03
2.054347812656320002e+03
1.845551108304227455e+03
1.982737936042442243e+03
2.088888126999062933e+03
1.931995526593563454e+03
1.387066825834621795e+03
1.175100732139187585e+03
1.276104381416830165e+03
1.387017614555135651e+03
1.475842798356867661e+03
1.594599299928390337e+03
1.175156861948346432e+03
7.905051704201079019e+02
1.008718298441434399e+03
1.142354010101278163e+03
1.082744626012882009e+03
1.178769383490224527e+03
1.475254877577620846e+03
1.468332111878740761e+03
1.330372901657566445e+03
1.172436592655818004e+03
6.814641202260199861e+02
-1.941492204841741341e+03
-4.649375855842413330e+03
-2.432179981136423521e+03
1.175167650054658679e+03
1.442652871248608108e+03
2.146280237078166920e+03
4.250906309383395865e+02
-3.893977888366017851e+03
-7.960885728219299381e+03
-9.563605249379033921e+03
-9.368115319556907707e+03
-5.974366880680241593e+03
2.116547059014219485e+02
-2.912055544064816331e+03
-8.407455160896117377e+03
-2.872496868692192947e+03
-4.384142384581733495e+03
-2.821397775379607992e+03
1.997807275017458323e+03
2.308472410828056127e+03
2.334639574131000700e+03
-1.536614536906886769e+03
1.114731005777460723e+03
2.197713909137113205e+03
-1.604634222591804019e+03
5.216757026560885606e+02
2.448647371192763330e+03
-1.497608569409518395e+03
-7.279097545899178840e+03
-7.693805211259133102e+03
-7.765700778953567351e+03
-7.518744075122553113e+03
-4.739913841302076435e+03
1.243783182991779768e+03
2.475368703018263659e+03
2.707907729193476825e+03
2.855427009818343322e+03
2.374932533862088349e+03
-9.785144246014056080e+02
-1.613861083494383138e+03
3.218881363205809521e+03
3.520770483324117777e+03
3.400818325139157878e+03
2.632048038778822047e+03
-4.320540060919897769e+03
-7.735923725101512900e+03
-2.104005905873551001e+03
1.537180159483763873e+03
2.315558310899610206e+03
2.128307976730883183e+03
1.651710305595423051e+03
1.943517043023323595e+03
2.501688481076893368e+03
3.158300263948937754e+03
2.966361405184526120e+03
2.639874821803731720e+03
2.401820482893632288e+03
2.597236808204166209e+03
2.959178845445447678e+03
2.945665170595946620e+03
2.583606965587314789e+03
2.249917137662740515e+03
2.443197104663016944e+03
2.360671308840442634e+03
2.287334495118469931e+03
2.671934729662133122e+03
2.099127546591972077e+03
1.850398244990931971e+03
1.997250313009898719e+03
1.476977948725336091e+03
1.109493979562995946e+03
9.380947924669868598e+02
8.504595094642087361e+02
3.322079777857671843e+02
2.090927408706124311e+02
9.156140433472133964e+02
2.108992888231603501e+03
2.470237880266071897e+03
2.526108832388443261e+03
2.332752751455874204e+03
1.820822460863631477e+03
1.717534872403613463e+03
1.558390389711162470e+03
1.612756625880769889e+03
1.377724867044278426e+03
1.192362222133980595e+03
1.513501553749141522e+03
1.529583094487569269e+03
1.342083431677712269e+03
9.110575043455892228e+02
7.405083723494453807e+02
9.825826520295012187e+02
9.209529579353896906e+02
9.607350192562524853e+02
4.989908825122050757e+02
1.693525990050819985e+02
-2.882103105805272776e+02
-1.910626816586453742e+02
4.293630475314141108e+02
5.804218725612153094e+02
5.685419511768849361e+02
1.692655494147004219e+03
2.959987178390778354e+03
3.048491863957687201e+03
2.337097440393247325e+03
1.428794510086049286e+03
1.147522027893447103e+03
1.126213677188064594e+03
6.188386413683001592e+02
6.733726066126057503e+02
7.547838921685280411e+02
7.829740997727205922e+02
6.649485384840038478e+02
4.326843884672088052e+02
2.641414760498073520e+02
2.963161677132863474e+02
1.158268189968534898e+03
1.472956050751684415e+03
-1.235567338346522348e+02
-1.219323866984636425e+03
-3.748396883115362016e+03
-4.965772403686353755e+03
4.134474597880038118e+02
-8.474861483878942181e+01
-5.966399497639276888e+03
-8.363484408585663914e+03
-3.398898719761163193e+03
1.323345428110113744e+03
2.151827283483317785e+02
-6.363398992262153115e+03
-3.463391599290709564e+03
-3.793841128554041006e+03
-8.568050143625107467e+02
6.327262050717710054e+02
8.517406202762704197e+02
2.043231145658362948e+03
3.431752822681152679e+02
-5.392385326715007977e+03
-8.356451552657275897e+03
-6.045074597388652364e+03
-6.816223894048238435e+03
-3.553958211656539788e+03
-4.986254077479859916e+03
-7.166019506016792548e+03
-5.723286265397825446e+03
-7.193056363714475992e+03
-7.511319301473944506e+03
-4.715025685758840154e+03
-4.642139448624028773e+03
-8.720757447355701515e+03
-6.536951682496915964e+03
-2.866884268691892999e+02
1.247180943806371033e+03
2.459694753425378167e+03
3.332757066542068969e+03
3.668319224703983764e+03
3.433430663671751518e+03
3.696061555631807096e+03
3.311171328849590282e+03
2.683789064154409971e+03
2.483984364693370935e+03
2.527805452037430769e+03
2.678303124877829305e+03
2.706480181256710239e+03
2.781389138334494874e+03
2.790080862413941304e+03
2.370554623108024771e+03
2.078739941100043325e+03
1.936663142612948377e+03
2.250441343622524528e+03
2.172052761561667921e+03
1.750482738532249414e+03
1.251767313108529834e+03
1.429890946248450746e+03
1.728857973723669147e+03
1.675762415559199553e+03
1.491665209481063812e+03
1.119540214055195975e+03
1.426412078612410141e+03
1.781253390317599951e+03
1.795073384337307289e+03
1.577995372173139458e+03
2.099978286940625821e+03
2.454956847413065589e+03
1.941174934882408479e+03
1.459851045868265601e+03
1.028659301298305763e+03
9.695717012243834461e+02
-1.187634508694816127e+01
-9.476731579400453711e+02
-1.853054433234739804e+02
2.944428731021154135e+02
3.499279684264489561e+02
4.058067819569076278e+02
5.486072336605363944e+02
1.161195286733274315e+03
1.815600352368827771e+03
1.666904662829910421e+03
1.191886181657602947e+03
1.180122685975803961e+03
1.753047239754476095e+03
1.570295298696240934e+03
9.580609760985579442e+02
4.726428726584151718e+02
1.828879484827404553e+02
-4.108017825841404402e+01
-4.042631678577672574e+02
-7.428339985337296412e+02
-1.108231069562292532e+02
4.098821860847220933e+02
7.626427840543550474e+01
-3.466827621556137160e+02
-1.249218882276854998e+02
1.041565668183603066e+03
1.612875091863892749e+03
1.179853171550249272e+03
1.260517829171852782e+03
1.372917926602652187e+03
1.134063932825021084e+03
1.309872976992289750e+03
1.187346835408974584e+03
1.184431949793376134e+03
1.144123052529406095e+03
9.194857698658730669e+02
8.754817504915433801e+02
7.500974722374274961e+02
4.504102805205474738e+02
-5.963812932472079353e+01
2.787452257614503992e+01
1.009628642876951261e+02
-1.433653966841202987e+02
-2.400770796939368665e+02
-1.123063760657120440e+02
3.020375467606085635e+02
7.920534376617711132e+02
8.107311959769806435e+02
7.620523339943360952e+02
6.189697073267102496e+02
5.495718864768315370e+02
8.561599266062712559e+02
1.104647673403215094e+03
1.256834245606230297e+03
1.199909331151570996e+03
6.780331910390019630e+02
3.421471456658352395e+02
-2.021876109079529670e+03
-5.478271430987133499e+03
-1.056918797073787027e+04
-1.122880758555954162e+04
-1.039820980756502104e+04
-9.688363114746094652e+03
-9.368233707871382649e+03
-4.206785459704457026e+03
-2.590370079743149745e+02
9.680564773946017567e+02
9.774780726918276059e+02
4.812165447264733302e+02
4.424156136075085897e+02
5.151280196068208852e+02
1.152916728845702210e+03
1.624644409562172768e+03
2.033662506708988985e+03
2.545951384769230117e+03
2.120609016759568476e+03
1.646840523896529248e+03
1.443883340780270601e+03
1.215544983895412088e+03
1.248575522099839191e+03
1.213713375307237584e+03
9.936677384450116506e+02
1.079008772473079716e+03
1.217711522276233836e+03
1.104814791863369464e+03
8.028115086705067824e+02
7.804027760093476900e+02
2.312679812586848414e+02
4.173902228002137349e+01
4.468448466095509275e+02
8.839375365687319572e+02
1.353459327824832826e+03
1.691502441231074499e+03
1.789490435117850438e+03
1.390979507317458683e+03
1.149879127886184961e+03
1.201658734226077740e+03
1.444523258820906449e+03
1.573136505246798151e+03
1.873461141533202181e+03
1.668394792755547769e+03
1.347653209101647235e+03
1.034946506444988927e+03
1.027579094281752077e+03
1.307578466899872865e+03
1.169916690048287137e+03
1.414608477013201082e+03
1.627978880732846392e+03
1.343873225031258016e+03
1.480740303030665018e+03
1.571916175209594940e+03
1.611436360693559436e+03
1.695337450846654292e+03
1.164201619221349574e+03
1.003906028519723122e+03
7.386781245933551645e+02
-1.456477826513201080e+03
-2.467343105154493060e+03
1.118113190992629598e+03
1.126923682409697221e+03
4.380710497026589678e+02
6.914815367121134386e+02
9.311280246183854388e+02
1.129120085398405081e+03
6.064704879984145691e+02
4.331951278706259814e+02
7.192672370489621017e+02
1.250615050149603803e+03
-4.871972234938355939e+01
-4.241655734343557924e+03
-3.873126917220818996e+03
-2.842148723259931103e+03
-9.016684627574610431e+02
3.043383919029862454e+02
-2.859101231419036594e+03
1.040449128843130637e+02
-2.912310811255808403e+03
-2.288161603323210329e+03
-2.557205231837650899e+03
9.057360510354840244e+02
1.080655835245548360e+03
-1.332573451392442394e+03
-9.520903280481829825e+02
1.745978886772045598e+03
1.170575193248068217e+03
-2.574299094982766292e+03
-4.089541634400172825e+03
-1.278112997377104875e+03
-3.492774131959581041e+01
-2.596940391135888149e+03
6.748404045472930193e+02
-1.504542738844729911e+03
-2.320058429606548543e+03
-2.471664397933853706e+03
-4.304374128292836758e+03
-2.531831051410723319e+02
-1.846055699484743855e+03
-2.807950455458602391e+03
-3.928831752146617418e+03
-2.413711158820154651e+03
-3.800633984464561308e+03
4.074434085225346962e+02
-1.784448617187924583e+03
-2.433237492959112387e+03
-3.324884681811731753e+03
-3.382360224089160965e+03
-1.326664901055276459e+03
-2.359844390799321445e+03
-3.259859342552720136e+03
-4.897662949153382215e+03
-2.986351299878276677e+03
-1.972951874645149701e+03
-1.323408430242361646e+03
-3.866349070852551790e+02
4.494161333375729441e+02
1.019732028645571631e+03
1.229310839583249845e+03
1.743204847633647887e+03
2.296399196683836635e+03
2.071890817261064058e+03
1.768666215275242848e+03
1.484748330327237909e+03
9.791568061401072782e+02
6.818581553659490737e+02
7.658591190519891825e+02
7.381154878195553692e+02
1.524638459285958788e+03
2.151575789248702222e+03
2.876977763511704325e+03
3.591987662246668151e+03
3.268516159120017619e+03
2.507009122281680447e+03
1.259867508731924090e+03
6.444243252308682486e+02
5.934067601548226776e+02
1.506721613721956828e+03
1.877291202265878610e+03
1.461033694630441687e+03
2.002672176775816752e+03
2.577634644077524626e+03
2.571646408647883163e+03
2.551758461362032449e+03
2.558299807302038516e+03
2.730888774679147446e+03
2.613758142329541442e+03
2.633748652025008141e+03
3.109476597962099277e+03
2.944005042159712048e+03
2.758437453352374632e+03
2.010377427298318935e+03
1.234169759099607290e+03
1.127387452472878977e+03
1.148073598645138873e+03
1.321580492402418031e+03
1.161645587030028764e+03
1.379781627731655817e+03
2.404677111082529791e+03
2.609839048812219517e+03
1.495096457737337460e+03
3.644142541512044318e+02
1.169013231571491133e+03
2.430412309083697437e+03
3.039442802442783432e+03
3.343391292866203912e+03
3.733094505012972149e+03
3.787437982609481878e+03
2.993353207515381200e+03
1.996902823703769627e+03
1.513051939228539368e+03
9.107772524366372409e+02
6.060440929232480585e+02
8.282581493716024568e+01
4.501332414701583389e+02
1.158906355266738728e+03
1.975137211619422715e+03
1.421873697747441838e+03
5.290488151539755108e+02
9.846420907638170092e+02
1.388574951341337737e+03
1.510844811433019231e+03
1.651495141353079134e+03
1.357498161926998819e+03
7.467828584727117232e+02
1.105325104594973027e+03
2.181167151003272920e+03
2.588276790239584443e+03
2.939643376871244527e+03
2.796210236538328445e+03
2.606953067857416045e+03
2.686862384832979842e+03
2.473009486311941600e+03
8.042802537516863595e+02
-2.347345810429706944e+03
-6.773789142909578004e+03
-8.098043500950924681e+03
-7.825121572916188597e+03
-7.614087204066688173e+03
-7.701997571127267292e+03
-8.791555517961671285e+03
-1.043978737649389950e+04
-1.113690158570787753e+04
-9.797933199723025609e+03
-9.645865561180457007e+03
-9.410707884259405546e+03
-9.760524056670818027e+03
-9.279290384657431787e+03
-7.819981144915292134e+03
-3.308555362253912790e+03
-5.069037079277199155e+03
-5.097458524189501986e+03
-5.073752033987175309e+03
-2.639887518676507170e+03
-2.099836385366238119e+03
-4.116046576896952729e+02
1.065827780289132079e+03
8.975047413520487680e+02
3.324517462133063646e+02
5.106081312776644836e+02
2.900014613831373822e+02
4.562788640080606939e+01
1.164839259522530028e+02
5.045305064546413973e+02
2.079685842759725801e+03
2.395020187349352909e+03
2.556621190263870176e+03
3.541502912489665960e+03
5.123689207349941171e+03
5.703215831744940260e+03
6.162076853616699736e+03
5.957325732611616331e+03
5.429986347834955268e+03
5.430098186018207343e+03
5.198692578396808130e+03
5.123767209793599250e+03
5.745357817560733565e+03
5.581511825607368337e+03
4.628262114033028411e+03
3.837590228708955237e+03
2.805543357589234347e+03
1.854187840985450748e+03
-4.674295514990380980e+02
-1.809309659685591896e+03
-2.292451981402876299e+03
-3.481838754895289640e+03
-5.239470682731346642e+03
-7.742320522331996472e+03
-9.598335705047218653e+03
-7.770500461404360976e+03
-7.093785170967096747e+03
-8.775157496456831723e+03
-7.659572686598112341e+03
-3.606983075536566957e+03
1.037644592122084077e+03
5.548347097233291606e+03
7.603371470627544113e+03
8.338886502946312248e+03
7.636144719218549653e+03
5.859888352605602449e+03
4.153035657771613842e+03
2.959546543963911063e+03
2.572315457949999654e+03
1.828024538185228948e+03
1.692941790530801654e+03
1.547223176277480206e+03
1.062872045425913711e+03
-8.068872192099572516e+00
-1.155613943188692247e+03
-3.140743460387841878e+03
-4.911477850397628572e+03
-4.937797396359452250e+03
-4.284672054474889592e+03
-4.597096256404117412e+03
-5.529944948897582435e+03
-3.833149465489755585e+03
-2.067716918429023281e+03
-1.149633642005727324e+03
8.750803570513983232e+02
4.346471795662834666e+03
7.517540633245784193e+03
7.727273823401053050e+03
6.988711118834323315e+03
6.310856227180439419e+03
5.019750267159064606e+03
3.751383115091419313e+03
2.997837385575776807e+03
2.539115715344998080e+03
2.446180827169548593e+03
1.760005158960736708e+03
1.340591124751439793e+03
1.356960105973212876e+03
1.714168333518489590e+03
1.546257319870833726e+03
1.509221475356930114e+03
1.217044099101724441e+03
1.436708868661407450e+03
1.837249645053622544e+03
1.575619420795278756e+03
7.208594886933301495e+02
6.169777413954020631e+02
8.420076608894423771e+02
8.109183284910968723e+02
4.936414548274212848e+02
-3.177634926735183285e+02
-3.073408361700230103e+02
8.989204891818334886e+01
-4.800253629316010233e+02
-5.851280937093418970e+02
-5.834317723491748211e+02
-8.659305440751174956e+02
-8.546212439276430359e+02
-7.846748560243689496e+01
3.464796834775694947e+02
1.402136610369485368e+02
4.998659435522929471e+02
3.934404155770948819e+02
2.765170505683632314e+02
6.853211920640576409e+02
5.079079513873696783e+02
9.815295232497149414e+01
1.840137248468010398e+02
1.404717983856049841e+02
2.125814291782684506e+02
2.682735288392555617e+02
-5.965040018961911983e+02
-1.658858159422848530e+03
-2.491765985362166703e+03
-2.881969855140166601e+03
-3.257710110614304085e+03
-3.505727617129408372e+03
-3.729173994161435985e+03
-3.307080932085620589e+03
-3.679039741871663409e+03
-5.494571862605428578e+03
-7.620268798774191055e+03
-7.058402088224765066e+03
-3.965935315209559576e+03
-1.771985051398622488e+02
2.664021332688979783e+03
3.480057811739286990e+03
2.785774906116025250e+03
1.795497971925037973e+03
1.115115751719412856e+03
7.308327462451933343e+02
2.232071659173210776e+02
2.085524981185505737e+02
7.665304549256529754e+01
-1.579172248214282206e+02
-2.505817052591727645e+02
1.102781484343400642e+01
3.068222942158030833e+02
1.787759508502251720e+02
3.780067845580277321e+02
5.609744725016905704e+02
8.530634239196151611e+02
1.093211344662588090e+03
1.157421620780598005e+03
7.744499918341008424e+02
3.185409288918462494e+02
7.489424889054815182e+00
-2.417498260245179154e+02
-2.335984315777996301e+02
-3.056897260470012156e+02
-7.697473781771061851e+01
1.549968301215369060e+01
6.096007808320639043e+01
4.190620443144771912e+02
7.217649011387798055e+02
1.022714582665525768e+03
8.829693716101689915e+02
7.525071800350488047e+02
6.182578916093725638e+02
6.191787424532260502e+02
6.812638673207183047e+02
7.455040867379955216e+02
1.051856686059692493e+03
1.336267151167693328e+03
1.354823026966196494e+03
1.441498496428029966e+03
1.579290140428602626e+03
1.208211063013736066e+03
9.791956033330053515e+02
1.072192023064104887e+03
8.702306611916552583e+02
3.712574589460077163e+02
6.252413330754803837e+02
8.961257337494924968e+02
9.199292794354290663e+02
1.045723688474577784e+03
1.182545210298734219e+03
-8.054597872470544644e+02
-4.580368276394783607e+03
-1.893238612944660645e+03
1.776890959455027996e+03
-6.949600847330460738e+02
-5.447356477859967754e+02
1.717513942059380952e+03
-2.537240865171673249e+03
-2.988927087106704221e+03
4.774593242618554996e+02
-1.673101195366537240e+03
4.964121025275207444e+02
-2.241983704676119032e+03
-2.248265114599597382e+03
8.135357441711265665e+02
-2.185476987639673098e+03
-1.602759457788213240e+02
-1.879822746694253055e+03
-4.490262498136387421e+02
9.810824897118320678e+02
-2.327476832466953056e+03
1.284305333370990866e+03
2.174930426555428653e+02
-1.431904719575118861e+03
1.608050500713090514e+03
-1.958545958253182789e+03
2.054589245937270050e+02
-2.144888386323425493e+03
-1.410717600270304047e+03
-2.564073370150164010e+03
4.371164651643593402e+02
1.840907878601017956e+03
1.686346676828368118e+03
1.399460836345786447e+03
1.538349615450499641e+03
1.119085292717117454e+03
9.436995188111815196e+02
8.062793059507116595e+02
7.288414135652373034e+02
1.014475011493785814e+03
9.041564216014817248e+02
9.108841088651843165e+02
1.401648386754204694e+03
1.416593903779118818e+03
1.565800956867602054e+03
1.469255206557670363e+03
1.201976421213765207e+03
1.331003811190583519e+03
1.159357173368225403e+03
9.091650242147543395e+02
7.214695409600061566e+02
1.007229847337158844e+03
9.804352455217755278e+02
7.431732700990697822e+02
6.134521345123700939e+02
4.742887522623076961e+02
3.462040400732076506e+01
4.264152142469554860e+02
3.410547856934794027e+02
4.898332213839036342e+01
-1.229463098685038602e+01
4.053610822271619440e+01
-1.340708564673766467e+01
-5.400091435528811417e+02
-3.178224483260847137e+03
-2.357975285902558880e+03
3.487865944734687673e+02
7.512132645512137969e+02
4.333025217091127956e+02
3.488654976023544805e+02
2.829972173200583256e+02
-6.027213605497728821e+01
9.634264441903357579e+01
-1.745190215051680411e+02
-4.163219926910362005e+02
-6.680019758655298574e+02
-7.698012421998582795e+02
-7.847901447469470213e+02
-1.063376034339140460e+03
-1.125473919855282929e+03
-1.301188148714229101e+03
-1.360695910680087991e+03
-1.177006881382659913e+03
-7.850064646441994682e+02
-1.656502012582436976e+02
9.300099744948375928e+02
1.168012070104324494e+03
1.020353546926304602e+03
7.600168169075600417e+02
2.889381506817675813e+02
4.998695963805548814e+01
-3.637407063883334786e+02
-4.362641112472059035e+02
-4.046542562923796140e+02
-5.640125573392198248e+02
-7.102817840643499494e+02
-7.764440328075128264e+02
-7.334723991763004278e+02
-4.953448292596813758e+02
-3.351254930287399247e+02
-3.627807112124840501e+02
-3.673353381995465838e+02
-3.228791821352984357e+02
-5.363603555589445477e+02
-8.637182719988903727e+02
-9.929608914751512430e+02
-9.880884586834289394e+02
-5.931059835870894403e+02
-2.518962762601926215e+02
1.844433482397546982e+02
8.078623686545477085e+02
7.063849776079662206e+02
4.510220188044059455e+02
3.088428665183276962e+02
-4.520389131771293734e+01
-5.942513162204198096e+01
-4.680551398168746857e+01
1.138401210176819944e+02
3.322417456427289153e+02
1.504935598713339395e+01
-2.398836963196965542e+02
-1.246596211426656851e+02
-6.220030234759914123e+01
1.665368578550507834e+02
5.066263045339883888e+02
1.133099609629829274e+03
1.107970877752146180e+03
-1.127861271696804351e+03
-2.707440457676296319e+03
-1.210711723528015000e+03
2.851869530133146213e+02
6.531908475846695410e+02
6.992583273996636990e+02
5.904858104255768012e+02
4.788307019055456522e+02
3.993313989413986747e+02
1.769451275694917740e+02
6.515676142434863927e+00
-2.590276517135800418e+02
-2.006351343038696200e+02
3.306733982998995316e+02
7.735942396677775150e+02
1.121091626555897392e+03
1.226162508342483306e+03
1.666618029315611921e+03
1.692233195778258505e+03
1.579967301253708456e+03
1.845972786790243390e+03
1.703220971918145551e+03
1.598669049685362552e+03
1.352387131669160453e+03
1.342366732261030393e+03
1.467498992298613985e+03
1.609768506694123289e+03
1.377132464353667501e+03
1.119623288048131144e+03
9.152019067464922273e+02
1.124783659271651231e+03
1.264275198163705909e+03
1.334680106295182213e+03
1.391984440447625275e+03
1.409204168298322884e+03
1.792273879105429160e+03
1.808132971392375111e+03
1.836803232402786762e+03
1.758323160134259751e+03
2.063596493205146999e+03
2.324560812115007593e+03
2.060216211223699247e+03
2.184543297222467118e+03
2.209614761453957271e+03
2.094324180197903388e+03
2.033648489149212082e+03
2.002683950952133500e+03
1.830353031635387197e+03
1.782615462970591807e+03
1.980484441010247565e+03
2.158944926598814163e+03
2.132897103874492132e+03
2.007328665587095202e+03
1.402253729686826091e+03
1.779660255652908290e+03
1.987658366036032703e+03
2.273261506634961279e+03
2.813388555655577420e+03
2.970994242530186966e+03
2.895181077567646298e+03
2.837980615744995703e+03
2.993389051020188617e+03
2.787404854519586024e+03
2.620958577343885736e+03
1.557097029501331463e+03
-1.389054440551040898e+03
-5.260541252399401856e+03
-8.871393663423743419e+03
-8.447600766144152658e+03
-8.324114290725228784e+03
-8.685889382527659109e+03
-8.117019514798622367e+03
-7.732426003286398554e+03
-7.728945586770358204e+03
-7.551480336374957915e+03
-7.378209146200540999e+03
-6.874347047718562862e+03
-5.920995270617117967e+03
-2.668144190317178072e+03
2.903359015091012225e+03
3.785669046763137885e+03
3.058663999531877380e+02
-5.068010660210004062e+03
-1.595982125525504898e+03
