3.042842694517589734e+02
5.254005255908899699e+02
5.743853781534672862e+02
5.923273908936034786e+02
8.452454950800962479e+02
1.277162816733393811e+03
1.348027774024237260e+03
1.413892010772490266e+03
1.334788744398862491e+03
1.487704123308027192e+03
1.755656691471105660e+03
1.993652581421917375e+03
1.919696678102075339e+03
1.742817077958743084e+03
1.465023269618119912e+03
1.301343804539219946e+03
1.043813239843827205e+03
5.833614242986835734e+02
3.094294817635006822e+01
-1.123329629085682910e+02
5.157818729796563417e+01
1.480624007676455278e+02
4.820603347883647416e+02
6.225355299389216270e+02
8.045430782239448035e+02
1.271078444575978438e+03
1.066152348712007324e+03
9.497680525835231720e+02
7.379014670308700943e+02
1.358530453368844064e+03
1.613777821392815440e+03
2.087503727130550033e+03
1.784617108877527471e+03
1.636233522365863109e+03
1.388496867922596948e+03
1.697680680056683514e+03
1.371278005056602524e+03
8.854391179791448394e+02
2.580232919326124374e+02
1.199537893880333428e+02
-1.597863816546492899e+02
-1.112157338493896646e+02
9.239625991872283350e+01
3.211973433001094236e+02
7.149861198846056141e+02
1.114635063914044622e+03
1.353182500556159312e+03
1.537657044359024212e+03
1.635987109024671327e+03
1.650206515257321144e+03
1.563302960510004141e+03
1.670219722300724243e+03
1.586971244645366369e+03
1.489591286160213940e+03
1.427079891560319766e+03
1.296374805089536267e+03
1.035430712945173809e+03
4.482691020147899508e+02
-7.916584309807245745e+01
-1.488734116755211403e+02
-2.788879491888823168e+02
-9.027498001113491455e+01
3.689653888551241039e+02
6.848686970730651637e+02
7.664399745282071308e+02
1.368700629835601831e+03
1.330650905907745937e+03
1.281281351058977179e+03
1.553592335296881402e+03
1.601545579848783518e+03
1.796120296290627948e+03
1.821309623612348105e+03
1.689133910163967812e+03
1.451569650865586937e+03
1.558604218730493585e+03
1.350243920853792588e+03
1.181488362989185362e+03
5.672508305956177992e+02
-5.042904201875809633e+01
-6.876038947870093807e+02
-2.638294295691855041e+03
-5.990493400437893797e+03
-9.579173818380799275e+03
-9.715384014349912832e+03
-9.094091909841858069e+03
-8.413283788065102272e+03
-8.404945800998837512e+03
-8.265040255347455968e+03
-8.146578387009061771e+03
-7.659601588364696909e+03
-7.072092653528532537e+03
-5.801080006528040030e+03
-5.101747248142748504e+03
-3.191687350424987471e+03
3.961002948928957039e+02
1.943538984072274388e+03
2.092549228829330332e+03
1.371121759381569746e+03
8.382519238151912759e+02
4.959178159559974688e+02
6.841440184273354816e+02
6.459263049209683913e+02
6.862608329071366597e+02
9.941720803225457530e+02
1.132688258788617077e+03
1.461847848463657101e+03
1.905655770020622185e+03
2.052105143921221043e+03
2.314250589585830767e+03
1.908110364607524843e+03
1.919696357214275622e+03
2.269998256902340017e+03
2.232041715666811342e+03
1.906852414717326837e+03
1.772506728402491945e+03
1.730034353356575821e+03
1.385415339068577396e+03
6.036167156805902323e+02
2.466629677213142600e+02
1.562761610261340017e+01
4.464240887893534904e+00
1.621429978037406556e+02
1.787224983012061159e+02
3.452278595358293956e+02
4.796904143476875220e+02
7.151865187280740201e+02
1.007690504316971101e+03
9.612566410248672355e+02
6.009166082410384888e+02
8.007047856861962600e+02
1.075665012306051267e+03
1.312808910563071095e+03
1.257084391242167158e+03
1.127563522745892897e+03
1.278345406328714489e+03
1.359473203087303091e+03
1.015901992381787181e+03
2.376484999242994718e+02
-6.822316331923152575e+02
-7.577339931577969310e+02
-1.059887991737804214e+03
-7.576792004186612530e+02
-6.910568563333994234e+02
-4.869655083600524677e+02
-2.904095567094316266e+02
2.446304942840340004e+02
4.502530883737340446e+02
5.614480314531531349e+02
8.843645379634580195e+02
6.499826266580527090e+02
8.762229682160144648e+02
7.171285903605510157e+02
6.027013588642112154e+02
5.800204325312440687e+02
3.181403274003373554e+02
-2.879288440462674430e+02
-4.622241229500113491e+01
-2.547432607769943900e+02
-7.453911731953103299e+02
-1.214196586929019304e+03
-1.432205435436706466e+03
-1.157385346836132157e+03
-1.117718795085120519e+03
-8.311540560615441109e+02
-6.176831362331602122e+02
-2.842845376623116067e+02
-1.558887517848928610e+02
2.074789305430952595e+02
-8.715446574964205695e+01
-4.328173439899408095e+02
-6.184510673146247655e+02
1.592561887986156322e+01
3.733114611585062335e+02
4.897190541700095991e+02
4.261890667669973141e+02
-2.572645793294836949e+02
5.333007929058471319e+01
-1.800807406686764125e+02
-9.304717926465676783e+02
-1.504865464062549336e+03
-1.406312177546626117e+03
-1.132800069702496103e+03
-1.170365669681159488e+03
-8.409863677856657205e+02
-5.556359262145205093e+02
-2.103517132706293467e+02
3.189147402611130246e+02
2.941523974048282639e+02
2.963639828846722821e+02
2.635778623200554875e+02
1.377815449110595978e+02
2.549213692342487434e+02
3.709492422138065422e+02
4.119195772143634144e+02
4.387735184235938277e+02
2.274843356719152894e+02
-4.159737466511305115e+02
-3.275905923585688129e+02
-6.004280281221621181e+02
-1.519525307153277026e+03
-1.470910478985019154e+03
-1.487595037643812248e+03
-1.361659501703425349e+03
-6.391744841062208025e+02
-9.208362849088182145e+01
1.916157340239164739e+02
5.028692586835027782e+02
7.426787784176831337e+02
8.639997405708212455e+02
6.836714337587011414e+02
9.119597778938352803e+02
1.021706081941763387e+03
1.124502859793409698e+03
1.022382836125187055e+03
1.055785539030682912e+03
1.067778730199664551e+03
7.523156245326172211e+02
3.032671821583483620e+02
-2.823733313506898526e+02
-1.181602243366473431e+03
-2.403771979132561967e+02
-1.457011846299510580e+02
-5.097440257865326885e+02
-7.888155725080719094e+02
-4.967245028271703404e+02
1.295179750466556357e+02
6.809270700588376712e+02
1.256606636505430743e+03
1.226941663101215909e+03
1.237181071077365687e+03
1.369244569367106351e+03
1.793356598994113483e+03
1.867250869485518706e+03
1.866194770731950257e+03
1.880981949223741822e+03
1.939175371146664020e+03
1.529248102987721722e+03
8.286784782839632726e+02
4.707385575868576666e+02
1.803866607445172576e+02
-1.150639669977314838e+01
3.158826445992984873e+02
7.739076337699051464e+02
9.848672139379442569e+02
1.211105813524123732e+03
1.373456915886272100e+03
1.700191592619723679e+03
2.024401492028676330e+03
2.221917304049109134e+03
1.916217620966470349e+03
1.946330701423506298e+03
2.088234820744304216e+03
2.161856987270945410e+03
2.133171214759358918e+03
2.335182851055875744e+03
2.384852508268075326e+03
2.030181208213564787e+03
1.287042265408233561e+03
8.544290366309849105e+02
9.032805109663677285e+02
9.265694618977767050e+02
1.156258141004070012e+03
9.182699757890322871e+02
1.247639660219949064e+03
1.828383620073500424e+03
2.062481672562158110e+03
2.537904800018766309e+03
2.787664839435008162e+03
2.772716818345917545e+03
2.569084547654100334e+03
2.257777809218794118e+03
2.166743531334720046e+03
2.612997493862492774e+03
2.652532735509273152e+03
1.443357374005864131e+03
-1.230527016784154966e+03
-6.078131522821338876e+03
-8.345472506792184504e+03
-8.538551580063985966e+03
-8.811386869359190314e+03
-8.752977022292578113e+03
-8.700281884822861684e+03
-8.454382392186169454e+03
-7.610211333294332690e+03
-6.799818484322633594e+03
-7.035261237354380683e+03
-6.191053596050882334e+03
-6.021395807292630707e+03
-6.423377363637783674e+03
-5.882877127282999027e+03
-1.591891799964797428e+03
-3.351412027053239854e+03
-6.021469695070445596e+03
-5.761963414668410223e+03
-5.668857343627600130e+03
-5.829104263901464947e+03
-5.773681885006164521e+03
-5.846583243600351125e+03
-4.405783327561249280e+03
1.369740853094415570e+03
2.639010090467031660e+03
2.667050559178740514e+03
2.676868285991928133e+03
3.033553841348915739e+03
3.027149661231068876e+03
3.358718332488157557e+03
3.540381048145363366e+03
3.356202639380763685e+03
3.422212285067553239e+03
3.563452163106126591e+03
3.686007258649627602e+03
3.768923221074768662e+03
3.445223845297464322e+03
3.603976839244415260e+03
3.557253859130272758e+03
3.338096595393603366e+03
2.983552361540355832e+03
2.308695213742299529e+03
1.594553066109283918e+03
1.216170433525482849e+03
6.375618155023015561e+02
8.118142575286419742e+02
9.399722971656278787e+02
1.146107452959751527e+03
1.604254950493617798e+03
1.770515306783193182e+03
1.999984570229968313e+03
1.926672173592586205e+03
2.192698711905285563e+03
2.378174335903259816e+03
2.214169002209091104e+03
2.026700533055983897e+03
2.188841549370521079e+03
1.790669007239548137e+03
1.810277964331227395e+03
1.678717462925995960e+03
1.270026439711053627e+03
9.503965006489095231e+02
7.479922768958081178e+02
1.148784909489643837e+02
-4.219956951718818772e+01
-2.525578389905603416e+01
-1.440188197425306669e+02
-6.322184862085602219e+01
2.771489462320820962e+02
5.432002717570103414e+02
5.899120847771913532e+02
1.364354879992507108e+02
-3.447520966739770302e+03
-1.766802872577783774e+03
-2.370799801853622739e+02
2.552684954085902689e+02
1.690768381397120947e+02
4.364103733825691620e+02
6.023902901717317491e+02
4.570763621834360038e+02
3.014452394824927524e+02
2.274551735667690764e+02
-2.768547222415871829e+02
-9.124488763531753648e+02
-1.011346129341827464e+03
-9.435145203710571877e+02
-9.319596648734703876e+02
-1.142681264698294854e+03
-1.185658732549410388e+03
-8.768650473973312955e+02
-5.092145446933525932e+02
-4.567227162916070711e+02
-6.483801760176404514e+02
-8.391757740376034462e+02
-8.670724417977658049e+02
-6.460843889970760756e+02
-5.511960575116049768e+02
-6.533480624513016437e+02
-6.185617967990265242e+02
3.075887978513382137e+00
9.060586800771092442e+01
-2.789928606906274240e+02
-6.668015805226357315e+02
-1.155849857464164870e+03
-1.227191597640509144e+03
-1.019823450069832120e+03
-1.139743644100457686e+03
-1.127949875138901689e+03
-1.102460120474255064e+03
-4.622783491656902015e+02
1.557969456874530145e+01
4.180722885418713872e+02
-1.982358084856938873e+01
-2.271367919852846171e+02
-4.690032529478136070e+01
1.428365724614471048e+02
2.069987110271019617e+02
-9.044167845533634420e+01
5.839941129124348151e+01
4.206971813728744678e+02
2.165896451800363707e+02
-3.811798473245419245e+02
-4.647645034458633404e+02
-4.642228915347523071e+02
-8.715927802904750479e+02
-1.273913308521040562e+03
-8.293058815400765980e+02
-1.075807606304441151e+03
-3.614724705931592439e+02
9.860619043064288292e+01
1.974528234743742416e+02
3.300188520166244075e+02
2.892865276356248501e+02
6.161677488214864979e+02
7.946591049181380413e+02
7.927420829040499939e+02
1.424408742331471558e+02
1.666140508841704957e+02
7.551613249256338349e+02
9.479833156846154907e+02
5.139080742747285058e+02
2.207766266386544203e+02
-9.700036420747805721e+01
-2.922645664759558031e+02
-6.157054339165804322e+02
-6.523476332236837152e+02
-2.111365502800983052e+02
-3.221113352938419894e+01
2.204631605806789025e+02
4.227206141519747575e+02
9.036783890886058543e+02
1.268270960373578191e+03
1.477443680838581713e+03
1.617848911105499838e+03
1.903794492504064237e+03
2.157983804611651976e+03
2.237683975606720196e+03
2.353281260898868368e+03
2.511115734976778185e+03
2.428194160586796443e+03
2.351135878857271564e+03
2.212161340977270356e+03
1.728381408601567045e+03
1.328260971027574215e+03
9.130883611902700068e+02
5.607168099261003817e+02
5.848751688976758487e+02
6.227326427515594105e+02
8.129043165420022206e+02
1.373923897317672754e+03
1.972556577541112347e+03
2.293892587936244126e+03
2.281682092771179668e+03
2.784083117973171738e+03
2.671924334309948790e+03
2.450253492822485441e+03
2.527830801069988865e+03
2.891767620241673285e+03
3.087974985281768568e+03
2.766733517464857869e+03
2.658838960367614618e+03
2.615146488063247489e+03
2.587596480555873313e+03
1.964178866561912173e+03
1.560845545745914478e+03
1.307613915860551515e+03
1.231463143692727044e+03
1.416349422891252743e+03
1.331332565732446483e+03
-2.915761932612490455e+02
1.766615011058633399e+03
2.740864118745130327e+03
-1.615853408056472517e+03
-6.647561360559360764e+03
-7.109285622719288767e+03
-6.576042228961159708e+03
-5.938817268095710460e+03
-5.951585478844299359e+03
-5.492279058480951790e+03
-4.190850806330905471e+03
-2.949177943058283745e+03
-5.913437048489499830e+03
-6.071548989520400028e+03
-6.554505605025999103e+03
-6.560328319191764422e+03
-7.281966950148163960e+03
-6.606439713654792286e+03
-2.069730985574199622e+03
-3.024751137837641181e+03
-6.370436099188557819e+03
-5.806765049449177241e+03
-5.272671418010395428e+03
-5.260123520101549730e+03
-4.981115633057378545e+03
-4.720642065525577891e+03
-4.541581179234052797e+03
-4.019916517831359215e+03
-3.876565691114176843e+03
-4.030426811383897984e+03
-4.287493749383757859e+03
-4.437812824035253470e+03
-2.944368439580801351e+03
-4.067942126127436886e+00
-3.935755793115835786e+03
-5.999401776203633744e+03
-6.284980149633640394e+03
-6.121506300376910986e+03
-1.771999087840270931e+03
2.753619736362057665e+03
3.874474374547003208e+03
4.427619176670217712e+03
5.009076376856466595e+03
4.932942994623767845e+03
4.842253308683813884e+03
4.846020538720690638e+03
4.778282254097764962e+03
5.071161504836334643e+03
4.961856168746257936e+03
5.200521543707323872e+03
4.916137798440504412e+03
4.558555148338934487e+03
4.262777001610523257e+03
3.443796260559074199e+03
2.910730056078060898e+03
2.806687216026033639e+03
2.510651044018903121e+03
2.255696399259123154e+03
2.551833014357603133e+03
2.546102233566864015e+03
2.763614529696534646e+03
3.219481511393774326e+03
3.004760165678148041e+03
3.161444225288252255e+03
3.205625594199968873e+03
3.132447262840213625e+03
2.868935845175397390e+03
2.771245182997827214e+03
2.777489150190982855e+03
2.714941023162428792e+03
2.666591183009608358e+03
2.405541200826109161e+03
2.659783747896752175e+03
2.092333843452503061e+03
1.454298356660367972e+03
-2.565481084702800558e+02
-3.734144419730709160e+03
-3.233611837176612767e+02
5.807276054534679588e+02
4.872480296849719252e+02
9.553301757465192168e+02
1.365895295799792166e+03
1.485877506014502615e+03
1.419288907778180373e+03
1.672229587963506219e+03
1.776747309036315301e+03
1.811910940115713174e+03
2.148701457630353616e+03
1.958099900566934139e+03
1.895163653454374298e+03
1.819689559358679844e+03
1.548401242321460359e+03
1.266934792711678938e+03
4.889044421037431789e+02
7.116462733042212108e+01
-5.253314460266478818e+02
-1.139577267682601814e+03
-9.546094929105305482e+02
-6.264305661490094508e+02
-2.989644186739437828e+02
-2.352348302508951292e+02
2.777463312529739028e+02
8.439861511488960559e+02
1.023444272417703928e+03
1.238188613631599310e+03
1.254215945049204493e+03
9.644965734322561275e+02
8.890075854402751929e+02
9.447350284433663319e+02
9.567082164006166067e+02
1.183892275648103578e+03
7.802617218958744161e+02
4.558342589596599055e+02
5.095038698163486401e+02
9.226547034218350518e+01
-8.588969701478308707e+02
-1.116040113309911703e+03
-1.153155028542599894e+03
-1.773304274139500876e+03
-1.877489890539171938e+03
-1.497759368411555670e+03
-1.055099811283344025e+03
-7.384946618402603917e+02
-5.219779856921618375e+02
5.386258941991006743e+00
5.996414013123877567e+02
1.057670649387402136e+03
1.184478057767879136e+03
1.467024240611147661e+03
1.067277291478834286e+03
-5.747816802691490921e+02
-3.805116122302224085e+03
-8.006794389678513653e+03
-9.944877218736886789e+03
-9.934408811757362855e+03
-1.027044266648092889e+04
-9.821042600712962667e+03
-9.699271495912043974e+03
-7.681150311261803836e+03
-8.928642179150481752e+03
-9.246486961518119642e+03
-3.573144141728319028e+03
4.253178826455463195e+02
1.092934675265677470e+03
1.072825014891117689e+03
1.267926994124718021e+03
1.980165704245425559e+03
2.228524060205281330e+03
2.129957040319145108e+03
1.975453070681402096e+03
2.049019401009952162e+03
1.909653597732607977e+03
1.780270551904387275e+03
1.548836693286192713e+03
1.253318171248662338e+03
6.937176643792668074e+02
3.549558473366685689e+02
2.099480906889704102e+02
6.061128502673836493e+01
3.268843184544650171e+02
3.447886755925754301e+02
4.663303611154636883e+02
5.315304136823701810e+02
9.253362770260613388e+02
1.945741167314251243e+03
2.357726680135061088e+03
2.035259811101881269e+03
2.419277119542055061e+03
3.002811907398682706e+03
2.986907285213113482e+03
2.630539935421515111e+03
1.830660204760085435e+03
1.130226592952106103e+03
7.211877190490914700e+02
6.965826940038572275e+02
3.983740980103613083e+02
-9.449610924777390153e+01
5.490454214329275828e+01
2.215378308494943269e+02
5.894136972241540207e+02
8.156532410165701776e+02
1.020273026145276049e+03
1.422217544387944372e+03
1.351492117566494926e+03
9.050997404373355266e+02
-1.461918472198979543e+03
-1.754596120564882540e+03
1.380042684626681194e+03
2.039028341150143888e+03
2.046403537916179403e+03
1.713110559365415156e+03
1.674185355731151503e+03
1.867682756327898005e+03
1.609610460294132963e+03
1.253909078763196931e+03
7.365798287460567053e+02
-1.964418416048360712e+02
-8.599960273466388117e+02
-1.088146058444627215e+03
-1.245899934787537632e+03
-1.901194495226105801e+03
-1.868022530286574693e+03
-1.554380220413422649e+03
-4.372060461985555548e+02
7.435938087691114333e+02
1.196998767100375971e+03
8.069362045564583923e+02
-1.445550507604282302e+03
-5.642374413184558762e+03
-3.559485983686528471e+03
2.193088529969079900e+03
7.583555620174955720e+02
-5.476193825832677931e+02
-2.938289255152806163e+02
-1.268347444617660585e+03
-7.721617560121837869e+02
-2.426235866537342645e+03
-2.113522185372404238e+03
-1.686074690066609264e+03
-3.885754388559986694e+01
-2.329811648973028241e+03
-1.008961252172316136e+02
-9.310961468949251412e+02
1.966590739021519312e+03
-1.409778602471085833e+03
-5.662063398505101759e+02
7.023455639412600249e+02
-2.476074656749835412e+03
-1.871489994975318950e+03
1.588119887582299953e+03
-1.385173328938550867e+03
2.146371550725835391e+02
8.925890556222765326e+02
-1.373327633021680640e+03
-8.081108807809990822e+02
-5.700792776543901709e+03
-3.555400986711447331e+03
-3.706924386980594591e+03
-2.141334211389373650e+03
-2.980605902057985077e+03
-1.180711404024605372e+03
-9.317016165117070159e+02
5.785465284383168409e+02
-8.429366291033846892e+02
-1.241156294340859631e+03
-1.914127812963905171e+03
1.304129821722349334e+03
1.924674811198712405e+03
1.931458898611374707e+03
1.320493927096076050e+03
8.568072750193740603e+02
6.234461793371797285e+02
8.003643142121704841e+02
7.445937184877358277e+02
3.111395554838285875e+02
7.659338462654193336e+02
1.547974948916963740e+03
2.170399212163541961e+03
2.891946802397621013e+03
3.413672522171535547e+03
3.769044431428844291e+03
3.587191751642810686e+03
3.199809785633437059e+03
2.790838205876437769e+03
2.082231064663805682e+03
1.733990268829954402e+03
1.477024789218876776e+03
2.162271546141827457e+03
2.334728188009352834e+03
2.653674743297134683e+03
2.331911910425790666e+03
1.277380556514994623e+03
9.558296538037295704e+02
4.095267250862338528e+02
-3.952601108654452560e+02
-3.699826129705390372e+02
-4.835836579218644147e+02
-7.878249270522514962e+02
-5.690503845044224818e+02
5.168127020996785603e+01
4.220401834100665894e+01
-5.600032158276829932e+02
-1.451661655604327166e+02
6.062097715563024991e+01
2.993056875604220863e+02
9.468660325695421989e+02
1.438290121217343312e+03
6.835474126868012945e+02
-7.373598843721179037e+02
-1.329629243951714443e+03
-2.774486240559601242e+02
6.016994801131020267e+02
1.448694772993042534e+03
1.538387843071901671e+03
8.547054506336104396e+02
4.162140556290744371e+02
8.018261946451666518e+02
6.907062457153396053e+02
3.908539627779190937e+02
7.562427039544347736e+02
8.546818893294038162e+02
2.236405725433437226e+02
-6.030326586769018604e+02
-8.564269865155166599e+02
3.704118804738456561e+02
2.808501627832931717e+03
5.049752338103387046e+03
5.446991885011743761e+03
5.201701548046945391e+03
4.256712572787287172e+03
3.418938144942520921e+03
3.805373840753058630e+03
3.692955252139948698e+03
3.584735393221371851e+03
3.180684225150504972e+03
2.323694246320917046e+03
1.780812114864764908e+03
1.688006839731908030e+03
1.431250850584471209e+03
4.285559061985758262e+02
3.949133732752543438e+02
1.325333988614703003e+03
5.848463496723047683e+02
-1.092479841938519940e+03
-5.933667484101525588e+03
-6.977740770267736480e+03
-7.105674425729143877e+03
-6.542481628421179266e+03
-6.151165473076021044e+03
-5.964765483083534491e+03
-4.399222640917129866e+03
-5.342521695033768992e+03
-5.940426525467491047e+03
-6.392807103359191387e+03
-7.197237530919488563e+03
-7.439555275517893278e+03
-6.937678993153286683e+03
-6.728643104512440914e+03
-2.734448934217808073e+03
-4.267042116876306864e+03
-6.818403754197809576e+03
-6.714541157226221003e+03
-5.952363213123951027e+03
-5.766871978564097844e+03
-5.768095059329225478e+03
-5.235962294952502816e+03
-5.738447710078408818e+03
-4.523520196165969537e+03
2.247838018356763769e+03
4.060645136000675393e+03
4.221992750428868021e+03
4.187877246614668366e+03
3.887347476814718448e+03
3.421469325345213747e+03
2.728205830020415760e+03
2.589571389709440609e+03
2.406572620381906290e+03
2.209242701787552505e+03
2.192550894423512545e+03
1.693472574787970871e+03
1.696095750696368214e+03
2.356486772471876066e+03
2.755702037688979090e+03
2.917805943992196717e+03
2.920852951194981870e+03
3.096854795836756693e+03
2.839833529837119841e+03
2.655798381626711489e+03
2.629828900350627009e+03
2.177918598553264019e+03
1.866083968743375408e+03
1.734414954583931831e+03
1.498000187274878272e+03
1.473840437242823327e+03
1.051960430954102094e+03
5.584015447624900617e+02
5.117572530867474967e+01
-1.672675887458382604e+01
1.767096759901759242e+02
2.925197126319678773e+02
3.557488557529961781e+02
8.704406802636748353e+02
7.196211967668666603e+02
8.853095287285334507e+02
6.186110981306361509e+02
2.995535057824597516e+02
1.751949538869686194e+02
4.546478659432014524e+02
7.689929995390594968e+02
1.001377492673944857e+03
1.025804066373752221e+03
1.040482989939255731e+03
1.029431266743537208e+03
6.396369904121831951e+02
1.601831067027490576e+02
-1.714581400434648728e+01
-7.016918495026439473e+01
-6.117860757456926422e+02
-1.469499600749786396e+03
-2.421951745005215798e+03
-1.996181533527839974e+03
-1.413347637174749707e+03
-1.306448761425747307e+03
-1.273565286055067872e+03
-1.458691471161271011e+03
-1.321713562497220892e+03
-1.133596831608238062e+03
-7.654029508988437556e+02
-5.570892354929162593e+02
-1.176455197773105397e+02
3.729552401509548076e+02
1.232716979514404329e+03
1.796660027820998948e+03
2.180797089023663830e+03
2.066137198118268316e+03
1.139655841166842720e+03
3.542911959934081096e+02
-2.499122398274975865e+02
-1.999487092509056936e+02
-2.398392542675453569e+02
-1.475905781211373267e+02
-2.012641652207813650e+02
-3.008178424559041559e+02
-2.991640609857009849e+02
-3.436428599133165562e+01
6.425341725762406213e+02
1.297601691053260538e+03
1.411872620597892137e+03
1.576333052146703267e+03
1.590925708354780909e+03
2.028658831810351558e+03
2.369494314550510353e+03
2.149433599588172001e+03
1.825507126682907483e+03
9.486316765108467735e+02
9.977482279393755960e+01
-1.121243734057761543e+02
8.196894657265535500e+01
-1.980188920777871786e+00
5.996292517796124599e+01
8.680764422703380490e+01
2.705992406231049472e+02
4.824999617904514935e+02
6.883529805031057549e+02
7.248344355822073339e+02
7.621242965515149308e+02
3.652180077285860875e+02
3.700886718208521415e+02
5.486706783693034595e+02
6.599389440546934793e+02
7.789045126931592904e+02
4.251752953882824926e+01
-8.581483391024263483e+02
3.988711542043282066e+01
-2.534430863326601582e+02
-8.901881767326379986e+02
-1.196384800499520679e+03
-1.261030648299308950e+03
-1.635223576848027051e+03
-1.658072162459664696e+03
-1.417510669272648784e+03
-1.002618752041688481e+03
-1.074420837486562050e+03
-1.152942458263989693e+03
-1.024163174141871878e+03
-3.694199890558528523e+02
-3.247112577984945005e+02
-4.083410180923883104e+02
-7.330994292691470093e+01
4.497731937453283990e+02
3.441293088523534607e+02
-1.094623107565935669e+02
-3.269374870247035005e+02
-2.081585083834110321e+02
-7.457794161693819888e+02
-1.245312111858831031e+03
-1.442902356749422097e+03
-1.452217425142102456e+03
-1.344150561603367350e+03
-1.451163634547414176e+03
-1.227698839083488110e+03
-1.221028789718888902e+03
-8.788566827410379574e+02
-2.970226839121983744e+02
-1.990221824274403843e+02
-1.693577525056197715e+02
1.525641079318894526e+02
3.624916668538188560e+02
7.937019786552598362e+02
9.184187779528645024e+02
1.263743418709051184e+03
1.043786693625933367e+03
3.446313138231312223e+02
-7.096260184597177556e+01
-1.742321870490959554e+02
-3.273834289609209804e+02
-6.439818671594289299e+02
-1.332081830559799073e+03
-1.238113556710951798e+03
-1.014129703810073124e+03
-6.305616622024518847e+02
-9.971101475876366749e+01
7.862406665437357844e+01
4.470849459586809758e+02
2.986416672455550270e+02
2.513628178270338651e+02
5.372675021816054368e+02
7.753338624694627015e+02
4.665199763283920333e+02
5.977891308691863514e+02
1.003140158874328563e+03
8.625941334709812054e+02
3.920840127322778130e+02
-1.874653524885119396e+02
-4.240446634496081515e+02
-6.436647780898239262e+02
-5.773354091520041038e+02
-6.650555541256185279e+02
-6.967791270962057979e+02
-2.794990173369387207e+02
9.280471590544897253e+01
1.771707169266526023e+02
-2.123776150701204415e+02
-1.717916771842459696e+02
4.138245158094409817e+02
4.795576023914255188e+02
6.583776604513722077e+02
-1.498203779237524884e+02
-4.137918758632065874e+03
-6.012545372438038612e+03
-2.577921804813357539e+03
7.789684812966577283e+02
5.580467454950156707e+02
7.423084301535827763e+02
3.437984930986603445e+02
-5.295125528385615326e+02
-4.271647748348233108e+03
-1.340531568243665333e+03
-4.201122797494583665e+02
-2.484538374590393062e+02
9.748894699899443594e+01
2.907569196942066583e+02
4.273282363027200290e+02
3.802241022387149201e+02
8.255673422851298255e+02
9.944423840927329366e+02
1.176819714387090698e+03
1.406604643374793113e+03
1.574791315743271298e+03
1.700351846683669464e+03
1.710388461319840189e+03
1.231995209862599268e+03
1.251179943966968949e+03
9.928576699265989873e+02
5.731269140283734487e+02
1.390057100979901463e+02
-3.651528551163070915e+03
-1.433448867072676649e+03
-4.336784905947079096e+02
-2.891524201802330367e+02
-8.189717093975971807e+01
2.510043602845706516e+02
-5.211490913102273526e-01
-3.281445866665085759e+03
-4.266463559795038805e+02
9.579376290263950295e+02
8.974063195497434435e+02
1.063770660617263275e+03
9.029724746866442047e+02
1.365044006245660739e+03
1.645994858313701798e+03
1.209866289869478805e+03
1.160722189208978534e+03
1.042603578423317686e+03
9.554885089851035218e+02
3.593996425065441827e+02
-6.656666531142472820e+01
-5.214422142809937668e+02
-8.092851394990655081e+02
-4.170358167979205177e+02
-1.146334305788356005e+02
9.211557744498501066e+00
4.254604104770371009e+02
7.283458264318446709e+02
7.277823058028002379e+02
6.618423813697901323e+02
3.665089054236170796e+02
-1.623361861605194179e+02
9.384403955349998796e+02
1.366874606372906328e+03
1.241932672616879699e+03
1.123745710991222268e+03
9.892551815080545339e+02
8.294540311891473721e+02
4.701556316606652217e+02
3.333175306582976987e+02
-9.732084060191287023e+00
-4.253326157883103065e+02
-8.385085573869989872e+00
1.581533366937642882e+02
6.829734160217894612e+01
8.706956098645687803e+01
2.734539097042508047e+02
5.996898799895785714e+02
6.578266773573817545e+02
5.429100604211773771e+02
6.431295359616788119e+02
5.735726649663523631e+02
4.592029762670232458e+02
6.880477391599588373e+02
8.961402721309359549e+02
1.217449357015880196e+03
1.416937305403489063e+03
1.497631655185476120e+03
1.315543205608587641e+03
4.866037791893398321e+02
-9.315670760731258326e+01
-2.507544257466424824e+02
-3.102877367679981262e+02
-3.307719005007721762e+02
1.338560962591244561e+02
5.535927793477835621e+02
8.774172864194566728e+02
1.208381154004440759e+03
1.550470590795206135e+03
1.366648933508797654e+03
1.249947297456304341e+03
1.314324225618352784e+03
1.371759528802414934e+03
1.563250581240409929e+03
1.881741437613021617e+03
1.635281510428074171e+03
1.474859454918716665e+03
1.221457679130303859e+03
8.170177722156756772e+02
2.665282541782080443e+02
-3.230076468857433269e+02
-4.896143307133972939e+02
-5.903859910002012157e+02
-9.532697894252070228e+02
-6.752994954363737179e+02
-1.744288068913321865e+02
3.333969667995972230e+01
-2.639589916444097639e+02
-2.502397407507133266e+03
-5.950964294425927619e+03
-9.178738340281854107e+03
-8.754744030513584221e+03
-8.815087737247058612e+03
-8.546698192322553950e+03
-7.639457437601337915e+03
-7.501324651316789641e+03
-8.647196063141502236e+03
-8.155290237316267849e+03
-7.576670676357195589e+03
-2.306411288630557920e+03
5.479830577103974747e+02
9.381711745894459682e+02
1.472021815302120331e+03
1.457555035322721551e+03
8.907606979585519866e+02
1.224682986073227539e+03
1.853336323550689713e+03
1.810688547700743584e+03
1.948711495395524253e+03
2.083428589220192407e+03
2.338790999337615631e+03
2.446772743862146854e+03
2.344325642719775260e+03
2.426449790386744098e+03
2.747166651959323190e+03
2.702477519899576691e+03
2.191446268396935466e+03
1.920067918445579835e+03
1.784393281946762045e+03
1.265353519448397719e+03
9.559404270677709974e+02
6.071674627318556077e+02
3.300156785639392183e+02
4.804753492818315976e+02
6.545513491465674178e+02
6.382827908223808890e+02
1.149666013428568931e+03
1.990687965533561055e+03
2.333378463584147539e+03
1.980749172408128516e+03
1.992813486947974070e+03
2.022536758512238066e+03
1.936904874503243491e+03
2.167999654901665963e+03
2.179877934238272701e+03
2.053550587911463481e+03
1.581079222706010569e+03
1.699425012185283776e+03
1.678555640120375529e+03
1.316486690024820518e+03
8.092106399155580903e+02
6.367855712963163342e+02
5.211919920011164322e+02
4.034002885474977234e+02
2.164473552040218181e+02
7.423939365097029395e+02
1.094296714327740119e+03
1.107208910684848433e+03
8.400908862853457322e+02
8.249782056398089480e+02
8.598511429632384306e+02
3.907603610200437174e+02
9.907792980456979421e+02
1.234941361990574933e+03
1.098128542106933764e+03
1.037461233209876127e+03
9.269804124074312313e+02
6.156731359699273298e+02
-4.047856722789191508e+01
-1.629501838695236756e+03
-1.092294186240111458e+03
-6.598271886103906354e+02
-5.611696688186385700e+02
-1.289310948354284619e+03
-4.003199288324934059e+03
-4.488208330050053974e+02
-3.164226134612914848e+03
-5.286279834382733497e+03
-4.049611144098723798e+02
-2.844290242022032089e+03
-6.272755092686518310e+02
-2.035913420256783184e+03
-8.061423795314530025e+02
6.850481977804455482e+02
-4.494377384585095569e+03
-3.294323807599335396e+03
-1.695818712042720790e+03
1.160196822331665317e+03
-2.664313112464982623e+03
