-2.765453305214747616e+03
-3.670559865620750315e+03
-3.777938435064872920e+03
-4.196636185010666850e+03
-4.894710667402636318e+03
-5.122271425607547826e+03
-4.921259898623525260e+03
-4.656548557654751676e+03
-3.446027307617680435e+03
3.543537760764295399e+02
4.219484558179269698e+03
2.891488449402595052e+03
-2.346599809742328034e+03
-3.141712729612337171e+03
-3.388745861896889551e+02
-1.672152292926102518e+03
-2.667496559234243250e+03
-2.027811589810139367e+03
1.574081970152643407e+03
2.974242229841516746e+03
2.413631282322197876e+03
1.375279451760773782e+03
9.491748181407859875e+02
1.025267244785597768e+03
1.225587560781206776e+03
8.919577192177586085e+02
5.134728391615471992e+02
6.922963087088428438e+02
1.204534907695038555e+03
1.551277012436442647e+03
1.805567621883539459e+03
1.623466441652174353e+03
1.338975686392485841e+03
1.623027719925182510e+03
2.036628829648171404e+03
2.516790478620043359e+03
2.231599866899292010e+03
2.486129059598890763e+03
3.397443273649888397e+03
3.337634129754170317e+03
2.980730826381610768e+03
2.316742727385392755e+03
1.782695300941837331e+03
1.833557854465477249e+03
1.792295515517014337e+03
1.140828849447962057e+03
5.232507227093238953e+02
6.779448155354569963e+02
8.521527209535903467e+02
1.290878541650625039e+03
1.366167415811231422e+03
9.400310979753700167e+02
2.085180220251375260e+02
-6.523022087436218044e+02
-1.013503439935656502e+03
-1.064129426274755360e+03
-1.178101250677717417e+03
-2.161462264488031906e+03
8.119149025564623798e+02
1.713219523523451699e+03
6.265371959318620156e+02
-6.672602080092927963e+02
-2.972300666751186213e+02
-3.271752678677283654e+01
-5.618961750701060964e+02
-8.962894816530681510e+02
-8.096757799903983823e+02
8.693162574044765734e+01
6.144165105420402142e+02
5.387578589764502794e+02
7.479053666337717914e+02
8.719460671563737151e+02
7.719125431902631362e+02
2.297265914965445575e+02
-1.762458828970570934e+01
2.387668828010845061e+02
4.059284968056559819e+02
3.519536387193941209e+02
6.060079965183808781e+02
9.901058898777624790e+02
1.111235664491329544e+03
1.007379298028148924e+03
1.224434528957669102e+02
-9.136559894085063434e+02
-1.055918037355875185e+03
-1.758247803874256306e+03
-2.282585313107443653e+03
-1.898874671046836511e+03
-9.031731645083966669e+02
8.144564784084472819e+01
1.178973059361260994e+03
1.678499673713796938e+03
1.353085391002876804e+03
4.247875591433484033e+02
-1.434665626757634698e+02
6.461910658734190065e+02
2.009811230180465600e+03
2.642480424219615998e+03
3.003212739451863399e+03
2.538952148952819243e+03
1.537662272701623579e+03
1.269371437468716294e+03
8.681217972606139028e+02
-2.981544990208492436e+02
-9.225427106621815483e+02
-1.028172377462327631e+03
-1.170983554639836029e+03
-1.408877083222725332e+03
-1.003842247575532951e+03
-6.196772977147220729e+01
8.587568891076510909e+02
9.154148078518265947e+02
3.679626554761844659e+02
-8.968617987530241464e+01
-1.691623263257170265e+03
-3.964862690183290852e+03
-4.652397291178482192e+03
-3.789168236715480816e+03
-2.573128527484999267e+03
5.576888301167703048e+02
1.493244382053927893e+03
1.223609670108487308e+03
1.320731249483348620e+03
1.133904996883547938e+02
-7.944218236189376512e+02
-1.381670372852980336e+03
-1.842563373407697554e+03
-1.855982842614251012e+03
-1.354839718063548162e+03
-8.272014219065918041e+02
-3.030939694950538410e+02
4.065176621113915871e+02
1.025644617324085402e+03
1.165248180863549123e+03
4.532946255091617331e+02
5.836889633546129517e+02
1.158402091573656662e+03
1.905461400595133682e+03
2.747922293947945946e+03
2.730848743836290851e+03
1.944194341267605068e+03
8.499190822300789705e+02
-2.606078606773504802e+01
-6.057818659963287473e+02
-1.020301260886684531e+03
-7.496977196556301806e+02
-9.630062443549096542e+02
-9.271632507452890195e+02
-9.381771285995743028e+02
-3.490456243301111954e+02
-1.557425769168816316e+02
1.877015402991770827e+02
1.073213196150748843e+02
-6.686530973064846251e+01
2.731308442275300763e+02
4.842574376620514158e+02
4.415650162388805811e+00
1.246010643258593689e+02
4.609737734644228340e+02
6.165869105479458767e+02
4.883914213247138036e+02
1.743836122979683978e+02
-4.644883582782592839e+02
-6.313317808572724061e+02
-2.661913267464878459e+02
-7.230227692748539994e+02
-1.072869396768305933e+03
-1.402646489665038416e+03
-1.197322190575410559e+03
-4.709694276906760706e+02
5.753555647883218853e+02
3.566593207763318105e+02
-4.229766267041164838e+02
-1.837540077989229985e+03
-3.149055574302738023e+03
-2.621581480246812134e+03
-9.081405891272718236e+02
1.486270415473132061e+03
3.241776121726422389e+03
3.763386313417539895e+03
2.992018545076900864e+03
1.490621955308038423e+03
-1.907363277425357353e+02
-1.085002818278137966e+03
-2.619234644010497959e+03
-4.378502482842362951e+03
-3.997770565973076373e+03
-3.537066663619460542e+03
-1.129382111779708339e+03
-1.122631274944643110e+03
8.218857609559309196e+01
4.861375411246798421e+02
-3.348291581745500594e+02
2.660236235814935753e+03
5.533443184525608558e+02
-5.996260546079772666e+02
-6.146737151290972179e+02
7.625139085286562022e+02
-7.297119146632712727e+01
-7.081312362229190285e+02
1.411035139267427667e+03
1.575468971166515075e+02
-1.768752173858270908e+03
-3.134955543521291474e+03
-1.898036764066759361e+03
-3.470142830803254583e+03
-2.718317352686912272e+03
-1.856399270017976278e+03
-5.583216084017662979e+02
1.530105192047954006e+03
3.929332323964762850e+02
2.326106292666233003e+03
1.004631899504890043e+03
1.532483303732005425e+03
-4.945782251585749378e+01
1.358708845481877006e+03
1.705851441223621578e+03
1.201028640399459846e+03
-7.416505972364382160e+02
-7.510374169537800526e+02
1.840865170015676995e+03
1.450937980199647427e+03
-2.258037991427436282e+02
7.497570532689281890e+02
1.906897386636693170e+02
-1.025038617602858039e+03
-1.409513856785304597e+03
-2.298861277177751390e+02
8.147461322698836739e+02
1.434426551862208498e+03
1.895146919534348626e+03
1.708936317576338297e+03
9.787766645865044666e+02
5.516415703447322585e+02
8.905840430900068441e+02
1.575934393972738405e+02
-4.532910727868934941e+02
2.910520887779561008e+02
2.046656298487215736e+03
3.137437327876955351e+03
3.151520709896459721e+03
2.349949902204571117e+03
1.868766530452527604e+03
1.494052045475862997e+03
9.017880891073663179e+02
2.187900664146100667e+02
-5.410628052074478092e+02
-9.487427432334792456e+02
-1.697243291895914808e+03
-1.029598801521883615e+03
-4.578207069270855527e+02
-5.317789620242148203e+02
-6.735111665790714142e+02
-8.810133530690534371e+02
-4.994035632710020423e+02
9.212290039453471309e+02
2.169938544866083703e+03
3.477661839964173851e+03
3.954498411357906662e+03
3.903442415226356843e+03
3.357554904696966787e+03
2.147953126540688118e+03
1.012552682815777757e+03
3.661256755591821843e+02
-1.243678350283862670e+02
-2.460051016705174618e+02
-6.529936722603903263e+02
-1.302023229196451837e+02
5.497584799084788756e+02
2.030002733667716939e+03
2.958125087680133674e+03
2.757977824074757336e+03
1.878496874736360724e+03
7.918582422157013525e+02
9.941888247878141556e+02
1.696942111844897909e+03
1.937022547199916517e+03
2.457548660799664503e+03
2.660635306356493857e+03
2.472253072750454976e+03
2.819294206282673258e+03
1.869721315698026046e+03
3.915603811519013107e+02
-8.542018532496015268e+02
-1.859651454618290700e+03
-2.271887664302908888e+03
-2.223947419569124122e+03
-1.533722034292936314e+03
-3.930360604839965504e+02
2.300688857993103511e+02
1.090515706115285866e+03
1.807376867828450031e+03
2.160620823983452738e+03
1.783194020609546897e+03
1.568135838659458386e+03
1.752475556032580243e+03
1.904296289854707084e+03
1.969410916758223266e+03
1.828681110583624559e+03
2.126070806645961056e+03
1.623507888695451811e+03
-6.279469968020542865e+02
-4.148248632833364354e+03
-5.912460800878587179e+03
-7.038617315140587380e+03
-7.316695227794597486e+03
-6.896746849878505600e+03
-6.783668990920476972e+03
-5.981252633271485138e+03
-4.509341999579494768e+03
-3.552932882371685082e+03
-3.833993435266816505e+03
-3.807567926322417861e+03
-4.341538879522168827e+03
-5.411697303258185457e+03
-4.678555490287116299e+03
-2.860103179780964638e+03
-2.280251159112219739e+03
1.856066096076843451e+03
2.154782581781165845e+03
-2.700121407867335165e+03
-4.446606530833781108e+03
-4.646707859491502859e+03
-4.051549582972533699e+03
-2.563368168110843271e+03
-2.540198072284113948e+02
-1.033697398761688646e+02
7.316589415287586462e+02
1.652346551703313253e+03
2.253003436537319885e+03
3.119495091999506712e+03
2.647527354353212104e+03
1.778049061271208302e+03
7.501867197941303402e+02
1.046076648491734886e+03
1.794611932756854912e+03
2.347823140242647241e+03
2.920725133871881553e+03
2.500192683220012441e+03
1.043335209052452228e+03
1.473548502603207453e+02
5.202894274344395171e+02
1.339157900984901289e+03
1.968850853183512982e+03
1.450227180170171096e+03
1.126202641677477079e+00
-1.562595343456263208e+03
-2.216931746043708699e+03
-1.839723004371253865e+03
-4.676620370340118171e+01
1.259102431878045081e+03
1.614901447832425902e+03
1.278607179600190648e+03
1.243218764645992678e+03
1.485775911856972016e+03
1.262294603274724750e+03
9.808408512829861365e+02
9.526099634651143333e+02
1.593698198525214593e+03
2.095092455641675770e+03
2.087827715955225358e+03
9.360221523654957991e+02
5.487414306894092988e+02
6.099687019589390502e+02
1.616271003645051394e+02
-6.794319912587983481e+02
-1.086324221617867806e+03
-4.760749680351428310e+02
6.375241845606241213e+02
1.675744007913270025e+03
1.772851928586786698e+03
1.338016864449064542e+03
5.439867081521321097e+02
-1.074957896297125046e+02
3.558398891167892657e+02
9.330298109803350144e+02
9.369592083384925445e+02
1.514815084092652341e+03
2.232507600735314099e+03
1.198086091504672595e+03
7.916113923769847815e+02
1.797128016912161002e+03
3.676899501302880253e+02
-3.807073350810160832e+02
-3.404738782246700879e+01
-5.453908815096533544e+02
-1.381745874032621714e+03
-1.549000892775651891e+03
-7.581951512878183621e+02
3.746488014156013833e+02
1.354639627885772143e+03
1.635925203000537977e+03
9.994422273967529691e+02
1.061090548623916732e+02
-1.162032756868813692e+02
5.992939405364580807e+02
1.325519584359492001e+03
1.434601245379619741e+03
8.726940279875636861e+02
8.319636567527002171e+02
1.165512676098491283e+03
1.008365537006286786e+03
2.895589309379153065e+02
-2.459000982884688256e+02
-6.670429177447596203e+02
-1.295933118451666132e+03
-1.900748610993208104e+03
-2.516553618511599780e+03
-2.384427904689423940e+03
-1.696355195205240989e+03
-7.943435352625399446e+02
-2.094069399179945208e+02
-8.484889670273585125e+02
-1.950519885585083330e+03
-1.940533919878260576e+03
-1.472613191511091145e+03
-9.778651301679714152e+02
-1.493141446657582208e+02
7.710146347019457380e+01
-5.415415382068523513e+02
-1.341245661139003232e+03
-1.349088720047972402e+03
-1.407023393322245511e+03
-4.660858720214331470e+02
2.427374007445809241e+02
-2.936928157355903295e+02
-1.332523114471722920e+03
-1.792868327398782640e+03
-1.475622340738651928e+03
-7.097182117796759258e+02
3.398742486572828625e+02
9.591781180834716451e+02
6.991087798951843979e+02
1.835000481008368638e+02
4.182583146177246363e+02
9.363246840270436451e+02
4.617288687306705697e+02
-3.774830032583657271e+02
-6.272778503633643368e+02
8.234106320677823021e+01
7.473342556037582654e+02
8.057668876720623530e+02
8.475895106339563654e+02
3.965992592143865636e+02
-4.202258600349599078e+02
-8.769157666267906279e+02
-1.232349425705217982e+03
-7.996772437152174007e+02
-4.348262588520527174e+02
-2.536935860355502541e+02
-2.266370269843316976e+02
-1.935296072909012310e+03
-4.188731742564742490e+03
-4.648049815063153801e+03
-3.726416321931480525e+03
-2.023651049739458813e+03
-1.138295988333101718e+02
2.038845609324432189e+03
2.839458260381848959e+03
2.621816763460384664e+03
2.533090596734137762e+03
8.221127984336602594e+02
-1.616913694218609862e+03
-3.409178880901858975e+03
-5.474749877647847825e+03
-5.174761072471889747e+03
-3.191376237283170667e+03
-1.225424140580503263e+03
1.204800145388387818e+03
3.637573220754319209e+03
5.039782473557477715e+03
5.127528680800874099e+03
3.601744974171202557e+03
1.373389748620944601e+03
1.582982072023501132e+02
7.324923606469374135e+02
1.091736540092260611e+03
-8.077840441824125861e+00
-1.285720379480238307e+03
-7.999960848799929636e+02
1.381953156268647490e+03
4.141969961748199239e+03
6.205015255403346600e+03
7.251957624417917941e+03
6.516907377247620389e+03
5.579627603123823974e+03
4.615964008126643421e+03
4.195854110507995756e+03
3.736324777945539608e+03
2.952519787809178979e+03
3.081392443636867029e+03
2.809856342788847542e+03
2.542032428386324682e+03
3.213927668020873625e+03
2.987434766424716599e+03
4.254130619584923352e+02
-3.192054832752311995e+03
-4.807776713636949353e+03
-5.112674410981168876e+03
-3.949798632314372753e+03
-2.185354564899975230e+03
-1.480549424890312821e+03
-1.626415485489862704e+03
-1.629937148184689249e+03
-1.797159379883154088e+03
-2.713967524332198991e+03
-4.120528812808523071e+03
-4.380872298671846693e+03
-3.848911873336267490e+03
-2.223617725373886515e+03
4.380058798704515652e+02
-9.230451173239357558e+02
-2.157808639572777793e+03
-3.765292262059866971e+03
-4.913480637316171851e+03
-5.496289254060213352e+03
-5.549706464640476042e+03
-4.121760873539798922e+03
-2.835415649287512224e+03
-3.756618553991482713e+03
-5.119306796274015142e+03
-6.450475041215922829e+03
-7.257200852560782550e+03
-4.891419709915210660e+03
-1.404189191566453474e+03
-4.115514316600326197e+02
-6.206832328994757972e+02
1.685446246412650680e+03
-4.840115436501977797e+02
-3.619067298676379210e+02
3.827813701098654292e+03
5.591091249024186254e+03
5.025964056377152701e+03
4.220500833595071526e+03
4.376662040107934445e+03
4.928486148326869625e+03
4.879993280175324799e+03
4.745142760029713827e+03
4.608118953707590663e+03
4.355978857200446328e+03
3.638745112823767158e+03
1.981473545552369842e+03
-5.538577473673432223e+02
-2.061230281500299043e+03
-1.735708739548772655e+03
-1.940343340225996826e+03
-2.526120360736581915e+03
-1.804065555517703388e+03
-9.670705615331006584e+02
-1.378004324841173229e+03
-5.787828055411217747e+02
1.962586511044940380e+03
5.656149892482507312e+03
7.446076807496077890e+03
7.377403237992370123e+03
6.869086559153699454e+03
5.872052506894138787e+03
5.480342225119578870e+03
4.929044789977521759e+03
3.193324098395984493e+03
1.307236751855593411e+03
-7.099925270139833628e+02
-3.721324994463801431e+03
-6.502770168278302663e+03
-7.740259347145840366e+03
-7.667842400532380452e+03
-8.002642400755960807e+03
-7.682593865690230814e+03
-7.735527664843149978e+03
-6.277484556299007636e+03
-2.556380568273316385e+03
-5.240227632713222192e+02
3.795392431819762464e+02
4.463230053718644399e+02
7.841656543865306048e+02
1.904006322909151095e+03
2.925153262273231121e+03
3.757699701553271098e+03
4.285390598096544636e+03
3.441499376206111265e+03
-2.438882922147781755e+02
-3.336839253029819702e+03
-6.251199439062512283e+03
-8.850808127179456278e+03
-8.450010100418639922e+03
-3.900831481188958151e+03
-8.623515990821136938e+02
-1.317656337161737156e+03
-2.374624873546913932e+03
-2.220142319476661669e+03
-5.471391949763221874e+02
1.263649874139505869e+02
1.392403201324712199e+03
2.723969954208737363e+03
2.032095575442708423e+03
1.373964252458476949e+03
2.713649450658944716e+03
5.552082558793203134e+03
8.459158737797508365e+03
1.036486935340269520e+04
1.151228630119410082e+04
1.126749737726823878e+04
8.817642658779837802e+03
5.820820840411459358e+03
3.462960572416793184e+03
2.064946220496728074e+03
1.360656621057434904e+03
4.750908397059056369e+02
1.313974104730937711e+02
2.106763245314790538e+02
-9.911270198926010266e+01
-9.049426940967548489e+02
-2.433779724505988270e+03
-2.874609335901409850e+03
-1.868413584511414001e+03
-1.493258178255038956e+03
-2.087137367945450478e+03
-1.233048081243172419e+03
8.810763607728672469e+02
2.868178158759418693e+03
3.731271495164217413e+03
3.007421964144446520e+03
7.516917437131700126e+02
-2.752930859047907234e+03
-5.558531187827696158e+03
-6.470206870488585992e+03
-4.235029016241770478e+03
-9.079473034398089339e+02
-2.087910340659966550e+03
-6.468796494916688061e+03
-6.777538934581893955e+03
-6.341276134159140383e+03
-5.021050203996751407e+03
-2.852963099319461435e+03
-3.044713454561141134e+03
-2.556423116381923137e+03
-3.065109318627559333e+03
-3.404903797738974390e+03
-3.247851361434439696e+03
-3.446779504321982586e+03
-3.325725610088680241e+03
-3.692785224230892254e+03
-4.388998991590514379e+03
-3.767325791889441007e+03
-3.400845752004164297e+03
-3.411643537608926181e+03
-2.492807458265770038e+03
-3.884297915971636712e+02
2.119547165749488613e+03
4.655227153945279497e+03
6.336648645834554372e+03
5.654763741847447818e+03
2.603496998916756638e+03
-5.991952309701866852e+02
-3.228259013308290832e+03
-4.354630051420365817e+03
-4.273377918522254731e+03
-3.831640118079459626e+03
-1.982433906301653906e+03
-2.072547943565144379e+01
2.363481156511511472e+03
4.548180499634908301e+03
5.641413747259410229e+03
5.901185196813818038e+03
5.450503846978349429e+03
4.803249518590298976e+03
3.850305500698155356e+03
3.183579957747070239e+03
3.261053295033090308e+03
3.748799201355752302e+03
4.726888047681734861e+03
5.338280092265405983e+03
4.659947330646929913e+03
3.347801183089220103e+03
2.531797425944162569e+03
2.359001639286012050e+03
2.808421763587301939e+03
3.194016840275725372e+03
3.762671907501337500e+03
4.314385690572084059e+03
5.522059789358105263e+03
6.021724402944656504e+03
5.647479376304678226e+03
4.502404883290823818e+03
3.651421227873929638e+03
3.140514110978035660e+03
2.272579399219421248e+03
1.617373624113877213e+03
1.954876516453306749e+03
2.095207167017486881e+03
2.754383466097235214e+03
3.084304856175583154e+03
3.323039860391287675e+03
3.236616462440278610e+03
2.884100885051168916e+03
2.155514403011481591e+03
1.619709511692428578e+03
1.275682330125870749e+03
-1.565910420275289425e+02
-2.259160958408088391e+03
-4.601979823172569922e+03
-4.931989115290545669e+03
-5.492202018547224725e+03
-6.416619855854835805e+03
-6.757299210680632314e+03
-6.691259235310029908e+03
-6.714551872454147087e+03
-6.689236366455545976e+03
-6.488160198050027248e+03
-6.175166407111200897e+03
-5.925363474275834960e+03
-4.905868281609964470e+03
-4.186741427497436234e+03
-2.334020103009723243e+03
-1.912713166542941735e+03
-4.936727539153476755e+03
-5.703001280956908886e+03
-5.672532207337274485e+03
-5.390289453886778574e+03
-4.753200486944032491e+03
-4.010261501012800181e+03
-3.670390764589987612e+03
-3.707690566387052058e+03
-4.286290860852073820e+03
-5.258263737937199039e+03
-5.604692586946493066e+03
-5.238644165869400240e+03
-5.383115007803723529e+03
-2.661034283552217403e+03
-1.902021391099696359e+02
8.549379819010057702e+01
-7.559369457012722933e+02
-2.916623855279087365e+03
-3.475519152545984980e+03
-3.438475174398945910e+03
-1.850420631898384954e+03
1.530524401358915839e+03
2.378147937479716347e+03
2.355312928281010954e+03
1.568032213032417076e+03
4.568384745999553161e+03
5.623547854470814855e+03
4.934574875207448713e+03
3.525527883785700396e+03
1.788389615399285958e+03
1.269186640947491014e+03
4.409584014442623925e+02
-6.994148312083960946e+02
-1.359891306543149312e+03
-1.866411691459849180e+03
-2.233029501818167773e+03
-2.969642690036476779e+03
-2.788040027097827988e+03
-5.430459074259273393e+02
2.719298468744651927e+03
6.649909835885349821e+03
8.999621505054454246e+03
8.871329068045353779e+03
8.191074439841723688e+03
7.473910118869731377e+03
6.328819395232689203e+03
6.173733029831249041e+03
5.304066918119670845e+03
3.980875317765755881e+03
2.994161424592929052e+03
2.142530358701688328e+03
9.201274876221651766e+02
2.574444354949188352e+01
-2.035868157855768459e+02
-4.083654873752734034e+02
-2.172337746829230198e+01
9.941554506096111936e+02
1.878350595242081226e+03
1.864933002288848229e+03
1.265977699683402989e+03
8.792794682638690347e+02
1.480137690145978922e+03
2.225362075769447529e+03
2.248110114807759601e+03
2.680380179909699564e+03
3.323932934532372656e+03
3.731515267514805146e+03
2.700273909496879241e+03
1.314087087983505626e+03
2.978898720331154095e+02
-3.985368572249400643e+01
-5.323094668014897479e+02
-1.003048925127678785e+03
-6.658331785174570996e+02
5.855263290512199603e+01
5.000956129270339829e+02
1.020710628983394258e+03
1.167361691116260317e+03
1.003112319730123886e+03
1.528003237989143145e+03
1.668072336374662427e+03
1.629295080394461365e+03
1.929688238457285479e+03
2.053299910815150270e+03
2.547184004806478242e+03
2.661316075934338642e+03
2.424580941315791733e+03
1.531012683858945138e+03
-1.313053670463423916e+00
-8.314980044442755798e+02
-7.616013080586258184e+02
-8.155484405902171829e+02
-1.452503741649477206e+03
-1.704670225628633489e+03
-7.814950408720946484e+01
1.945147507865174475e+03
3.148343611508762478e+03
3.594506568021471594e+03
3.278728669380922383e+03
1.192978994342923215e+03
-2.002730139325708478e+03
-4.678238552512148999e+03
-5.110565517587248905e+03
-4.899734571425685317e+03
-4.496655019404293853e+03
-3.778260334542140754e+03
-3.194600802262812067e+03
-3.688805411616605852e+03
-4.147817009050791967e+03
-4.131698650308128890e+03
-4.966459949898520790e+03
-6.103271657576816324e+03
-6.157397903269744347e+03
-5.493784926627417917e+03
-3.277351500831954127e+03
-4.405020053303841451e+03
-2.511811862353800734e+03
2.241843120735280195e+02
-1.995020517379007515e+03
-6.612369554388104007e+03
-7.621854945088549357e+03
-7.214384709260589261e+03
-6.841707173629755744e+03
-3.055905016103907201e+03
1.667045540940162255e+03
3.209209220557106164e+03
4.770367719622908226e+03
5.075151848504738155e+03
4.314622017791327380e+03
3.212997901963677123e+03
2.400311757858600686e+03
1.490495068539216163e+03
1.029397923080112150e+03
1.204053104424360981e+03
9.353794839439144653e+02
8.443763048680696102e+02
1.958249423805912784e+03
2.666008835714118050e+03
2.532521304027150109e+03
1.876618670955919470e+03
1.283287035526577029e+03
1.274576903141853563e+03
9.624627151426806222e+02
9.789868335340710246e+02
1.617323993477649765e+03
1.877618235295982458e+03
1.445950133448865927e+03
8.522821313939437005e+02
-2.263739309348289908e+02
-4.789866170677053105e+02
-3.186185372584302513e+02
-5.982687821344309214e+02
-3.799578431993232925e+02
-2.806527115559106278e+02
-2.182615150111970763e+02
2.531934827027343999e+02
6.556353906927984099e+02
1.189137643410839701e+03
1.343808122246943185e+03
9.775248045808662027e+02
2.461740625017438902e+02
-6.124336723743187605e+01
-1.546604794726952150e+02
-4.993148600454019537e+00
3.478950289470899406e+02
7.871842929845695380e+02
8.089222041983529152e+02
8.102470836687992062e+01
-9.787529277331366302e+02
-2.206549271086659246e+03
-2.541035627417018986e+03
-1.959927283278252844e+03
-1.895518014753881744e+03
-2.031961500860596516e+03
-4.174357277057019928e+03
-1.631541725825878075e+03
3.827632865356694651e+02
8.553949126825270923e+02
2.114317055683644071e+02
6.238764222896943465e+02
1.055755606837383993e+03
1.747127131478605861e+03
2.683948654284435179e+03
2.555167030174178763e+03
2.694774455521589516e+03
2.599687545166957079e+03
2.720940735468103412e+03
2.560597266298369050e+03
1.427609704845655870e+03
4.798570211988227925e+02
-4.673637590125660068e+01
-4.031947672503852687e+02
-6.765460440896904402e+02
-6.916519120423359936e+02
-8.222471347176423251e+02
-4.742227067271082319e+02
3.994437861962560987e+02
1.338728926901824707e+03
1.333566883743548033e+03
8.649246809773949280e+02
3.057211299581375670e+02
-1.291005013637571608e+02
-4.556550020906772147e+02
-3.310031143612749247e+02
8.189101183307774079e+01
9.120437809888377387e+02
1.369559839919854085e+03
1.372521472892883594e+03
8.679470788880755663e+02
1.318161470744863095e+02
-8.158941469333427676e+02
-1.474224056117113832e+03
-1.473302816313107087e+03
-9.541341747043232999e+02
-1.082562519847226213e+03
-9.974966949710509425e+02
-1.339527088230194636e+02
3.900539912630217714e+02
3.585112328104832500e+02
-2.805775183962952042e+02
-8.932576897384250287e+02
-1.569473623819777686e+03
-1.741327502247654365e+03
-1.627912246297093816e+03
-8.451752670636732319e+02
-2.950047003934503209e+02
1.360598466037521803e+03
2.937661298029520367e+03
2.264191360874492602e+03
1.097164630943168731e+03
6.125044719204140620e+02
5.119857305603546394e+01
-1.142825205720155736e+03
-1.054577022554824680e+03
-1.486047650190318791e+03
-1.520214320463996046e+03
-5.710780628982470262e+02
-1.795205049200021392e+02
5.864493509929479842e+02
7.878050002968860781e+02
4.355722879568319854e+02
1.748338776409965760e+02
2.027925134526034583e+02
3.760822370775026684e+02
6.828020288291417046e+02
1.266929749575754158e+03
1.883469515188951391e+03
1.875305351570874336e+03
9.146111873857787486e+02
-2.768900277720594545e+02
-6.839544477393136503e+02
-1.113801588579688541e+03
-1.697619227838299821e+03
-2.029298071579581801e+03
-2.221165966248542645e+03
-1.726248297980107054e+03
-8.522929741044933962e+02
6.897465622237258742e+01
1.351406348919227185e+03
1.287077948861314098e+03
7.598897497545974602e+02
1.885546841614827258e+02
-2.838247752298114506e+02
9.529066737472778215e+00
7.177439779455489770e+02
1.102939745025529191e+03
1.501984765390997609e+03
1.679963875444547284e+03
1.236755554876398946e+03
2.733852015283171681e+02
-2.626190012108664291e+02
-8.410160222176644993e+02
-9.678618138401628812e+02
-1.242214181567437890e+03
-1.159082152012467304e+03
-8.222799875668195000e+02
-5.292601691237523909e+01
9.336608728633279952e+02
1.291413770069420480e+03
9.805591818875192303e+02
5.041569495563364285e+02
1.382581279083876780e+02
5.053070517424475128e+01
6.042737495144489657e+00
3.208091093100351827e+02
6.718078731947595088e+02
1.131149219437865668e+03
1.545818697117438887e+03
1.064867398753667885e+03
3.713086443772950247e+02
6.307612211688599047e+01
-1.939316360406679678e+02
-1.936533013453324088e+02
-3.830538012363007851e+02
-3.682662053381378087e+02
3.974914706752604161e+02
1.253096405212308582e+03
1.607463141804644920e+03
1.547655764319860737e+03
1.123917939437152882e+03
3.263555319268348285e+02
-9.510432387867084572e+02
-3.996238352142973781e+03
-2.981257727707501999e+03
-1.901147290413685823e+03
5.201271573537013637e+02
-1.299375639815186560e+03
-1.361634119412430799e+01
3.374340018321004777e+02
-3.265234687970067625e+03
-8.946310786179624301e+02
-6.927618198626992125e+02
-3.102732136002965490e+03
-4.732596411922802872e+03
-5.347334793876269941e+03
-3.167831336876192836e+03
-3.151983359971583013e+03
-1.212717651497587667e+03
-2.368088125166084865e+03
-1.908173582079203925e+03
-1.024952913578575135e+03
5.215819025651011316e+02
1.021466645097770311e+03
1.693674811062583103e+03
-4.656731855030944303e+02
-1.003535897299113344e+03
5.105653224163837933e+01
1.333090233860890294e+03
-7.535235106239893810e+01
-2.452427859014734395e+02
2.193399194338888378e+02
1.584026513164131984e+02
-1.550596754680186677e+02
-5.141360353384554855e+02
-6.387039508107254733e+02
-3.046433855581454964e+02
6.769655371657329397e+02
1.442199363233779195e+03
2.058142732086990691e+03
2.196770775242026957e+03
1.611090961212179764e+03
1.157100232798281468e+03
9.058415483762280473e+02
6.093720986572787979e+02
9.067131558411315382e+02
1.445905673678087624e+03
1.776976801506177253e+03
2.075023105182711788e+03
1.620054582970975389e+03
6.630621698237596320e+02
2.890235650436306969e+02
-1.651420826359481566e+02
-7.655303881373771446e+02
-1.094192642643975432e+03
-9.011472051548665831e+02
-5.672959906798699876e+02
-2.153541236971203432e+02
9.760502604977790497e+02
1.611991367768226155e+03
1.459388624474374183e+03
8.222421324069827051e+02
5.085636028843937311e+02
6.901591689532051532e+02
5.290400714874315327e+02
8.413372384058468469e+02
1.255192318665589028e+03
1.453466485438006657e+03
1.325253537814576475e+03
8.125918101205052153e+02
1.044008370978272637e+01
-5.741226816370543702e+02
-9.095219629039867186e+02
-1.203448914015691798e+03
-1.705122931867756961e+03
-1.926539586814571749e+03
-1.265372740571211580e+03
-3.947673650509927938e+02
5.093295331883210793e+02
1.499060990789291509e+03
1.286420505643806109e+03
7.440486689785781209e+02
6.269468966914851080e+02
4.830579766781998501e+02
4.702207238086687653e+02
8.414440931335605001e+02
9.998144764969679272e+02
8.053978703135641126e+02
8.382302703803281929e+02
7.223338315725574148e+02
2.786212215220207327e+02
-5.279926090096116695e+02
-1.147451351740415930e+03
-1.186647593958659854e+03
-1.310644960493835697e+03
-1.100462086809994616e+03
-1.031106439504761283e+03
-2.966396688142378935e+02
8.588982096279706866e+02
1.430530597526743122e+03
1.174346667792631706e+03
3.063517718494119890e+02
-3.205127269056389423e+02
-1.812698296333025780e+02
-1.669260876491847227e+02
3.695018707510078571e+02
9.530059399161282272e+02
1.097624754234705506e+03
1.621341834511548313e+03
1.390181555143394462e+03
7.050637184811824909e+02
-1.499960763278176614e+02
-7.760385786193978674e+02
-1.118221885847962085e+03
-1.143594978363251357e+03
-8.841199608532560887e+02
-8.017281357777007997e+02
-6.383721056557999418e+02
-1.170565745649088853e+02
4.992094703982550641e+02
5.404237031567159875e+02
1.975570927012911682e+02
-8.038466164808501446e+01
-5.541311762284176012e+01
2.083946510316355898e+02
6.230634187988105168e+02
1.073601648108583731e+03
1.507078863719130368e+03
1.607426258802460779e+03
1.240550065926405978e+03
-7.554816679783759810e+02
-3.684565445106385141e+03
-3.736579007662941422e+03
-2.278983895911822856e+03
-2.132852071818341301e+03
-2.097139906114119640e+03
-2.105734458176056251e+03
-1.333703889208077726e+03
-3.100385869449818443e+01
1.266319167176169913e+03
1.452251002962724215e+03
9.269316130227529129e+02
4.053690680434220326e+02
-1.946507033980429213e+01
-1.306914005374110843e+02
1.186103370274711892e+02
3.625431549099902213e+02
6.031667083891892389e+02
1.217522349932708266e+03
1.109605674601517421e+03
2.824338850454548151e+02
-3.270185750344578537e+02
-7.747960437783403904e+02
-1.367973665130445625e+03
-1.419642563281008961e+03
-1.303840207393505807e+03
-1.210420124528856832e+03
-3.803239642278501265e+02
5.124612133740666877e+02
1.061907190868231964e+03
1.272995090642414652e+03
1.239839312034426030e+03
5.985108833151087993e+02
3.769721724317742542e+02
8.331286177309959839e+02
1.038897084895815169e+03
1.036314674968183681e+03
1.425485666116443781e+03
1.868535591179214862e+03
1.297462627599054940e+03
2.901882749196592499e+02
-2.443233580387490349e+02
-6.470526365798236839e+02
-1.171063384630349901e+03
-1.490423531068058082e+03
-1.317035028889433988e+03
-9.668907007193166692e+02
-7.999263487380109154e+02
4.289451134184150760e+02
1.588797150247679383e+03
1.223632079635646278e+03
5.954123360217480467e+02
3.770915102009850557e+02
1.896749539570463412e+02
6.229784782488734436e+02
7.880986771854547897e+02
