-1.008678659885799902e+03
-1.260579897858729055e+03
-1.116659039714800201e+03
-4.969622160636612307e+02
-2.494897622508489405e+02
4.612959315646745040e+02
9.988327632089861936e+02
1.355861688353640375e+03
2.238612107580909651e+03
3.250670058239257287e+03
3.402409110688742658e+03
3.609507393925281121e+03
3.653206904154250878e+03
3.399797957014253370e+03
2.431837064061711772e+03
1.921336161646497658e+03
1.366932187771884628e+03
7.008238986643642647e+02
-2.630372865755043676e+01
-8.632020729084267714e+02
-1.236771078803550836e+03
-1.132462051578266255e+03
-1.074030348220157521e+03
-9.883757157156885569e+02
6.328389010212947596e+01
5.539338191728558058e+02
1.053576555602018061e+03
1.952328350806197477e+03
2.511148117945612739e+03
3.310963415602058376e+03
4.074707125146983344e+03
4.095402349023060196e+03
4.016124284372141119e+03
3.718904285061935298e+03
3.001632535677495980e+03
2.153274778082682133e+03
1.534833276598154725e+03
1.033225748759415183e+03
6.563729050213352139e+02
-5.127244802883888042e+02
-2.816033043328569875e+03
-5.879627026924395068e+03
-7.963548882244485867e+03
-7.902731561128190151e+03
-7.485107403093419634e+03
-6.707645374769844238e+03
-5.916363408031027575e+03
-5.307286466176643444e+03
-4.246379959259986208e+03
-2.309372250856901246e+03
-2.768353815273721011e+03
-3.365412074479112107e+03
-3.001530883419110978e+03
-3.351760965883244353e+03
-3.984122932142095578e+03
-1.900605653748079931e+03
1.878823856843325302e+03
1.049163184685288797e+03
-1.652539762790868735e+03
-5.734267420986277102e+03
-7.253065641592007523e+03
-7.147974946423200890e+03
-7.057984238174281018e+03
-3.069061611046337475e+03
1.554801914667856636e+03
1.886600863184703485e+03
-2.162624982577522132e+03
-4.103828243553849461e+03
-3.369955268825805888e+03
-2.680001365492210880e+03
-2.270829908507901109e+03
-1.993361083465957790e+03
6.734248451617689852e+02
4.129556118345048162e+03
4.533057347221672899e+03
4.056953073310487525e+03
3.232205918557056521e+03
2.352787950353239921e+03
1.786724454040156388e+03
1.291996338899123657e+03
1.033563846904424281e+03
8.305370374944069454e+02
-7.301596592913695360e+01
-5.511313889984120351e+02
1.122003887215275419e+01
1.267078071723763514e+03
2.085503391061954972e+03
2.524537696243903611e+03
3.008261310636035887e+03
3.757730680218197904e+03
4.627995141772024908e+03
5.082128646961146842e+03
4.976103865870485606e+03
4.530034878711370766e+03
4.215970699497982423e+03
3.060920642273789781e+03
1.941950360487828220e+03
1.170088579822586553e+03
-3.266171228455558406e+01
-4.963286119903000895e+02
-5.980923825954383801e+02
-8.589339854225199815e+02
-9.796618882002522923e+02
-7.951606791858420138e+02
1.134655268358874451e+02
7.213363798679923775e+02
8.226305465172373488e+02
9.983219110263441962e+02
2.049479293066293849e+03
3.267919498644404030e+03
3.799040262256565711e+03
3.690285888994888865e+03
3.523350512062552298e+03
3.476975692294957298e+03
2.695466607403262969e+03
1.715743340094684982e+03
5.509531027827962362e+02
-8.052848932386657452e+02
-1.174771011847902400e+03
-1.469389798820978967e+03
-3.440141116409262395e+03
-4.298041160780051541e+03
-2.553026416685672302e+03
-2.683099477693661811e+03
-2.286242426009448991e+03
-7.386830227399468640e+02
9.665724042223330343e+02
1.219509386872828827e+03
1.223222223247319562e+03
1.709717172302505105e+03
1.867084334707335529e+03
2.292350076108549729e+03
2.642483902220681557e+03
2.642505137672700130e+03
2.114472121930600224e+03
1.210376839087191456e+03
-1.238342878072706554e+02
-9.281617873721654632e+02
-1.567571895964684472e+03
-2.415153831564923621e+03
-2.953006939357703232e+03
-3.526143166314636801e+03
-3.184507084996080721e+03
-2.395968276442195020e+03
-2.089635125746541235e+03
-1.619527887034533478e+03
-6.206071163538471183e+02
1.103806137662018072e+00
7.586284351601276512e+02
1.177026944301170033e+03
1.514402639959833095e+03
2.217774695578263163e+03
2.793066944296275778e+03
2.486342087172173251e+03
1.866586683316686276e+03
1.628754796209861070e+03
7.957993585824177671e+02
-8.692803909046730269e+02
-1.685557048295149343e+03
-1.807117034657503609e+03
-2.443039250794181044e+03
-3.062311191287219117e+03
-2.776925403113316406e+03
-2.564912375589758540e+03
-1.700290553915749570e+03
-8.101024650376059526e+02
-7.593292415161366762e+02
-7.298872595250912809e+02
-4.367700108910780727e+02
1.704533177969653579e+01
1.885533955253224860e+02
6.347295220012068739e+02
8.395298399071381255e+02
1.253955479739266821e+03
1.163016751529603880e+03
1.613633519229309286e+03
4.587274177191544595e+02
-3.696000612415551245e+02
-3.492937371801502877e+02
-8.486843813068940108e+02
-1.591712908953360738e+03
-2.515402425465839315e+03
-2.187787188469994362e+03
-1.815863573228760288e+03
-1.095676861992472141e+03
-6.522490898361536438e+02
-4.435809739640104112e+02
1.972940436438990446e+02
6.894326651261955021e+02
1.437907059652594398e+03
1.916711104688329669e+03
2.317876972716854652e+03
2.131353972993937987e+03
1.650078012705331048e+03
8.020707961827184818e+02
-1.527720923284998378e+02
-9.295444148811250216e+02
-1.522257003023929883e+03
-1.651949030697620628e+03
-1.509657531269547462e+03
-1.823438653208359710e+03
-2.323315333500359429e+03
-3.050355225311855065e+03
-3.102523867554778917e+03
-2.731813418219124287e+03
-2.120243116879684294e+03
-2.147854051676560175e+03
-7.896953913066219002e+02
2.347317912389356479e+03
3.958231381744855298e+03
3.477006373205404998e+03
3.153762784409110736e+03
3.093535890096551157e+03
3.255272768047187583e+03
3.281914860995826984e+03
2.580399364993719701e+03
1.074715727670805336e+03
-4.808648477195570337e+01
-3.170682066444584279e+02
-6.812517874800179243e+02
-9.396993589781719720e+02
-1.459429412386797139e+03
-2.467504886075706509e+03
-3.535960814710992963e+03
-2.686779570940617305e+03
-1.477961855576466405e+03
-3.745260408393820057e+02
1.545554960455801165e+03
2.566293996473731113e+03
2.813719927441067739e+03
2.680917616481532605e+03
3.486899776607242529e+03
3.908695192856842368e+03
3.619356218043651097e+03
2.788865417806146070e+03
2.196177105392072463e+03
1.191306956617561127e+03
-1.298559295604227373e+02
-2.173247437034796974e+02
-8.113328249875301879e+00
-1.104243545680230454e+03
-5.201743304041950068e+03
-5.850584476882813760e+03
-5.445787651259445738e+03
-3.164353575750297750e+03
-1.117256624727411236e+03
-2.701538208450230741e+03
-2.221759135319101404e+02
1.367854440694348341e+03
2.215632964352478666e+03
2.246183333490798759e+03
5.295036503254430045e+02
1.998672644884584088e+03
2.006610548665246085e+02
2.504520834330083744e+03
2.342279422236472328e+03
1.493875689329181341e+03
-2.218784901029910543e+03
-9.236777355140293366e+02
-2.888056545327248159e+02
-1.292253568440417894e+03
-4.332000675993791447e+03
-4.969967101018792164e+03
-3.356000346776716469e+03
-2.450133527320202575e+03
-3.234465276745520896e+03
-3.560555965788498156e+02
-2.227861438333354727e+03
-1.668859902337274661e+03
1.336995540302402560e+03
3.488804798733531698e+03
3.785710959089593416e+03
3.807667527359618816e+03
2.470651768849616928e+03
-1.196367914211830339e+03
1.196190663316381659e+02
-5.633891234105237800e+02
-2.998426116359548814e+03
-2.869533480705239526e+03
-3.854736877245520191e+03
-3.146118190649950975e+03
-2.711739696437559815e+03
-2.395493657974548114e+03
-1.078387835769404546e+03
2.034940502915549700e+02
5.702271710064275112e+02
7.548338609137565527e+02
7.363194071065025810e+02
9.697825034718050574e+02
2.336202490090223819e+03
2.898668456891753522e+03
3.303255785096207546e+03
4.032990337164661014e+03
3.691822261460891241e+03
3.166720138106623835e+03
2.766622723867443710e+03
2.223516525760534478e+03
1.195391947863048472e+03
-2.434929481418147077e+02
-1.596968637491651407e+03
-2.292142719318861509e+03
-2.214001736627080845e+03
-2.266579658743232358e+03
-2.862885606547613406e+03
-3.442860086980355845e+03
-1.565591421419163225e+03
5.637422217284846511e+02
1.627438658729259487e+03
2.495673732034772001e+03
2.725434046910175766e+03
2.578870572847164567e+03
2.315536177333250635e+03
1.914057815341936703e+03
1.656172611270097832e+03
1.425130354848151001e+03
1.853008026705002067e+03
2.107116438267931699e+03
1.833235784016764455e+03
1.219164304787931997e+03
5.679590233087272964e+02
4.333235471297841741e+02
2.860474292792197843e+02
-9.558791326917314279e+01
-6.632002563507934383e+02
-8.378094338513728871e+02
-1.197410257046027027e+03
-8.489814253945563678e+02
8.032525734827852659e+01
1.035458765993555744e+03
1.788132295759443650e+03
2.355153928641363109e+03
3.152619778221648630e+03
3.353480158362893690e+03
2.913772802487023910e+03
2.571653491806666807e+03
1.864203367794378210e+03
1.021348229017764424e+03
7.730300179770428031e+02
8.962439662017706041e+02
2.629952612161173420e+02
-3.557577854383141016e+02
-9.430161647618886036e+02
-8.468447582648683465e+02
-4.552721733614066579e+02
-9.136005617489763608e+01
1.793353741737431619e+02
4.247211705850157273e+02
9.777061211552564828e+02
1.014332786710051892e+03
1.475885973964746881e+03
2.016468749250631390e+03
2.434968376875905051e+03
2.884190764534685968e+03
2.963943357881137672e+03
2.706283462990936641e+03
2.374204547269835984e+03
8.874252692013147907e+02
-3.204161651985459969e+01
9.776397332743339064e+01
-7.971891280424335946e+02
-2.191895111406270189e+03
-1.485373484381065964e+03
-1.597575386371207514e+03
-6.470468378828643836e+03
-8.674027510030426129e+03
-7.875243317307399593e+03
-7.368114795378168310e+03
-6.077617104249378826e+03
-5.540660133185584527e+03
-4.163349517034702330e+03
9.795486870521813216e+02
3.305166506242249852e+03
2.359441505234000033e+03
-3.028698838656404405e+03
-4.676955859399937253e+03
-5.020514870106017042e+03
-5.533357372275710986e+03
-6.163367597459036006e+03
-6.327739299724550619e+03
-6.408702384908534441e+03
-3.363122063681445525e+03
-8.819480332927341806e+02
-2.310106244293377813e+02
-1.883260373283228262e+02
2.361642206776503201e+02
6.943990284609443506e+02
1.192248655262003240e+03
1.734697487146267122e+03
1.948736618420179411e+03
2.143298051095371648e+03
2.744325521482165641e+03
3.375905086848299561e+03
3.304183353646266823e+03
3.295174551666051229e+03
3.809961791674733831e+03
3.590631991129829657e+03
2.270147272948872796e+03
8.964163990044976345e+02
3.252793831509686839e+01
6.605062786456084041e+02
3.733092494795852758e+02
-2.070371758470236045e+02
-4.514653009019381216e+02
-1.129022060289925548e+03
-1.362717746293441905e+03
-1.131548035388774679e+03
-4.885420984244168494e+02
9.131448410431400475e+01
1.270946075540816622e+02
1.066834960312067324e+03
1.846618986818939220e+03
2.163443515618876972e+03
2.535398799367063475e+03
3.063605883570043261e+03
3.237134873278155283e+03
2.703903658579068633e+03
1.819857451832747074e+03
1.216117864124273865e+03
4.817322917708555678e+02
3.613674150611331015e+00
-3.342113039105840926e+02
-1.362815086583288576e+03
-2.083247629908101771e+03
-2.372466068274687132e+03
-2.046328178674993296e+03
-1.020671587100300599e+03
4.554891101594618874e+01
7.383185581562258903e+02
1.099608986191517488e+03
1.961371855407859584e+03
2.527533806326108333e+03
2.744045561404440832e+03
2.385159130131185520e+03
2.413151559119423837e+03
1.800048015709875244e+03
9.965965668430617370e+02
4.898306354289967999e+02
-1.091089769888013024e+02
-9.410921705860490647e+02
-1.348265528490210045e+03
-1.768718131064390946e+03
-2.353426584676035418e+03
-2.947475014919246860e+03
-3.791934974752501603e+03
-4.076865762801031451e+03
-3.173185905838623057e+03
-2.142943842257832330e+03
-9.211869512266237052e+02
2.411796188183976426e+02
1.079251595358817212e+03
2.315073130784570367e+03
2.978707502826908240e+03
2.854220914065792385e+03
2.609608966960779071e+03
2.147873135045282652e+03
1.555969633264649019e+03
1.037854900101639714e+03
3.875287431292969131e+02
-2.900067997419787389e+02
-6.157463201410340616e+02
-8.487617093771972350e+02
-9.660762561461635869e+02
-1.537735113288364573e+03
-2.362676346183790429e+03
-2.654971133383373854e+03
-2.533807274415170923e+03
-2.502150439893111070e+03
-1.646852765611248287e+03
-5.808993499601532449e+02
5.457672803523989842e+02
9.011044041439613466e+02
3.401221605766544940e+02
1.449382914385683137e+02
9.026678128331434436e+02
1.416355605479188398e+03
1.934976086553616142e+03
1.733465331627319983e+03
1.517733393226105591e+03
1.146779520356683406e+03
3.096847895412232674e+02
-8.346021767552109623e+02
-1.685367157180489357e+03
-1.949810075288099597e+03
-2.227966908791943297e+03
-2.395933417622742581e+03
-2.511674880922805642e+03
-1.929131154860931019e+03
-1.541241972707653758e+03
-1.329087374425637108e+03
1.853640036502304724e+02
1.096121558777859491e+03
1.471250551292095906e+03
1.938723058306238272e+03
1.799576789341243739e+03
1.634846060039848453e+03
1.288386413597128922e+03
9.880673475084504389e+02
7.428711755080387320e+02
2.762386509043176375e+02
-9.810557220171956772e+01
-3.530719833850478722e+02
-4.361012989271671927e+02
-8.984980300825029644e+02
-8.346637355776122149e+02
-8.882014816636233263e+02
-4.049706269490258137e+02
2.300748326568829043e+02
4.878254512259844660e+02
5.806663291990095104e+02
6.960275353204207249e+02
1.534379550406128601e+03
2.746344137803929698e+03
3.487104205399800321e+03
2.785785048940434081e+03
2.161315328833038166e+03
1.650549096955704726e+03
2.883166316010991750e+02
-1.595111281014495944e+03
-2.322749381350266049e+03
-1.165802096838411217e+03
-3.606279135584256323e+02
-1.162344171845554968e+02
-3.913169443367258964e+02
-1.078069345699796258e+03
-1.674433695902724367e+03
-2.076281142565917889e+03
-1.658842703383504386e+03
-1.583205483639810041e+02
1.277353288502013129e+03
2.486152597562875599e+03
3.183143608172998029e+03
3.885861682396073775e+03
4.343560333464653922e+03
4.738617707862176758e+03
5.105401511678640418e+03
5.138495218181261407e+03
3.985735556382137474e+03
2.803255300131661897e+03
2.391877713880781812e+03
1.841501397408528419e+03
4.890512927536841516e+02
-4.095791785626685169e+02
-8.533868000063857835e+02
-1.250348394234209536e+03
-1.138420999194803699e+03
-1.515609748362724304e+03
-1.083962019200451323e+03
-1.184615668431898712e+02
1.077863501088183966e+03
1.906033673066369829e+03
2.468139440680822645e+03
2.301176595424345123e+03
7.401786963320919313e+02
-3.267860087269239102e+03
-6.361895638108895582e+03
-7.528884975236049286e+03
-8.455831429586922241e+03
-8.948792586298211972e+03
-9.462827564734741827e+03
-9.976966443341405466e+03
-9.724257639821084013e+03
-9.884647314075493341e+03
-1.122610501894537811e+04
-1.106478142558080435e+04
-8.520637196356678032e+03
-4.245634459660979701e+03
2.878286135315539013e+03
5.260159938445052831e+03
6.410993682964945947e+03
7.084876895697761029e+03
7.010845274661957774e+03
5.569888649065386744e+03
5.899979554644127347e+03
5.432144682573924001e+03
3.760430126679244950e+03
2.703869713231091737e+03
2.302503596378087423e+03
9.272839017266182964e+02
-7.047814094612704139e+02
-2.617675975477319753e+03
-3.712331746999732786e+03
-1.973779233792376317e+03
9.810004114997449278e+02
2.652006119133727225e+03
4.263215652131525530e+03
5.557685538731594534e+03
6.474466909761839815e+03
6.374583261704103279e+03
4.679058349238945993e+03
2.607989733869429529e+03
2.061477217345767258e+03
2.859541388695383830e+03
2.894246974209904238e+03
2.409674888606951299e+03
1.867794450336205273e+03
4.215996378691004907e+02
-1.653828794920460496e+03
-3.031518171264152443e+03
-4.602426036183986980e+03
-7.179572479676064177e+03
-1.165097392726819271e+04
-1.069963042994982425e+04
-1.033348308912518223e+04
-1.081947313043499526e+04
-1.111059226179138932e+04
-7.875761996598093901e+03
-2.594977113809258753e+03
2.709808187915224153e+03
5.650635639179762620e+03
6.444515064338428601e+03
8.570525203886927557e+03
1.059475247529755325e+04
9.821226022469354575e+03
9.483062073942262941e+03
8.350279318414397494e+03
6.634834725854544558e+03
4.942802252539790061e+03
3.520202757955456491e+03
2.317968927330467523e+03
7.742816605996363251e+02
-7.456091444815718887e+02
-1.420109934517878401e+03
-1.797060266639522524e+03
-2.519336587850845717e+03
-2.891962398001357997e+03
-5.160814195468685284e+03
-4.675021333585901630e+03
-3.190840191375896211e+03
-2.802056769662565785e+03
-4.032242426465167227e+03
-1.937866956573501056e+03
-1.187535544155971138e+03
-5.357323725951584947e+01
7.671799636925377399e+02
-2.700209977935186316e+02
-1.993144329166264015e+03
-4.285193218143343984e+03
-6.036421043380938499e+03
-4.358679182673312425e+03
-1.914037718635268220e+03
5.863578954604224691e+02
2.522424435614659160e+03
3.591150248766349705e+03
4.305545123215495551e+03
5.331620501355419037e+03
5.517386850634148686e+03
4.387906301971207540e+03
3.296167312015987136e+03
3.176170014749636721e+03
2.172946376430131295e+03
2.156589300671504134e+03
3.170029698440702305e+03
3.246271743922221503e+03
1.921429802331575729e+03
1.068571965351954077e+03
1.100642480797295320e+03
9.604832255831014436e+02
5.181094219483437655e+02
9.855646469908442668e+02
1.460770345294227582e+03
1.459743826883942802e+03
1.598433666118230803e+03
8.338091603996526828e+02
-2.441283632542167368e+02
-3.204358978681819963e+02
-1.700363060888991811e+02
-6.000261107851318343e+01
-8.142968196000289254e+02
-5.019327253625998537e+02
5.040711381611085358e+02
1.182724712373340253e+03
1.134015299641047022e+03
6.059845539228848565e+02
7.016728705743798855e+02
1.053128054710199649e+03
9.163230959723817932e+02
8.281576777792698749e+02
2.565849641894731690e+02
-1.241336736225170625e+03
-3.709706252693264560e+03
-5.176593196340189934e+03
-4.680018357446851041e+03
-3.407094308305179311e+03
-2.527878858790643790e+03
-1.712340652632419960e+03
-1.857461413036239037e+03
-3.110295474204629500e+03
-6.328835240825595065e+03
-6.448068316637820317e+03
-4.783956002241914575e+03
-2.466457285543390753e+03
-2.592574756086617981e+03
-3.191311296032303289e+03
-2.602690649624795697e+03
-5.937312933497283893e+02
1.011589270757497729e+03
1.771191287863536445e+03
3.520083402979248604e+03
4.273217916917676121e+03
3.895527427883736436e+03
3.027044413621867534e+03
2.977688713947464294e+03
2.557348398893930153e+03
1.059991503947569754e+03
4.295861607776764117e+02
2.561013875092370995e+02
1.275306954874690177e+02
1.718275706789904973e+02
7.319907579138255187e+02
1.282120132486490775e+03
1.992216680060845420e+03
2.683274289513735312e+03
3.264356210135832953e+03
3.494453638995085839e+03
3.529544489621384855e+03
3.266660516299736173e+03
2.591801407801728601e+03
1.984858172933862534e+03
1.037755080114707880e+03
1.605093960691121708e+02
-1.478730921572604586e+02
-5.104251188802880392e+02
-1.435202167989856434e+03
-2.623207891096151343e+03
-3.824535041841464135e+03
-4.221192438143209074e+03
-5.018150093321206441e+03
-5.946368474581307964e+03
-6.258751530555136014e+03
-6.112288812637752926e+03
-5.076041343311856508e+03
-3.160018318322448067e+03
-1.610267593134531126e+03
-6.617723791963650228e+02
4.025383520104613240e+02
2.482657166668333048e+03
4.370611488454643222e+03
5.128421714877268641e+03
4.247065932685188272e+03
3.154485435290948772e+03
2.060681820445781341e+03
8.946070542465147355e+02
-1.087179954655735656e+02
-6.233301736599472633e+02
-9.722442118588630819e+02
-8.933957460033052485e+02
-1.121862834934869625e+03
-9.096533629860334713e+02
-6.377076549362665219e+02
-7.500438595713499979e+01
8.365360395790503389e+02
1.501962684284745592e+03
1.219273207356968214e+03
-6.254957144528692652e+02
-3.173736060832441126e+02
-2.823322795207726017e+02
2.750659546998199858e+03
3.249528808464900067e+03
2.682827212142591407e+02
1.601948755690385724e+03
-3.045059385658314000e+02
-6.610940781438765725e+02
-4.948586593900166122e+02
-2.283844126276593215e+03
-7.630071536189760764e+02
-3.165246561503550311e+03
-2.728559677721295884e+03
-2.544990796616399621e+03
-1.702531559084894752e+03
7.218631339982426880e+02
-7.346725060753840353e+02
1.052884778531717529e+03
8.535604214143836543e+02
3.110469055011843466e+03
3.338686404802385368e+03
3.297159414007653595e+03
1.153727505966179024e+03
-1.738623265965240080e+03
-2.509912234719611661e+03
-1.447082722255541967e+03
-4.138088523853601146e+03
-2.766914631959014514e+03
-6.725750411957566257e+02
-7.841207341383995981e+02
-1.361635594846557979e+03
-2.467159127870582324e+03
-4.408630251762953776e+03
-2.174989996901093946e+03
-4.644229779653593141e+03
-4.192328998256045452e+03
-3.702346437742991725e+02
1.352071120443342124e+03
7.759947548091068370e+01
2.597470236619573825e+03
3.427718371106190716e+03
3.281289743911840560e+03
3.658180675672093003e+03
3.181457265039975482e+03
2.031088461408171270e+03
9.470396706674868028e+02
1.342897401552844485e+02
-5.282053728259155605e+02
-4.174331466373628814e+02
-5.614139222606369231e+02
-1.120214661697923702e+03
-9.408392439227936848e+02
-5.022716244503820917e+02
-3.094939693786964199e+02
4.605668356664596104e+02
1.082087392088614251e+03
1.755327530592627227e+03
2.426298378587813204e+03
2.930872447617990474e+03
3.187021691144555007e+03
3.439729260839029394e+03
3.160975356846688555e+03
1.319720712262621191e+03
-5.042531210341516612e+02
5.132729713084312380e+02
4.014246702333422832e+02
-4.185261899744346437e+01
-1.578505495492528041e+02
-1.901358627734191771e+02
-3.396874265328684714e+02
-8.573755555001348512e+02
-7.061634877585985350e+02
-1.640235702482326872e+02
9.206989998635502559e+01
5.421440757888622102e+02
1.150412238832124331e+03
1.727595163650355516e+03
2.160982801968392323e+03
2.788785078588344277e+03
3.073591970598719399e+03
3.198548097702391715e+03
2.936900477627003511e+03
2.918795727240508768e+03
2.447905640610929368e+03
1.470926366712880736e+03
6.314931154020550821e+02
-3.112914268573402410e+02
-7.911842140230472751e+02
-1.057385241173680470e+03
-1.510725615696573414e+03
-1.734477524636552289e+03
-1.587193171895606156e+03
-1.168863151999083357e+03
-8.036154206295551603e+02
-4.265826537053874290e+02
3.992592226034801115e+02
1.075995296767488981e+03
1.818617976483410075e+03
2.578219017631971838e+03
2.539857875440950920e+03
2.524516813069087220e+03
2.474215550002582859e+03
2.132043512631949397e+03
1.313157249503244884e+03
6.411040861850722195e+02
2.109097637417593205e+02
-2.314133332542696166e+02
-6.369116847743708831e+02
-1.013908243255646994e+03
-1.078705375276622817e+03
-1.037403999056484281e+03
-1.168876321195416267e+03
-1.017004752497087793e+03
-4.478938455792597892e+02
6.744391722273768153e+01
3.852443714713863869e+02
9.134891739624383717e+02
1.621253737065918585e+03
1.924635770291870813e+03
1.301602985501869853e+03
1.417141243544073404e+03
3.014278317441655872e+03
2.197063257274408898e+03
-3.225499753982386210e+03
-5.011448014317204979e+03
-5.990850078701327220e+03
-6.785709021282194044e+03
-6.929118895016280476e+03
-8.116825303391813577e+03
-8.486980286939931830e+03
-8.284734731724518497e+03
-5.607030870028171194e+03
-6.737116586695785827e+02
-2.250110284311587066e+02
-3.476865441040895803e+03
-5.895274199551169659e+03
-5.801202053907345544e+03
-4.992542598840426763e+03
-4.102168822020116750e+03
-2.796996512511448600e+03
1.153960789789007549e+03
3.513501320502992257e+03
3.740608782332947612e+03
3.228095114071876651e+03
2.478823360211726140e+03
1.758815546556290428e+03
1.122143762227985235e+03
1.088235128923054162e+02
-3.240806882671874405e+02
-5.355296544305057296e+02
-6.455566558811716504e+02
-1.093172428451709720e+03
-2.821743739438717284e+02
4.073898693545774563e+02
5.574574708927719939e+02
9.510844328715525080e+02
2.034386630059004574e+03
2.931417927581531330e+03
3.530166115927405826e+03
3.637654493721618564e+03
4.071937289762739510e+03
3.870936549726950489e+03
3.373583938443730403e+03
2.493933659174751483e+03
1.591014686172893562e+03
1.206896333664400345e+03
1.416194126061528493e+02
-4.729086546973660461e+02
-9.996801598354672933e+02
-8.796858205514553219e+02
-1.124825904000065520e+03
-1.378112713381833146e+03
-1.067600979393231455e+03
-9.702443953348237073e+02
-9.049452450253508005e+02
-6.385770179131105806e+02
7.338242707545616668e+02
2.012241608487022859e+03
2.568725949038208455e+03
2.918242912050831364e+03
3.527857183251252991e+03
3.256628927881202799e+03
2.533096764712923232e+03
2.316285051705583555e+03
1.694703225635001672e+03
6.999710169724604611e+02
-7.603888045678808272e-01
-5.802461806422917334e+02
-1.100367561993227355e+03
-1.520001799732284553e+03
-1.904894332637863954e+03
-2.260347582711196537e+03
-1.462390341404363198e+03
-1.022864861558728080e+03
-6.538669617804926020e+02
-9.935639971786774538e+01
3.665341491442607094e+02
1.120686204963827322e+03
1.533134971498086543e+03
2.374924556058577764e+03
2.747932805165765785e+03
2.374179440083491500e+03
2.189790407877364942e+03
1.563795990800484560e+03
8.751341215078045934e+02
2.509004859858315513e+02
-1.827902238902903775e+02
-6.430567960502128244e+02
-1.157950584171194350e+03
-1.512475495059109107e+03
-2.150626706362005280e+03
-2.132408272464996571e+03
-2.099756693752606225e+03
-2.321658728646241343e+03
-1.804141089743443445e+03
-1.162285273458269330e+03
-7.990144615243710859e+02
9.778826015612459344e+01
1.707171015146715490e+03
2.411152206014572585e+03
2.484693610456547958e+03
2.399852847088413455e+03
2.056652692743776697e+03
1.748019029598176985e+03
1.144875486918066144e+03
3.812462648609763960e+02
-7.657964078314743119e+02
-1.742277087288419352e+03
-2.078231733267320124e+03
-2.525613845516451875e+03
-2.720399312526763424e+03
-2.468600834497008236e+03
-1.822179789758607512e+03
-1.173305107288745603e+03
-8.530999677874734743e+02
-9.584581645684407931e+02
-1.213350270872980019e+02
5.921704028921600411e+02
1.207939731287722680e+03
1.659937960494861500e+03
1.965226842697356460e+03
2.005905056352358315e+03
1.986033366983559063e+03
1.301566417031511946e+03
7.175032684170041648e+02
2.548260630834496112e+02
-6.905192728668413338e+02
-1.145576459313193482e+03
-1.212397301177305735e+03
-1.841941677207783414e+03
-2.319291782572566717e+03
-2.525458620761452039e+03
-2.409449075830900256e+03
-1.757275672993916032e+03
-1.378972994159812743e+03
-5.365343895385384485e+02
-4.087655622703888270e+01
5.149622925295653886e+02
1.541177444619048174e+03
1.702566783381230152e+03
2.031252560208984278e+03
2.211507973974907600e+03
2.368973996922090464e+03
2.113875994869688384e+03
1.683068796760270061e+03
6.515097696642401388e+02
-5.227021994442161485e+02
-8.778101412804726351e+02
-1.436604083848339769e+03
-2.045262987278248147e+03
-2.185501476841513522e+03
-2.170529167328931635e+03
-2.048864980195474800e+03
-1.885019622136740281e+03
-1.555110237658006326e+03
-9.008286202476720064e+02
-2.115769130869365426e+02
6.653128306954353093e+02
1.512107235786302908e+03
2.153154808628855790e+03
2.066552956397240905e+03
2.040137178512780110e+03
1.923741371616068363e+03
1.764639538378904490e+03
1.289546999203671021e+03
7.315418397823385703e+02
1.674504828659722762e+02
-9.270311441336593816e+02
-1.468955873520173554e+03
-1.771816288232470015e+03
-1.995770713124514486e+03
-2.265792357821002042e+03
-1.953083104764431255e+03
-1.371742110440512079e+03
-9.373519357804520951e+02
-2.869998366544990063e+02
5.538601574041504136e+02
1.381289685695219987e+03
2.005370680615415722e+03
2.508967606543058992e+03
2.831180486684131665e+03
3.022051587291018222e+03
2.860592919482733123e+03
2.526771668395268080e+03
1.664534977215473191e+03
1.173775088931334949e+03
3.644905985596926143e+02
-1.633139831585174591e+02
-7.456372195176373907e+02
-1.355498717289231763e+03
-1.867887115359697873e+03
-1.801721688425030379e+03
-1.522044274586318352e+03
-9.690022727053136578e+02
-4.736073841858167839e+02
-1.658055847514254424e+02
4.114163680874685838e+02
8.550539788715207123e+02
8.751828447243451592e+02
-1.301161059243840555e+03
-1.165783542109211339e+03
-5.159449942944274881e+02
1.299583671292359213e+03
2.748721072407896372e+03
-4.886564376958300500e+02
8.134374858230895597e+02
5.689627516854371834e+02
4.291076478015083495e+01
-3.887319377518188048e+02
-1.232019205322281323e+03
-3.630855711974739734e+03
-1.623276851351049800e+03
-3.969289107503793275e+03
-4.334889764822824873e+03
-1.281015670007814151e+03
-2.686644185211594959e+03
-3.610728097823436201e+03
-1.739286434509171386e+03
2.215694834801661727e+03
3.245203658382930826e+03
3.719302091263006332e+03
1.310087644143264470e+03
-8.594371272762258513e+02
5.416966468211318215e+02
-3.275336481330697325e+02
1.120826442166592187e+03
-1.898203917867988366e+03
-1.152629624696288602e+03
-8.744669740823994744e+02
-8.597502639617160867e+02
-1.023430822926114274e+03
-1.442491068497274227e+03
-1.207969229325761034e+03
-1.045831127707612495e+03
-6.210449670570218359e+02
-2.345655700327776287e+02
5.167008383608783788e+02
1.367743699043619245e+03
2.283590830213553545e+03
2.843264884361626173e+03
2.909844496773520859e+03
3.239371297994281122e+03
3.184820484319404841e+03
2.863259124855667324e+03
2.493662529881114096e+03
1.476919499809090894e+03
5.319994792864806641e+02
-9.401705931294742413e+01
-9.321301014585955045e+02
-1.481366999962624504e+03
-1.783692254578087386e+03
-1.657109148273004166e+03
-1.379576739665372088e+03
-9.900750636159955320e+02
-8.560718725423051012e+01
1.877783083592858873e+02
2.431888458978244216e+02
6.586736225008709198e+02
1.199591192659328271e+03
1.619773999748251299e+03
2.355263040457187344e+03
2.585225188733741561e+03
2.375777863610191616e+03
1.039921849059856186e+03
5.645726314018509129e+02
6.788223370889653552e+02
1.175857504408245973e+02
-6.818999522128239050e+02
-1.356017924070332128e+03
-1.716317837113270571e+03
-2.358792362031311313e+03
-2.476761176300512034e+03
-2.209018852875293305e+03
-2.507649862715925337e+03
-2.279724423014617969e+03
-2.048184505556400381e+03
-1.974050095227524253e+03
-9.568850545854299980e+02
1.603772874882562064e+03
2.927932978307017947e+03
2.584474815957848932e+03
1.826387602670560000e+03
1.648710241904063878e+03
2.131417419370650805e+03
2.779513867559917344e+03
2.384007486063848319e+03
9.108681162642842537e+02
-4.169622362694004778e+02
-5.324334749792280945e+02
-6.096946964603338301e+02
-5.137297062885094192e+02
-6.964508036203162646e+02
-1.255850018579297512e+03
-1.211004931803995987e+03
-6.738818463075556338e+02
-7.840886555637642630e+01
8.304434638379889293e+02
1.681646877784435674e+03
1.698276258535680881e+03
1.805294710120650052e+03
2.309812645450332639e+03
2.610851163181308493e+03
2.721288260179418103e+03
2.229177168982697822e+03
1.725467828327112557e+03
9.411144385772980741e+02
3.405003830708655244e+01
-4.437241209347160407e+02
-1.161238954355615761e+03
-1.829554214103292225e+03
-2.305640049545522743e+03
-2.006458651309299967e+03
-1.807981657275734960e+03
-1.748328148074383989e+03
-1.756539629024962323e+03
-2.566592291324190683e+03
-3.637433031319208567e+03
-5.844055515699436000e+03
-2.774379766167230628e+03
1.877618186798726356e+03
2.568866699903269819e+03
-1.217624199402969225e+03
-4.289869441706870020e+03
-4.758861268396399282e+03
-4.896630667778214047e+03
-5.023227109787473637e+03
