3.089747164882746802e+02
2.828666428280854461e+02
2.108216870084947914e+01
-5.363961163294518428e+02
-1.082577660364921712e+03
-1.324524936628025898e+03
-1.315295607492053477e+03
-1.565905342228628115e+03
-1.845393477768163166e+03
-1.807755532399073672e+03
-1.706029771910637919e+03
-1.450328049762144246e+03
-9.546415088359675565e+02
-7.219369275895555802e+02
-1.313162372621171130e+02
7.442487571437013685e+02
1.651768268038890938e+03
1.455182292021883541e+03
-4.995582410708981911e+02
-3.018442848725999738e+03
-7.833473400076825783e+03
-7.739744910388111748e+03
-7.023662616893155928e+02
1.569848398038114823e+01
-6.255682099519997337e+02
-1.957300285182790276e+03
-1.601568385580068252e+03
-1.313233675645714584e+03
-1.329558172084607577e+03
-7.515926330538259208e+02
-5.183302920129792710e+02
-3.717864293106291598e+02
-1.759746810207565488e+02
4.660962726999414372e+02
1.059442864098238715e+03
1.631002796059347702e+03
1.874743152224750020e+03
2.152606762521467317e+03
2.216580609993367489e+03
1.565675547201724157e+03
1.390789187413649188e+03
9.308745521466504442e+02
4.929162094466599910e+02
3.876538331424403516e+00
-3.403209293949485073e+02
-7.117268635204168277e+02
-6.113174226284656925e+02
-4.401324161332049698e+02
-6.982202539638268490e+02
-6.486397933931606303e+02
-5.424042669249847677e+02
-3.085708036674873256e+02
2.608042111057125112e+02
7.707058482759742901e+02
1.125167459700763175e+03
1.297171254716682824e+03
1.264739543615265120e+03
1.603868636222096939e+03
1.520504390612444695e+03
1.092611748084905003e+03
1.111170405476154428e+03
7.292070046059989181e+02
1.816848302207750692e+02
1.325166652788138890e+02
2.137252445662956575e+02
2.253276034585815921e+02
3.493102890969604459e+02
4.256567899769254382e+02
-1.256820314933075764e+02
-7.117649172996524385e+02
-6.075375067522210202e+02
2.640160960462359867e+02
4.978309269279868090e+02
9.499232532070085426e+02
1.470314858853685109e+03
2.155153324231147963e+03
2.467389655341795788e+03
2.300006531635181545e+03
2.070057935208714298e+03
1.617538554907078378e+03
1.290450799199094718e+03
1.365737523234428863e+03
1.494438022304758306e+03
1.087534951026177396e+03
2.749948211043584365e+02
-8.021494530907769160e+01
-4.480822502403204339e+02
-4.536371174312159269e+02
-1.089427755546799936e+01
-1.959779714863326717e+03
-6.273222527177298616e+03
-4.972504365713692096e+03
-3.174042774205790920e+03
-2.480929149194822912e+03
-2.140406672267826252e+03
5.976273265437905593e+02
-2.665492567070712539e+03
-2.383208077428914294e+03
-5.475227863553035604e+03
-6.292573806413123521e+02
5.604149600117652881e+02
-3.035293823366003380e+03
-2.597395655833250657e+03
-9.854296069629402410e+00
-2.868623113265133270e+03
-2.951745868636205159e+03
2.057712862127557116e+02
-4.029042706823024218e+03
-4.623143616597159962e+03
-2.314699625672287766e+02
-3.374056796986721565e+03
2.060765743710775268e+02
3.119514591627608411e+02
-5.353417246878940205e+03
1.580972674183621791e+02
-9.094587811480662367e+02
-1.630075900040018951e+03
1.479242226466229340e+03
2.386432349921726200e+03
-1.088515151561097355e+03
-2.455916648642358666e+02
-5.567493003816883856e+02
1.208105106478452171e+03
-1.969095794605110314e+03
-1.916359116283628055e+03
-2.419623593700411675e+03
-1.573881539162457329e+03
-3.259180325785024252e+03
-2.254621676063897269e+02
7.052108650250266919e+02
1.054857891208839874e+03
1.721472043667432445e+03
2.239029653783698905e+03
2.545552003161081302e+03
2.842155122198164463e+03
3.131006253920523704e+03
3.292067240059975120e+03
3.223309820791880611e+03
3.152670749879039704e+03
2.696113396624522920e+03
2.527586549707839822e+03
2.506015224934674279e+03
2.434397647928627975e+03
2.524842746413637087e+03
2.164445606632194540e+03
2.030283783705037195e+03
1.756524686969931508e+03
1.023336164492246780e+03
1.014681692812499023e+03
8.892616334757158256e+02
9.769217545789272208e+02
1.507447494975341669e+03
2.036110691345602163e+03
8.131963418310357383e+02
8.506166218472968694e+02
1.870497644897830696e+03
2.869908143044402095e+03
2.796697929282698624e+03
2.716983684249883936e+03
2.084566305714643022e+03
1.885245136311765691e+03
1.913905011939405540e+03
1.940733007259609622e+03
1.444260012425113700e+03
1.174280471295353664e+03
1.270844194886433570e+03
1.260328916348360281e+03
1.250353503267555880e+03
7.571110369679513497e+02
8.515485648103644962e+02
1.286797386126129595e+03
1.046867490192180639e+03
1.048764364772381668e+03
1.520548392174194305e+03
1.554149819472411764e+03
1.774509016714595191e+03
2.176123336580667456e+03
2.056153523838268939e+03
1.973913629707071777e+03
2.494460379208433096e+03
2.744294588093761377e+03
2.538598241791570217e+03
1.665381825732333255e+03
1.280520153410330295e+03
1.616909424617298328e+03
1.399482200922135007e+03
9.850207927387499467e+02
6.683984625738539762e+02
5.877323318275042539e+02
9.209848754359132954e+02
1.173154486371286566e+03
1.316229600590437485e+03
1.366205779421422449e+03
1.330110122085243347e+03
1.407928858364059579e+03
1.242590964631554698e+03
1.205060835067126845e+03
9.642864489810395980e+02
6.311973423575582274e+02
5.698850482518589615e+02
8.173121975533231307e+02
1.168509313007381024e+03
1.428624761410230576e+03
8.438112171175009735e+02
1.780203933232333497e+02
-4.039581960859102310e+02
-3.154222688343603750e+03
-8.231924395787062167e+03
-1.188990850981868425e+04
-1.196999444371485879e+04
-1.120208217483418593e+04
-9.532245086651693782e+03
-7.847539616726664462e+03
-7.678762633543276934e+03
-7.744673038325860944e+03
-6.837342181187051210e+03
-5.697956766958726803e+03
-5.280641104853682009e+03
-5.657855644319849489e+03
-6.491895617780035536e+03
-6.785013797868614347e+03
-4.559572435618355485e+03
-3.147518610244903357e+03
-7.509773847816471971e+03
-8.289266645911542582e+03
-8.061950815797684299e+03
-7.836915417768404950e+03
-2.006090955295377853e+03
8.445625007298401670e+02
2.158078847880448848e+03
2.968601601096650484e+03
3.372278487932896951e+03
3.252223259805132329e+03
3.510243196595749851e+03
4.031276169600849244e+03
4.221527600000591519e+03
4.140262720249828817e+03
3.983590114365552836e+03
3.829509963305302790e+03
3.557042262756009222e+03
3.300899182859142911e+03
2.723003743075978946e+03
2.510510673032574687e+03
2.220352571650412301e+03
1.954448409480852888e+03
1.559895770330061168e+03
1.518983342449251722e+03
1.298842384512170156e+03
7.585188750201217545e+02
3.140526240142725669e+02
5.794330223739966641e+02
1.552614531837853065e+03
1.985549471879424800e+03
1.950311582784500388e+03
1.838010813879637226e+03
2.108731956962832101e+03
2.551583913954197669e+03
2.862605509259216888e+03
2.276849453510621970e+03
1.857403385800565275e+03
1.734300633692398833e+03
1.339590377323767370e+03
8.793245889173643945e+02
3.895866648930960991e+02
5.484404615446142088e+02
5.318480838194086573e+02
3.189143797095530317e+02
1.776652049804775686e+02
-7.084919290483263410e+01
-2.753117406206730777e+01
-1.142422253610344427e+02
-5.419745504366335354e+02
-3.677276838744058409e+02
3.342113401299269526e+01
-1.524136128146424198e+02
1.590952046407396381e+02
7.123996829568256999e+02
8.948565125284573014e+02
3.182065456017596716e+02
2.679041905851193519e+02
7.656274236722434807e+02
-1.903301876069416210e+02
-1.032165008084758938e+03
1.796380245958387789e+01
-5.221480674525055292e+02
-1.284583133966130845e+03
-1.274358290868072800e+03
-1.573229793030683140e+03
-1.638295693487804783e+03
-1.885802779676186674e+03
-1.721656794112036778e+03
-1.448731533084847797e+03
-1.188987324219333004e+03
-1.276338869166444965e+03
-1.074803097096145848e+03
-2.132157750614001941e+02
-9.060933342053789374e+01
1.558959531148009603e+02
5.983162202710242354e+02
6.026791628472963112e+02
2.100417286884616601e+02
-2.985227078656158142e+02
-9.936356584036508011e+00
4.408759620290215366e+02
3.507006382171360883e+02
1.555492225343600410e+02
3.505155557808543563e+02
3.497750278335672078e+02
-2.044803750480861595e+02
-4.114088160643233323e+02
-4.371853159380744387e+02
-4.180359016279085722e+02
-2.391361597780415238e+01
3.498398635576954234e+02
6.000503674832984871e+02
6.541431280545017444e+02
6.502119757233676864e+02
1.202782105919087371e+03
1.255860956979671300e+03
6.298245035017182545e+02
1.002373915650427136e+02
2.810161931180358010e+02
4.288316620623371591e+02
3.847884922434225814e+02
3.713556821124836915e+02
-4.913692847133926875e+02
-8.596664291546878758e+02
-6.378245773843318602e+02
-1.085165547455760588e+03
-1.704688419016390981e+03
-2.088373267998244501e+03
-9.894800006140329742e+02
-4.590748319311137493e+02
-1.302182041410798377e+02
-1.730168537352838882e+02
3.634255806272021232e+02
9.167793384211379362e+02
1.545951788713968881e+03
2.141065043888304444e+03
2.493593248673020753e+03
2.105763408789808636e+03
1.890680295218023048e+03
1.945422151075277498e+03
1.101657810145764643e+03
-2.035482967780862964e+02
-8.067407626262624945e+02
-1.332774744901043732e+03
-5.175593948066864868e+03
-2.453353906689051655e+03
-7.756702782747573792e+02
-2.767654031152977041e+03
-3.961529195159752362e+03
-2.723015219355980889e+02
-2.560225280988840950e+03
-2.620558497568345956e+03
1.342744886192225522e+03
2.740639928943596260e+03
3.044095416119593210e+03
3.133359417230140025e+03
2.864265467381776944e+03
2.634698746058844335e+03
2.074291946311052470e+03
1.313217950853499360e+03
1.258829016830396085e+03
1.221068475837904998e+03
1.969682922320376974e+03
2.461200294906403087e+03
2.019099582487755924e+03
1.393809008886900301e+03
8.295665327375425022e+02
1.198818722671477872e+03
1.742653420170804111e+03
2.585522398430684007e+03
3.967365061570307716e+03
4.416828405830633528e+03
4.040020130137434080e+03
3.515492213550024644e+03
3.203444003403815259e+03
3.651838874014560588e+03
3.174762027454327381e+03
2.637746907172502233e+03
2.616548080273391406e+03
2.630615328361438060e+03
2.546689405738901314e+03
2.889969776631232435e+03
2.627034911178740913e+03
2.341971297329429035e+03
1.809806332830228484e+03
7.514589730732636781e+02
-8.990494915359113293e+02
-1.042699263720508725e+03
5.694701370195346044e+02
1.979450659719318082e+03
3.077240397807207046e+03
3.644871807729753073e+03
3.791373648818440870e+03
3.843738665811127248e+03
2.245958075075303441e+03
2.040611626450528320e+02
-1.198938675114738317e+03
-1.218035199502191062e+03
-7.911730065730901060e+02
-1.075286246462629606e+03
-1.087354939394442908e+03
-3.422306895792646060e+02
-4.678818741095854534e+02
-3.132250283515627416e+03
-8.877279871744436605e+03
-1.181488357326978075e+04
-1.147903523163349746e+04
-1.147743918117567773e+04
-1.116415883962881708e+04
-1.026717310567178902e+04
-9.848327793684324206e+03
-7.614494683726861695e+03
-7.744534746084169456e+03
-9.665321837807478005e+03
-1.063283104425755118e+04
-9.634969195251092970e+03
-7.522631973684553486e+03
-3.745702883532769647e+03
3.172889493033715553e+03
3.634306498334179651e+03
-6.833306641163754875e+02
-2.834897513047677421e+03
-5.514182036934374992e+03
-6.933035988570733934e+03
-7.716405688367051880e+03
-8.168214214456196714e+03
-7.608346605438699953e+03
-7.768702195069772642e+03
-7.819104789876967516e+03
-8.629427346348980791e+03
-8.420551768814380921e+03
-5.897277520947467565e+03
-4.005526472495221242e+02
-1.191329683978393405e+03
5.895791651483151554e+02
2.891269768519754962e+03
4.432891121985044265e+03
5.379520141452730968e+03
6.417318265689685177e+03
6.093612405063006918e+03
4.772537718943536674e+03
4.315174220404934204e+03
3.667474960946332430e+03
3.594415523095786284e+03
3.918047719706640237e+03
3.704536714557420055e+03
4.328001165103340099e+03
5.278579260781055382e+03
5.816390177565760496e+03
6.000478598053338828e+03
4.753824585180225768e+03
2.664568844094136239e+03
1.687858899393193951e+03
-3.542880121469287360e+02
-2.632794836127569852e+03
-2.960663984722663827e+03
-1.128844859843607537e+03
7.998828057725340841e+02
9.854872795315508256e+02
-2.840432461037212306e+02
-3.983589260630615627e+03
-6.607972180592974837e+03
-7.253962805304213362e+03
-6.590376662983166170e+03
-6.758228418501274973e+03
-7.431646446403103255e+03
-5.951638350913047361e+03
-1.419066623480960288e+03
3.533153911643341871e+03
7.151997249636314336e+03
1.024943096288173729e+04
6.853439980012822161e+03
8.130063313920642031e+03
1.008641606798022440e+04
9.903489373025826353e+03
8.598267600109344130e+03
7.425561480677979489e+03
6.775577636539697778e+03
6.172559085013889671e+03
4.139815563078604100e+03
2.374040319432018805e+03
5.806561332105875408e+02
-1.300719340427805491e+03
-2.058159692303994234e+03
-1.094633991834614562e+03
1.120701011965768203e+03
2.536909770291737516e+02
-2.452799998232311737e+03
-3.454789361313680274e+03
-1.662290074300288552e+03
1.610668271092030864e+03
5.014968582299803529e+03
8.767548636586614521e+03
9.407360852264298956e+03
7.937315669084769979e+03
8.221321625265478360e+03
7.646266827920779178e+03
4.905082631212657361e+03
2.245670548790335033e+03
1.677923997649059629e+03
2.351690430847306743e+03
3.395866448056825902e+03
4.923387237638982697e+03
6.331168201993723414e+03
6.628107297719917369e+03
5.638999143850436667e+03
5.006734391807920474e+03
4.875204888928499713e+03
4.747321965815887779e+03
4.754916783251886045e+03
4.839864156075364917e+03
5.099090551722639248e+03
5.604571274011124842e+03
5.477149814183230774e+03
5.069684550102774665e+03
4.723065626849766886e+03
4.944181316289214919e+03
5.027963934483011144e+03
3.648202660218584697e+03
2.912777839166511967e+03
1.609553795915260253e+03
5.738240216541949223e+01
-9.658347442126478199e+02
-1.280225203556216002e+03
-1.874908225317853066e+03
-2.929965674251788641e+03
-5.987620124232391390e+03
-1.030698691000560029e+04
-1.432707576828883793e+04
-1.507901819836007235e+04
-1.537796729517310450e+04
-1.546101360629345618e+04
-1.533520127075431083e+04
-1.199967973183966205e+04
-5.587642377052077791e+03
-1.888106293465988983e+03
1.785015548449715652e+03
3.031360403928300457e+03
2.621908235002108540e+03
2.128669898279810241e+03
4.368456072794340798e+03
5.378216203358327220e+03
2.760874683854466184e+03
1.009346455362723191e+03
3.615192450384183189e+02
-8.970279728064332403e+01
9.613224287546129787e+00
-2.865516178918548462e+02
1.304776663547363569e+03
1.767520600290886705e+03
8.326208237911085916e+02
-7.219734138977961493e+02
-2.574287576708439246e+03
-4.445315713516542019e+03
-5.831061377374941003e+03
-6.668509500969295914e+03
-6.150763916505980887e+03
-8.486840154882582283e+03
-1.181775111526297587e+04
-1.437950113742331450e+04
-1.494009655058412682e+04
-1.249454739320130648e+04
-1.094976585734233959e+04
-1.119277164790817733e+04
-1.463360536579974178e+04
-1.826820396951578732e+04
-1.315354005551456794e+04
-8.198564015324436696e+03
-1.023922746833673773e+04
-1.148848124430714233e+04
-4.339241071251345602e+03
5.219513963626916848e+03
8.857901216210617349e+03
8.457026629176243659e+03
7.711005247641685855e+03
2.670792339514050582e+03
-1.326560879714718567e+03
1.269062463595848840e+03
6.238793380430058278e+03
9.364753414196307858e+03
1.094993852508883901e+04
1.038537094046294078e+04
1.021922152073502002e+04
1.179858078408670917e+04
1.140556500787075856e+04
1.147223313360362590e+04
1.158771683442714311e+04
1.084211578610795550e+04
9.427625097217072835e+03
3.560320439953063669e+03
-4.244721366764889353e+03
-1.104037056247053988e+04
-1.166847327551864146e+04
-8.657937170569557566e+03
-2.662610717950607068e+03
7.907617251800937083e+03
1.799987893292595254e+04
1.907539624023760553e+04
1.441731150879312372e+04
8.893774025875703956e+03
1.986380560744208879e+02
-6.125226595607420677e+03
-6.371191362061793370e+03
-7.995296287616522022e+03
-1.247331504813065658e+04
-1.399875080006773351e+04
-1.078796164878376840e+04
-5.615053603717380611e+03
-1.284290484737817451e+03
-4.599638782702070898e+02
-1.922838062235192638e+03
-4.853652332156526427e+03
-5.814256671054905382e+03
-4.693502196525540057e+03
9.497565037419484497e+02
-5.228519872086845766e+01
-5.642519860923267515e+03
-6.592881187266926645e+03
-7.103224125660370191e+03
-7.442490790730232220e+03
-8.328599851245995524e+03
-9.225356722008375073e+03
-9.441623706314043375e+03
-9.765296645916492707e+03
-1.002335001553833172e+04
-9.795663469458839245e+03
-9.530165108580114975e+03
-8.929791865800949381e+03
-7.815426921725806096e+03
-2.988909421183876930e+03
-3.345085585907180302e+03
-4.999848146233511216e+03
-2.730194919171727634e+03
2.751054534983079975e+03
1.005097619119935007e+04
1.126059385298616144e+04
1.112298882372954176e+04
1.132518306644986296e+04
1.140924610598465915e+04
1.133923216705213417e+04
1.147418627552037287e+04
1.120617742576451928e+04
1.135732355942162030e+04
1.184873147771732147e+04
1.204731334780188081e+04
1.227295830688650312e+04
1.240866644060597719e+04
1.270749240831870702e+04
1.333750123151414300e+04
1.331172011022708284e+04
1.311515145816130826e+04
1.310694807207506892e+04
1.283920287657085464e+04
1.232890356718365911e+04
1.141893209921450580e+04
1.082724399072808046e+04
9.501833425260243530e+03
8.600556724261592535e+03
7.869231856472399159e+03
6.818804346130496015e+03
5.655795457179080586e+03
5.110705838228959692e+03
3.963412707673694968e+03
3.682367483804839139e+03
2.559568040095583001e+03
1.559016964177987802e+03
1.622632371412960993e+03
1.259368134653549987e+03
1.518977076262979836e+03
1.648588327677397729e+03
1.192225110009302398e+03
8.097967073224243677e+02
4.200751079993229951e+02
-5.168782956117158847e+02
-2.053774092592807847e+03
-2.827352726332814655e+03
-3.738925277484682283e+03
-4.705162728146183326e+03
-5.105210167311479381e+03
-4.481130165642816792e+03
-4.080140366919617918e+03
-4.863356214795530832e+03
-5.654938373672963280e+03
-6.316057911793028325e+03
-6.745770689053462775e+03
-6.931214496344033250e+03
-6.887277939404226345e+03
-6.186872263017846308e+03
-6.257819901838597616e+03
-6.650670481237493732e+03
-6.338194357259033495e+03
-6.785666613543548010e+03
-7.844291093795017332e+03
-9.454173074244754389e+03
-1.007040555921820123e+04
-8.367121067349411533e+03
-6.148385571915882792e+03
-3.705244005529791139e+03
-2.595848246563421981e+03
-2.552322316331763432e+03
-3.262846391542309902e+03
-3.314572712447583854e+03
-3.178553527367787410e+03
-2.491949205162125509e+03
-1.091934730724698284e+03
-2.486221270957974809e+02
-6.330680857948773337e+02
-5.902523862320573471e+02
2.398287998090722226e+02
6.650457831545508043e+02
1.631407315796142484e+03
2.004859263561050966e+03
2.217213329751725269e+03
3.775252971455190163e+03
4.157777851737376295e+03
3.553804597713511612e+03
7.513419487973087598e+02
-4.857437258850033686e+03
-9.142623201815767970e+03
-9.056426600238095489e+03
-8.625045738729071672e+03
-9.038517849307436336e+03
-9.595866453999718942e+03
-1.013336738127759781e+04
-1.015136638725358534e+04
-9.568032616403917928e+03
-8.899456677746475179e+03
-8.971912020829819085e+03
-9.457404499952428523e+03
-9.087424874320984600e+03
-8.198221898802928990e+03
-3.904674162768414135e+03
-1.238642692659229851e+03
-1.466149190354739630e+03
5.622748568412170243e+03
6.273059409252286059e+03
3.270887054761382387e+03
-1.157766588093243172e+03
7.681659112765662485e+02
1.755674332731859067e+03
4.007633965751462256e+03
5.166930604984136153e+03
4.722447759850580042e+03
3.529393648867694992e+03
3.125950938154833693e+03
3.171047043550878243e+03
3.582478123252782552e+03
3.402137392131558954e+03
3.392944481834141698e+03
3.717851729439594692e+03
4.049113267768017522e+03
3.975935281145743375e+03
3.919223746352240596e+03
4.104143789494648445e+03
4.316930790807488847e+03
4.297716801277366358e+03
3.924410576907528139e+03
3.263934748917175511e+03
2.593300147566223131e+03
2.092479512354303097e+03
2.415476846909789856e+03
2.523425499743189448e+03
2.382494136208043528e+03
1.882710875015172178e+03
1.589161826201976055e+03
9.699511907149419585e+02
4.250831692022372295e+02
4.066565928418999079e+02
7.717379243727568792e+02
8.133812934556982555e+02
8.867353740150048225e+02
8.299059592011111590e+02
7.679808265261565339e+02
1.385001140500738984e+03
1.648061971121823262e+03
1.922394790368576651e+03
1.889047154388936178e+03
1.552137075741653916e+03
1.332774147728614707e+03
1.309012555648668695e+03
1.185903195709314105e+03
1.154454138696164136e+03
2.635882469790003597e+02
-4.944046830196723477e+02
-5.389154376434454434e+02
-2.496421734557548859e+02
-5.772960036789254445e+01
1.738786535940963347e+02
4.922317573222641158e+02
7.784287370662694912e+02
5.225162432129150147e+02
-3.179631494557092424e+02
1.184888892908485332e+03
1.401045369686620006e+03
1.003649264171432037e+03
1.516841844612188879e+03
1.438690132167947922e+03
1.419029199639729995e+03
1.666961111042742914e+03
1.599808322945121517e+03
1.381603883501325527e+03
8.782977629299383580e+02
2.369267245136486508e+02
-3.784887002693221234e+02
-4.078937272545310293e+02
7.060597563841123758e+01
-2.118484922127181846e+02
-5.281117207562771227e+02
-4.530875910859868441e+02
-2.396734073107971881e+02
-1.338326743053466430e+02
2.884626638239728891e+02
4.532181484730755301e+02
9.354033684233305621e+02
9.322424845995479927e+02
7.558593934097699503e+02
8.662656326234675817e+02
5.773138217191204831e+02
6.177660667303072159e+02
4.326514331230461607e+02
-5.389681277242798387e+02
-1.199813028499780330e+03
-1.615818474672055800e+03
-1.862691344124207035e+03
-2.122564407642463266e+03
-2.591951698941338236e+03
-2.765907805494637614e+03
-2.780131568136647275e+03
-2.434003135093287710e+03
-2.235220317307434016e+03
-1.344529473108436150e+03
-1.141912232278741158e+03
-1.226974880634028523e+03
-9.927038853055821619e+02
4.238756275270316110e+01
7.939753083200795345e+02
7.640663623378898137e+02
3.286840431519567574e+02
4.897549707064002433e+01
-8.251343416840596774e+02
-1.663850391355096917e+03
-1.658108081512069930e+03
-1.749046958433430291e+03
-2.183608563590169524e+03
-1.980760568626848453e+03
-1.627477901884542916e+03
-1.655385453269667323e+03
-1.352240945762754109e+03
-4.150155821504297364e+02
1.248150294705450847e+02
2.729014990461865864e+02
2.538865911748249573e+02
4.852122810656979368e+02
9.125972565942912524e+02
7.046107649040552587e+02
1.142666164521389192e+03
-2.561313366425465119e+03
-1.041069807938723216e+03
7.986000266308044502e+02
3.246880874476958212e+01
-3.950431853742803014e+03
-3.421954692367675307e+03
-4.102309669030461009e+03
-4.929348215337847137e+02
4.718679051280039403e+02
6.150154560074075789e+02
1.206030454152073048e+02
2.987971252756727836e+02
5.406417267489965752e+02
6.139829643644764019e+02
8.487553913167992050e+02
1.589665501280631133e+03
1.791601885948881318e+03
1.838818237649670436e+03
2.197310656102515622e+03
2.712990868765888081e+03
2.691850688193816495e+03
2.719838872758099114e+03
2.703892890256843657e+03
2.439851121777967364e+03
1.885672649940210476e+03
1.691322628053920198e+03
1.501633694288705556e+03
1.629591626651519846e+03
1.252079221313719700e+03
7.650269297765597685e+02
7.132846971481609444e+02
1.022615897464663817e+03
1.084150114771949575e+03
1.552795401321528061e+03
1.914133335666432458e+03
2.160883304023433539e+03
2.705645968979689769e+03
2.661541407257677292e+03
3.272124899245833149e+03
3.357309616380302032e+03
3.264063709558780374e+03
3.059356452113016530e+03
3.064186156278152339e+03
3.005462476335587326e+03
2.614130751126262567e+03
2.297227336806591211e+03
1.755704925873459615e+03
1.576508564707300593e+03
1.700593667225794889e+03
1.702897055733819343e+03
1.542512317373080350e+03
1.407464637232973701e+03
1.566756405933046835e+03
1.912475607339699764e+03
2.181660589260191955e+03
2.710349622267021914e+03
2.844542865631503446e+03
1.552374736750017291e+03
-1.401132860173942390e+03
-6.491009201554081301e+03
-8.244182694982016983e+03
-7.357591073767234775e+03
-5.412270736162319736e+03
-6.833033013698365721e+03
-8.196975884854260585e+03
-8.624105536384689913e+03
-8.576348115234755824e+03
-8.532319698384266303e+03
-8.575228892108376385e+03
-8.009111459452463350e+03
-8.132950791955235218e+03
-7.744646418300417281e+03
-7.050141002877015126e+03
-2.123402235952743467e+03
-2.002271586001428659e+03
-6.148640971025393810e+03
-6.272502812852377247e+03
-6.235726586945922463e+03
-5.346241874433460907e+03
-4.912038714353122487e+03
-5.140120622175709286e+03
-5.103433154178260338e+03
-5.556877465733315148e+03
-5.786384003770302115e+03
-5.944906196197352983e+03
-6.338383011102755518e+03
-4.421766645939491355e+03
2.307949553233680945e+03
3.868777440582601230e+03
4.303826963327323028e+03
3.622222244947240597e+03
3.641970190506891413e+03
3.731168002519018046e+03
3.842939719873472768e+03
4.135447528146597506e+03
4.780725359952829422e+03
4.994665713903119467e+03
5.012295619979347975e+03
5.310607410016988979e+03
5.269688526908217682e+03
4.882688597555259548e+03
4.381834770122212831e+03
4.092115832179094923e+03
4.080543825683262639e+03
3.776173505211921110e+03
3.121964378757955728e+03
2.745918855992928457e+03
2.327188146514480195e+03
1.916806037087745381e+03
1.812778785351416900e+03
1.635252025889618608e+03
1.167297614215186059e+03
1.091995647075216766e+03
1.944385403717688177e+03
2.168417446403578651e+03
2.366260617196173371e+03
2.215070677719957530e+03
2.294085307293682035e+03
2.591480374641225808e+03
2.872321768941953451e+03
3.009652144529869474e+03
2.904658964715149068e+03
2.811572967534795680e+03
2.261395375118784159e+03
1.840144137216517265e+03
1.609865416437109388e+03
5.364569918980989769e+02
-3.794050007342660592e+03
-1.633486999037439546e+03
-4.577615633545128730e+02
-8.178939059025543656e+02
-1.236866004043037492e+03
-8.569727381875452465e+02
-5.659046817900429005e+02
-4.207635108419837593e+02
1.063268462354530008e+01
2.661000967847924130e+02
5.240495332899025698e+02
1.419055216003565647e+03
1.873443217128512060e+03
1.574931751230705913e+03
1.523361740589159581e+03
1.612829296024433006e+03
1.361469618090118274e+03
9.213330038871546321e+02
4.794005776605471283e+02
-1.432066242569668191e+01
-6.485399141190814021e+01
-5.301562521459637765e+02
-8.092259253002981723e+02
-8.591419299835367838e+02
-1.015925889283859192e+03
-1.403489469098540667e+03
-1.170818263388696550e+03
-1.089917942466634258e+03
-4.847698504641315935e+02
1.276945714421121494e+02
4.575622975395907588e+02
9.307978119750831638e+02
1.246370391216647477e+03
1.136220332879562420e+03
1.014255492853066016e+03
7.984804119108545137e+02
1.029194712309072202e+02
-8.946630605820772075e+01
1.212867091073419772e+02
-4.738254275580263766e+02
-7.778460784426200689e+02
-1.055818377703192482e+03
-1.358769420674265348e+03
-1.386719300472012719e+03
-1.438698232542302321e+03
-1.439726345358358458e+03
-1.393847614388075726e+03
-1.244098515585252244e+03
-7.134350851595254426e+02
-9.991981708271789842e+01
2.903491359196434018e+02
5.203586005871183033e+02
6.740934426141371887e+02
1.088441955190432964e+03
1.433175082301801808e+02
-4.158333256263080330e+03
-9.566453471741346220e+03
-1.132900116076863560e+04
-1.120512895377453970e+04
-1.122592635731222254e+04
-1.109942334712388583e+04
-1.103168385272060732e+04
-1.021786118989219722e+04
-5.195064860024088375e+03
-1.314226006353700768e+03
-2.573843542253370060e+02
9.001842259470226963e+02
1.573588132545922463e+03
1.873817001819520783e+03
2.161741980440531279e+03
2.674354697580039556e+03
3.116584031382397825e+03
3.256308539105410546e+03
3.514498992883020492e+03
3.316084747963204336e+03
2.998085276751263336e+03
2.838437558127292505e+03
2.358072231771721363e+03
1.968882714631854014e+03
2.018736082369470296e+03
2.041653139808445303e+03
1.930545037730312742e+03
2.022299577891843001e+03
1.723872043198276060e+03
1.495207966269692179e+03
1.303201578352737897e+03
1.891809453992109866e+03
2.238948746479532019e+03
2.401669868145472719e+03
2.725939803121092154e+03
2.811670600106200254e+03
3.212861443093227535e+03
3.830421649350443658e+03
3.818290842084413725e+03
3.870535305686505581e+03
3.833072397163220558e+03
3.908798214024019217e+03
3.692642061872088561e+03
3.301523074455153164e+03
2.737424254257782650e+03
2.597303849832749620e+03
2.460116213817943844e+03
2.266796206732773499e+03
1.924312297458448029e+03
1.512603110099953710e+03
1.353679253363197404e+03
1.607499801871364525e+03
2.209964799131929794e+03
2.590966088251695055e+03
2.805469348824828558e+03
2.877513245002328858e+03
3.347081872177731384e+03
3.738150786750300085e+03
4.005819686286240085e+03
3.802083487612643239e+03
2.546912300166073692e+03
2.470208922679568332e+03
2.387980991616564097e+03
2.202187166605485800e+03
1.961746563474006280e+03
1.667689122605504508e+03
1.472958721768393161e+03
1.037420556135571360e+03
7.641223424787729073e+02
8.331137227231239422e+02
1.319432515210600286e+03
1.184010873351166765e+03
1.490797423377851828e+03
1.591939954071898455e+03
-1.202631378109654406e+03
-6.051608774476586404e+03
-8.090312385537506998e+03
-7.242792584377549247e+03
-6.641898533031421721e+03
-6.965306659605329514e+03
-7.047279572862852547e+03
-6.949718776135474400e+03
-6.794946752400413970e+03
-6.416880693567703020e+03
-6.868499641323721335e+03
-6.836708724006165539e+03
-7.609508022943800825e+03
-8.314910996851300297e+03
-6.873914292448466767e+03
-2.196471229276060512e+03
-3.803603444821959783e+03
-7.552214577714999905e+03
-7.268245923703547305e+03
-7.036728306900677126e+03
-5.904633014132969947e+03
-5.118875987726973108e+03
-4.417388725576244724e+03
-4.397165958158389913e+03
-4.307191913867279254e+03
-3.854377147324509224e+03
-4.336692686860245885e+03
-4.226164776245289431e+03
-4.490811818711978958e+03
-4.228526403876106087e+03
-1.703054056570835542e+02
-2.949182596058308718e+03
-5.774142474113620665e+03
-5.561066246003540982e+03
-6.003935482848312859e+03
-6.172720656687641167e+03
-2.763392786692709251e+03
2.502029992728917023e+03
3.610638329261040781e+03
4.085421685768708358e+03
4.434502273175078699e+03
5.025983321559925571e+03
5.601909412343773511e+03
5.762278007713060106e+03
5.898115022288536238e+03
6.590478924541206652e+03
7.062392669905068942e+03
6.952892206021015227e+03
6.501039743254613313e+03
5.550722869761822949e+03
5.037860043957826747e+03
4.471470985077405203e+03
3.872957757871750346e+03
3.933430668499924650e+03
4.025914600114038876e+03
3.848398190990968033e+03
3.537950902728794063e+03
3.737606612609001331e+03
4.198526580633196318e+03
4.015989532630492704e+03
3.875272134833269774e+03
3.796241696863058223e+03
3.227932904444440283e+03
3.924975951877827811e+03
3.736701597388139817e+03
1.760447915254454074e+03
-3.982472776290150591e+02
3.035486234778216840e+03
3.353006591231652237e+03
3.386270497879098002e+03
3.003158074260237754e+03
2.654745800886631514e+03
2.367963931444370701e+03
1.681746859391979342e+03
1.612833066735504872e+03
1.349537201698395165e+03
9.261484679117676251e+02
1.155373350326022091e+03
1.399286850539025863e+03
1.548909131099812157e+03
2.131277825572528400e+03
2.803911366248594732e+03
2.915081442455885735e+03
3.021990613990058591e+03
2.951706889780910842e+03
