7.608072223407443744e+02
1.033322846310967407e+02
-2.646317265846952864e+02
-8.550187397385348049e+02
-7.478131214214919282e+02
-1.419055680351851834e+03
-2.155934062900439585e+03
-2.450532407086947842e+03
-2.269930242363818252e+03
-2.095239608726976712e+03
-2.330567705872447732e+03
-2.139893594936203499e+03
-1.645222469794041444e+03
-7.296157978024050408e+02
-1.551180190273896926e+02
-2.777877984861622807e+01
4.550477892011604553e+01
3.447839298969487913e+02
9.259211564148562275e+02
1.232765833516915336e+03
1.153216806524294043e+03
1.098201723429703407e+03
5.895434349877955356e+02
1.701765157695291748e+02
-5.040422502102903195e+02
-1.038236319481849932e+03
-1.265340427822543006e+03
-1.755418026677250964e+03
-2.065463718975765005e+03
-1.778590610183766103e+03
-5.988686429540233576e+02
8.126760469400209104e+02
1.160056081887544451e+03
1.630412443077432499e+03
1.954746466685600126e+03
1.910931614957219381e+03
2.065727082103572684e+03
2.034177357236475018e+03
1.919489241165071007e+03
2.025582008361037424e+03
1.715379233578030835e+03
1.843713862978675252e+03
1.052929236602290985e+03
3.648544253053996727e+02
3.850000455617427519e+02
5.786177831606991049e+02
4.899591523943531115e+02
3.793688309732696098e+02
3.992924475510815228e+02
1.053007524450129040e+03
1.559256899347589979e+03
1.197502601779454380e+03
1.190737358587052313e+03
1.800377187821213056e+03
1.801402233678320272e+03
2.248870141816475552e+03
3.126668376870843076e+03
3.160564138589262711e+03
2.799952430075928078e+03
2.080298897710870278e+03
1.952835849265102297e+03
2.003215907949544999e+03
1.684648024296772974e+03
1.836259630847774133e+03
1.643847394892150760e+03
1.449233642373892280e+03
1.241497071853637863e+03
1.015585783486193918e+03
8.623507991540136572e+02
1.173225388887359941e+03
1.502762292612271040e+03
1.882677415674523445e+03
2.119390937123553613e+03
2.499226511636336454e+03
2.859887938785848746e+03
3.009143123182789623e+03
3.395037951480919219e+03
3.209637539873201149e+03
2.822885362698483732e+03
3.309817872667118991e+03
3.669412730437106802e+03
3.699592762876312918e+03
2.907425918700554575e+03
2.229969682523479605e+03
1.982207799962013041e+03
1.924119010234924417e+03
1.592725775463162336e+03
1.346051869934584147e+03
1.290236025327515108e+03
1.607262800950062456e+03
2.587120305063122032e+03
2.465798335611906168e+03
-2.396382361632101663e+02
-4.621111749366317781e+03
-6.239477781050048179e+03
-5.564717870847503946e+03
-5.578749410049827929e+03
-6.138489336788215951e+03
-5.550942687065348764e+03
-5.878106213628717342e+03
-6.358012163498618065e+03
-6.241621733391856651e+03
-6.416856152164563355e+03
-6.553666682405198117e+03
-4.960066295568419264e+03
-5.386950460617315002e+03
-6.368180951193391593e+03
-2.938705888102884273e+03
-4.462414923647623255e+03
-7.573337236296298215e+03
-7.109444760177572789e+03
-6.839682538509749065e+03
-5.835981715505988177e+03
-5.287151227213749735e+03
-4.368101563329631972e+03
-3.685809714557630286e+03
-4.005225720297167300e+03
-4.572333986412057129e+03
-4.345022242838680540e+03
-4.446197074400025485e+03
-4.791889035022139979e+03
-3.082079036232481485e+03
1.270330543713640509e+03
2.852416710346602031e+03
3.420216277972716398e+03
3.812815890923594452e+03
3.121230299807316896e+03
2.897440625833899503e+03
3.072550435080516309e+03
3.095719246109731102e+03
3.162058039404826104e+03
3.184547725515431466e+03
3.412296932260889207e+03
3.512489272300184894e+03
3.858219672184771298e+03
4.724535196580332922e+03
5.480518792158898577e+03
5.453248892160276228e+03
4.985837381517354515e+03
4.504240778051167581e+03
3.762517958138326776e+03
3.175697637175137515e+03
2.860846105535176775e+03
2.069004031897166897e+03
1.457246249355809823e+03
1.477664753730433631e+03
1.381280902821401696e+03
9.901190666736151798e+02
7.092267035921148590e+02
1.194644356114105221e+03
1.437424023778244646e+03
1.292712115607275791e+03
1.162523452444455870e+03
1.533974502759450161e+03
1.821192378072263182e+03
1.559315236309525744e+03
1.772310422001230336e+03
1.728218735811181887e+03
2.108186253734801085e+03
2.254037966190356656e+03
1.883683867862212082e+03
1.353302000255743906e+03
7.594192731093426119e+02
2.544222237656636878e+02
1.141845517468025406e+02
-7.534733608653681358e+02
-1.678479432293812351e+03
-2.237685575370629977e+03
-2.387051121734108619e+03
-1.998794261656496701e+03
-1.313817226515865059e+03
-1.063946173346862224e+03
-3.263094281449866116e+02
5.102512841320029224e+02
1.395175159614261247e+03
1.900467013382153709e+03
1.409148711699080650e+03
1.196593957256329531e+03
1.100464452413090612e+03
9.266831708528600302e+02
6.032325350043109893e+02
3.270231930767786821e+02
4.170726957362023768e+02
-2.335016923678442708e+02
-9.647280632515319212e+02
-1.368733677152393284e+03
-1.656578125209430027e+03
-2.066248476911644048e+03
-2.591820296065202911e+03
-1.814392581521711236e+03
-1.316969477885971173e+03
-5.595807187772051066e+02
4.478285855960863273e+02
6.373013320118759566e+02
9.158235504965097107e+02
1.692352521025286705e+03
1.906832266729467847e+03
1.682226589587062790e+03
1.748532864992728491e+03
1.641739947014060590e+03
1.086764996687411667e+03
8.236239409141533088e+02
2.331838462195779869e+02
-5.916539753524402840e+02
-8.899447982645090178e+02
-1.033686259354960157e+03
-1.008985367408244088e+03
-1.661935568513951239e+03
-2.200630715304431760e+03
-1.966092902681869646e+03
-1.761329316831045389e+03
-1.464438920922451643e+03
-1.170478271669448759e+03
-3.955339070526902674e+02
3.033324563640601355e+02
7.120617886633308444e+02
1.302639098076228720e+03
1.839033456677854701e+03
2.075086715119087330e+03
1.843789719615630020e+03
1.548157308909135736e+03
1.595100253595973754e+03
1.304444904495747778e+03
5.101679361057051096e+02
-1.990912337241666364e+03
-3.648934490793447367e+03
-2.520831080313168513e+03
-2.767700646936231351e+03
-3.400689577196949813e+03
-2.424800458260299365e+03
-5.941430372169148768e+02
-3.778446989714967685e+02
-3.394703248990702349e+01
3.405096787745260372e+02
6.383768553912641437e+02
1.988672985151303010e+03
2.873327678922230007e+03
2.538286083274495013e+03
1.363446859279874388e+03
-1.026116310153440203e+01
-2.509113274280834389e+02
-1.055190542550765684e+02
-5.191973677967851017e+02
-1.642145460702543005e+03
-4.424923069567073526e+02
9.748229175255622749e+02
1.063855898580949770e+03
3.745789785837536101e+02
-4.981107581528978017e+02
-8.334334814843650463e+01
-8.121490790440788032e+01
-7.906957119203759703e+02
-6.688588164172236930e+02
1.432008599832837348e+01
1.121051161987217256e+03
1.659417090430548114e+03
2.204083996683205896e+03
1.927853822802821014e+03
4.448355202386201199e+02
-1.349226698760936927e+02
6.354893510927499847e+02
1.991881321916968773e+03
2.349273113443645798e+03
2.121715010353082562e+03
2.111185062648694384e+03
1.626463280804979831e+03
1.754485172203818877e+02
-8.638374570857442905e+02
-1.316466508993165007e+03
-1.757466240781763418e+03
-2.606883570626015626e+03
-3.341569512683313860e+03
-2.388402597792935467e+03
2.437157421779594699e+02
1.851691409322324489e+03
2.596472349307555760e+03
3.490258057568973982e+03
4.860980029257075330e+03
4.872549370082821042e+03
4.750127957071608762e+03
3.728027611054365480e+03
2.455739421117839811e+03
2.390173916643421308e+03
2.435060995116958111e+03
2.395166595914806294e+03
1.107951121535847506e+03
-6.518464271844558198e+02
-2.173832560630844455e+03
-3.869908292222036835e+03
-3.269166334428389291e+03
-1.528556838769283331e+03
-1.415091832554528537e+03
-3.611757506236356676e+03
-5.122169294540743977e+03
-3.295996783187773417e+03
-1.274998951372097736e+03
-4.701933497499864956e+01
-1.688987349116011274e+03
-3.951151640002738986e+03
-4.678438024588793269e+03
-4.753157560640439442e+03
-5.641809767492819446e+03
-6.800542903518414278e+03
-6.433398832504377424e+03
-4.953521653382038494e+03
-5.061845045229538300e+03
-4.331253091404044426e+03
-1.674819036945024209e+03
-4.451837254422815022e+03
-6.931030028606202904e+03
-6.551412764986750517e+03
-4.954801871501369533e+03
-3.820366388995325906e+03
-2.848752198161630076e+03
-2.275613993163324267e+03
-2.830717146871786099e+03
-2.693252097417444020e+03
-2.849967648778498187e+03
-1.750886423621408767e+03
-1.904937195911149047e+03
-2.697264535891923060e+03
-1.443858054209961438e+03
1.381565913693660605e+03
-2.691155970880820405e+03
-2.756576494987153637e+03
3.676102842730413613e+03
4.319847433680462927e+03
1.474615172271803658e+02
-3.661273156146449764e+03
2.985455047630267927e+03
6.075672330133841569e+03
5.911301381048322583e+03
5.914032065111952761e+03
6.802932758891388403e+03
7.061157885870969039e+03
7.556666208162417206e+03
7.378322901119845483e+03
6.503874007724650255e+03
6.095217581262652857e+03
5.933357825401263653e+03
4.999208776394071720e+03
4.041644464525225430e+03
3.105816219793130585e+03
2.709198658154865370e+03
3.684634939964601017e+03
3.634817356669806486e+03
2.911713632833877455e+03
2.115738018385423857e+03
1.837640454554923053e+03
1.343620139686278662e+03
1.395768383463919690e+03
1.578860936358184972e+03
2.179512073546485681e+03
3.010819453709816116e+03
3.564215128205466954e+03
4.127278322974522780e+03
4.095252135515208465e+03
3.797812634932538913e+03
3.176192612021664445e+03
2.046403264176726907e+03
1.256271885945295992e+02
-1.364554469335721933e+03
-1.405742058676579745e+03
-6.412889453799117518e+02
7.583482758353432018e+02
9.914524843222445725e+02
4.506364219006487133e+02
3.346777124697155159e+01
-4.118206171549525720e+02
3.470064570521869030e+01
9.977802290140817831e+02
1.605444894026989687e+03
2.045894958668359777e+03
1.734505548345888656e+03
2.321425631421544495e+03
3.315275214733008397e+03
3.660997788383430816e+03
3.437126745917189510e+03
3.294178399768559757e+03
3.179313809102084178e+03
2.691010998150403339e+03
2.495537362176372881e+03
2.072935746671166271e+03
8.398572744397583847e+02
8.550122761328401566e+01
-1.711650042046000522e+02
-1.942452147423732924e+02
-8.948986362235598335e+02
-1.771009741455431822e+03
-1.681644781492350376e+03
-1.381030293158252334e+03
-1.032300229389771857e+03
-3.385592471229740568e+02
3.072754421187115668e+02
1.881237355856817203e+03
2.657378756195377719e+03
2.867894013504056602e+03
2.629067237297768315e+03
2.348041690319043937e+03
2.295701701997433247e+03
2.002885306533266430e+03
1.914513048224635668e+03
1.639518397221040686e+03
1.045056914204344821e+03
1.779261386421471514e+02
-8.003884476457490109e+02
-2.008175447638896912e+03
-2.508453518448637624e+03
-3.368298277759121902e+03
-3.962583640670378827e+03
-3.506342316513221704e+03
-2.466531483540782119e+03
-2.263042138155444263e+03
-1.860894519538371924e+03
-6.832573546589869693e+02
-2.556241499956529879e+03
-6.535678592753261910e+03
-1.109162156763874736e+04
-1.227120471052749963e+04
-1.251338548501391597e+04
-1.292505342186156304e+04
-1.408603806368451478e+04
-1.497023209785778454e+04
-1.423371116225718652e+04
-1.036750634420965253e+04
-8.576609365729831552e+03
-7.862131846858870631e+03
-3.814097859536109809e+03
-2.603526532660051771e+02
-4.560902089948455796e+03
-5.772560888910082213e+03
-7.153189704579327554e+03
-5.212625719573318747e+03
3.662014624031197627e+02
1.556168365480450120e+03
2.003309728074609438e+03
2.488767900275674492e+03
1.993626262897654215e+03
1.598981467678496301e+03
2.758900065752707178e+03
3.319568144579259751e+03
3.022023933420808135e+03
2.872333293958654394e+03
2.955595072783084561e+03
2.621930861125249976e+03
1.667572389559596331e+03
7.813985623181234814e+02
-6.355862983674342104e+02
-1.408322198424536282e+03
-1.231761674774402309e+03
-1.076861217286755618e+03
-9.145705127373779533e+02
-1.021933731171303066e+03
-7.698142336950404570e+02
-4.500281541446253755e+02
-3.244708827065199443e+02
1.058802159272585897e+02
1.232002773639461566e+03
1.649899817772832421e+03
1.880756849646986211e+03
1.526661714246653446e+03
1.792616481582590950e+03
1.907543191944773525e+03
1.394511455326483656e+03
7.856257737468527012e+02
3.838223789956933842e+02
8.410291918764689854e+02
1.053415513572210784e+03
1.128076632739456954e+03
8.629960069649780507e+02
6.091596245173676607e+02
4.026146272122048799e+02
1.544797802039367127e+02
1.607741331286469233e+02
-7.014931307969233103e+02
-6.242701706588446768e+02
4.473682206762260307e+02
1.223353969833342489e+03
1.232592852550319094e+03
1.649401035396044563e+03
1.266920472382881599e+03
-1.648748967190263954e+02
-1.133961433825942464e+02
4.904249479168709058e+02
1.902000062241528155e+02
6.367703389401642653e+02
1.302741522207147909e+03
1.466745007560480872e+03
1.350729497590481742e+03
1.363763771183371546e+03
1.510878871274751191e+03
2.051981343038686646e+03
2.124831687175789739e+03
2.249403420443981304e+03
3.192813339298233586e+03
3.710202149034158538e+03
3.739562250759450308e+03
4.532681956624252962e+03
4.915395811442566810e+03
3.874615579862088907e+03
1.683254959904133102e+03
3.619885727045265185e+02
3.966801342375131298e+02
8.593399852266483094e+02
1.151949542173365671e+03
1.394409244198536157e+02
-1.433418404868026073e+03
-2.176724360815971522e+03
-3.636439118752103695e+03
-4.066728775501058863e+03
-1.824755402133149573e+03
2.687277177382637547e+03
3.963211757281808332e+03
3.172905908603328953e+03
3.742350466925310684e+03
5.866517561106901667e+03
7.378200773980630402e+03
7.718112214724494152e+03
7.902050469682459152e+03
8.999954366173637027e+03
1.084269690127995455e+04
1.087908120554251218e+04
9.802040517987152271e+03
8.520496362543313808e+03
6.503311825104521631e+03
4.099338561411459523e+03
1.089408184864085570e+03
-7.376292813584391297e+02
-1.726012434346829195e+03
-1.626008898837944116e+03
-2.648851157521542518e+03
-4.414608522537023418e+03
-4.107433954071987500e+03
-5.333519165319694366e+03
-8.485051820159669660e+03
-1.109902794204341808e+04
-1.026058453094990909e+04
-2.691786255788234030e+03
5.526341255409809492e+03
1.221849498802813832e+04
1.683350998291081123e+04
1.471329156763752144e+04
8.490789272691363294e+03
7.112861121577910126e+03
7.047403392548584634e+03
4.189325606920669088e+03
9.733642201394053473e+02
-3.997668982274118207e+03
-1.127777529033707651e+04
-1.552182159215562206e+04
-1.710292982940414367e+04
-1.648551106343017818e+04
-1.388874358973607741e+04
-1.073778842979412912e+04
-1.059454453741212455e+04
-1.123400415693627110e+04
-2.724149453638627620e+03
9.791598270840723899e+02
3.162925205290709528e+03
4.408148836530324843e+03
3.167684993695700996e+03
1.980336057772327877e+03
2.278105180227545588e+03
8.718998090815969135e+02
-7.046506604547482311e+03
-1.370769538352687232e+04
-7.841578091651356772e+03
1.122503388970803826e+03
1.016539412209925285e+04
1.242239652270903571e+04
4.170156370879948554e+03
-4.340404683091366678e+03
-4.792885722132952651e+03
-1.875388960845159318e+03
1.050073679559238144e+03
4.751425399381716488e+03
7.286893365328816799e+03
9.709588337857918305e+03
1.641242990371194537e+04
2.211732791747949886e+04
2.078486098754484919e+04
1.558986762613794781e+04
8.326005296060908222e+03
-4.525545368738516117e+03
-1.021318500448157829e+04
-6.380600112593244376e+03
-1.404762812722413173e+03
3.414637194818374610e+03
4.370866847987364054e+03
6.445045015312784017e+03
1.030232712594396253e+04
1.393990558637770664e+04
1.729079902174332892e+04
1.749619508430267524e+04
1.556029324528590405e+04
1.165630960766444150e+04
4.803478520210795978e+03
-6.083948267966185995e+03
-1.837685042946057729e+04
-2.833505478247216888e+04
-2.944836486857410637e+04
-2.107167395351706000e+04
-1.066779128953132931e+04
-5.229480376632873231e+03
-3.328560111349252566e+03
-1.608902584617833782e+03
-1.271224718837167984e+03
-2.076255038038850671e+03
-6.509722663355033546e+03
-1.171643235973117771e+04
-1.301220745759112106e+04
-1.979989073680200454e+04
-2.627928630870854249e+04
-2.523803449517971603e+04
-1.998684074208204765e+04
-1.343439133274259075e+04
-2.213449046829610779e+03
8.514322780826731105e+03
1.163413652634550817e+04
9.833098023280856069e+03
6.396441948736850463e+03
8.813419802658384015e+02
4.120898731014119107e+02
-2.692069557528240694e+03
-3.204939771892056342e+03
-3.679197919708818063e+03
-8.111610637858969312e+03
-1.267305523828831792e+04
-1.553832507913327208e+04
-1.468118883110555544e+04
-1.161930441905999760e+04
-1.220252892072173381e+04
-1.395967276338738338e+04
-8.485470175275499059e+03
-5.681644741277105823e+03
-1.022496501668960445e+04
-1.113721305249683064e+04
-9.005112963757808757e+03
-5.428514609781565923e+03
-6.990191734018123498e+03
-5.431838864044557340e+03
-3.173282376911210577e+03
-1.636352469803040776e+03
-1.643886404042689264e+03
3.082106891177749617e+02
2.445135045516711216e+03
2.084005312990220318e+03
2.749533798272407239e+02
-2.579899820071838349e+03
-4.720419254721290599e+03
-7.603473143066102239e+03
-1.100001633269070044e+04
-1.256686702470427008e+04
-1.075385152836072120e+04
-6.141781234525697982e+03
-1.482585391820369750e+03
1.689814225941420545e+03
4.881575024277259217e+03
8.955796088482256891e+03
1.671453690770050162e+04
2.375083480323526965e+04
2.569481773668347523e+04
2.523261584778507677e+04
2.452218415950614508e+04
2.234644621685764287e+04
2.161657255651179730e+04
2.102659679901479831e+04
2.109439043872661205e+04
2.234189571546046136e+04
2.436520184630484437e+04
2.437316032992485998e+04
2.339056297009847549e+04
2.448872817655453400e+04
2.455615835655888077e+04
2.234995354673735710e+04
1.983083592355325891e+04
1.804275423678624429e+04
1.844468876068422105e+04
1.942761845373073447e+04
1.909034858253147104e+04
1.819976588679962879e+04
1.730620395364824435e+04
1.488474302647218792e+04
1.156433170882435297e+04
8.796528434325013222e+03
5.384504543365394966e+03
3.549315836663660320e+03
3.005702672535439433e+03
3.915341443913216608e+03
4.407999009682887845e+03
2.823290374585070367e+03
7.152358774616365054e+02
-7.344800249986823246e+02
-2.348054765061987382e+03
-3.795591339181951753e+03
-5.068284510268946178e+03
-5.697402325300443408e+03
-7.058120714713086272e+03
-8.471680703060314045e+03
-9.657319686723112682e+03
-1.049725641473116775e+04
-9.288653238364515346e+03
-8.814693721392855878e+03
-9.110575259915392962e+03
-8.972417097517345610e+03
-8.391491047872292256e+03
-8.610121519691138019e+03
-8.836541818181352937e+03
-9.913004694776080214e+03
-1.065473340741904212e+04
-1.026800100434413071e+04
-8.749056964758978211e+03
-7.460069078677211110e+03
-7.524294727398917530e+03
-8.128120384318755896e+03
-7.430722799124510857e+03
-6.431319062396962181e+03
-5.351130123753389853e+03
-5.642447393375887259e+03
-5.443480842104067960e+03
-5.110453441715859299e+03
-6.235561944356992171e+03
-8.466013708118558498e+03
-9.356104644843937422e+03
-9.419102029578320071e+03
-1.012425392762480806e+04
-1.096874014703436114e+04
-1.164076980040461967e+04
-1.129655845904969101e+04
-1.053534452140262511e+04
-9.582384429633984837e+03
-8.033772485032009172e+03
-7.838730492417662390e+03
-8.875584044909384829e+03
-1.135353557202092270e+04
-1.037366297425264020e+04
-7.722151044830008686e+03
-7.023160073443485999e+03
-1.169782006043604633e+04
-1.344736854185962875e+04
-7.859062192805805353e+03
-3.147049173293060448e+03
-4.874820827592251931e+02
-5.435533870920977506e+02
-2.355478752428134158e+03
-2.855349241090093528e+03
-2.239229388784566254e+03
-2.084322538007969797e+03
-3.191795033825594146e+03
-4.407715542156435731e+03
-4.724205312285526816e+03
-3.329429625444461180e+03
-1.241458123554600661e+03
4.876794631926587726e+02
1.879831207657240384e+03
2.929960422411696527e+03
3.264119567617311986e+03
2.923395796211428205e+03
2.510723714681612364e+03
2.265907039791815805e+03
2.171853409378443757e+03
2.137529246359317312e+03
1.658038233146722405e+03
8.403832713951094320e+02
1.090438532721060938e+03
1.558299691184482754e+03
2.318915869331606700e+03
2.876074278089537074e+03
2.729557610579027369e+03
2.493545963381724505e+03
3.071203684850687750e+03
3.720442311534828150e+03
4.249238610145863277e+03
4.310656574727049701e+03
4.482774773298009677e+03
5.006639500830277939e+03
5.272243178406400148e+03
5.056556707951140197e+03
5.324820445123173158e+03
5.286173680405171581e+03
5.508738415939384140e+03
6.278705082065805072e+03
6.913271746258230451e+03
7.114632611223858476e+03
6.004783880978316120e+03
4.837753251236400502e+03
4.600596155053763141e+03
4.953494657901009305e+03
4.712692248070547066e+03
4.158173584916460641e+03
3.700206127970538546e+03
3.928091918473503029e+03
4.122979198592893226e+03
4.285769598230052907e+03
5.540971884089249215e+03
5.921530040851543163e+03
6.118577156699505394e+03
6.864311645684596442e+03
7.408354292152608650e+03
6.936192240728779325e+03
6.454811848431509134e+03
5.655258308149156619e+03
5.002888148623446796e+03
4.789893042689032882e+03
4.590652358408428881e+03
4.956626459816029637e+03
5.441859808751263699e+03
5.414322604890401635e+03
5.008970004648901522e+03
3.047809730823525115e+03
-1.051245991813079144e+02
-4.222556391025755147e+03
-6.914211283731455296e+03
-6.702644430295383245e+03
-6.547455746676144372e+03
-6.062518226339326247e+03
-5.144643254441471072e+03
-4.580439574653297313e+03
-4.773718905451436513e+03
-4.778437768127452728e+03
-4.943343810793914599e+03
-4.868720043717979934e+03
-3.626305777166815460e+03
-3.873867391806429623e+03
-4.658735590756507008e+03
-1.289132091367621115e+03
-2.067600922343622642e+03
-4.631119567011181061e+03
-3.607290946433615773e+03
-3.421510732181960520e+03
-4.162953469400295944e+03
-5.246599193210338854e+03
-5.272473182048260242e+03
-5.321438541555909978e+03
-5.020465764227533327e+03
-4.506847033944764917e+03
-4.481474383615789520e+03
-4.010707724534295266e+03
-1.262175531150664256e+03
-1.956457376960644297e+03
-1.533802845385770979e+03
1.336436469924531366e+03
1.562623395203449945e+03
2.126591085448907961e+03
1.680282580492582611e+03
1.094998043392535237e+03
1.763688938982936634e+03
2.816172130433610164e+03
2.648436084673594905e+03
2.187522888474667525e+03
1.197651281650231113e+03
9.850191566292934340e+02
1.835875484140598246e+03
3.009615378333557601e+03
3.338737965639910726e+03
3.339614260776507308e+03
3.876212865175244588e+03
4.969852925645403957e+03
5.261240715107923279e+03
5.269740386307080371e+03
4.611739181466280570e+03
2.986995794917590047e+03
1.538732458024612697e+03
1.019036996195530605e+03
1.275971581794880194e+03
1.795416331273687319e+03
2.224904896704342264e+03
1.612720876214392320e+03
4.626137214941460911e+02
2.098609451182923067e+02
3.799140761711936420e+02
1.208143654951242979e+03
1.413253146478901499e+03
1.751611187147532974e+03
1.780209795591351167e+03
1.289904984316319997e+03
1.631302154188931127e+03
2.173672941344376341e+03
2.568770138836459864e+03
2.238616609318122300e+03
1.193082188016021064e+03
9.372015084434648315e+02
1.595546307813860722e+03
1.611644515941975442e+03
1.072755441074774126e+03
3.312067887496075400e+02
1.769313720176829179e+02
-2.053735824911827876e+02
-5.279321597886548716e+02
-8.611182249924572716e+02
-1.105835417671388541e+03
-1.176145082682788370e+03
-1.206544321247072958e+03
-7.824605473700230505e+02
-8.075023723936659508e+02
-8.113043354576858519e+02
-3.695258701497133416e+02
2.170260925988328324e+02
1.193620353270405076e+03
2.470065259609982604e+03
2.104284915611428460e+03
1.633977723199497859e+03
1.401031683345059719e+03
1.071509856884583996e+03
3.914533118950480457e+02
-4.915780893874596558e+01
-5.463597566098862899e+02
-1.055099760990495724e+03
-1.437384423245911648e+03
-1.623368655642333579e+03
-1.252346645823698282e+03
-1.398669216679846613e+03
-1.659515353915119249e+03
-1.328934240832820706e+03
-4.680375384956849416e+02
1.699834266406495260e+02
7.871955133456333442e+01
4.640503405222933679e+02
1.759237763985612219e+03
1.591364693118094920e+03
3.264224617095117651e+02
2.315599704355477684e+02
4.637057730669560556e+02
-5.119477135181670491e+01
-6.682126086113964902e+02
-8.064709346628344520e+02
-2.636055151224021301e+03
-6.644847927362243354e+03
-1.036281212805513678e+04
-1.056408098485667324e+04
-1.063955257065133992e+04
-1.101503362979862686e+04
-1.044241509877197859e+04
-9.194679152191713001e+03
-7.759975472466680912e+03
-7.408348697095419084e+03
-5.294756967991235797e+03
-6.501229102702633099e+03
-6.727188411351165087e+03
-6.864611998126620165e+03
-7.150529948888372019e+03
-2.443858764730356143e+03
-2.582422166016448500e+03
-1.708322021768742388e+03
-3.657615501945828328e+03
-3.356416769474000375e+03
-8.666709567301494417e+02
1.190815030548714503e+03
1.208185079005312446e+03
1.184447163538156474e+03
1.262714024546082101e+03
1.302045141953545226e+03
2.205491900452956997e+03
3.332073797933845981e+03
3.330915938409127193e+03
3.025101516458100832e+03
2.809726194867655522e+03
2.822855689603496558e+03
2.478385021942896401e+03
2.223398314736290104e+03
2.532980430568636166e+03
2.741173653524068413e+03
2.675888423167692054e+03
2.659202615226926810e+03
2.476163201779560950e+03
2.176884219312080859e+03
1.745460916837954528e+03
1.231806975005890536e+03
1.508841576897983714e+03
2.091659178215223164e+03
1.768459158704124093e+03
1.745358465034142910e+03
1.973280762771031959e+03
1.889245635105661222e+03
1.739361904530976062e+03
1.878780305191189882e+03
1.517443029055882562e+03
1.375388614234095940e+03
1.708773586635343690e+03
2.241792858169890224e+03
2.251420503584400194e+03
1.891657430868130405e+03
1.715614267725878790e+03
1.658405774233674947e+03
1.668031377956030838e+03
1.278387361596333449e+03
4.214871174503934981e+02
-8.765902261592901823e+01
5.958563848806534224e+00
-3.545417653310975084e+02
-9.339953663784500577e+02
-7.321777494307269762e+02
1.345285750081270919e+02
7.149741403035054645e+02
7.363563634344681077e+02
1.355610406238369478e+03
1.635779253405130476e+03
1.267286670695527391e+03
1.781994658954614806e+03
2.314019006180174074e+03
1.562276977926853078e+03
1.025026734866378092e+03
1.516277424459799704e+03
1.247908997993551111e+03
8.209060776150486163e+02
5.293641719773563636e+02
7.136617476381292136e+01
-3.421196908211287564e+02
-7.622053550930397705e+02
-9.159907184213967639e+02
-1.151430291058513831e+03
-1.190497094150104658e+03
-1.201155756990616283e+03
-8.293272509722388577e+02
-1.395325555762918235e+01
2.560007505631569984e+02
4.615331890871009932e+02
7.036564296621213543e+02
1.397396583031660384e+03
1.673787820096041514e+03
1.054896738772919207e+03
6.936439379472764131e+02
4.660285780794883408e+02
3.739323074677113254e+02
5.673288784438841503e+02
4.062886645493682067e+02
-1.913866962966399043e+01
-7.920300657892496474e+02
-4.844864231888396944e+02
6.757028789447286954e+01
1.402062741812208913e+02
-1.461684338480425893e+01
-6.967588152725509687e+00
-1.428462597051805858e+02
3.307689346670792361e+02
3.748006490808073181e+02
3.783014756701691113e+02
5.232223048547685949e+02
1.141458705042732390e+03
1.871023434081075038e+03
1.920958109802711078e+03
1.414301165477035738e+03
1.117044739771654804e+03
3.561525790912145339e+02
5.026350522379505747e-01
-2.609209476956781373e+02
-3.311062468581274629e+02
-6.560952413036034159e+02
-9.899919727608727271e+02
-1.048798980020713771e+03
-1.293576992373726625e+03
-1.307477523767871162e+03
-9.604682495161371207e+02
-4.475215663151819854e+02
-2.317494031144215683e+02
-1.018248835918049963e+03
-1.009261710919914776e+02
7.792252260228552814e+02
1.263204374528799462e+03
1.120940488486500044e+03
1.028395186657500744e+03
9.775213356436998993e+02
1.137200201486040214e+03
9.473593723517900571e+02
3.009326155361677593e+02
2.196796752995457496e+02
-8.720017650838695289e+00
-1.321327927821870844e+03
-2.095916335221693771e+03
-1.742892180612605671e+03
-1.215242721549120233e+03
-1.700280873788608460e+03
-2.301850979215219922e+03
-2.348333733886169284e+03
-2.093401214043114123e+03
-1.670434349004256774e+03
-1.606150990969567147e+03
-1.864737272121209116e+03
-1.064152576350307072e+03
1.070341586283058177e+03
2.939050564296916036e+03
3.062488629170673903e+03
1.993549159029471184e+03
8.583792518738449644e+02
6.290662998558200343e+02
7.083677905107512061e+02
8.684399603422654081e+02
6.891909677003681054e+02
4.255525806746229591e+02
1.794309383411678311e+02
-5.899855390001432625e+02
-1.092185042714874271e+03
-8.962379544386994894e+02
-7.150919639503997871e+01
-3.443893828507042940e+02
-6.346034174513057025e+01
7.388391261463514184e+02
9.810781839244893945e+02
1.632301187508993280e+03
1.811722158645813806e+03
1.683164605593878150e+03
1.589725457228610594e+03
1.743380386472930240e+03
1.477807919320445080e+03
1.169920125178437047e+03
1.476832095592656060e+03
1.424464072819717558e+03
1.002836385330180747e+03
5.039162886682895532e+02
2.836134548988675306e+02
-2.261201617686375300e+02
-6.602420889271716078e+02
-2.345732637058124965e+03
-5.952655597972352552e+03
-2.728074054427217106e+03
-2.482954712782903243e+03
5.297790311263725016e+02
-1.785744039576712112e+03
-8.514659047628493909e+02
7.575347481807988288e+02
2.823184005395549775e+03
-7.325202359186852163e+02
7.554271205461202499e+02
-3.739989308278123190e+03
-5.339730099279146089e+03
-4.172762652806594815e+03
-2.028131783242311485e+03
-1.773862059345804028e+03
-1.551034807523406243e+03
-1.556517660407394487e+03
2.024644563688028938e+03
-1.195485549537208271e+03
-1.007766548472200839e+03
1.505721761125116927e+03
-1.645099947509807180e+03
5.318128128573329150e+02
-1.044368203713750972e+03
9.824748967829573303e+02
-1.654689375662043403e+03
-1.387939870068820937e+03
2.532763806662068419e+03
-1.704777146570559694e+02
6.443315356562311536e+02
1.725171002601812006e+03
-2.644892160274714115e+03
5.821594419859059144e+02
1.682319050139099772e+03
1.760607202721708063e+03
1.940034553081859030e+03
5.696065659680765521e+02
-5.175673477669818567e+03
-3.400738696685049945e+03
-3.505371972538041518e+02
-3.426069149366022884e+03
-7.843084576524321392e+02
8.347503284924312084e+02
1.529063001967903801e+03
1.757814370519163731e+03
2.441110320131182107e+03
2.837002026019983987e+03
3.122479931819602825e+03
2.435569141858185503e+03
2.207290937823720014e+03
2.205707713890501054e+03
1.688871137473561475e+03
1.196799657589624530e+03
1.232444421454604026e+03
1.344791716356011420e+03
1.299970376528630823e+03
9.140730048861552177e+02
6.000359782082298352e+02
2.607896026064087778e+02
5.043763040614415445e+02
1.057890618773084270e+03
1.667350786707338784e+03
1.583754311559510825e+03
1.274211614907976355e+03
1.299859786182571725e+03
1.815731340291647257e+03
1.920836793648479897e+03
1.925205658211850505e+03
1.856834437695788210e+03
2.028584019855747101e+03
2.053616301575635589e+03
1.372265093998449629e+03
9.019008699804254547e+02
7.103814745907527595e+02
2.526459579218509930e+02
3.277615425363370605e+01
1.171289312132394578e+01
-1.365601379109477307e+02
-3.701120546172626291e+02
-1.786869451077828899e+03
-5.248985320735358073e+03
-1.903240966655697093e+03
1.153441394660928836e+02
-2.914771345225123866e+01
3.015772450149365795e+02
1.228094035027741029e+03
1.510464423569966357e+03
