-1.330067505411356024e+03
2.374862369524364283e+02
-3.051973571730625281e+03
-2.200521759349588592e+03
1.835835308459170392e+03
-2.298976605929807420e+02
-1.063703129393286417e+03
1.947409762287566309e+03
2.094465172766110300e+03
2.232474258788534371e+03
2.382471760785984770e+03
2.383316784746499252e+03
2.547032959768647743e+03
2.916638261767266158e+03
3.060103377711833673e+03
2.723362263800881919e+03
2.632397149035626171e+03
2.714060238522368763e+03
2.729329571146715807e+03
2.211088933338650804e+03
1.543701018805365038e+03
1.578200983477051068e+03
1.663600704434519457e+03
1.256804858409982216e+03
5.417999674228786944e+02
1.656223299587036308e+02
8.937040823790101740e+01
-3.038193773730372982e+02
1.878878732240425791e+02
3.153382621782916999e+02
-2.568525113909053289e+03
-1.459494137952241999e+03
1.462067592554207522e+03
2.055905132980093640e+03
2.050507876867485720e+03
1.821657875571243721e+03
1.549331741404202376e+03
1.162660933504672130e+03
5.669836645723217998e+02
-2.501424718069641244e+02
-6.579949927274606125e+02
-5.350409872451182309e+02
-4.046947534698119853e+02
-1.988386067010784188e+02
-9.126975803217352734e+01
-3.382638825765324100e+02
-6.576088876943819628e+01
3.641973024508653793e+02
7.198592717831452319e+02
1.229594760350764773e+03
1.678609249912453606e+03
2.288143851407012335e+03
2.569273282190409191e+03
2.996802168632592384e+03
3.247884584520228600e+03
3.045491947266767056e+03
2.807468014309828959e+03
2.080238779255676945e+03
1.199774442858395787e+03
6.985434196392768627e+02
7.386473440849757708e+02
1.071927536099056852e+03
9.813076289123790730e+02
9.377176469399040570e+02
1.258107312259312721e+03
1.109488779680160633e+03
1.216909610172508565e+03
1.024405547275433037e+03
7.988904833698219363e+02
9.714152907433719975e+02
1.968951496768438574e+03
3.155537903489014298e+03
3.100308005968973703e+03
3.195288594840205405e+03
3.249481012295399523e+03
3.739815048038548866e+03
3.885273130540800139e+03
3.483916486755180813e+03
2.362721767967742835e+03
1.327608957918781471e+03
5.175386468228227841e+02
4.325049753825820176e+02
-8.064845313144601278e+02
-3.119427025285715445e+03
-7.383335367064952152e+03
-9.230189553142248769e+03
-9.001889926124231351e+03
-7.953358851758500350e+03
-6.957616733190306149e+03
-6.742762817729464587e+03
-6.860803733860769171e+03
-7.161704397215799872e+03
-6.264464476177057804e+03
-6.640929622824546641e+03
-6.422070063828707134e+03
-5.068979532837525767e+03
-5.146636590328238526e+03
-5.224992744734418011e+03
-1.645992548201392083e+03
-2.312588665700991442e+03
-6.912759429078285393e+03
-7.895544318128354462e+03
-8.190990674472029241e+03
-7.916072279804402569e+03
-7.972792952346388120e+03
-7.266108081475665131e+03
-6.730957700665804623e+03
-6.027251191591714814e+03
-1.519393379674710332e+02
2.172974198705835988e+03
2.692496335269901465e+03
3.655681285733025106e+03
4.481531902307930068e+03
5.047099352694986010e+03
5.506529814159269336e+03
5.605904752362842373e+03
5.619217120180548591e+03
5.130392781142528293e+03
4.820523653195879888e+03
4.412657594517359030e+03
3.702813858273045298e+03
3.251008823271482470e+03
3.327190212536148920e+03
2.755449915239525126e+03
2.169821768945664644e+03
2.056338523482477740e+03
1.817067469721425368e+03
1.807049290411007860e+03
2.211307759667192840e+03
2.367853902705046949e+03
2.630759969081056170e+03
2.996052096549789894e+03
3.378826434094768047e+03
3.297221463004319958e+03
3.406313114340467564e+03
3.202168036697862135e+03
2.771848675421064854e+03
2.992348847487734929e+03
2.938661210167796071e+03
2.123762159004265868e+03
1.406648797054738907e+03
7.513893174965494381e+02
5.540524894070028949e+02
2.556730438507250085e+02
3.412544714357988482e+02
-2.810102753636600781e+01
-1.580269606574975967e+02
-2.047246332640062505e+01
5.484124482438279529e+02
1.273676738483093459e+03
1.027404514499714423e+03
1.175656650910317921e+03
1.363510506896851439e+03
1.052194987650206258e+03
6.754804647523636731e+02
1.953245009810915917e+03
1.065637332392412645e+03
2.556252486852971799e+02
1.755551746150096619e+02
-3.634973409948759127e+02
-1.046991644236359207e+03
-1.298183610141849385e+03
-1.467243596493805171e+03
-1.607174043925498381e+03
-1.011862568983230744e+03
-8.372949406425595953e+02
-9.244765232975988738e+02
-7.484302409365758422e+02
-7.391684506380079256e+02
-6.916574701960234961e+02
-8.688950414434054892e+02
-7.558138568038074254e+02
-7.164327580718254467e+02
-3.067280625626805204e+02
6.102623897699002100e+02
9.345070978891448021e+02
7.679852516964706410e+02
3.167825485798776342e+01
-7.663788744880474724e+02
-1.456101965571451274e+03
-2.070472181230688420e+03
-2.152680050413699973e+03
-2.161883430099531779e+03
-1.584154891701148699e+03
-1.869519622734469067e+03
-2.277997078275285730e+03
-2.853625344450279954e+03
-2.608397711781327871e+03
-1.707323264857790264e+03
-1.251356612277093063e+03
-1.021481514309857630e+03
-7.796928812156560298e+02
-3.650332000234558336e+02
-2.856129605933631410e+02
-3.464859666883671707e+02
-6.716556987855198031e+02
-8.091187073688488454e+02
-7.248653631697603714e+02
-1.217906853521550829e+03
-1.469267235529290929e+03
-1.205955681458041681e+03
-1.068026122259881504e+03
-1.102585861805166360e+03
-8.217444966258460681e+02
-9.604742510065191254e+02
-1.619725019544065844e+03
-2.243605279059973782e+03
-1.982209593896544220e+03
-1.171573196660412805e+03
-1.465667199449739883e+03
-1.942500165465263080e+03
5.817241161201291106e+02
1.285813268788078176e+03
1.645750639839939140e+03
2.192635106662663929e+03
2.482435692911851220e+03
2.492180467543043051e+03
2.611743748443539062e+03
1.832072132491818365e+03
-1.974926860985807707e+03
-1.233266353782107444e+03
-2.381928639356298845e+03
3.330875839823398792e+02
9.960498039449588532e+02
6.392201360145888884e+02
3.898632321558051785e+02
2.637430159475457003e+02
9.743750201988935942e+02
1.354365617697413654e+03
1.676037261776836885e+03
2.882793891809646993e+03
3.579589996872156007e+03
3.294779582225100512e+03
3.102606427934015755e+03
3.228950619741107857e+03
2.992510682417988846e+03
2.739887590874569014e+03
2.693505898556356897e+03
2.530541763779787743e+03
2.276314994485281659e+03
1.651246502867039226e+03
7.935509802567362385e+02
3.557116381815493469e+02
6.915653323405690571e+02
1.058034333127257469e+03
1.345209433713349654e+03
1.635163843553662218e+03
1.727962972553940290e+03
1.661811515973128962e+03
1.567012529840976640e+03
1.460580713670621208e+03
1.995455039751679351e+03
2.785553572253756556e+03
2.955047950815005152e+03
3.109065547913123282e+03
3.078527255358530510e+03
2.965298719196234742e+03
2.589840886600304202e+03
2.447921292654260469e+03
1.959060679537114538e+03
1.222856041061716269e+03
6.319531392860847063e+02
1.006271327940944076e+02
-2.432204658844601681e+02
2.994382744451897338e+01
8.521958369659517984e+02
2.186582681357470392e+03
2.338253809000054844e+03
2.697223047762839997e+03
2.742483817167910729e+03
3.099120531297151956e+03
3.518243012161531169e+03
3.422865598677190064e+03
1.810998924693993558e+03
-6.774179658537653950e+02
-4.776422177370740428e+03
-5.224907978747251036e+03
-4.968839035402437730e+03
-4.951240543783568683e+03
-5.714062278214216349e+03
-6.015232892653240015e+03
-6.425697167625738984e+03
-6.059314420915723531e+03
-6.775024169360460292e+03
-6.980864868226181898e+03
-7.374919738299859091e+03
-7.108056135652130251e+03
-6.299963369270754811e+03
-5.335863837396562303e+03
-7.258686322353780724e+02
-3.044657645292555117e+03
-5.247269441832903794e+03
-4.413662147689637095e+03
-3.136580701915049303e+03
-2.647006884555845772e+03
-2.583814082097756000e+03
-2.994835625044572680e+03
-3.326040789777190184e+03
-3.576104310393340711e+03
-3.819867395074174965e+03
-4.137732898575004583e+03
-4.158948479667370520e+03
-3.877565445583515611e+03
-8.266623708466213429e+02
-5.515362393838236699e+01
-5.109790837881119842e+03
-6.509457469742746980e+03
-7.120196725540719854e+03
-7.093786274101275012e+03
-6.695977389967752060e+03
-6.882569880783040389e+03
-6.817602896379576123e+03
-6.895025108869474934e+03
-4.428221683179911452e+03
1.997420657299715231e+03
4.031402443917929759e+03
6.008931171418313170e+03
6.834152499839825396e+03
7.168000250033718658e+03
6.700746105125750546e+03
5.717707140770385195e+03
4.940870783518216740e+03
4.488243850809068135e+03
4.292721907069419103e+03
3.510171149532553500e+03
2.971228306965776028e+03
2.312914806950265302e+03
1.695186544422776933e+03
1.799978612657960412e+03
2.170860724201343601e+03
2.980224210958228014e+03
3.169115132553233252e+03
2.616329068306757108e+03
2.364173896158378739e+03
3.243240669384881130e+03
3.768995900348794294e+03
3.830831306298657637e+03
3.934592437370097286e+03
3.861993694514876097e+03
3.514528419463228147e+03
2.248246188513144716e+03
9.728993499106950367e+02
1.347559958801181438e+03
2.768829317979742427e+03
3.903146680491229290e+03
3.937122981651230930e+03
3.261698044528465289e+03
2.654885035486776815e+03
2.035044992458831530e+03
2.397469629054684901e+03
3.272994099520719828e+03
3.236700689422420965e+03
3.033037872286188758e+03
2.910462178373301867e+03
3.252633489291737533e+03
4.024639711906356297e+03
4.514250438905497504e+03
4.437541279886913799e+03
3.807580595162294685e+03
3.305424245705417434e+03
2.557713390788005654e+03
1.628990461226097068e+03
1.183914455476652392e+03
1.448733340780393746e+03
1.785745083657209534e+03
1.702837055752417655e+03
1.753422670319687541e+03
1.979042557509091694e+03
1.890697080157613527e+03
1.276639312860616656e+03
1.751397950642664682e+03
3.097518277725054304e+03
3.839805961519770335e+03
3.422005769818744739e+03
3.776197707553440978e+03
4.102534280110308828e+03
4.255966665830431339e+03
4.167450797480716574e+03
3.012871223602748159e+03
1.955103027612287406e+03
1.251218943753145140e+03
6.691830426819108197e+02
7.440082951234729762e+02
9.516500029405787018e+02
6.951167177462564268e+02
1.723903051195896694e+02
-3.706226463503471109e+02
-1.467017924137012869e+03
-1.934895286945761427e+03
-2.347262113723975290e+03
-2.507092814201605961e+03
-1.928395205133509307e+03
-9.330891802730133122e+02
-7.397609856380834970e+01
4.738463370113091742e+02
3.882293089622494904e+02
-2.028973779235117263e+02
-2.156066637447146377e+02
-1.948908149767617601e+02
-5.339187256759936417e+02
-2.486783006436896812e+03
-5.741659406715107252e+03
-8.936678756779620016e+03
-9.443828707298598601e+03
-1.029203388138836635e+04
-1.103927444691343408e+04
-1.147656448744194677e+04
-1.211588266014114379e+04
-1.210636182870458106e+04
-9.286975634362859637e+03
-8.980727134298336750e+03
-1.060588479165650097e+04
-1.216910865590119283e+04
-1.400602054093799234e+04
-1.140881568259453161e+04
-5.503387865601920566e+03
2.035075427545304365e+03
4.097611364740484532e+03
3.529110640822134428e+03
2.092739118242439417e+03
1.572479044229611645e+03
1.258099448667078377e+03
8.216259797584217495e+02
1.801182035453979324e+02
-4.964085387173477102e+02
-8.939419743161769247e+02
-1.305499907075507053e+03
-7.490111156285098559e+02
-3.643567611338748691e+01
4.902686001167693348e+02
9.110848040178187830e+02
1.193073242815386948e+03
9.883562696067755269e+02
3.960974444931314338e+02
6.074439299254352136e+02
2.746478485351870859e+03
5.638310738611652596e+03
6.978922317018746980e+03
6.770398470837826608e+03
6.059877914188342402e+03
5.208389037433815247e+03
4.168085574635295416e+03
2.664139626922631578e+03
1.684718610566531879e+03
4.768667243414441828e+02
-6.035599964363513692e+01
-3.827684787843161303e+02
-5.818412017460767061e+01
4.035321101775850821e+02
-1.744531692014390103e+02
-8.109077665160766628e+02
-1.303664905373881766e+03
-2.160595846605568113e+03
-2.660547034198684287e+03
-2.893312425187507870e+03
-2.542712483790358874e+03
-1.409630649352135379e+03
-8.169331393493066571e+02
-1.240531247153485538e+03
-2.558283177616490775e+03
-3.245043944425619884e+03
-2.903577710637114706e+03
-2.608776542645740392e+03
-3.413566784604447548e+03
-3.402030966148187417e+03
-1.461168704005827522e+03
1.058262495801503974e+03
2.416434210286337020e+03
1.084266987853953196e+03
-8.309210228359183930e+02
-1.232066821153236333e+03
-1.158218073232935467e+03
-1.573069466774037153e+02
-7.015967368745303645e+01
-7.986202419103561851e+02
-1.762554505470095592e+03
-2.152598004898647105e+03
-1.197991175076311265e+03
-1.521448654234156947e+03
-3.262176684750638742e+03
-5.109109784870009207e+03
-6.970227895084483862e+03
-7.872353295563052598e+03
-7.396397112813465355e+03
-6.644386493561274619e+03
-5.831377292949682669e+03
-7.614436814721767405e+03
-1.020268435148137905e+04
-1.138609159253605867e+04
-1.028863117417251851e+04
-7.131351462295499914e+03
-3.053266547169222122e+03
2.861642650871207024e+03
6.372387581769245116e+03
4.478949799037152843e+03
2.576335443437867525e+03
2.014527133529240245e+03
1.175546868639047489e+03
5.073647214849070224e+02
-1.389131124978609932e+03
-1.373081489785877011e+03
2.100442604755166485e+03
6.689298800838403622e+03
9.434421244294828284e+03
8.276722468576230312e+03
5.590124890763998337e+03
4.421571561789982297e+03
2.846932519132441939e+03
5.231201853845575442e+02
-1.889046971914184724e+03
-3.333628318036159271e+03
-3.894746918049666419e+03
-3.646571715411040714e+03
-4.387174269555814135e+03
-2.998636190456563781e+03
6.598369691429626300e+02
3.863095282393051548e+03
7.203992819444838460e+03
8.881352098900684723e+03
1.055203364492255969e+04
1.052787320964156243e+04
8.700609378581848432e+03
6.896979064200106222e+03
6.619757297513542653e+03
6.080820822056276484e+03
5.223952947924126420e+03
5.369973771505514378e+03
6.669622440597752757e+03
7.637625368165879081e+03
8.900839723269244132e+03
9.449195811923986184e+03
9.134586942384681606e+03
9.152986734164156587e+03
8.890934509807340874e+03
8.391155361212904609e+03
8.034463907055911477e+03
7.455692549044411862e+03
6.411569406530933520e+03
6.752841334802228630e+03
7.748126531087368676e+03
7.402156719600763608e+03
6.092861260521727672e+03
5.335322687383321863e+03
4.348157816274488141e+03
3.370151699996028128e+03
2.395999383924222457e+03
2.927181825140637557e+03
1.630979604580775685e+03
-5.727464127812241941e+02
-6.584532177598318867e+02
-1.609345982437164821e+03
-2.252586790675264183e+03
-1.986404245071044670e+03
-1.790883619419307252e+03
2.968997036356812259e+03
1.073064934617732251e+04
1.422577012330596699e+04
1.427542991135698503e+04
1.237349534163564203e+04
8.534760418569376270e+03
4.254792909223102470e+03
1.520600829164070319e+03
-8.995217114609188229e+02
-5.534900841228643003e+03
-8.886742491206125123e+03
-1.078516340670434329e+04
-1.099426379652039213e+04
-1.292015771366854460e+04
-1.616292257257253004e+04
-1.236152107494974007e+04
6.020605627771665525e+01
7.636013847556619112e+03
5.275595978283703516e+03
4.199419963324345190e+03
1.505400044629933973e+03
8.624822987302338788e+02
4.072701701993867573e+03
7.897105553324071479e+03
1.188663306414006911e+04
1.530026416553064337e+04
1.692793803311857482e+04
1.311172244867875816e+04
8.443657078341460874e+03
2.351758408319676619e+03
-6.520936976387949471e+03
-1.147142155865920176e+04
-1.252364569922019655e+04
-1.379357754894241771e+04
-1.843308653490053985e+04
-2.076101184365867448e+04
-1.622126623079990168e+04
-4.878837332853209773e+03
3.643919523544596473e+02
4.679584361186000933e+03
6.635901283683578185e+03
5.149455006663006884e+01
-9.683440880207361261e+03
-1.459766355462244792e+04
-1.817698843071418742e+04
-2.668238579900236800e+04
-3.021377843303485133e+04
-2.558601143323404176e+04
-2.115898684227532794e+04
-1.547702721901580662e+04
-2.805962317844750487e+03
5.013306158742144362e+03
1.180197221136839653e+04
8.216213553373981995e+03
-2.589594341271443682e+03
-1.092818205842948191e+04
-1.163328008163806044e+04
-6.059649674517662788e+03
-6.163036210299716004e+03
-9.985136586031581828e+03
-1.007364128478109160e+04
-8.153191831775809987e+03
-9.657467195341767365e+03
-1.808413082424756431e+04
-1.768386887742299587e+04
-1.282138506286753545e+04
-1.577741695527507727e+04
-1.361067253592260204e+04
-6.759789420092117325e+03
-5.494470387624333853e+03
-2.284377932025151949e+03
6.629852820957024960e+03
1.211860215140450600e+04
1.355713406241490520e+04
1.322671811477698975e+04
9.933721090637953239e+03
7.157588648082081818e+03
6.852578510372934034e+03
6.481025544459937009e+03
5.799257081662834935e+03
4.292676253651157822e+03
1.990743845042047724e+03
1.887815788393182288e+02
-1.956877078697943944e+03
-3.211914662887414579e+03
-4.811000358740559022e+03
-5.660850315085193870e+03
-5.631132798913429724e+03
-6.319554319474395015e+03
-7.610788143745817251e+03
-9.744465882511849486e+03
-1.171930306207818285e+04
-1.365396207122885244e+04
-1.534817073509863076e+04
-1.605271007378573086e+04
-1.370740419055650818e+04
-1.069701110135136878e+04
-8.580249460952447407e+03
-7.183798326594800528e+03
-5.882360823454566344e+03
-3.530733798163632855e+03
-1.893662522146798665e+03
-6.578876250596009641e+02
-5.930800940063160169e+02
-2.397993853112687248e+03
-3.794414765935228843e+03
-3.655246109430975139e+03
-2.072991199971347214e+03
6.365346008468073933e+02
3.899466131507184400e+03
7.073924751691656638e+03
1.213895937831068841e+04
1.854252886256729835e+04
2.317978307679064164e+04
2.191910825981488597e+04
2.381861543190438533e+04
2.357039877103272374e+04
2.582025534031365532e+04
2.560786323591430846e+04
2.573513043602843754e+04
2.479259324429017215e+04
2.615110784298982253e+04
2.769971137932625425e+04
2.721831151958354167e+04
2.654389061414213211e+04
2.613338354574941332e+04
2.595379518191522220e+04
2.548613367983800345e+04
2.434826334663835223e+04
2.325512516739040802e+04
2.229158984643189979e+04
2.107557375840401801e+04
1.913999568436994741e+04
1.762475142997646617e+04
1.621969965203216088e+04
1.545077108244626652e+04
1.495483166416265158e+04
1.429572560706777767e+04
1.397316740581784143e+04
1.213082347399086029e+04
1.040161961944100221e+04
9.114549236632117754e+03
7.402421880903587407e+03
5.218057388603530853e+03
3.333271865721389531e+03
1.621884812304536354e+03
-5.013290962992066966e+02
-2.947593222909341421e+03
-5.317179975098883006e+03
-7.409339015033538999e+03
-9.710385598842965919e+03
-1.164760893914285953e+04
-1.278816234220759179e+04
-1.373630948347438061e+04
-1.522534222814794521e+04
-1.656449462622957071e+04
-1.684602806550864625e+04
-1.712424235269951896e+04
-1.744052037070389633e+04
-1.712023227861815394e+04
-1.731166128220397877e+04
-1.747801109110520338e+04
-1.697048585919410471e+04
-1.508242779725300898e+04
-1.351729122429544441e+04
-1.227741421670011732e+04
-1.262201569855589332e+04
-1.395250091061206876e+04
-1.495737071541272599e+04
-1.569808056060461968e+04
-1.568688735422134960e+04
-1.415190866992827068e+04
-1.299640130816646706e+04
-1.334078686434171323e+04
-1.441247079904704333e+04
-1.493183853699978317e+04
-1.452215548183730243e+04
-1.444959993721703177e+04
-1.438453570802522518e+04
-1.424830165916601072e+04
-1.317033614799007046e+04
-1.113983939397068571e+04
-1.031100446710298093e+04
-1.093007204714454747e+04
-9.867327229986332895e+03
-7.787102179481573330e+03
-5.035787042923142508e+03
-3.005757441663738518e+03
-1.738322281002515865e+03
-9.335695808963802165e+02
-1.273419297877731715e+01
3.598977949639663052e+02
8.588149408678539487e+01
-1.142393348455181012e+02
-4.318586141772958626e+02
-5.864361757800853638e+02
-5.941088973548459080e+02
-3.097103143960190437e+02
1.005575061037212237e+02
9.654308757184929846e+02
1.827773930401453299e+03
2.360360949556104970e+03
2.725122377636234887e+03
3.267699961450464343e+03
2.944636571387940421e+03
2.798637765235160714e+03
2.392614812117984457e+03
1.873674818901333310e+03
1.723829932386142445e+03
1.076850290481488173e+03
1.345665860502108899e+03
1.195279005866600755e+03
1.326689821223075569e+03
1.567747981176240955e+03
1.132338736027806817e+03
1.417347273344143559e+03
2.319787647720801488e+03
2.847394346703232259e+03
3.108901155653512888e+03
3.190247949363206317e+03
3.087321173033836658e+03
3.317204324025170081e+03
3.875846574843517374e+03
4.115368621085058294e+03
4.077930999387285738e+03
4.418582713041550960e+03
4.756229912599241288e+03
5.212943866245537720e+03
5.806764662020911601e+03
6.150671061798396295e+03
5.793600465908652041e+03
5.762657645937823872e+03
5.815898273431072994e+03
5.850432853740890096e+03
5.879423902393324170e+03
5.892907146489960724e+03
5.941016246628166300e+03
6.365913348121788658e+03
6.785738124361796508e+03
7.055613666660825402e+03
6.815739757097646361e+03
5.128222975547053466e+03
1.028065572842826668e+03
-1.573466733600665293e+03
-7.291274560224683228e+02
-1.250808427605405996e+03
-1.036326621342383987e+03
-1.560499385380488093e+03
-1.662137549321208780e+03
-2.104199573064332526e+03
-2.159384924791903359e+03
-2.601376076468747669e+03
-2.322116219323050700e+03
-1.989356087953962742e+03
-2.396911769546460619e+03
-1.896657338610630177e+03
1.905628763673257708e+03
9.537312169134836495e+02
-2.119548698111674639e+03
-2.613752759975298432e+03
-2.384424684414844705e+03
-2.268190723947274819e+03
-2.430664974464346869e+03
-2.282500901143248029e+03
-2.905577875542502170e+03
-3.202683234086261564e+03
-4.003335275192309382e+03
-4.197365768048478458e+03
-3.612706216486518315e+03
-3.457257594746242376e+03
-2.512680827021639288e+03
6.213920620767607943e+02
-3.047398281989676889e+03
-4.303709817005283185e+03
1.642830503725698009e+03
3.016176057998565284e+03
3.467407652485628660e+03
3.561844139344131236e+03
3.817606432020733337e+03
4.462557004622548448e+03
4.670750692203995641e+03
4.998280175339797097e+03
4.753312909713022236e+03
4.504115211259666467e+03
4.599257233975587951e+03
4.262036938147786714e+03
3.689818090967968146e+03
3.138125768117851749e+03
2.711965378654875622e+03
2.339193170724979609e+03
2.097915908701321314e+03
1.981468404630549230e+03
1.928857403817890827e+03
1.880640022118031993e+03
1.648588208444271004e+03
1.454138440783004626e+03
1.664432671666551414e+03
1.850678562435388812e+03
2.328604925362172708e+03
2.823709074026897270e+03
3.289906869259666109e+03
3.457264771201628719e+03
3.524413492381914693e+03
3.051168862115930551e+03
-2.641262232013633025e+02
1.334451388527643530e+03
2.515766246083519491e+03
1.895241957712645217e+03
1.524572297002288906e+03
8.089343129207519496e+02
7.562806548224820062e+02
5.853639774022761912e+02
4.341756482219716418e+02
2.792249345263732607e+02
3.540198948904656504e+02
5.559207476201718237e+02
4.752897589187958260e+02
5.158663149005523110e+02
8.084770448260712783e+02
1.148410322473627730e+03
1.166219765884659182e+03
1.260533580031794827e+03
1.341687780104560943e+03
1.176823997119841806e+03
1.063819498962712487e+03
6.023496279297445426e+02
3.390273298584231156e+02
1.191901988028014756e+02
-2.159309852341161502e+02
-4.983093272344913203e+02
-6.017519089240743142e+02
-7.101938517339858663e+02
-5.764316309885697365e+02
-7.434694068613692934e+02
-9.655173360602462935e+02
-1.562659235741805787e+03
-1.656877506966774718e+03
-1.366099129575708048e+03
-1.404291915619836118e+03
-1.290535435754599121e+03
-1.364874555335552031e+03
-7.023586356389575940e+02
-2.039349714641004709e+02
1.092010842841179112e+02
-2.061312572710926645e+02
-5.418950692010206467e+02
-9.161232129305445824e+02
-1.130800194543752468e+03
-8.219789287893621577e+02
-4.357174693362268272e+02
6.788582712447765743e+01
-1.631746489629269803e+01
-3.926604118384915409e+02
-7.443264887751824972e+02
-8.923152914752581637e+02
-1.047658710313568918e+03
-1.224450249038526863e+03
-1.080931050934135101e+03
-8.291648831266741126e+02
-1.017255586394934539e+03
-2.950137257397728263e+03
-6.107686342755522674e+03
-9.017980920458041510e+03
-8.678181197227968369e+03
-8.097475127230663020e+03
-7.476040805152752000e+03
-7.413094737531218016e+03
-7.943783177236752636e+03
-7.414352537788508016e+03
-8.616088793103852367e+03
-8.428106408055095017e+03
-8.318944664502909291e+03
-8.802881714173987348e+03
-8.230783475958978670e+03
-8.011855243758308461e+03
-5.898957642034318269e+03
-6.481172736123859295e+02
8.367475702969288704e+02
1.771488302778891693e+03
2.314059186748583215e+03
2.979561309951207932e+03
2.908054608452629964e+03
2.934538845983661759e+03
3.466002775558756639e+03
3.093456972368700917e+03
2.544001599245594662e+03
2.157663988741147023e+03
2.049457411251618396e+03
2.092470558948667986e+03
2.191764343183410801e+03
1.889367109968704654e+03
1.783318561651130040e+03
1.103595257403356982e+03
9.362274225029470927e+02
1.367259558764280655e+03
1.048716200532253424e+03
9.367417827532764250e+02
1.750450847694159847e+03
2.078920122936419830e+03
2.383183251165923139e+03
2.631389457351793226e+03
2.574629271630396488e+03
2.734956194472538755e+03
2.511454574597953979e+03
2.284250717332600743e+03
2.111418136729861544e+03
1.771994320842617526e+03
1.229084291939419472e+03
1.031702475158956304e+03
7.058152350802325827e+02
1.304343811724621958e+02
-4.483311216821101652e+02
-5.254504114172435720e+02
-4.479560254501559484e+02
-8.347211849256627829e+02
-1.141709221692803112e+03
-1.493964773745906086e+03
-1.464382127311525437e+03
-1.039929468837951617e+03
-3.716657144410105502e+02
-2.867026919634961928e+02
-2.941057090980928592e+02
-1.491516969358549893e+01
7.203694332691088675e+01
2.111993900223937715e+02
-8.334732715901601807e+01
-1.075350950356074549e+02
-7.022314648748849208e+01
-8.130965871020093516e+01
-3.426255766238539735e+01
-5.741360777116426561e+02
-8.698713002373656309e+02
-1.218329282355525265e+03
-5.245470430835417801e+02
-7.355153478969228900e+02
-8.032057485569263235e+02
-1.017620377800334722e+03
-9.578514368442770319e+02
-1.052956976082614119e+03
-8.188193061706049320e+02
-7.673521398223227834e+02
-4.336375402060771194e+02
1.912736338386953605e+02
3.242702156641800002e+02
5.283927310310729126e+02
5.696600569867812283e+02
-3.038933719355223957e+02
-5.652907401228699200e+02
-8.944751896859853559e+02
-1.178410801679112410e+03
-1.463025475664190935e+03
-1.389334366421470349e+03
-1.185355485645903627e+03
-1.097120367701785653e+03
-1.334627774768702466e+03
-1.253863504622523351e+03
-6.748547866091699916e+02
-3.866197963956008152e+02
-4.709380435277319066e+01
-3.053102487038253230e+02
-3.383113649614413134e+02
1.789936398483894209e+02
7.816206038567129326e+02
1.001629933203317819e+03
1.098057545121631847e+03
8.408502947278416286e+02
3.199994233647976785e+02
-1.675889258834835402e+02
-1.299059356321552343e+02
-4.010194373317642658e+02
-4.849684905465301199e+02
-2.817527823769025304e+02
-2.445221179993835392e+01
-2.030817710779184893e+02
-2.736540122623143247e+02
-1.732028681201697964e+02
-1.677236718038819561e+02
1.677764947483368587e+02
4.502719459542529421e+02
8.596904707109912351e+02
1.240007334647575362e+03
1.650245084071187421e+03
1.839290177965771363e+03
2.201137169754968909e+03
2.056726262349589433e+03
1.852987910788333238e+03
1.338914062200010449e+03
1.185550069240785206e+03
1.366821484370216922e+03
1.448654913723133859e+03
1.646974994805511415e+03
1.309703348035072850e+03
9.207662038190908333e+02
7.551081862225308896e+02
8.766903590238500783e+02
6.034511016028963013e+02
4.793457204126668216e+02
1.360243937877279905e+03
1.393196146164265656e+03
1.736636034447278689e+03
2.211681999438027105e+03
2.428998986770098782e+03
2.507699519031710679e+03
2.583653621094972095e+03
2.694830571917911584e+03
2.572163271250124126e+03
2.036575658873749262e+03
1.812010339709635446e+03
1.765407461855249949e+03
1.517648249724831885e+03
1.270592020156899707e+03
1.011289617616314672e+03
1.117818099881895023e+03
1.215466894998071211e+03
8.373374356100563318e+02
9.268364794392530257e+02
1.316781978127696902e+03
1.757051356993585159e+03
1.873599823189057133e+03
2.369418495598843947e+03
2.502368431399113433e+03
2.416523838273277306e+03
2.857907690269630621e+03
3.277474908525046430e+03
2.847131510205061659e+03
2.541678510190393354e+03
2.052117496883788135e+03
1.785501315369263921e+03
1.577049106838173884e+03
1.217146494795539866e+03
9.399687727124503454e+02
1.224127469591271847e+03
9.576304117853195521e+02
1.532602444602011644e+02
5.995224689436914645e+01
8.476559888665101994e+01
8.564956385291111474e+01
2.325223442126157067e+02
7.782496462633620240e+02
1.581810665784112416e+03
1.956203956294508089e+03
2.151374088549612225e+03
2.181380423613278708e+03
2.297247823300776872e+03
2.852939446682537891e+03
3.049397818588085102e+03
2.393569607527708285e+03
-9.356919661463687987e+01
-3.362027260923270660e+03
-7.603815460181776871e+03
-7.912956803064073029e+03
-8.011489185920542695e+03
-7.289431171598500441e+03
-6.627811096923863261e+03
-7.034625701136576026e+03
-7.714861018296880502e+03
-7.783521652817154063e+03
-7.773595816265425128e+03
-6.936061429134305399e+03
-5.530966307570995014e+03
-4.601176547870789364e+03
-4.046394394528076646e+03
-2.963961951271725866e+03
1.702083024014919204e+02
-3.334791473196595234e+03
-4.849950245117157465e+03
-4.766226839883559478e+03
-4.512671411857046223e+03
-4.731247945396361501e+03
-5.082962989792252301e+03
-4.987794386164010575e+03
-5.323655058618051953e+03
-5.300491682031409255e+03
-5.360249235979313198e+03
-5.275868397757794810e+03
-4.577325583966571685e+03
-4.666621600117157868e+03
-9.406634184342090066e+02
5.175732648720422731e+02
-3.661865170142188163e+03
-4.570876478802299971e+03
-3.186375668416681947e+03
3.141701537519189060e+03
5.208402208898718527e+03
5.663814481143869671e+03
5.627020684184471065e+03
5.541093557381883329e+03
5.253139025732559276e+03
4.694184012360065026e+03
4.390240798719964914e+03
4.121391772109927842e+03
3.244724745240923312e+03
2.764296387023670377e+03
2.884125692992859058e+03
3.005250017245583422e+03
2.959799778915517891e+03
2.298821955288028221e+03
2.305440344858810931e+03
3.386694272954006010e+03
3.548664740796588376e+03
3.147420272325078713e+03
3.433089366420766964e+03
3.527835940988652965e+03
3.612774506952157481e+03
3.742984076836482473e+03
3.770461932615138267e+03
3.357224048969889736e+03
2.687316894522061375e+03
1.930885419035063478e+03
1.069003049573741464e+03
9.267366588522737629e+02
1.168146327978879299e+03
1.569318244770234514e+03
1.430262807935727778e+03
1.196980386057491387e+03
4.005648870208446510e+02
2.224770799617253090e+02
4.119600914256376427e+02
4.831814265839085465e+02
7.632294938761347112e+02
1.224989931553493989e+03
2.059528506484834907e+03
2.357921140677711719e+03
2.271305443702322009e+03
2.687765367641207831e+03
2.952147681316021590e+03
1.826767504756461904e+03
1.400518327736344418e+03
9.055610650569053632e+02
4.120347835699948860e+02
2.443694884114285628e+02
-1.581246140840163434e+02
-4.714502682670046738e+02
-8.457350511358351923e+02
-6.836552513735432512e+02
-4.025622421205461023e+02
-6.811256959303899521e+02
-5.655407690448435005e+02
-3.277710632870357017e+02
-9.379471598982061664e+01
-1.866486525774363656e+02
-1.229564415699787583e+00
1.655033007816185204e+02
1.945753164552043870e+02
6.739993010106602469e+02
6.187963959216419880e+02
