-9.975270658728234707e+00
-3.438737785804566556e+03
-3.300342757694366810e+03
3.782711357197088660e+02
-1.405899460750878234e+03
1.437134332753492799e+03
3.593389386870383532e+03
4.410906838257198615e+03
4.494680200321493430e+03
3.962725526249825634e+03
3.271008931618367569e+03
2.572561911644449538e+03
2.130438319838555344e+03
1.552613473728506960e+03
8.669772918719261270e+02
4.035040973449114858e+02
-8.779634547283194479e+01
-4.169568084449767298e+02
-3.579607296971091159e+02
2.619616547610257840e+01
1.544442647803276714e+02
2.297500647415663764e+02
6.883679328325113147e+02
1.241626229916693319e+03
1.236652678347263873e+03
1.608337341193427619e+03
1.955674773597628018e+03
2.207670550813216778e+03
1.859300950868367863e+03
1.383482553295018306e+03
1.423269336636433309e+03
1.023654307966925330e+03
5.305939862165539580e+02
4.869686754588022950e+02
4.337702347712288429e+02
5.640055242570355176e+02
2.845018823953845413e+02
8.579337691443831204e+01
-3.083756783514587596e+01
-6.889428836326222836e+02
-1.124259836113552410e+03
-7.208354770981899264e+02
-5.040216040366060497e+02
-2.628519027175038900e+02
3.266183803663417393e+02
7.793803325285776964e+02
1.407457091866978544e+03
1.971869568798965702e+03
2.389549720102730589e+03
2.465272286463951332e+03
2.108885105252410540e+03
1.386446777097971562e+03
1.134044167549935310e+03
7.427025263557285371e+02
2.513846195881862684e+02
-2.907985082858540409e+02
-1.913470974806992615e+02
5.026756625610336187e+02
3.172050099311854297e+02
1.543009514334215169e+02
-1.110037068660940491e+02
2.272636123682820255e+02
8.800674573924802644e+02
1.730429119011512739e+03
2.482323974693551463e+03
3.195764788182352731e+03
3.014728075196742338e+03
3.049153449244005060e+03
2.850151927515855732e+03
2.117724916594089791e+03
1.664883024943079818e+03
1.515551397982480921e+03
8.056438922913370106e+02
6.112323040995075729e+01
-2.220432835918308569e+02
-3.449215561474876495e+02
2.144494100339515512e+02
-5.191423706393425874e+01
-3.070436966613659706e+02
4.003969703891544185e+01
4.053559100721840309e+02
1.297895881294611172e+03
1.901671124684952019e+03
1.214769294850676033e+03
-8.807751561661323194e+02
-3.867953174342809234e+03
-4.488693136020488964e+03
-4.600952504348237198e+03
-4.510861916473348174e+03
-4.298405740467888791e+03
5.455282940747310931e+02
4.319011038997774108e+02
-5.855343029733453477e+03
-7.578246568700619719e+03
-8.548917963554444214e+03
-8.244437170415047149e+03
-8.813721937432987033e+03
-8.766791846126536257e+03
-7.435684562606148575e+03
-1.846371758008284360e+03
1.729136617542104204e+03
6.028368249795989868e+02
-5.051248280927966334e+03
-5.040046599400063315e+03
-2.836491107478644153e+03
-4.888532436332074212e+03
-5.669200226504275633e+03
-3.219436021188759241e+03
1.934779025731454567e+03
3.384449808727395066e+03
3.910596049183066498e+03
3.698206149986101536e+03
3.167269260876673798e+03
2.199812954438470115e+03
1.548802213475523104e+03
1.046381392163110604e+03
7.435669558288460621e+02
2.932913490054945669e+02
1.335352982385138887e+02
6.733075746107459736e+02
6.136875575679241592e+02
2.116831223721698905e+02
3.792901768614808589e+02
9.765731592302834088e+02
1.909615602192993492e+03
3.013463944977335359e+03
3.671220700605328602e+03
4.281895820013162847e+03
4.281501440823384655e+03
3.621073047742353992e+03
2.873687897798833092e+03
2.265411119958549079e+03
1.763186682215172596e+03
1.053018115419033393e+03
5.798768789886140667e+02
6.337511960237118274e+02
5.276949979457497193e+02
-8.122537282520231372e+01
-6.119997780372484613e+02
-7.436334586932053980e+02
-6.621289573177166403e+02
-7.474003923682948880e+02
-1.033376461424341187e+03
-5.639811040452017323e+02
5.608643022212266942e+02
2.088181049823837384e+03
3.209017273774731621e+03
2.958412508028331104e+03
2.223349208868647565e+03
2.077783871590235776e+03
1.868901679508024472e+03
1.552983717025146916e+03
7.470469691416417390e+02
3.211317716592444071e+01
-3.417440141093091484e+02
-9.605155704926603448e+02
-1.852323996563915671e+03
-2.037584396878079588e+03
-1.697862193440373176e+03
-1.764063045987251826e+03
-1.466318848382861916e+03
-1.421050983779508215e+03
-1.678676882657136730e+03
-1.435292862524276643e+03
-1.839245255212461814e+02
1.047350114217447526e+03
1.545579329652283604e+03
2.213769040422665967e+03
2.847900471646917140e+03
2.993010286368067682e+03
2.408116342237205117e+03
1.417233210053400398e+03
4.503683024678167044e+02
-2.255339593719377831e+02
-7.715132683560461828e+02
-1.226526676197061533e+03
-1.499487152920864673e+03
-1.874487419446635158e+03
-1.856589319114947330e+03
-1.450803896720135981e+03
-1.780079264640138490e+03
-2.290321898317469731e+03
-2.423499205521579370e+03
-2.186539389520290115e+03
-1.328439966703561822e+03
1.557715135622518687e+02
1.712036978123516747e+03
2.353465593324652673e+03
2.577104837153908193e+03
2.756932723823042579e+03
2.221916984789559137e+03
9.710216966108232555e+02
-3.018166001303583243e+02
-9.425949402293307458e+02
-1.381427885420959001e+03
-2.195377191473658513e+03
-2.293439501464155001e+03
-2.401658445119659063e+03
-2.073999170261678501e+03
-1.498459310716547407e+03
-1.005114517359646129e+03
-6.279725731670464484e+02
-2.820670166523487978e+02
-2.884288841431371679e+02
4.009506689141376796e+02
8.060808955065197097e+02
1.264966368369126030e+03
1.485678937251179832e+03
1.604272809166922571e+03
1.232752419226791517e+03
1.161997392929031321e+03
9.359696310365683303e+02
2.106784965010103576e+02
-1.590680774334446141e+02
-7.622411676508876326e+02
-1.119774674973749597e+03
-1.462738480358954575e+03
-1.758278564538173441e+03
-2.310546956985768702e+03
-1.688526294331359622e+03
-1.137214704852712430e+03
-8.636928658650392663e+02
-6.600274155742011999e+02
-2.427262765977921390e+03
-2.859520352775541596e+03
-4.952450560455470736e+02
9.343738780172454881e+02
2.013203225054297718e+03
2.406723838679267828e+03
2.326171565098998144e+03
2.334576150910409979e+03
2.428101632225996127e+03
1.724423959340268766e+03
6.639230506813461261e+02
-2.457962756508838993e+02
-6.779058405083553396e+01
8.090568031614697020e+01
-3.608483072475049198e+02
-1.216839899021191513e+03
-1.988652535429000409e+03
-2.148813350324899147e+03
-5.734333672898034138e+02
1.049699037551343508e+03
1.686171480492381988e+03
2.008013072440550332e+03
2.004765460724986951e+03
2.304292785307542999e+03
2.361165835208728822e+03
2.978014954036219024e+03
4.013427039089158825e+03
3.919843777824355584e+03
3.657885442519892877e+03
3.186474673702971359e+03
1.924230831287871069e+03
9.100866097063675397e+02
2.970962443403965381e+02
-3.718414820612308631e+02
-2.399833417491461489e+02
-5.980130171204105238e+01
6.932852826922294298e+02
1.438327514429449138e+03
1.722629706517283239e+03
1.983614993513080663e+03
2.340503907118702045e+03
2.714448939172009432e+03
3.162347060677539048e+03
3.281060836058883524e+03
3.347541259557728608e+03
3.598815689499496784e+03
4.096873207168286172e+03
3.678745375092625636e+03
2.994462173522439571e+03
2.773019068909854923e+03
2.045429770088972646e+03
1.360555717660357459e+03
4.652961280802241504e+02
-1.955372376199238943e+03
-5.275410152274809661e+03
-7.183733214456563474e+03
-7.099322905766197437e+03
-7.522215271809319347e+03
-7.464346323313801804e+03
-6.885779140707402803e+03
-6.124455139248491832e+03
-5.451211010534542766e+03
-5.867967743919631175e+03
-5.214812096968838887e+03
-3.514804346448569049e+03
-2.029828892114878499e+03
-2.302963988257634810e+03
-2.874317085111895722e+03
-1.040782877597725019e+03
-2.712843510452162832e+02
-4.020795812393505912e+03
-3.822446621557007802e+03
8.327215223925228429e+02
9.897569556710791403e+02
-4.129319411817165019e+03
-7.254545792280750902e+03
-7.318912412754440993e+03
-7.487372522132904123e+03
-7.035894641863816105e+03
-5.584382576214111396e+03
-4.945872868808651219e+03
-2.373305056299147964e+03
3.320351663095255844e+03
4.727077046469348716e+03
1.959934292445184838e+03
-2.453908826363707703e+03
-2.931462936124488351e+03
-3.018684483931359864e+03
5.846205696696932819e+02
2.711463074629779840e+03
2.742658943065157473e+03
1.530115010975307314e+03
1.372067029592728659e+03
1.584546973399240187e+03
1.606514126266122958e+03
1.309924064349497257e+03
1.779769993063532183e+03
1.998998304668989249e+03
2.193667630369959625e+03
2.339877114052727393e+03
1.783688581309263327e+03
2.514186272340878986e+03
3.462529506831534945e+03
4.770769388507523217e+03
5.565819875820031484e+03
5.713727142552907935e+03
5.422648139577544498e+03
5.184666401316351767e+03
4.352732385726912980e+03
3.223822442223585313e+03
2.539842878245434349e+03
1.894789193650859033e+03
1.318559798762318678e+03
6.641949614701995870e+02
-1.471880836965721926e+02
-1.121554155169393880e+03
-1.353935899915491746e+03
-1.314274441551403015e+03
-1.468189700783214903e+03
-8.461981336126980295e+02
-3.235185904968212753e+02
-6.201003705013416720e+02
-7.738383071184453001e+02
2.673798724645672564e+02
1.504468427392786680e+03
2.739605689577001158e+03
3.745747181979037123e+03
3.821299154364961851e+03
3.164616503254807412e+03
2.521561060891790021e+03
2.069148353863016837e+03
1.357406211306575415e+03
1.113315095057535473e+03
6.455730878507907846e+02
-1.235173940795011021e+02
-4.759645379029668675e+02
-4.335164739409194112e+02
-6.366201171825422307e+02
-3.564383476971022446e+02
-2.103407911348754453e+02
3.587351565363131840e+02
9.695816388755932849e+02
9.510291473772975905e+02
1.365306701961087356e+03
2.100318681963522977e+03
1.807142792503165083e+03
1.205871138313588972e+03
3.254660603868898647e+02
2.308425957948051632e+02
6.029564925933501627e+02
4.678401765562494461e+02
1.834454506121450095e+02
-2.913265326529288473e+02
-3.706028353142921219e+02
-6.603568451315849188e+02
-1.137386664483241930e+03
-1.340626663951522460e+03
-1.360089373189568278e+03
-1.422799410916278703e+03
-8.128554640907096882e+02
-1.544637280665018579e+02
1.501036136437128619e+02
6.690469924875174001e+01
7.681849431369531658e+02
1.828018391676812826e+03
2.372431862330938202e+03
2.531450628486104051e+03
1.747159912897755930e+03
8.955160490139145395e+02
4.693568913960306190e+02
2.396459564067262420e+02
-1.648669732961819179e+01
-7.089773378429996455e+02
-1.821847289250384620e+03
-2.347270536565476050e+03
-2.416291467142278179e+03
-1.743896638031031898e+03
-1.216246381846917075e+03
-5.634074482049619519e+02
-2.304798675896666094e+00
9.331184994829344532e+02
8.889868703893258726e+02
-1.252627704017145788e+03
-4.238753564127327081e+03
-5.967441615092238862e+03
-6.672844226391133816e+03
-6.660130476107770846e+03
-6.680364824201492411e+03
-6.182540517511680264e+03
-6.239634822593206991e+03
-6.763635366833286753e+03
-3.516641555594892452e+03
-1.948734075247012470e+03
-2.968862664304852842e+03
-5.490023273860624613e+03
-2.000248050241397550e+03
-8.352758386017788439e+01
9.721015888987238895e+02
1.433615664977594179e+03
1.967045648497361299e+03
2.518380710355209430e+03
3.191545913069321614e+03
3.622524798175147225e+03
4.358325386153524050e+03
4.573028066515773389e+03
4.657670719401866336e+03
3.832257800612241226e+03
2.782764547356464391e+03
1.968185717708262018e+03
1.728531741281452241e+03
1.282746298886674822e+03
3.828117172050909858e+02
-6.733646491753539749e+02
-1.612811655540990614e+03
-2.334390171576301782e+03
-2.652112090159685067e+03
-2.065021654140356532e+03
-1.610155673638194457e+03
-1.443592691266995189e+03
-1.653356485762119064e+03
-1.011461871876664759e+03
9.813773174600106586e+01
1.155480774648799297e+03
2.166560583619475437e+03
3.139437957445436496e+03
3.700205741756935367e+03
4.134931603336041917e+03
3.577520781043527222e+03
2.859981613537619523e+03
2.536351716306831349e+03
1.819553586132896271e+03
1.372593231753360669e+03
1.100399190914480414e+03
2.439494267492198958e+02
-2.477772958610813419e+02
-5.317824175251283805e+02
-1.230047688303248378e+03
-1.822519905822475948e+03
-2.205233724051705849e+03
-2.651129237498897965e+03
-2.386132384302090941e+03
-1.677280123834403184e+03
-4.435588484791580299e+02
1.841106764044588715e+02
6.567490934552638464e+02
1.166453423840176129e+03
5.172410699590737977e+02
2.219888751949111452e+02
1.024760579202558347e+03
2.053547319402423454e+03
2.892294519922869313e+03
2.849038293164852348e+03
2.751794674293718344e+03
2.570455527599859124e+03
1.877057106967659138e+03
1.210619491870831325e+03
2.720648777315078064e+02
-3.140428971046169409e+03
-3.901982086975109269e+03
-2.227647307195202302e+03
-1.875260645281408415e+03
1.740277890693485915e+03
5.410331941881190687e+02
-2.468841762534706277e+02
1.309663503954502403e+03
1.999797727270097084e+03
2.941665049670824374e+03
2.231188579668775219e+03
1.707229113384484890e+03
1.047595911072910894e+03
5.941622190823745768e+02
-6.480722883342934892e+02
-5.675129299614713091e+03
-6.459001330538736511e+03
-6.515737490735848041e+03
-4.252427817003210293e+03
-4.559076096445369330e+03
-6.600638379012737460e+03
-1.816029487319721738e+03
5.097875502713532683e+02
4.118311265801672221e+02
-2.173885417637759019e+03
-1.277365491813838162e+03
-3.518599432833727860e+03
-2.498524583446563156e+03
1.183860263787013764e+03
-6.414795068146000858e+02
8.665202058595115204e+02
1.923846155976469845e+03
1.954488492777445799e+03
-1.333539170874757474e+03
-2.026280350504748412e+03
-5.184779280549912073e+03
-3.566069919025180297e+03
-2.655170469360408788e+03
-4.237126744145060911e+03
-2.812922620163380998e+03
4.424445235130343121e+02
2.679994700685088901e+03
3.008732205364097354e+03
2.554708380449530523e+03
2.346938964101964757e+03
2.219424202859302568e+03
2.378088872172013453e+03
2.870045268460602983e+03
3.674356486877620227e+03
4.890957097137299570e+03
4.620873092259741497e+03
3.297120861033099118e+03
1.752698327800173274e+03
1.617338438403997714e+02
-6.776587044641136117e+02
-9.785878007338358202e+02
-1.673238078755638753e+03
-2.248592066459868420e+03
-3.526682056026533246e+03
-4.355536234106694792e+03
-3.170204305604648653e+03
-1.303698534369385470e+03
-5.719208739363180030e+02
-1.340283227783277198e+02
1.428772014855151156e+03
1.900750699901417192e+03
1.188099115278523186e+03
1.603744420383900888e+03
3.309633223169356825e+03
5.217358817087387251e+03
5.606333217220349070e+03
5.329562438027232929e+03
4.713268703172109781e+03
4.065962257801507349e+03
3.357125269732444394e+03
2.173279787182130804e+03
1.111427758558435244e+03
3.886340383129602287e+02
5.187984225618383789e+02
1.425085505598448208e+02
2.672265179320051516e+02
4.627623166803812751e+02
-3.195844419367996352e+02
-1.378153543846447747e+03
-1.305858362287894806e+03
-1.427523717347814454e+03
-1.656543744569281671e+03
2.111334345452128787e+02
2.143436779077186202e+03
2.170105516400656597e+03
1.187237016592849386e+03
2.007232460996920508e+03
3.067831698447992494e+03
3.212908803777634603e+03
2.997430238778255898e+03
2.668386823256748357e+03
1.427668113696653791e+03
3.163163711077673952e+02
5.299688122521115652e+00
-9.544386543692043006e+02
-1.259851464329254668e+03
-1.199696456693602471e+02
8.491723520671672532e+02
4.735333206274602844e+02
4.241245598740487139e+02
1.412979138798148142e+03
3.200129168785471848e+03
4.715597341922121814e+03
6.027435955807070968e+03
6.779691852029865913e+03
6.370337122256139082e+03
3.846347795750460136e+03
1.427719277751124991e+03
-3.075223522969562282e+02
-1.710399926275990993e+03
-4.602931802903996868e+03
-9.499197110659099053e+03
-1.281722136890344882e+04
-1.229298490558973208e+04
-1.315553156209751251e+04
-1.351684205607998592e+04
-1.264581566623477011e+04
-1.008046008849116697e+04
-2.283890990492797755e+03
5.197906576781871081e+03
5.937918098518393890e+03
1.928129904281917334e+03
2.211588205460460813e+03
1.717358248824393741e+03
8.152167946512747676e+01
-1.177957209217111995e+03
-1.585049613411538758e+03
-7.967980860705160921e+02
3.608797435497278457e+03
4.021771587970370092e+03
1.900110615732476845e+03
-1.937231435218825027e+03
-6.620129441517274245e+03
-8.422662622141413522e+03
-8.959913908558464755e+03
-8.895903642154265981e+03
-7.181599864191451161e+03
-4.950896794210760163e+03
-4.344782931353677668e+03
-3.312242635798456831e+03
-1.162183625488141843e+03
3.054277856402652560e+02
1.063645767059741502e+03
1.402432396516974450e+03
2.463801277084694448e+03
2.903779876227072691e+03
2.327395474971016938e+03
6.367162815587471414e+02
-1.716300561515507297e+03
-2.186671233357634264e+03
-1.124380139151378216e+03
7.896118273679477397e+02
3.667298954805241465e+03
6.617672334430521914e+03
7.338682296048047647e+03
4.563367248470988670e+03
1.355795852617713535e+03
9.402962527591044761e+01
-6.219838633042317042e+02
-1.049243712977809537e+03
-1.112663501760637246e+03
-1.762051977534944456e+02
6.922356116670623578e+02
1.837313131755097686e+02
-9.897111780461601711e+02
-1.057089214301384800e+03
-4.838811307257755345e+01
1.565468322624202301e+03
1.603546029843726046e+03
1.082779604879065801e+03
5.971365814570474413e+02
-1.232402935950721030e+03
-3.341770007574283227e+03
-3.865031568664629503e+03
-3.533367047648836433e+03
-2.470834269412398498e+03
-4.793919032535674205e+02
2.515398161587539562e+03
5.840891032355732023e+03
8.045063652068181909e+03
8.025149508244237950e+03
7.267958902947227216e+03
6.956254915140915728e+03
6.799989694932749444e+03
6.582114652284995827e+03
5.822470409701449171e+03
4.603209257941986834e+03
3.655483694102596928e+03
3.245579048274430988e+03
2.296834562080838623e+03
1.103421228356174197e+03
-1.477315366274042105e+02
-4.886623745537711443e+02
1.186546034422442233e+02
3.942242961525672058e+02
2.310854751274499677e+02
1.341906554882074545e+02
-1.313891673975393530e+02
-1.862307958859529222e+01
1.545229761769007268e+02
3.490043794195961482e+02
4.949620113395588419e+02
7.444720766516511503e+02
1.348536581809091331e+03
1.571140603817025976e+03
1.549299475258432267e+03
7.040663177206458840e+02
-1.725101146973835853e+02
3.554205169313058832e+01
-8.880690942847319036e+01
-4.606092878838626916e+02
-9.509530241074704691e+02
-1.790880840025684165e+03
-2.102368352398306797e+03
-2.148390544276769106e+03
-2.227020247946841209e+03
-2.116293358238358906e+03
-2.079181080750579440e+03
-2.037691010552776333e+03
-1.739843525206707000e+03
-7.906021893964300489e+02
-5.459692678317201171e+02
-6.082906174327870730e+01
4.797940516296805527e+02
6.958603406506505280e+02
9.924577330180441095e+02
8.175384676004952098e+02
6.350806514693072131e+02
8.415666462116881519e+01
-7.413522941344612036e+02
-1.576445053885855032e+03
-2.352115079025930754e+03
-3.108392507974287582e+03
-3.522276355519489243e+03
-2.938760161175596750e+03
-3.071873356566496568e+03
-3.294628245139838782e+03
-3.207091880140931607e+03
-2.703248441198399178e+03
-1.026093590822981469e+03
5.153181930890602871e+02
7.711211199757779013e+02
1.463308176302895845e+03
2.207744063001533505e+03
2.120349749253277423e+03
2.339117463905535260e+03
2.278127446499653615e+03
1.799326696871248487e+03
1.639727270061394393e+03
1.356432439385519729e+03
-3.616938606471304638e+02
-2.679736025818660892e+03
-6.492472130658554306e+03
-8.972014871059849611e+03
-1.054830328883702532e+04
-1.144122204483620408e+04
-1.252108916728730401e+04
-1.310755078964079803e+04
-1.205561540372548188e+04
-9.069445195515834712e+03
-4.281010273149227032e+03
-7.335408768553166681e+01
3.055633697163694706e+03
5.319946467334591944e+03
6.301652563824231038e+03
6.755657879976687582e+03
6.265223353507477441e+03
5.507567709183857914e+03
4.278993303757931244e+03
3.478685230677876007e+03
2.829496473531124593e+03
1.737504327114783109e+03
1.246921525827442565e+03
7.144470097439980236e+02
5.738870550388926404e+02
2.539347370388630907e+02
4.300203714244808566e+02
1.437232871424610721e+03
2.431823786124589333e+03
3.422521621387298183e+03
3.789059565108488641e+03
3.998859731476649813e+03
3.990687196582714932e+03
4.040601472114388798e+03
4.054868795247254184e+03
4.290400445364016377e+03
4.074874980681216130e+03
4.128394126781310661e+03
4.185550459767428947e+03
3.246667725577733563e+03
2.356284554785283035e+03
1.474832659133063316e+03
7.869237397836669743e+02
1.975682611506895796e+02
-6.810781356935204656e+01
-1.730537369022648022e+02
2.695800484502026251e+00
-4.298571704873895669e+02
-3.146936693770217630e+02
3.671891043826583427e+02
7.718160519158794841e+02
1.062187039620201176e+03
1.640359953056672794e+03
2.022351746212061698e+03
2.323186885320282727e+03
2.686911859959077901e+03
2.614465800376230618e+03
2.056864265708598396e+03
1.215110567211468606e+03
4.041898318144580458e+02
-1.048534409972517807e+02
-8.220450316125809422e+02
-1.557555267856756927e+03
-2.018494497247393156e+03
-3.412865661562579135e+03
-6.482737675586601654e+03
-6.009790034118553194e+03
-4.169061972566463737e+03
-3.071533602783576498e+03
8.017473447775211071e+02
-7.183086885175888483e+02
-1.975751414543867440e+03
7.805769411773229649e+02
-9.632606202135222020e+02
1.577026657555284714e+02
2.222471688600388461e+03
-7.909422748469091857e+02
-1.304509106650205922e+03
-8.191594205632666217e+02
-5.588837052272097026e+02
-4.540766467185498186e+03
-3.185759707949296171e+03
-1.199869525813976225e+03
-3.832122963907976100e+03
-1.085516663106853002e+03
-9.850547630805712060e+02
-9.787403991658113682e+02
-2.726482395620263560e+03
-3.583258847964668803e+03
-6.842406208852988811e+02
-1.326423155159902535e+03
-2.561622450740769182e+03
3.952502082462784188e+02
1.657057093962994941e+03
2.133772301374504877e+03
2.333494490209056949e+03
2.302239205095863326e+03
1.780010953009916648e+03
1.773871173777019521e+03
1.548853673720450615e+03
6.189460218993307308e+02
-5.747981745816063039e+02
-9.044072377993751388e+02
-1.179041437356586584e+03
-1.249679606114636499e+03
-1.325192473684901870e+03
-1.432598187556077846e+03
-1.533909456717226703e+03
-1.267165711066791118e+03
-9.143766232471814419e+02
-3.235310126281625003e+02
3.514382987026203295e+02
8.026440088265997019e+02
1.300300894082501600e+03
2.142435379557878605e+03
2.584014193765794516e+03
2.514009005254894873e+03
2.003663148987373461e+03
1.315232111176736453e+03
5.235709734699179307e+02
-1.555945735638301528e+02
-6.773407056066713494e+02
-7.733884823022274304e+02
-9.257581682892893014e+02
-1.347623529868540572e+03
-1.144501941678160847e+03
-7.800937169758691425e+02
-5.072319882215647340e+02
-4.669619203483597403e+02
-4.844874990705393998e+02
4.116219075136543211e+02
9.965806725877744157e+02
1.602352609122290460e+03
2.046860551258128680e+03
2.150235408725389334e+03
2.146186719356423055e+03
2.125567676768531328e+03
1.697303160839058592e+03
2.548579956539385876e+03
2.914029222883250441e+03
1.922614395331283504e+03
7.558979954930423446e+02
-2.551913617719492038e+02
-8.524226061438059787e+02
-1.127923149755568602e+03
-9.499637638996786109e+02
-7.173099202672934780e+02
-6.602454137826972556e+02
-5.857556061794198285e+02
-5.488444149520569226e+02
2.256639993228014163e+01
3.643976529626085039e+02
7.146406054070187110e+02
1.584342851607335433e+03
2.196649555233043429e+03
2.199635094255626427e+03
1.842172774471121556e+03
1.904126769509953192e+03
1.812335145852700407e+03
1.227662994015233153e+03
3.080295020049519508e+02
-3.664741806894248271e+02
-7.955187544004238589e+02
-1.171018224868679908e+03
-1.761108419701421326e+03
-2.168861651986815104e+03
-2.114287744987886981e+03
-2.167365391298359555e+03
-2.224200061433170958e+03
-1.899806609438675423e+03
-1.416062546562385251e+03
-9.479064755806484754e+02
-5.453767069324667318e+02
1.484533362127735643e+02
9.715148431860927758e+02
1.219799672522764922e+03
1.224260058687531000e+03
1.611908821274592356e+03
2.888883472855631680e+03
3.627189927749323033e+03
1.750690340920138851e+03
-1.171716161426377539e+03
-5.670092573117398388e+03
-8.127559611935852445e+03
-8.154284543892473266e+03
-8.102386512569628394e+03
-4.036787332707984660e+03
-1.049309878974748244e+03
-8.969410778664209829e+02
-9.197451357206203966e+02
-2.420722364884104081e+03
-7.553844686321011068e+03
-7.442039289944918892e+03
-6.460242631277531473e+03
-4.065369345156454074e+03
1.641464018524660332e+03
3.756191185910868626e+03
4.371800888698731796e+03
3.949315609268442586e+03
3.208670089148816714e+03
2.424680836003713011e+03
2.033330120499730356e+03
1.013666506495806516e+03
4.867089498294267287e+02
6.464606788794836802e+02
7.658697515862974114e+02
2.190622041827387534e+01
-1.534792710634027912e+02
8.371976289928237236e+01
3.075235137340091569e+02
7.948730371919674553e+02
1.245802219692028530e+03
1.839304477318783711e+03
2.825480928486465018e+03
3.517303743832765122e+03
3.990667052746995978e+03
4.171554170661022908e+03
4.231003097207675637e+03
3.729035611232155588e+03
3.245629326627473802e+03
2.594732060713625742e+03
1.764276812778538670e+03
1.001253738413771430e+03
7.416278059919303587e+02
5.863194081859751350e+02
3.703069356665746454e+02
4.146335654743513146e+02
4.732739738152740756e+02
1.135265589857066743e+03
1.304554432974746987e+03
1.290093527779906708e+03
2.031984501631488911e+03
2.510274016674252834e+03
3.000005176734941415e+03
3.978164956254076969e+03
3.836751809900061289e+03
3.928705579437948018e+03
3.663994742380343723e+03
2.949677850446699722e+03
2.281715534191882853e+03
1.465042678048278049e+03
9.135697080421655301e+02
8.283779022433141108e+02
7.775047167851670338e+02
6.778681834898908392e+02
7.443769855061369753e+02
3.571443721408375040e+02
6.231390511223486328e+02
1.276358513576085898e+03
1.619800966828847550e+03
1.588452480830207833e+03
1.643350755426165051e+03
2.149423398953566448e+03
2.082734382504030691e+03
2.178340082685664129e+03
3.257230889697071234e+03
2.628457508254131881e+03
1.551245473333578104e+02
-3.149562989251226554e+03
-6.570434851447511392e+03
-7.057633730206875043e+03
-7.086226375922537954e+03
-7.369280397838710996e+03
-7.590725063198304269e+03
-7.749576238677580477e+03
-7.452989108061180559e+03
-7.196084889482069229e+03
-6.888037669045409530e+03
-6.643820957659496344e+03
-6.314442059261603390e+03
-5.116920098155760570e+03
-4.776133767232610808e+03
-1.511977859452917301e+03
8.286349483174643638e+02
-2.252247478478679113e+03
-2.619565513686098711e+03
-2.075330688897678101e+03
-2.700520588218958892e+03
-2.539068909895467641e+03
1.686041025121170605e+03
2.766802277491501172e+03
-2.655874613595050960e+03
-6.495925320629163252e+03
-6.317357956770561032e+03
-6.064218335276438665e+03
-6.062500741554638807e+03
-6.115216542932093944e+03
-5.897293229002476437e+03
-5.204678410126126437e+03
-3.452313085228351156e+03
1.865846545600460331e+03
3.305859297275554127e+03
2.971752229171231647e+03
7.886267811292110537e+02
-2.659560400077031318e+03
-2.652839144737335118e+03
2.496894416117980654e+03
4.399698000849261007e+03
4.119632557664827800e+03
3.713662118135684977e+03
3.354792224532522596e+03
2.814989485075019275e+03
1.867299658517344142e+03
7.777476634983732993e+02
3.333328427394341276e+01
-3.659501202712685881e+02
7.390541427647529815e+01
1.453898661549370900e+03
2.564056323464900743e+03
2.830442174041125327e+03
2.879041776868332818e+03
3.136888672654346465e+03
3.110990682158937943e+03
3.801404191004007771e+03
4.195175678384538514e+03
4.484364729756321140e+03
4.483019760988585404e+03
4.353102920290419206e+03
4.089623020559071847e+03
3.398602769932771935e+03
1.552956537374586787e+03
-2.056321844979412163e+03
-4.648874255868959153e+02
2.038116875644701054e+01
-5.228102015565584679e+02
-7.596535669351476372e+02
-6.733370833691467396e+02
-6.194445522342531376e+02
2.650122583705959869e+02
1.473575856704847865e+03
1.906623164298088568e+03
2.194303887304072305e+03
2.338139762352543130e+03
2.017913467735598260e+03
2.310085556241741415e+03
2.839844460889035417e+03
3.064023444279379873e+03
3.339070998016851263e+03
4.037773452550432921e+03
4.569745492097659735e+03
3.987254962829762007e+03
2.452204760311318751e+03
1.432524755154735658e+03
1.088233697529093661e+03
6.464288516608809232e+02
5.500362545397810266e+01
-1.645265309217920731e+02
1.924930144549244346e+02
4.749740854372305989e+02
6.688787688249279881e+02
9.100839685892098032e+02
1.616572267245077001e+03
2.143283295456580618e+03
2.487200508108782287e+03
2.364392042425887212e+03
2.309821995311591763e+03
2.580492102125369456e+03
2.612448162360301922e+03
2.626710388820305070e+03
1.893221633887379085e+03
1.191954421409936458e+03
5.378752987279993931e+02
-4.750428970521315364e+02
-8.548991582425652496e+02
-8.127715745809526879e+02
-9.456748721980857226e+02
-1.005574782557054959e+03
-6.775433080634431917e+02
-1.276095094503184981e+02
6.372750350921606923e+02
1.168108422846986286e+03
1.320842659628128104e+03
8.224601816210877132e+02
1.240977677789920563e+03
1.943498045486717956e+03
1.190017056420385416e+03
8.047599842506151901e+01
-4.212070371882018662e+03
-5.368597680989433684e+03
-5.764155011725945769e+03
-6.467827315520318734e+03
-7.559658414911592445e+03
-2.740662210285743186e+03
-6.809483715926393188e+02
-4.813558827466563343e+03
-9.029529369156867688e+03
-9.274753614802077209e+03
-8.250335432801912248e+03
-7.624238593883528665e+03
-7.365449611808012378e+03
-3.774999712781083417e+03
1.468102153482733456e+03
2.185887431436504357e+03
-1.246620566139967650e+03
-5.918372996704924844e+03
-4.998483716694384384e+03
-2.027953861138019874e+03
-3.508720373209894206e+03
-5.842749063466853841e+03
-3.257009108292064411e+03
-5.285737607595204963e+02
-2.364493186814875571e+03
-4.878441605550578970e+02
-4.106372292935345172e+02
-2.698528991617911288e+02
-5.685080138714957911e+02
-6.057999735874935965e+01
5.349092199468742592e+02
7.599629931533853551e+02
6.376061818214780033e+02
1.082796750731718475e+03
1.493543171303829467e+03
2.025891336311389750e+03
2.715921607975528786e+03
2.807648841076853387e+03
2.917098381107667592e+03
2.966254792010169695e+03
2.487179483853934016e+03
2.513901376361020084e+03
2.550394155754471740e+03
2.312611956305837793e+03
1.441584535874707854e+03
5.083307781637977314e+02
1.448540199709950969e+02
-4.108973353225959499e+02
-9.669397445561899076e+02
-1.219261686268720268e+03
-1.463848071979410406e+03
-1.054676857462471162e+03
-3.644798437320805107e+00
1.674223529348679904e+03
2.414878096071943219e+03
2.201397553715170488e+03
2.253808731624672873e+03
2.724072769139683260e+03
2.789127851549756542e+03
2.565056851067082789e+03
2.050086027080405529e+03
1.814322823069784135e+03
1.560917145527577304e+03
9.577360198136452709e+02
1.150321201947773275e+01
-2.826328229030881971e+02
-5.974615232011970534e+01
-3.325217724440391294e+02
-1.075998206834309940e+03
-1.731481594129645600e+03
-2.090050092455020604e+03
-2.041887805410355440e+03
-1.651158187682476182e+03
3.392215396542603116e+02
1.875788764714724948e+03
2.341018414140857203e+03
2.457567732448116658e+03
2.800455693769131358e+03
3.395610678681047375e+03
2.900059586470082650e+03
2.049861081703879336e+03
1.469074308660401812e+03
1.320758044114599670e+03
1.214818326748496247e+03
1.007183159536159678e+03
6.888431760247289048e+02
-1.010845547357013743e+02
-7.736280853270390026e+02
