4.224934868592174553e+02
4.692013095836388175e+02
4.590636477153670825e+01
2.065527488358594042e+02
1.006885442140338505e+01
-1.456773682195704289e+01
-3.640525694808329149e+01
-2.443885674000323505e+01
-3.057132113823759596e+02
-5.492541021392203220e+02
-5.590421642496743289e+02
-2.882311116620958273e+02
-1.820134631822460847e+02
5.042480647531088067e+01
-2.562462648988420142e+02
2.810452914119984484e+02
6.613270737639256822e+02
6.046900368348213988e+02
8.237530469248879399e+02
1.355052141967442367e+03
1.505399612130920559e+03
1.359104061400757473e+03
1.389268784538449154e+03
1.638611800619481301e+03
1.766023242922306281e+03
1.260435598222099543e+03
8.672745184306108968e+02
9.984732495006772979e+02
9.526799865212576606e+02
8.215792259580988457e+02
5.073860038567506194e+02
8.039780648418512783e+02
1.116780471024355165e+03
1.253542275961478026e+03
1.292967249930925846e+03
1.399941490762608510e+03
1.501937349472843152e+03
2.108225041050858181e+03
2.127390265632369392e+03
1.923283707458055005e+03
2.230405032165020657e+03
2.301984138052932394e+03
2.412944022472397137e+03
2.356326163811195784e+03
2.077650094126768636e+03
1.940897404403197243e+03
2.048666318006540678e+03
2.033955400628647567e+03
1.832256910718689596e+03
1.975333617458250046e+03
1.652024148431671392e+03
1.360291026516287957e+03
1.572090176872749907e+03
1.864409089050841658e+03
2.095202191799100547e+03
1.784489274385874069e+03
1.878232163929537592e+03
1.981372174472069901e+03
2.148842610922639778e+03
2.171638553836312894e+03
2.360750039413063405e+03
2.643152883153381936e+03
2.997831510520763914e+03
2.737768164267131851e+03
2.434922132511205746e+03
1.612338073991425517e+03
4.596513888606044418e+01
-2.537211270516864261e+03
-4.769224426637266333e+03
-4.310790517978763603e+01
8.601907013459789368e+02
-5.628336722519476098e+03
1.051985084813244811e+02
2.862855718253892064e+03
-3.143842397825695798e+02
-7.305563846844472209e+03
-7.959651738352627945e+03
-7.068587037385945223e+03
-7.386299448802548795e+03
-7.674921650768880681e+03
-6.921423304957429536e+03
-6.521735036973899696e+03
-6.725863915532308056e+03
-6.405775208381600351e+03
-6.976371341304757152e+03
-7.285749910465648099e+03
-3.767869486275035797e+03
-2.346740050058215559e+02
-5.603156080396764082e+03
-8.009297961270323867e+03
-8.050138226775407020e+03
-7.374661641568613959e+03
-6.933826074518729001e+03
-6.866547969287643355e+03
-7.031784421322538037e+03
-6.066556582906052427e+03
-2.132777395694354709e+03
1.690591185955283891e+03
1.518589717803070926e+03
1.419209173036912944e+03
6.885199055444605847e+02
1.673596396936694191e+03
1.779475863604789765e+03
-2.885512821754063140e+01
5.896744283153346942e+02
9.380861203290912727e+02
-4.765224591962064551e+02
-5.711078236861712867e+02
1.532367984660022103e+03
1.797980671028888992e+03
3.172737359222420764e+03
2.674661978054314204e+03
2.946809688203497444e+03
3.366230154508151372e+03
3.464986936253820659e+03
3.688153485661518971e+03
3.262750838447074329e+03
3.305850608400766305e+03
3.824549609426303959e+03
3.772882596037604799e+03
3.958874153501794808e+03
3.823604422090951630e+03
3.629142591036972135e+03
3.238536988503004522e+03
3.077874704145692704e+03
2.688185806601362856e+03
2.320509932940535236e+03
2.158923180358081481e+03
1.934437908042967138e+03
1.901123079540300068e+03
2.181984634555331468e+03
1.951246543951365766e+03
1.418138118475042120e+03
9.110049541713576673e+02
8.006318572038713910e+02
4.368564456636544264e+02
5.488548477289658649e+02
1.630587582590415650e+03
2.010079882674398277e+03
1.707502161931045066e+03
1.901675562359295327e+03
1.806565994038890040e+03
1.214579526434758009e+03
5.838341618162468194e+02
1.371506120712025222e+03
1.312462498120463806e+03
5.088234560169097449e+02
1.572869890667249990e+02
6.896481160025192025e+01
-2.212215420424409444e+02
-5.303666104878915348e+02
4.059725387414786013e+01
4.946448360810706504e+02
2.797769235192969859e+02
2.900561616792061272e+02
2.754852839875472341e+02
4.041401555306061368e+02
8.900123758311426627e+02
1.432142835058789160e+03
1.262597586480371319e+03
7.524034101634583749e+02
1.835486519053897894e+02
2.402202919253231173e+01
1.609061575656961907e+02
-4.379260475321975576e+01
-4.630561224351699252e+02
-2.349095623678801417e+02
-5.128050957268911958e+01
-3.761851641554279695e+02
-5.906553672878009138e+02
-8.637037788120667301e+02
-1.121286389391836110e+03
-1.438356718239983365e+03
-1.061936322943028927e+03
-8.290294370940960107e+02
-8.456914785084196637e+02
-7.479588467331004722e+02
-4.407733210825737160e+02
-2.504035633925454363e+01
9.251503398663678581e+02
4.287860442810308541e+02
-1.909332918046835559e+01
1.945184324623924397e+02
7.861877431649747905e+01
-2.770125932527367141e+01
1.295258077231330844e+02
-2.058243302052712806e+02
-5.977522310153336775e+02
-6.902728195382852618e+02
-9.575336612350726000e+02
-1.290595475328339717e+03
-8.745382002605376783e+02
-6.543709752620907238e+02
-1.129041288271535905e+03
-1.482522083039113568e+03
-1.485651594816661145e+03
-1.043458989566423952e+03
-9.859922733891747839e+02
-1.502469073867174529e+02
2.206076619587202003e+02
1.703867238698057349e+02
-5.749775270475702200e+02
-5.485014543854376825e+02
-6.303052238266491258e+02
-7.983783841342503820e+02
1.893102256134315837e+02
6.637615951093188187e+02
1.469607819208443402e+02
-1.851114898906305939e+02
-5.875286224481525323e+02
-7.284425052236682632e+02
-3.729077872120010397e+02
-6.289520294336055031e+02
-1.132550825902270390e+03
-1.212723161473800474e+03
-1.161546925268995210e+03
-1.083345715116418887e+03
-6.758711956006259243e+02
-4.256688898583616947e+02
2.201476079439419777e+02
1.191754320881226903e+02
3.294061645109771348e+02
2.038487282861362075e+02
1.905258457477962395e+02
5.573500760247333119e+02
4.303086470653207840e+01
9.988722429078080722e+01
4.963880402620856813e+01
-6.268852156742203761e+02
-3.126475627184934183e+02
-3.705914288721806429e+02
-5.957513891816929572e+02
-5.492743115374148601e+02
-6.811851921795868066e+02
-9.443617014792381781e+01
5.399410726338072664e+02
8.189977041667840467e+02
9.615776324708141374e+02
1.040611393498602638e+03
9.220869926287120961e+02
7.490703770156562769e+02
1.100686531115648449e+03
1.349928690079422722e+03
1.506621904918746395e+03
1.022969990651413468e+03
6.307591759755055136e+02
1.062029462905256423e+03
5.014000407855473327e+02
3.266590593201885326e+02
7.581915816080952482e+02
3.110809149600163437e+02
-2.394253224103528908e+02
-4.318098131947550655e+02
-9.161514832342945169e+01
6.179623750458540599e+02
8.058896293959792274e+02
1.009080489462060882e+03
1.319412705131435359e+03
1.649014222366726244e+03
1.503918957652779682e+03
1.460958870643373757e+03
1.160121065433736703e+03
5.374872014074394428e+02
6.110131130993810302e+02
8.307041527612276468e+02
1.041676098388509217e+03
1.578916136073495409e+03
9.453992925714125022e+02
-1.648928299897399484e+03
-7.571063091632921896e+03
-5.314062631275213789e+03
-3.831890545880983154e+03
-3.824523898355530036e+03
-2.028805039993678747e+03
-8.256376329475026523e+02
-5.228210713102240334e+03
-6.558636022750696611e+03
-1.674217296345760815e+03
1.975387863511389696e+03
3.034178551976954623e+03
3.477015456424818694e+03
3.078954382765855371e+03
2.505119529849913761e+03
1.979529521468814437e+03
1.009095825515136653e+03
-3.226090985019347499e+03
-2.512961616172312461e+03
-4.435350732280069678e+03
-1.022037729605823529e+03
1.199989580794302583e+03
1.091614313212422303e+03
1.788129835062860593e+02
-3.321602647431137029e+03
-2.665657210136446793e+03
-1.353067397143736798e+03
-4.956487865347522757e+02
-3.208455685845668086e+03
-2.521597037143988018e+03
-2.135022547596530785e+03
2.073306671931305232e+02
-2.156518069825407565e+03
1.143322133234090870e+03
9.155963781456853212e+02
-2.517788216176254991e+03
6.632978207725117272e+02
1.792927679772037436e+03
1.694083152811743503e+03
1.232804395916421981e+03
1.061125496217909131e+03
1.011024322860551592e+03
8.075287116260399216e+02
1.063695898402710782e+03
1.463622649754698159e+03
1.748309457760067062e+03
1.448769891269834716e+03
1.268059178879115507e+03
1.341234861040140458e+03
1.092280044467283233e+03
8.761667147360604986e+02
8.979232310323618549e+02
8.576512831782004014e+02
1.146403657916224120e+03
1.167270278790934981e+03
1.274349103941664907e+03
1.086755192468194309e+03
7.945586281039740015e+02
1.099158410737025861e+03
1.615808637015458771e+03
1.290155185771085371e+03
1.130326570480259079e+03
1.184485787974771256e+03
8.800814477755558300e+02
4.685101389326468961e+02
6.923767971540401049e+02
8.325246203729202534e+02
6.052106774661222062e+02
3.174686017689996334e+02
3.311679305425330995e+02
-2.196793840564516529e+02
-6.030411568801499698e+02
4.530432135529421771e+02
3.946471400532901157e+02
6.507717748950801706e+02
8.797735790047991031e+02
1.117106096802400543e+03
1.457620449073751388e+03
1.027166263688051913e+03
4.318662951654553126e+02
6.870680025716701778e+01
1.041445897436017418e+02
-5.285282384530070487e+01
-1.933084247171044865e+02
3.330152923335953119e+01
2.603018662763353177e+02
6.988477926309415125e+02
3.662285436689064113e+02
-5.272363393322773106e+01
3.149012930631067206e+02
8.169444660824198081e+02
7.374719011270793771e+02
7.396409328291068732e+02
4.242954647456751900e+02
6.484230484051414578e+02
5.061634827348415229e+02
4.604479600483466015e+02
8.140599725029923093e+02
1.001112131796741551e+03
8.225194480986148164e+02
7.483870256144406312e+02
5.726824902488111775e+02
3.683716672618288612e+02
4.394846481837029728e+02
1.650108924474884304e+02
-2.104927054236111417e+01
-9.873776173720597171e+01
1.619571301667173202e+02
2.001232619134809454e+02
3.677978240736062503e+02
2.159941074009742294e+02
-4.530277792114464575e+01
3.869648035059657332e+02
7.227780510424698832e+02
9.681553445899497774e+02
1.173077395919191531e+03
9.794672495005221435e+02
7.743136249244105329e+02
5.735982412142038811e+02
4.263058828149282249e+02
1.314223262811561881e+02
8.298345530169488882e+01
-2.199799626153142924e+02
-4.435119870155059516e+02
-5.525831812836103154e+02
-9.582401987271823600e+02
-2.272564409997265557e+03
-2.787528911110679019e+03
-5.322113106889371011e+03
-9.803326339126158928e+03
-1.089909299182634641e+04
-1.108545430162187404e+04
-9.615408583119638934e+03
-1.008510528968824656e+04
-8.653501189291408082e+03
-4.776515080790901266e+03
-7.191890946588212046e+02
1.374449136828151040e+03
1.675357823870757557e+03
1.986550680000825878e+03
2.225927308156068648e+03
1.720462054540684221e+03
1.513234619100525151e+03
1.443199861815500981e+03
1.354339991407441403e+03
1.043632321624391352e+03
1.291015834807445344e+03
1.564474489125705759e+03
1.894048114261131332e+03
1.678773937164567542e+03
1.138647251435424096e+03
1.382624303805206864e+03
1.423673780120772108e+03
1.464783864681728801e+03
1.085941243654950995e+03
1.241114976129886145e+03
1.120296935319623117e+03
6.704784972356914068e+02
1.016443584395956350e+02
1.517663945946954698e+02
4.868505398540167448e+02
4.168737713250352499e+02
6.327806966227882413e+02
6.415772441599997364e+02
-3.967509314352853949e+02
-1.049211774966534676e+03
-7.248451858704785309e+02
-1.215681216818759594e+03
-1.842766475126036539e+03
-1.934950005189223475e+03
-2.007182246701782788e+03
-1.920547606472015559e+03
-6.981039722574031430e+02
4.991185582234197113e+02
6.920807581038967555e+02
1.361831586565421048e+03
2.614366001559099459e+03
2.740626488459023221e+03
1.901591280645791358e+03
4.212695102324803997e+02
-1.507444273973346526e+03
-3.072706413582273854e+03
-4.396460412440047548e+03
-3.679678733711787117e+03
-1.679053503802574824e+03
3.643992635371358801e+02
3.379706389766684879e+03
5.289809081832010634e+03
5.612922058846920663e+03
5.289155185605185579e+03
5.081119495495935553e+03
3.799737274477937262e+03
2.476912740717411907e+03
2.094712262991739408e+03
2.364003219814551812e+03
2.575751086044104795e+03
3.028049987917925137e+03
3.755866679252936592e+03
2.915180869702389828e+03
1.868962889959384938e+03
1.230180686837768690e+03
8.598277294027869857e+02
6.939329378791752561e+02
-8.151100363813935701e+01
-5.125574171113376906e+03
-7.578262941890405273e+03
-3.755589213313992786e+03
-3.045484610044273950e+02
-4.892068210705013485e+02
-3.885274059176330184e+02
3.344712152252134274e+02
1.847842717075736118e+03
3.042545828139589048e+03
1.278540659351692966e+03
4.151901089082220096e+03
4.158575237480474243e+03
2.476530362388910817e+03
1.587826169634429561e+03
1.959395813894076809e+03
2.216257264331517035e+03
1.394397467230052371e+03
3.977949723047423163e+02
6.845737621742867418e+01
3.442899371747002419e+02
7.893214065215046276e+02
5.354953775618589873e+01
-1.184012276296261916e+03
-2.907385528503100431e+03
-3.904534647267495984e+03
-2.827428413098493820e+03
-1.157116108940679624e+03
-1.541598632849713567e+03
1.396105748914171272e+03
2.227049834627772270e+03
4.532306978740348313e+03
2.320763698129007025e+03
-3.769508509874452557e+03
-5.856510781967801449e+03
-6.924274459401884087e+03
-4.072799781636713760e+03
-7.099052891188149260e+03
-3.919076467884359772e+03
-2.890891031111249504e+03
-1.456444340013521469e+03
-1.190716901313890730e+03
-1.932784277423045523e+03
-1.169694214288236253e+03
-1.583805225076650345e+02
-5.928007585987382981e+02
-1.682915459808693868e+03
-1.667658883703568790e+03
-2.261050791319446489e+03
-2.893170484384034353e+03
-2.374030834859483548e+03
-1.926562950115377362e+03
-1.494780316181854687e+03
-1.390551966810441854e+03
-1.372794383169756429e+03
-2.060269803847335879e+03
-3.127712471639622436e+03
-3.269765060927848936e+03
-1.271627252100211081e+03
2.195997993426516587e+03
4.158670967368939273e+03
5.437710323429505479e+03
2.157601746362000540e+03
2.466978419340898654e+03
2.883134745169654252e+03
1.483745056018771947e+03
2.054501505620445130e+02
-6.278013791089433653e+02
-1.681329871981437691e+03
-4.056995030978108844e+03
-6.285853906014664062e+03
-8.599623683808875285e+03
-9.778682449322275716e+03
-7.688749203913039310e+03
-5.006292893351366729e+03
-3.697005794751519261e+03
-2.739764831802458502e+03
-4.500143204507149676e+03
-7.472627323302874174e+03
-6.823212088254575974e+03
-4.187990294872399318e+03
-2.188985762337945289e+03
-9.239263272858956952e+02
9.329663263138114644e+02
4.048732226141523824e+03
7.925173952156116684e+03
1.079668557584188056e+04
1.062202223858679827e+04
9.049680726856151523e+03
8.530411854526118987e+03
8.419630117784397953e+03
8.120436285639109883e+03
7.481909605324924996e+03
6.813055063205418264e+03
5.890885864117439269e+03
4.970389704805531437e+03
4.316581994990754538e+03
3.944411179459452796e+03
3.579877769863077447e+03
3.023971522557960725e+03
2.906735121935838379e+03
3.142198807708684399e+03
3.098340785860802953e+03
2.480176981644736770e+03
1.944766917126777571e+03
1.726137932489023569e+03
1.757278427122405674e+03
2.036156708216118432e+03
2.319777033713501169e+03
2.300095676739032115e+03
2.719178598026620421e+03
2.509095236589231263e+03
2.185784265907104782e+03
1.699198024251109700e+03
1.878370212038518957e+03
2.134366298326117430e+03
1.943121272473949602e+03
1.383641552468516693e+03
7.399517169354821817e+02
-7.888603045400606106e+02
-4.648394110379063591e+02
2.220426850586304681e+02
2.948027237446019626e+02
1.784325945332965091e+02
-3.150379200388027243e+02
-1.069576567517652620e+03
-2.178290835248586518e+03
-3.586118217916772664e+03
-1.022003864017100750e+04
-1.127507236197263592e+04
-1.081020112826532204e+04
-1.039842800586483281e+04
-5.840687634752332087e+03
7.230806164236975064e+02
1.083837278568756574e+03
6.835554769556075598e+02
-4.947324066213644187e+02
-7.709037024268193818e+03
-8.227376303834338614e+03
-5.664712852284134897e+03
-2.198075519754125253e+03
-2.063620467614716176e+02
1.424422559565806523e+02
2.102835848756618589e+02
3.841326562904103525e+02
4.390838279507361221e+02
7.901515139999910389e+02
8.843601991702405485e+02
8.757148552711490765e+02
1.140266894764444260e+03
1.127001846646933018e+03
1.026891726831775031e+03
1.167955411156164928e+03
8.862590377022409029e+02
8.967911284008702069e+02
6.865839995350363552e+02
5.756553108251493995e+02
4.769990094394162838e+02
-4.133501813217502558e+02
-1.703394549814023776e+03
-2.573089207102309501e+03
-2.990447979120938271e+03
-2.686453977118097100e+03
-2.446124152242063701e+03
-2.454383616493911177e+03
-1.900201123578099669e+03
-1.236611937528382441e+03
-3.945700165352575937e+02
3.949733265809893510e+02
5.219870758490578737e+02
4.784547151308523780e+02
4.273220137596844665e+02
6.355085567877010817e+02
2.193283396512725005e+02
-1.479495724484073378e+02
-1.853247797060846267e+02
-4.018262249880057198e+02
-4.843885053380698764e+02
-6.400066192626046586e+02
-6.136203883846320650e+02
-6.331070172638142139e+02
-9.934926408448966413e+02
-9.086095860495543093e+02
1.477310852204465732e+02
3.913561585067483861e+02
6.682786864817320520e+02
6.467466808318845324e+02
5.684549004927357601e+02
8.568623602184119363e+02
1.141013469848648356e+03
1.535028683117119044e+03
1.343357241129928980e+03
1.391917148294502113e+03
1.233338992447716919e+03
8.775981043501252543e+02
1.067738602617278275e+03
1.085743257349326768e+03
1.029609928726090175e+03
1.017322597954528760e+03
8.169128187874939613e+02
7.503688495701640022e+02
6.986761272397768607e+02
8.968159117083773708e+02
1.069852055312941275e+03
1.230837393790255646e+03
1.541753604091521538e+03
1.597618814741171491e+03
1.362370895305671638e+03
1.547023098061807104e+03
1.912542667339244417e+03
1.888960882341207252e+03
1.913313152518000834e+03
1.624623432122006079e+03
1.510838535295562906e+03
1.102920201280979427e+03
7.939249671202807122e+02
6.367872162174467121e+02
1.905136165983314527e+02
-1.438082358890964088e+02
-6.522202890147477774e+02
-1.317769424707433927e+03
-1.855419363495288962e+03
-1.730188539225817976e+03
-7.310909739296686212e+02
2.458467885114681053e+02
5.005836961461573082e+02
5.680451927852940344e+02
5.892436313195129287e+02
9.492156690782600208e+02
1.371885335108612253e+03
1.549180707826989646e+03
1.409157064340098032e+03
1.400876291782820317e+03
9.074070701047289731e+02
-1.990205150569440320e+03
-5.606965946239440200e+03
-9.767897223761103305e+03
-1.017522567401862580e+04
-1.026311596857389850e+04
-1.024957556878182368e+04
-9.973731291807878733e+03
-6.684578466546287018e+03
-1.078030144864814929e+03
-2.900377522117036619e+02
5.423411646071191399e+02
2.561706046634690210e+02
9.085465942686491871e+02
1.431357215279718957e+03
1.408527318508993858e+03
1.795094068234393035e+03
2.061978825549728754e+03
2.090118065159935213e+03
2.079609696223561059e+03
2.367459129579522141e+03
2.124624032427580460e+03
2.000065303236733371e+03
2.291766797750444312e+03
1.942772701762280349e+03
1.600418518482850459e+03
1.579509322293653668e+03
1.678547606319706802e+03
1.553465508352370989e+03
1.284476170274924471e+03
1.151547242354066839e+03
1.511624758909075354e+03
1.587578629319696802e+03
1.693370715608245746e+03
1.990239755384940054e+03
2.297780173811077930e+03
2.190159533630479928e+03
2.197529183443577040e+03
2.396812089033187931e+03
2.622921418362710028e+03
2.574818227321930408e+03
2.562582734582971625e+03
2.518178763758534387e+03
2.024554142821085179e+03
2.106664398673192409e+03
1.958452973467979973e+03
1.909984707069838805e+03
1.520231305068149368e+03
1.328268767220635937e+03
1.450095982655029275e+03
1.522522549210280886e+03
1.582432945757566358e+03
1.342968918907121179e+03
1.014859084178844228e+03
1.632213625260207664e+03
1.696861010844178281e+03
1.660149412162999397e+03
1.908420002264110053e+03
2.483421578360379499e+03
2.189122402142521423e+03
2.005169180452139017e+03
1.398996812596067230e+03
8.981245112623855675e+02
1.552592161272902558e+03
2.173359975154724452e+03
1.879488920458072243e+03
9.200523359051201169e+02
6.849407541823841257e+02
3.940943264973284954e+02
5.886128104892853798e+02
1.365538228365026953e+03
1.475810598492350664e+03
1.064442116279738457e+03
4.444569450175186489e+02
5.967636382907745656e+02
9.643645614152925418e+02
1.897226676961320663e+03
1.484418928095712090e+03
-7.630952350481734356e+02
-5.800229528240565742e+03
-7.528939172133249485e+03
4.586588933793009346e+02
2.690404719820159698e+03
-1.243878111192478400e+03
-8.740132462503348506e+03
-8.817337464931635623e+03
-6.812099077745458089e+03
-1.246692011401681981e+02
1.347920985641896095e+03
-2.696151012233287929e+03
-9.894824080225072976e+03
-9.807105401720042209e+03
-7.969989165177519681e+03
-7.386312036448081926e+03
-7.196032380348410697e+03
-7.566101280959941505e+03
-7.279506194012693413e+03
-7.646485888131768661e+03
-4.258182361134844541e+03
-5.475184183398356481e+02
-5.437508336677886291e+03
-8.026903632428634410e+03
-7.137511020375357475e+03
-6.454622877498210983e+03
-6.270417495564647652e+03
-6.550893261851799252e+03
-6.736017872916855595e+03
-6.706832264529331042e+03
-7.068461526951740780e+03
-7.278060167079254825e+03
-4.651579948479627092e+03
2.416212411562531543e+03
3.616478350235494872e+03
4.046180373153222718e+03
4.342327409488533704e+03
4.585976365287783665e+03
4.417187565191429712e+03
4.574996497956837629e+03
4.652458618541272699e+03
4.715612133966404144e+03
4.521453650492364432e+03
4.488002230334916021e+03
4.206299659078667901e+03
3.733342179096730888e+03
3.563143711925337357e+03
3.227695088474765271e+03
2.558069596584869942e+03
2.460232480470070641e+03
2.909075591167761104e+03
3.177550588937448993e+03
3.406048999085483501e+03
3.435723536243472154e+03
2.872579380206934729e+03
2.685978792779950254e+03
3.198793658717390826e+03
3.572615542201961489e+03
3.646424753228565351e+03
3.217932403829249324e+03
3.662370387996011232e+03
3.426577809417823573e+03
2.675177024560546215e+03
1.731761787316671644e+03
2.408108186015957017e+03
2.484808719689241116e+03
2.465886344895875482e+03
2.438259691562677745e+03
2.484019787400360656e+03
2.147276055209938932e+03
2.129975741650973760e+03
2.167328498087739717e+03
1.893317477223966080e+03
2.102494864254308595e+03
1.991687960974309362e+03
2.065633438889808986e+03
2.184219415494914301e+03
2.261427677644852338e+03
2.769844634018218130e+03
2.828211486461164895e+03
2.774949148655162389e+03
2.801133476639006403e+03
2.503857982062742849e+03
2.134625159951968726e+03
2.115950502377522753e+03
1.840789023439044968e+03
1.948130525941722681e+03
1.912476678574933203e+03
1.785961831056368737e+03
1.285501108315602096e+03
1.226044064791112078e+03
1.239630392983017600e+03
9.982328953824212476e+02
1.152813224013420040e+03
1.491346665303649388e+03
1.584718887139353683e+03
1.579977546365827493e+03
1.519154354921083268e+03
1.770219388155453089e+03
1.778212644889501689e+03
1.879103112524991957e+03
1.946933305933656584e+03
2.006664759996352132e+03
1.931323730424723863e+03
1.589971199866139614e+03
1.650569105535862718e+03
1.696049961040182779e+03
1.544385439830299447e+03
1.020498424395592565e+03
8.193514921466974101e+02
5.659625469143328473e+02
2.702233306667088186e+02
2.991053676900230016e+02
7.655515437653119761e+02
6.584839254321607314e+02
-4.650386890393949102e+02
-3.100007006320093751e+03
-8.099405041383834941e+03
-1.030426713816881056e+04
-9.788574620733865231e+03
-9.229348463607751910e+03
-9.617588702119388472e+03
-9.479278757422272975e+03
-9.471434549687679464e+03
-9.309114983990961264e+03
-8.893353668294370436e+03
-8.383167845606461924e+03
-8.291548727268584116e+03
-8.920529488683920135e+03
-9.457157352945610910e+03
-9.290319525222988887e+03
-3.450051424387836505e+03
-2.556375559822490686e+03
-7.175294372066577125e+03
-9.050865005917348753e+03
-8.465051608025036330e+03
-2.548856200577846721e+03
2.104702586585839981e+03
2.694636802783536041e+03
3.003027002677672044e+03
3.071912721685870110e+03
3.063250751515808588e+03
3.067049179615978119e+03
2.727323692660324014e+03
2.380064163158334395e+03
2.338265450765578407e+03
2.134951180268197731e+03
1.710146495645852156e+03
1.456871705874243844e+03
1.393133376089170952e+03
1.881886470510792833e+03
2.595150223813575394e+03
2.628009218323574260e+03
2.352490442170440474e+03
2.118645587635265201e+03
2.001505775150403224e+03
1.954099000043033584e+03
2.014376566799927332e+03
2.012411716365824986e+03
1.913271842746542234e+03
2.286970506349075549e+03
2.256498803487015266e+03
2.222920705946509315e+03
2.236314639697372968e+03
1.957681010182973750e+03
2.127110177726746770e+03
2.083610146268822518e+03
1.601168798192067015e+03
1.456827830603299617e+03
1.068541178164013218e+03
3.412952182857710000e+02
1.185676166019078437e+00
2.842411007789181099e+02
4.575053400570573103e+02
4.509918519287322169e+02
5.567738700987963512e+02
6.429634127992856065e+02
6.756318030270715553e+02
8.827684925643819724e+02
1.051417757707660712e+03
1.361685980392463534e+03
1.590839321065371450e+03
1.117891227460917435e+03
2.818205174281019936e+02
6.090317973842331156e+01
8.422805528689897869e+01
-5.625625023868305163e+01
-1.686653023543331074e+02
-7.128581620951274544e+01
-4.687356161786632924e+02
-1.222384140806242613e+03
-9.370539389367505692e+02
-1.094734788171246237e+03
-1.368468197547011869e+03
-8.532170127369605552e+02
-6.489889916481756700e+02
-5.057559061603182613e+02
-3.704626632378479485e+02
-3.070826183853210409e+02
-2.965499069560258363e+02
-3.558278083389234325e+02
-1.619501731216360554e+02
2.631446418461452481e+02
3.644797998451336980e+02
-1.329246626551881434e+02
-2.839420352957185401e+02
-3.975920989229688303e+02
-6.949060344954550601e+02
-8.688726798699193523e+02
-6.785031126927251535e+02
-7.388198834904042087e+02
-9.827795235653824193e+02
-9.143465002835260975e+02
-9.775320325986872376e+02
-1.112360415164600909e+03
-9.237919931586210396e+02
-9.667807653074368091e+02
-6.022869423824905653e+02
-4.093230885725357098e+02
3.005060452261110981e+01
-8.011179626874555026e+01
-9.674935415348247147e+01
2.431405185346576445e+02
4.794714465180337584e+02
6.642949843842097835e+02
-7.341584870265808149e+01
-6.016507430267093923e+02
-5.634036551778499415e+02
-6.117204859622277127e+02
-9.776416188469414692e+02
-1.239236261773274464e+03
-1.112532828284894777e+03
-9.195114223446898905e+02
-8.051883172602632612e+02
-4.775734729265091119e+02
-5.097313398269634490e+02
-6.576812186107150637e+02
-3.634183049956011473e+02
-1.649016697038446182e+02
-1.422132479769834035e+01
4.786591011366449493e+02
9.969624283080429450e+01
5.978248417639410661e+01
2.849057568126998952e+00
-5.310760415251990452e+01
1.459092217169886965e+02
2.168515506301792755e+02
3.346904037578689781e+02
2.392910106399627352e+02
4.465847906295309713e+02
2.105710814566788827e+02
1.232550347023144042e+02
4.862399207681144730e+01
1.215250018072782581e+02
-1.021741382686778650e+02
3.710764718419912356e+02
3.948951648510036421e+02
8.096773376868292189e+02
1.326599439506574981e+03
1.165107786464602441e+03
1.334062155470185417e+03
1.442057808297873180e+03
1.463803913439749522e+03
1.417357460874273102e+03
1.527972366221209086e+03
1.516855917254182941e+03
1.157027211895140681e+03
9.462054518618515431e+02
1.175498954449241182e+03
1.427981750712347548e+03
1.169238719025017190e+03
1.073410184789122468e+03
9.080395642378565526e+02
5.126259619377620993e+02
8.526771524355884821e+02
1.561343125430954160e+03
1.674446104389074208e+03
1.849698721521139760e+03
1.645152013416923637e+03
1.634324479698632558e+03
2.199909673397721235e+03
2.272581286619420553e+03
2.355034685879176322e+03
2.277671863285966083e+03
2.101257344971407747e+03
2.196543989436248467e+03
2.427895830384485635e+03
2.102789324540931375e+03
1.945441106854296322e+03
1.749437426956206309e+03
1.650542388478066187e+03
1.505297969367747555e+03
1.467272694804814591e+03
1.623596477151127829e+03
1.830371944609019920e+03
2.038323373906678626e+03
2.249387133549223108e+03
2.472630183979706544e+03
2.449960607288670417e+03
2.546284375695751351e+03
2.868581231595538156e+03
2.559849431894023837e+03
2.458061526141828381e+03
2.308192044275230728e+03
2.602191715121101879e+03
1.408080587061487449e+03
-2.136189244866844092e+03
-7.549655141362763970e+03
-8.901370552671860423e+03
-8.425378033932709513e+03
-7.983630912119845561e+03
-2.675026679152092129e+03
2.638333191251444532e+03
2.587380079825612938e+03
1.796174774462548612e+03
-4.052222025482546996e+03
-7.774705773441136444e+03
-2.963683605970188069e+02
3.153823826110951359e+03
9.300557594920192059e+02
-5.738608204963587923e+03
-7.201422922814386766e+03
-7.005368923496251227e+03
-7.558313963005356527e+03
-7.690276570483007163e+03
-6.619266615513665784e+03
-6.663267736724980750e+03
-4.212276495643111048e+03
-2.025266534445045636e+03
-6.573173506788772102e+03
-7.518029937234240606e+03
-7.374787149948105252e+03
-7.129405784347512963e+03
-6.932790458074711751e+03
-7.187921026878500015e+03
-7.286858774038067168e+03
-7.236478515955011062e+03
-6.891683327860534519e+03
-6.134443156608244863e+03
-5.837693520855117640e+03
-5.937353622642460323e+03
-2.685388937804107172e+03
3.577244102755952554e+03
3.730604476102423632e+03
4.625770559595608574e+03
4.524797839021201980e+03
4.060821047193767754e+03
4.201885897773885517e+03
4.652964358020786676e+03
4.719106160642698342e+03
4.613294441678105613e+03
3.416594168998201894e+03
2.557124761782547466e+03
2.062933880856242013e+03
1.533123857860842691e+03
1.199722893117385411e+03
8.757801689839924393e+02
1.075382864421568229e+03
1.112578208166050899e+03
1.818425474706942396e+03
2.875025927163199412e+03
3.206516568154055221e+03
3.116928980620155471e+03
3.235327404362457855e+03
3.393759344285076168e+03
3.386390609312774814e+03
3.718279910142946392e+03
3.602498632788725899e+03
3.657151270933820797e+03
3.622297327885752566e+03
2.900936425690670603e+03
2.481132090675281688e+03
2.147893350206620653e+03
2.177343097609651977e+03
2.272118234740677053e+03
2.154039143229239471e+03
1.849931652363836974e+03
1.985959144139257205e+03
2.370340092360005201e+03
2.944066382627477651e+03
2.891343157354562663e+03
2.695215179259647812e+03
2.297646473747797700e+03
1.607661742411951991e+03
8.182880427429901147e+02
4.915921498262817977e+02
1.085607143520749560e+03
1.525422810541618219e+03
1.517800351948995967e+03
1.432375890090318308e+03
9.536966564464449903e+02
9.470270211654801642e+02
1.122267621609909611e+03
3.941018853533904007e+02
-1.802740644611416769e+02
-7.009237512111192814e+01
2.595013523957786106e+02
5.455408804957369284e+02
7.490368357179693248e+02
1.017118645881405655e+03
1.102877308085712457e+03
7.183031217284728882e+02
4.903191437888998507e+02
3.559165171721793968e+02
5.651634776636121842e+02
7.192132784324352315e+02
2.714817660614649242e+01
-6.321038631942194570e+02
-7.866074615589355972e+02
-1.280362480308946942e+03
-1.029438643200043089e+03
-3.109749810757667774e+02
2.699274494991980191e+02
-2.573213737248455146e+01
-1.299003572465059335e+02
4.573673061373760333e+02
5.810105940521578987e+02
1.800636410527393991e+02
