5.987462570982892080e-04
-4.223315309397308176e-03
-5.800383902926200923e-03
2.227357501134513077e-04
3.206662136347245007e-03
-1.341532629533989922e-03
-3.334357975831894923e-03
-3.164953582889133091e-03
-2.616010489599699968e-03
1.400894226611905206e-03
2.131734589127573694e-03
2.893130496581929490e-03
6.513465546443950385e-03
2.997339114658009555e-03
-8.276423222827860313e-04
2.476244124691553798e-03
5.475256480436206837e-03
5.130672562425261062e-03
2.641223156995794671e-03
-1.665605356773629047e-05
-1.612961276247873530e-03
-1.647557334795140410e-03
-1.292743098011428461e-03
-1.943284079507318031e-03
-1.368396235415377535e-03
-2.532374426111377950e-03
-3.858094971462999734e-03
-1.224709658339130213e-04
1.510247168677207336e-03
5.919855669887344506e-04
1.261417059620019345e-03
5.813486269576569922e-04
7.051538526070131241e-04
6.331808335193818849e-04
-8.528889741635903949e-04
1.147034367909650400e-05
1.339259129621421431e-03
3.057542854488612145e-03
3.619461244528586648e-03
4.245340199439237485e-04
-2.175244381016394439e-03
-5.029568474299142382e-03
-5.387465462594793336e-03
1.036587616766647087e-04
1.110069915379934165e-03
-6.556228307827913215e-04
4.248564237074701913e-04
-2.033567546404235239e-04
1.154911350540801683e-03
4.243368773178032415e-04
-3.197735831778472648e-03
3.048520867853244114e-04
-5.169824347434874437e-04
-5.527466069110259159e-03
-2.595382276869265606e-03
-1.274098675348510823e-03
-9.068787191944060284e-04
1.755889415849703475e-03
1.958168829385272414e-03
3.253062848296474005e-03
1.873214086739142994e-03
-1.901630851080166919e-03
-1.081354064174035959e-03
1.825767314929228370e-03
2.648863572429720811e-03
9.391087300475408879e-04
1.219214946999024485e-03
1.134128788384593809e-03
4.876646480700965684e-04
5.085569110860072711e-03
3.518355545238527424e-03
-2.635577056308546860e-03
-7.128619244670404806e-05
5.395546834653196092e-05
-6.127205330457654447e-03
-5.884211604935333031e-03
3.714050717690692429e-05
1.375110270366190941e-03
-6.052061017641130383e-04
-4.755002218802370137e-04
-1.986331125513353651e-03
-2.491696515829298388e-03
-5.941580199494603904e-04
-1.338946010142541250e-03
-4.572978609059915787e-05
2.605109460867125262e-03
2.087626791133228351e-03
1.791801273570169757e-03
3.568727214301692114e-03
4.731467828576836968e-03
3.199083444570388450e-03
2.973097525848955591e-03
2.059968965651055774e-03
-1.964395044893376633e-03
-3.004795623497959634e-03
-2.876349173851007641e-03
-1.543505435129962581e-03
3.198819800048221564e-03
7.433270634590972287e-03
6.900544381862123294e-03
4.274459721969283061e-04
-3.114309731592616783e-03
-2.341051186058435395e-03
3.743323949983448033e-03
6.073170200856453128e-03
-2.017773674113396490e-02
-3.519939836835672686e-02
-8.769886647170745120e-03
5.704793376790825640e-03
3.506802535897345866e-03
7.835843654742382161e-03
4.893012435690331438e-03
2.224702892940403753e-03
2.560659632422371702e-03
-1.367367065532602323e-03
-3.972036400032145941e-04
2.351062608148429302e-03
1.244490492259033888e-03
1.691112241459921325e-03
4.371569740594616511e-03
3.116826541444091010e-03
-1.697329507128319832e-03
-2.050411027215196490e-03
2.181529895358721386e-03
3.444414368051136686e-03
1.364632641534946214e-03
1.747019929180897201e-03
1.449603353948663610e-04
-2.035457813901724727e-03
2.084496510255632803e-03
1.790906859343017197e-03
4.188799262095538084e-04
2.810441551654104669e-03
-2.216823572485971967e-03
-5.460231841228095281e-03
-4.311313144441148056e-03
-3.296231158868727362e-03
1.233085774580651005e-03
2.100141886395880120e-04
-7.100183482260790258e-04
3.189474059294465907e-03
1.658717544424696821e-03
1.561867270839489060e-03
5.018496011835441376e-03
4.765923997566850340e-03
8.309530493000571441e-04
-2.261657933156024491e-03
-1.699708149781011890e-03
-2.171707508320794462e-03
-1.967060597181626708e-03
-2.519393449439755520e-05
4.726270629886908419e-05
-3.746485442133481547e-04
-2.979999480320450183e-03
-4.304288086554930622e-03
-2.570423261953660218e-03
3.111616609108534002e-04
2.899067153084550208e-03
-3.667496117531968657e-03
-6.123155832037830044e-03
3.113528376394941212e-03
9.401707195388890213e-04
-5.143551016635918016e-03
-8.515341556781763329e-04
1.215982222732265357e-03
2.794529896306647632e-04
1.142465545063274415e-04
1.310140551735848417e-03
3.964873320143219929e-03
2.130768004787241248e-03
1.153351829000842741e-03
4.778811204457777961e-03
3.164565722073645494e-03
-2.401654651405047986e-03
-3.713829522181347296e-03
-2.342853220555298627e-03
-2.105835259786666917e-03
-4.881580591043625556e-04
4.528404113738981537e-03
5.590176843201321785e-03
6.132717776994408470e-04
-2.937486314152199917e-03
-3.807461254275004963e-03
-1.257292136146253257e-03
2.678418650645539301e-03
2.139450521830902913e-03
1.991167776156699959e-03
3.234647944188859692e-03
1.584886524959479726e-03
-2.699643146513690663e-04
-1.485841762563008513e-03
9.897792153642751445e-05
3.001833174514161560e-03
1.423765518381344807e-04
-4.612668003309572558e-03
-3.623324894180425700e-03
-4.519414679792949389e-04
-1.427868336348108976e-03
1.365444264539336888e-04
4.446284960720663613e-03
5.999947472672270080e-04
-3.384781395419976611e-03
-3.380426773280202635e-03
-4.198864563595939084e-03
-1.260914859781112757e-03
-1.055792528676284016e-03
-1.089371461522633481e-03
3.224464466950210939e-03
-3.883456457860110476e-04
-3.283641300773768642e-03
-4.817731189223281585e-04
-9.474866498105166896e-04
1.422521877531333998e-03
2.132067684895648952e-03
-2.369680675302755432e-03
-2.618244015384519219e-04
5.002969284570495979e-03
4.558586800312991981e-03
3.246194514508694753e-03
4.397136931477454470e-03
3.155727572981747650e-03
1.440189429869631621e-04
-2.128754754150758398e-03
-2.335136384512972053e-03
1.943726334686047543e-03
2.069937323842376518e-03
-2.280641131939518691e-03
-1.281254226421004892e-03
-3.423665658900788096e-04
-2.338146460381024683e-03
-5.474918699534658123e-03
-5.979114437914862142e-03
8.310019716956212584e-04
1.343089896529330377e-03
-4.233889250476281438e-03
-2.508941054993781439e-03
-1.666314363561848390e-04
1.433387155195226838e-03
2.515624607116753297e-03
-7.819381190488081720e-04
-1.238800285083843655e-03
-1.115195422502395948e-03
-2.313007229928392902e-03
1.112793289245162702e-03
4.209180430999377547e-03
4.259399365850099865e-03
4.149671835143875671e-03
4.751002246843927940e-03
5.188358237526360245e-03
3.661007836511531027e-03
3.187670907850022241e-03
2.432199944254299223e-03
-2.354085301432354564e-04
-1.243274958062073844e-03
-4.571538416091222232e-03
-6.406370737822854669e-03
-2.511599976683123042e-03
-1.760755279396129412e-03
-9.227412471846181859e-04
6.561142884841419162e-04
-1.425806382574355607e-03
-5.016753853742295273e-04
-2.846779678409255224e-03
-7.234701443162267799e-03
-1.070338321187764207e-03
3.418433570417449621e-03
9.536588720630089595e-04
1.624088197485171322e-03
1.543060907990219215e-03
-1.009208774849194076e-03
-2.469993578914718001e-03
-3.360059662464457732e-03
-5.180162865990233173e-04
3.741273064460432039e-03
1.381597078820476438e-03
-2.539780376740361726e-03
-1.276366419935012243e-03
7.591688633102369440e-04
1.782922641649463099e-03
-4.202030207304506559e-05
-4.867724777920619771e-03
-4.218145961254716851e-03
-4.388097936632652822e-04
-2.547142520739403490e-04
2.482907923332486333e-03
8.041072960660710506e-03
7.515946312850649812e-03
4.307982592281460119e-03
3.901718068751714591e-03
-2.461873762655833399e-04
-3.398410078476919553e-03
1.538335005331171535e-03
3.738183649076916304e-03
1.513896398289144756e-03
1.722758530184083771e-04
-1.228334385635995989e-03
-1.013858406040265506e-03
3.251043703582077483e-04
3.959111465980717955e-03
6.590959749085271643e-03
2.884876364441235196e-03
-3.263239195840698503e-03
-8.444539669259962592e-03
-4.394863928503827365e-03
3.141404687916761300e-03
2.786939096828216014e-03
2.467698308885071540e-03
-1.109200092265474197e-02
-3.238226352502020927e-02
-2.328565595445922579e-02
-7.413638786804205619e-05
7.997483026516715582e-03
7.755072391401200520e-03
5.240446764956334554e-03
2.670982629915728650e-03
2.460939235096873921e-03
6.175263024075492747e-03
6.030373941317444461e-03
-5.106806361269826964e-04
7.182287938765066423e-04
4.672687975021347535e-03
2.759397552473221490e-03
1.048508227530156904e-03
1.421306437943633833e-03
5.541330453297878093e-03
7.181910316497570022e-03
2.683615774526805411e-03
5.861814395082673088e-04
1.296288547752212660e-04
-1.439362918356408951e-03
-1.405173945506215868e-03
7.237338951021507700e-04
2.927619301128135242e-03
2.249838586416027814e-03
-1.434867084593333250e-03
-3.867052487297430435e-03
-4.096958020063243971e-03
-7.108033844129372884e-03
-6.038838191027044375e-03
9.088498852180778610e-04
-9.284667745402521094e-04
-4.625934904095455567e-03
-3.235944104357258658e-03
-3.290479457585340078e-03
1.088034199472874726e-03
3.403164250669252905e-03
-5.070343209457850962e-04
3.402358862250015712e-04
1.652103452910084905e-03
1.639962972278567353e-03
2.761081608344302749e-03
1.324624000679760875e-03
4.614248980504512157e-04
7.681030104308062987e-04
-1.662260339093675921e-03
-3.059960360727635720e-03
6.893336414929890268e-04
8.159596717780476845e-04
-2.460248495923107650e-03
1.874481420002178760e-03
3.063543153633855806e-03
-1.585700690398219714e-03
-6.892824783979727577e-04
-1.506772406709169462e-04
3.657991885453084745e-04
1.336844395353044583e-03
9.640307194635558950e-05
2.199799621011517929e-03
6.378063815913764291e-04
-1.998560200159357596e-04
6.357830032964507938e-03
4.286361900788650085e-03
1.553930524324502623e-04
3.430041054823725413e-03
-1.903297050469517646e-03
-9.953035738984292863e-03
-6.461656869306909093e-03
-1.000944386271001652e-03
1.088490934440882645e-03
1.223777341274314909e-03
-1.177125492279099432e-03
7.055511683049657838e-04
2.975396219639017421e-03
5.952539031017165119e-06
1.430556389189590423e-03
1.751138314320730425e-03
-2.592619724387453233e-03
-1.114894639669121012e-03
-1.535341691992316059e-03
-4.029188574998542223e-03
-1.066474831615302210e-03
-2.824505247253260775e-04
1.094973814881150575e-03
3.515759379952345005e-03
-6.406597218907476117e-04
-3.821422826102414006e-03
1.596253815577950544e-05
4.400426689705505198e-03
3.866291389007525409e-03
3.527405092171656542e-03
3.318533257243809400e-03
-3.110809440012456129e-03
-5.137572807195558630e-03
6.008290143447787184e-04
3.518340646294430742e-03
3.517675230442066092e-03
1.210679195830023950e-03
-9.532875204978598013e-04
-2.641464080105172113e-03
-5.714023305732817033e-03
-2.879118401902147802e-03
1.609646501015875655e-03
2.041466671985569213e-03
2.347485316328831468e-03
-7.900860221634527247e-06
-2.073200348667899109e-03
-1.638413877874750129e-03
-1.561030845462467107e-03
1.920978956135784314e-03
3.530237820356683931e-03
-7.059663742524969771e-04
-2.720715344730126242e-03
-4.252847773158588071e-03
-5.187225087537799227e-03
1.232267954639514355e-03
4.698051818055979691e-03
3.216396183388990464e-04
1.330841041427979807e-05
3.463577145743236400e-04
-2.019502718017216706e-03
1.573376797914948118e-03
5.834111776950130432e-03
3.537137406803698893e-03
-1.181347744093493328e-03
-2.059746854305567580e-03
-9.064454554141092280e-05
-2.604135557463625652e-03
-4.224359053689101355e-03
1.900993274132298260e-04
3.528636442342170630e-03
3.416260625981516145e-03
-2.317053797869889043e-04
-2.495755535719228202e-03
-6.550809900468993309e-04
-3.720840072611356731e-05
3.150268602017181670e-03
4.870328574510801069e-03
-2.809397348021858013e-04
-1.941262858204134949e-03
-1.840407600940477135e-03
-2.578434141792770341e-03
1.001992545357454668e-03
3.455349437807736599e-03
3.046719181763875035e-03
4.047102969846579144e-04
-3.387818836820666486e-03
-1.663641483916420164e-03
7.997908542016946053e-04
9.823586966733180090e-04
2.706187749467654259e-03
-4.467101651245220851e-04
-4.297805724567282937e-03
-2.037657218880805417e-03
-3.693556267254441416e-03
-5.461908479546436976e-03
-8.027251982411320701e-04
8.763505674878149018e-04
1.777180027798919257e-04
4.288284363095652674e-04
2.894029035318350352e-04
1.732042736024679182e-03
2.547083902635978447e-03
1.596401103613498320e-03
-1.152381089065494411e-03
-4.467894531074990440e-03
-1.594449662396546204e-03
4.982555581591327672e-03
7.087654316664286462e-03
7.819286008282879535e-03
7.979536987080464855e-03
1.147023524204715279e-03
-2.863204952730054407e-03
-1.659745901619827423e-03
-1.026860056236518839e-02
-1.203033890077078068e-02
1.120409939839239364e-03
3.037356224448983875e-03
-7.187072477379587978e-04
9.140561061317105211e-04
3.358858122696242428e-04
7.845190138343283376e-04
-3.517716803692683201e-04
-2.552840657417587613e-03
-1.483553161771325804e-03
-4.147788484687897799e-03
-6.400889699609267104e-03
-2.471433123832277208e-03
3.601465808034283456e-04
-4.852947656279519260e-04
1.486240500465409566e-03
5.021897279077982938e-03
2.627209086399631948e-03
-8.282843213850618602e-05
3.309258596824800336e-03
9.379980359581490887e-03
1.120990156166797383e-02
4.583815165334083862e-03
-1.820413497316657365e-03
-9.127983801221388818e-04
2.943853397793637621e-03
1.996357081490239289e-03
-1.437221018798926148e-04
5.863319448857548001e-03
7.040030840714901414e-03
6.676697508609821894e-04
-8.716540727755359499e-03
-2.620289991368717278e-02
-2.098157634413093386e-02
4.428206116757973584e-03
7.866600182865085555e-03
5.403034100581949155e-03
7.613205939407927808e-03
1.280113687415939099e-03
-3.143896390303034874e-03
-5.088342024796416695e-03
-6.005529032079781442e-03
-6.047713748178556135e-03
-5.904152886873341444e-03
-2.244616053212552045e-03
-2.672969823114761546e-03
-8.837822108816312250e-04
6.020633030377278011e-03
6.656396742564022612e-03
5.520887409153124072e-03
2.630115074774557350e-03
-1.787396760346494657e-03
-1.174284864098028855e-03
1.923246468410838529e-03
4.902754347282095929e-03
3.373456950344061196e-03
1.631949684490596741e-03
2.919894417220226818e-03
3.742069954834196296e-04
-6.952367447750487173e-05
1.041973393945391140e-03
-4.244786964424194110e-04
1.159883020733734832e-03
9.915865788536106906e-04
-1.958321301101092256e-03
-2.842236926430981130e-03
-1.911312011681421102e-03
-2.883396981498316525e-04
-4.450458014078201839e-04
1.081048120479522173e-04
3.483810483400473349e-04
-5.694316415610044257e-04
1.432401399332725554e-03
1.721839217123711987e-03
9.211511618955486608e-04
1.838462931094043571e-03
1.012091442056974261e-03
-9.926643666056523922e-04
-3.339383426251712767e-03
-2.119311884806534922e-03
-1.830964892373080244e-04
-7.946497416426754690e-04
1.973990562244946467e-03
1.723456138857462584e-03
-1.037217137533800402e-04
3.919232377397143842e-04
-5.796371376165594148e-03
-7.096727030281273739e-03
6.197027082615109332e-04
3.950501012502400516e-03
2.844205997770324519e-03
-2.885572164684203651e-03
-4.796118313929350653e-03
1.947135599665307439e-03
2.239915625099896199e-03
-2.089010395960137594e-03
-1.691680583507318729e-03
-6.112105699887922195e-05
-1.275607998351227425e-03
-5.526009411282493435e-03
-3.806514761974957514e-03
3.510257363786606008e-03
4.288694199309391053e-03
3.799988125878641081e-03
6.458077076645614770e-03
4.319050205996345475e-03
2.216918046602450211e-03
1.009827029630056038e-03
-5.571492925876000805e-03
-7.242260714893229180e-03
-3.907313842565937091e-03
-3.626492448213187308e-03
6.219495153625697898e-04
4.034000265255111538e-03
2.257670961287642619e-03
4.355871719344449333e-03
6.438575055779147994e-03
4.060466639041053136e-03
7.007476732424155292e-04
-1.394385677213276714e-03
-1.915861557011198923e-03
-1.552323721842857173e-03
1.011420642137449187e-03
1.826101670597677544e-03
6.688474359842292707e-04
6.405929811280397556e-04
-2.064378522105652074e-04
3.531903214026107900e-03
6.359922520638644668e-03
9.671110050060479756e-04
-5.143256087977782958e-04
-2.471036483327277095e-04
-6.289299370597241194e-03
-1.165019792475472001e-02
-1.141933105560183175e-02
-6.134547434400059070e-03
2.217710740001704406e-04
3.415233765474871581e-03
-8.651335647701360117e-06
-4.968786083473290989e-03
-2.794641657025349543e-03
-2.471349660044231365e-04
1.883809717455545889e-03
5.730231929938254566e-03
3.036313139255275399e-03
-1.868820926266180225e-04
1.101672599434907248e-03
1.486316746962017959e-03
1.566858324623663637e-03
1.607804532553259308e-03
5.380063153890035947e-04
-1.829352592904488978e-03
-1.053917919702452568e-03
2.760447560462997701e-03
2.592569160307845854e-03
3.346708971544901708e-03
6.901704724289419064e-03
7.594247237064281550e-03
3.408115603044754513e-03
-3.969583204146039969e-03
-3.671124856019235098e-03
2.341780532459110235e-04
-2.259752218361201371e-03
-4.876853375333448787e-04
4.216755133369182867e-03
2.232874482582000979e-03
-6.833095123993704377e-04
-4.853591275942349681e-04
-8.134435733766168675e-04
-2.609003973524368254e-03
-3.176721367474704717e-03
-5.675737498939378671e-03
-6.989637387519966570e-03
-2.240063522007025316e-03
-1.492571726329716469e-03
-5.668315312838781731e-04
5.045941141560025822e-03
5.548071497374813983e-03
4.724372864101933356e-03
-6.539450316028519146e-04
-6.722669805193215616e-03
-3.746919260571399016e-04
1.905281005538321309e-03
-9.148340083785720363e-04
5.094333632867110431e-04
-2.582439893562607329e-03
-2.912140397089845942e-03
-2.657821541103159990e-03
-8.763525699465276805e-03
-6.512114136494623166e-03
2.651014749821636353e-03
6.512368618332877238e-03
6.206426562251908356e-03
5.943624691669462806e-03
3.890602422078811087e-03
1.461565769972875996e-03
3.285654239031433367e-03
1.034684501400324813e-03
-4.306204013094222863e-03
-3.259735840986505411e-03
-1.386355008488327151e-03
-9.762196737548656592e-04
-2.737364290454217478e-03
-3.445794720277852840e-03
2.111959486134196758e-03
2.367466955023749247e-03
-2.628190966067082100e-03
-2.096425683508849631e-03
1.054268756369355735e-03
2.962508982476589649e-03
3.505183199883492827e-03
1.583586090368295203e-03
-5.927525046717062188e-05
4.157789562903481916e-03
5.438699363025495913e-03
1.916235172418832107e-03
5.184935265758740426e-03
5.402623555127701246e-03
5.015291252264277022e-03
6.793678010719935399e-03
-2.866343577461690374e-03
-4.847050505290459096e-03
1.581191739047148152e-03
-6.301555536583615348e-04
-4.199024259552333604e-03
-8.924643107701756700e-03
-7.886520002623440689e-03
-6.155038289294307088e-03
-5.523975118800080429e-03
7.838951868485608335e-03
1.256481937331658562e-02
7.503246449639902442e-03
-2.133613642765134057e-04
-8.678485033904772758e-03
-3.555398335607474081e-03
-2.109983284700134298e-02
-3.960475387567713446e-02
-1.304654604553453189e-02
-7.869051007554393263e-04
-5.858480340854440270e-03
3.371405612225239316e-03
7.105630321241819536e-03
1.283099926951340383e-02
1.447513634296187200e-02
9.836224606248880273e-03
1.176410640959880786e-02
1.016026227097460537e-02
1.169365684284502487e-02
1.034297680651528016e-02
2.732377404738293471e-03
3.575402268032926243e-03
1.701504342828137790e-03
-1.137269783701817631e-03
9.405022168844172879e-04
7.836707113840558122e-04
1.635999182865086532e-03
1.352568315105417626e-03
3.781602587769116266e-05
-1.917017429014810899e-03
-6.039207755570142472e-03
-5.764928911344950786e-03
-3.437105157238094268e-03
-4.915745625774302179e-03
-7.555787672838096443e-03
-3.904615031041740961e-03
1.508174613497141690e-03
-1.691357337031620381e-03
-4.839130225780709747e-03
-3.003120257629277902e-03
-1.074055123623396217e-03
-7.562055672301893879e-04
-4.086566036128680586e-03
-4.787994106505197300e-03
-2.923708384718702331e-03
-2.595771177409984896e-03
2.432422927767503937e-03
7.641388559972875187e-03
6.541747745746685425e-03
5.227940149074090243e-03
5.908024978196837335e-03
4.160260179034831925e-03
2.823219164301717706e-03
5.968607027866526700e-03
5.051442206667252494e-03
-2.057657982667407577e-03
-7.366977677555831133e-03
-7.383993851015082342e-03
-3.276244367880918641e-03
-6.184525519692152772e-03
-1.249838939976556998e-02
-5.118407094780683467e-03
5.422347190570137900e-03
8.003955060323727014e-03
8.492052635162150240e-03
5.478632631127952624e-03
1.488895046625113771e-03
6.877638850358533959e-04
-3.936873325152918717e-04
2.140835654920498913e-04
1.324539606876541219e-03
-3.521574616901258781e-03
-6.645343765092406700e-03
-2.086818709081254917e-03
-5.618605573823190827e-04
-3.576046556966601137e-03
-1.120114709700793321e-03
6.078748682566076714e-03
7.558601990628084633e-03
-4.216595311840818099e-04
-4.260115031430929122e-03
1.733602533569082683e-03
1.078528640266191449e-03
-5.039154806287213760e-03
-3.573386433980401972e-03
-1.529616626006900315e-03
3.398925390771860523e-04
7.372837010881252637e-03
9.132043570834557852e-03
3.471658639623331159e-03
-1.859136309385146790e-03
-5.189764966852574053e-03
-1.401437763100935258e-03
6.048062965749073476e-03
5.654913271539726595e-03
2.809720415997052703e-03
2.927921526688167684e-04
-4.812107983144576530e-03
-1.996231607717081739e-03
4.408080538860548181e-03
2.432023340042886814e-03
4.588116723955078659e-04
-2.820436669375357393e-04
-4.226800402621341823e-03
-4.233614323946154750e-03
-1.632636746354436180e-03
-1.132932651923424221e-03
7.899676525280137536e-04
1.467628572010275852e-03
-2.925213116919751083e-03
-5.664653526307655840e-03
-3.273017407446269893e-03
-5.764301564955535853e-05
3.471988544556579587e-03
4.163501436090875224e-03
-9.698381082225336299e-05
-5.961495415660604709e-04
2.215107322499101656e-03
2.223743435811337678e-04
-4.107251762441109511e-03
-5.783861419086003264e-03
-6.136116223281360901e-03
-8.359494654716454962e-03
-5.534088228150730454e-03
2.851577419205346322e-03
2.387421153561928178e-03
-3.067773425439316356e-04
4.292827539827925344e-03
6.384430155421161150e-03
6.458843019806793061e-03
5.038437242975373105e-03
4.591596162584021096e-04
-3.772117138003417140e-04
1.860750561776192830e-03
5.188051641024474768e-03
3.870637566665148955e-03
-4.220263860151032137e-03
-5.750814340741459280e-03
-1.934900908448926793e-03
-1.425078325616300123e-04
2.343288955891544099e-03
1.426457963610378889e-03
-4.317669562328173283e-03
-8.496788523242438870e-03
-6.841943790722618962e-03
-2.133714609869775437e-03
1.182799663139077508e-03
4.546750876934296456e-03
6.176460289033821986e-03
6.140619968514230559e-03
5.364059834239803988e-03
9.136836944426572280e-04
-2.464741281484330530e-03
-5.390768617150628120e-03
-8.333955127040690997e-03
-5.838313633675105800e-03
-5.315614176585332917e-03
-5.815926351409624398e-03
2.118140090062690505e-03
1.425934240173830532e-02
2.377455124120207361e-02
2.473750181835341136e-02
1.771665348470625664e-02
1.304971011160222308e-02
1.391375999145876008e-02
1.163142247758520639e-02
3.571908513036307388e-03
-1.201444433242423570e-03
-4.929428589927844009e-03
-1.130643700370369438e-02
-1.524055556929182660e-02
-2.219723685086113715e-02
-2.544367974164140137e-02
-1.215804075172439297e-02
5.797395684511711528e-03
1.648606274030587487e-02
1.572869084963297512e-02
7.053410201966698982e-03
2.668227108129752126e-04
-9.281379319394822414e-03
-1.864895682544182379e-02
-2.215527073593834273e-02
-2.832555671234007408e-02
-2.646714715275916979e-02
-1.012423072586161356e-02
3.186452174361912269e-03
8.460700912736218021e-03
7.568345404730449436e-03
5.666378575274243733e-03
1.225489791324410258e-02
1.981441647359562241e-02
1.551299458585866410e-02
5.216482480293717708e-03
5.844008994955100442e-03
1.531938688936003955e-02
1.840380844734496382e-02
1.254230585733140217e-02
1.977009093022362007e-03
-7.187785564760140050e-03
-1.001559476148907064e-02
-4.612399690544327115e-03
-3.862593111449098750e-04
-1.133155290077934342e-02
-2.190092892569846933e-02
-2.168797674726005362e-02
-2.281977862947442981e-02
-2.206553029103485580e-02
-1.689397718431893264e-02
-7.942833225819454987e-03
-2.818588948701173519e-03
-4.695611369161911686e-03
1.028428168599079123e-02
3.208714031210185141e-02
3.657924700518971894e-02
3.109470154091583186e-02
2.170154513906660809e-02
1.815540969458105322e-02
1.422132066694344402e-02
-1.576462565335240255e-03
-1.766701098528567285e-02
-3.281379108832880448e-02
-4.447863834694146257e-02
-4.877882735071150527e-02
-4.166199132461960442e-02
-1.922687513271984991e-02
-9.063561877548852955e-04
1.065132792947609368e-02
2.292013063757040656e-02
4.044201066584594828e-02
6.240933135481475935e-02
6.072304915650911933e-02
5.622192941486919143e-02
5.942297213135386280e-02
2.274803124287849004e-02
-2.136283565297156239e-02
-4.008793951073733042e-02
-5.270384623985053391e-02
-4.445291528160956462e-02
-3.477584434656803836e-02
-3.167455102742928325e-02
1.661281391437606156e-02
8.702479521086317615e-02
9.872792445775022130e-02
6.326716730079828821e-02
5.529190767129072565e-02
5.041085228371301047e-02
-5.077735500654069305e-03
-7.966922135948839578e-02
-1.557908814257771835e-01
-2.006729880416138756e-01
-1.798667086609054278e-01
-1.452763140373078132e-01
-9.440892722573177021e-02
-9.285016731063074763e-03
6.201286230323925508e-02
9.974378782794901532e-02
6.676375346048360471e-02
-1.218446428723503165e-02
-3.478117249870416733e-02
3.005213525779281076e-04
6.834054319927562737e-02
1.221801442497765372e-01
1.070853922208161030e-01
1.081906079997055764e-01
1.554979711798678277e-01
1.546762342590966566e-01
9.263691301256397892e-02
3.480176057629350006e-02
3.996556968710624803e-03
-6.245536557439682057e-02
-1.455099524247387976e-01
-1.474592077376398191e-01
-1.031555077721546948e-01
-4.676025606488511122e-02
3.200463864200334824e-02
8.142220435453505212e-02
1.004597801655957717e-01
8.743709788260056737e-02
1.004253190261097245e-02
-8.645040734890677148e-02
-1.488773670382199654e-01
-1.728786257920650049e-01
-1.794956632244652794e-01
-1.622145480491763714e-01
-9.476001360643709903e-02
-1.201703949510507345e-02
5.510204015901224578e-02
1.151185909994502932e-01
1.511030249415803162e-01
1.362657706754957787e-01
8.109473471062890459e-02
5.153217304667624676e-02
7.205219647455966825e-02
7.564671705864199625e-02
4.153737230098327599e-02
1.108216953129785923e-02
-6.506215469106428270e-03
-2.084841638439086445e-02
-3.814949796183441516e-02
-5.974856903634524069e-02
-7.092986989427298161e-02
-6.600337433034436652e-02
-4.520552022585892782e-02
-4.073544573232315905e-03
2.411533260207059451e-02
1.264019261000546429e-02
-2.478132958958243620e-03
-1.130210671630563430e-03
-3.474686503125552339e-03
-1.134617397502597075e-02
-1.062393475493216520e-02
-4.143601028686775406e-03
-9.712126631804744552e-04
3.972812202681176574e-03
5.175273498054697510e-03
-4.785908403059721409e-04
-1.939588943918089481e-04
9.138911841998851714e-04
3.154509764989899771e-03
1.236802469240802851e-02
2.439143950679359754e-02
4.055819742458902782e-02
4.415174452451186421e-02
3.270324116456712477e-02
2.539235440018968240e-02
1.465054340963253994e-02
2.451689967296484507e-04
-1.826183820774229458e-02
-4.389013389636326617e-02
-4.577803602580490100e-02
-2.426260645075191055e-02
-1.075675852403915576e-02
-2.693125915658988942e-03
6.705419544764334994e-03
8.730880361090972985e-03
2.318081672877502462e-03
-3.525814519850260439e-03
-1.868066445203396108e-03
2.863101633259193188e-04
-6.152250907963611147e-03
-1.050902244366655990e-02
1.054098990141491153e-04
1.243056089499282139e-02
1.221908194770133897e-02
7.628931102575440583e-03
3.924408568869766287e-03
-2.565671693704801772e-03
-8.155636544434500049e-03
-8.318419351680166399e-03
-5.541570674598023279e-03
-3.693800351585040716e-03
-3.555758467189807249e-03
-2.841184039430889180e-03
1.094614548912678596e-03
5.512042643170798721e-03
8.285457164642363523e-03
1.156613828967183524e-02
1.181881880305217861e-02
8.816931559347771299e-03
6.882818606924875557e-03
3.664226546677713109e-03
1.534949547952414641e-03
-1.317949754186552628e-06
-7.417511479441117779e-03
-1.251814312411430111e-02
-1.098302312575299804e-02
-8.682303673878040765e-03
-4.390590709404947750e-03
-1.469655523754795443e-04
1.806208120298171283e-04
-2.227471199497695672e-03
-4.468886443058403372e-03
-2.791226695017863090e-03
-4.910597640788318509e-04
-1.662350456662891685e-03
-2.440649333883641251e-03
-5.876623803345778227e-04
-2.837186695486559353e-05
-3.185777310074373609e-03
-5.424011988350244812e-03
-4.286249862552272451e-03
-1.249899338232089751e-03
1.992430668271482318e-03
3.067989009514016444e-04
-2.827833210756163472e-03
-1.299818148506321934e-03
7.379214177917499786e-04
2.079294095498695517e-03
2.113304612548437197e-03
7.523535536365724436e-04
6.226764251252837846e-04
-2.493174509100780107e-03
-3.925288417009268130e-03
4.341294391648609259e-03
9.856983656264181604e-03
6.566425445399214772e-03
6.880801895995100788e-03
7.207085987205247464e-03
2.446191422171708953e-03
5.115245822066304821e-03
6.822858031864404565e-03
3.787850135950002065e-04
1.107398192150305105e-03
2.075492954392010858e-04
-5.852288748927280196e-03
-4.407557330750733540e-03
-3.205912034571119403e-03
-2.335831787848977915e-04
4.442982500327397402e-03
1.642519135887456289e-03
1.393524233515574813e-04
1.411297831120070928e-03
3.106573383667713111e-03
3.969474424351884106e-03
3.504437861780127297e-03
7.306781705495949677e-04
-1.965039235363623751e-02
-3.215441494810858392e-02
-1.038114605929951750e-02
5.082962581128246116e-03
3.624256676246938400e-03
7.829806447622251683e-03
8.292507423825744642e-03
8.459151871050354932e-04
-3.470925720934027025e-03
-3.701785099956309910e-04
9.575291401270719874e-04
-1.797392450936193421e-03
9.356034277214097432e-04
2.271012207154403644e-03
-1.957814847406736953e-04
-1.038409126691710628e-03
-1.844797637187049885e-03
1.313417275215190798e-03
2.834896195372531031e-03
-4.025122602553748660e-04
6.129326711224444618e-04
1.641528001982633196e-03
3.497564162658319204e-04
2.707890252828842187e-03
5.596308836367173793e-03
4.145669052168452981e-03
5.210226898831699050e-04
-1.301004504523296107e-03
-4.123571366649402925e-04
1.361918677733205433e-03
1.829656240551439479e-03
4.009076351920213763e-03
6.596147783133264955e-03
3.191527407014179731e-03
-2.203518823655007926e-04
-8.347274982588394126e-04
-1.199640464294904688e-03
2.152086496014306120e-03
3.703943068729359349e-03
-1.072318899492753774e-03
-7.299832807205687731e-03
-8.711349016243522328e-03
-3.369257887066588221e-03
-3.670269002314633820e-04
-2.194114878106464758e-03
-3.310377917821389401e-03
-3.646702072284827359e-03
-5.269852237133329682e-03
-7.317018440290292726e-03
-3.340717745604756313e-03
4.458019379770188193e-04
-1.898214539572315061e-03
-2.595478393201756332e-03
-6.243466180283740660e-03
-7.512207604154514523e-03
-4.433353452445706129e-04
1.914291325244122039e-03
5.440061543985602599e-03
8.600554533369090052e-03
2.399007141320360671e-03
7.463312784444109003e-04
3.020814029457019861e-03
3.094503914349594053e-03
4.907856433093840676e-03
4.193366100834285820e-03
6.105501467766536166e-04
-8.539122392120263461e-05
1.448384485314934767e-03
-1.057100474768699018e-03
-3.342713351502988803e-03
6.699407035801812575e-04
3.241217731776665101e-03
3.849919489198602458e-03
2.183971903810168463e-03
-2.143881892766443930e-03
-2.068955083823929061e-03
-3.368744341725758273e-03
-2.139453354695608316e-03
4.429134617134051696e-03
1.925870297147908158e-03
-2.939795897613881482e-04
3.990635820325904616e-03
3.190817448263633550e-03
1.248046867091908308e-03
1.576082761673646597e-03
1.066432976789468724e-03
-9.662536647789805953e-04
-1.936548560412860390e-03
3.433450778153810377e-04
1.118208561250859032e-03
2.338771294553657629e-04
-3.047800535350389702e-04
1.262725140009705838e-04
1.056127756228794450e-03
-1.656890093180217070e-03
-3.608466459127548324e-03
-2.290742019007790693e-03
-1.244868345229987712e-03
-4.257729590908158695e-04
-1.232091361540822282e-03
-2.081820776431359162e-03
-2.125744649448437461e-03
-4.578974539376103980e-04
1.160097848308276397e-03
-4.056223360386031207e-03
-5.257058384362600124e-03
1.300822895290658539e-03
1.240510522625129703e-04
-4.939451903342373211e-03
-3.222672775450896848e-03
1.941795599468044715e-03
5.150929142676478542e-03
6.878156289207509357e-03
7.076878782668825571e-03
2.954782968451153020e-03
-1.244292098370595881e-03
-5.206245664022875717e-03
-7.058002104524516498e-03
-2.510470469994428817e-05
4.827934505025759798e-03
3.505965476213886677e-03
3.446443668729391296e-03
1.155115315401515847e-03
-1.022730248503473131e-03
-1.063452275431952306e-03
-6.105148933695110072e-04
1.776270453408486144e-04
-2.512380802125124390e-03
-2.945744315842652086e-03
3.314608035756110423e-05
-7.613476460855283937e-04
-2.148089991158650541e-03
-1.359810725484609378e-03
1.052558623646995687e-04
-1.038858426396760057e-03
-2.878826716990414217e-03
-1.393494634054797277e-03
-1.759722815675886015e-03
-1.174862597451853006e-03
1.589322968277319436e-03
2.225832105803816734e-03
4.159390820127666956e-03
2.450266690099230354e-03
1.251795181316777339e-03
5.500194544684085945e-03
2.733928034011428275e-03
1.119303534153238446e-03
2.960916916387984661e-03
-4.062005412408333654e-03
-6.215949694510486574e-03
7.541806487740100660e-05
3.687380342545520245e-03
3.845003851840300170e-03
-4.078030202120785778e-04
-2.961089825166404472e-03
-1.706886288727247529e-03
-1.241134548257886430e-03
3.710742318899945568e-04
2.805681606500394151e-04
-4.457698757150979781e-04
1.539950356493081582e-03
-5.724145765217922592e-04
-3.946264093579085995e-03
-1.345628097744879870e-03
1.124422017168515879e-03
1.262666995612705088e-03
2.528741745722821749e-03
1.473656485272548979e-04
-3.905740845269391800e-03
-2.303120561317836042e-03
5.235579512021165861e-05
-2.793194573735535680e-04
-3.946007570100692097e-04
9.444351876296637385e-04
1.545539618530924033e-03
-1.579437749996976574e-03
-2.583358213349226749e-03
-1.631205367790801225e-03
-2.611000771240947448e-03
-6.951709486916677044e-04
-1.873436068062293456e-03
-4.541056051790460721e-03
-3.360321743130218727e-05
1.274303575295205639e-03
1.667752627381383762e-04
3.803394702814100192e-03
6.098387978760969226e-03
5.157177943280679029e-03
1.268501364607174751e-03
-2.735649449246956304e-04
3.127289041867121425e-03
2.778727673505387678e-03
1.003855783063846083e-03
1.975552718456433446e-03
6.524524055460124419e-04
3.375846888433485580e-04
1.945693774945424529e-03
6.159678143442016973e-04
1.937743811143762636e-03
2.693748126934803529e-03
-4.262889893084280206e-04
3.541479333589472173e-03
4.343920342753005044e-03
2.275502448371035605e-03
6.072573180963014919e-03
-1.336106611175576046e-02
-3.437975851422053752e-02
-1.634336175130654545e-02
2.841632251352247361e-04
2.987303780836477038e-04
5.047366845661835875e-03
4.547563121483707768e-03
3.573447059201895551e-03
6.513460899546525372e-03
2.084767414000960641e-03
-2.322622926657676688e-03
-1.417448876844150049e-04
5.712834300910965384e-04
-1.342164768827816372e-03
1.775124302901379212e-03
3.255728965719726677e-03
-9.869607354978213350e-04
7.008913618093569244e-04
4.345720117697535710e-03
3.413431527017159704e-03
1.396925935716974640e-03
5.468351899537117277e-05
2.040831976074275120e-03
1.585606335259840544e-03
-1.016142365985154552e-03
2.046752052119373965e-05
-3.101207271664995543e-03
-6.535080923937466001e-03
-2.381687557597056155e-03
3.994990050004037824e-04
2.456218377752089729e-04
2.517925219813723497e-03
2.869118121219078974e-03
1.053099837046699364e-03
2.803598008927229643e-03
2.565634395576637215e-03
-1.286544193780761111e-03
-1.175149237813516608e-03
-1.433322811132201665e-03
-2.831223286268402112e-03
1.120087119981026495e-03
4.059017490590357234e-03
5.808312202531888116e-04
-3.185009121005669824e-03
-3.465362097204982388e-03
-1.690575300567869789e-03
2.587848766051550984e-03
4.012347156969704037e-03
-4.972359625881714491e-04
2.629010311244386476e-04
2.335021814284152751e-03
-2.780806108761402912e-03
-5.305923666680141364e-03
-7.616938041122899537e-03
-1.065274278190666071e-02
-3.700936966356651106e-03
4.345074547062576648e-03
4.633677436742434860e-03
4.328713345024261423e-03
3.308570358603276241e-03
-1.896478614460085079e-03
-1.053422771092964259e-03
5.820203373754519009e-03
2.881650349549636989e-03
-1.508307119410514860e-03
2.631502067784265153e-03
3.006036525097523313e-03
1.214608429086748171e-03
2.097992007010909994e-03
-2.273260881637517153e-04
-2.840887989128838571e-03
-2.879165151517939190e-03
-2.745817502064349519e-03
-9.173758691020176799e-04
3.231012779488427918e-03
3.732725717428516006e-03
-9.110947429989634493e-04
-2.674887752237467987e-03
4.540440110944299183e-04
2.924390348359402758e-03
9.840383787286426445e-04
-2.859188035923286835e-03
-2.968794841236343466e-03
-1.339692786343989889e-03
-2.863127377874508626e-03
-5.391083388880827353e-03
-2.267699614571139829e-03
3.123264207838083711e-03
2.583943613695688889e-03
2.764039420604581798e-03
2.298652070413056882e-03
-3.332769797839146928e-03
-1.311809054957680919e-03
2.587873189369942553e-03
-7.190913117258222829e-05
5.122122662784560528e-04
1.589497133891761222e-03
1.072506412665362799e-03
5.657019545875762454e-04
-1.054697134802572156e-03
1.512355097442385056e-03
1.903455579265859749e-03
-1.778753838551774564e-03
9.206412838367260786e-05
4.687385912294913192e-04
-2.190218893499490393e-03
3.978787548552847799e-04
1.588121307633182447e-03
3.503333367620385923e-04
1.617347654133795406e-03
6.866737154579545489e-04
4.284012426109090848e-04
1.097829005363568349e-03
-2.232576341513446867e-03
-8.279721398287722117e-04
2.689569613197755320e-03
9.983745123223915479e-04
8.119023350598506125e-04
-5.753629944218115492e-04
-2.357138818402781683e-03
-2.099629895596919101e-03
-4.042073795808031646e-03
-1.203245957622124315e-03
6.946881763712609665e-04
-3.798125858854136967e-03
-3.361033360427782054e-03
-3.725545633272102212e-04
2.698819613663193482e-03
3.343306029669464250e-03
-9.986409042828611228e-04
-1.624309505067847784e-03
-3.941282707890861325e-03
-5.848985920276130596e-03
1.514116254259800743e-03
4.207225912534996552e-03
1.260131856981539390e-03
1.057023148431765610e-03
1.299545140909106038e-03
3.373585785914980355e-03
4.735835178289182767e-03
4.085073133739897458e-03
4.137243301392899870e-03
2.061283346550577423e-03
-1.260059538205207186e-03
-7.765150923098134133e-04
3.253384382151280028e-03
3.261631373416790623e-03
-7.872704544705348435e-04
-9.211649284161198671e-05
1.612083254793748649e-03
-1.949516119590958109e-03
-5.681563558558107470e-03
-5.943307218730834764e-03
-3.270188845548130906e-03
-9.312395041498940790e-05
-1.545103623817220518e-04
-1.135885013257646606e-03
-7.756632850726343387e-04
-2.063952246398229051e-03
-3.392698679142353447e-03
-2.328177356982933949e-03
2.983145997342064059e-04
1.951135811604741638e-03
-1.186931128620459346e-03
-2.428251458479077814e-03
1.150654938860031255e-03
1.491880205921450580e-03
3.685216749068567429e-03
8.037431322391449737e-03
4.909052549090249518e-03
3.609532167835578049e-04
-9.073056285493926159e-04
-2.502449109299359400e-03
-1.943742308441632734e-03
1.111299646442237901e-03
8.333564553995389829e-04
-3.128366029119457759e-03
-4.756026477665471416e-03
-2.793763461988674202e-03
2.069945751698378954e-04
-9.259740811631023160e-05
-3.265954414975466482e-03
-1.601515424310136475e-03
4.646787330932366676e-04
-1.238840715602252751e-03
3.635686050750112940e-04
3.085359264794776141e-03
3.143019914471749561e-03
3.397958133002631012e-03
4.776751543431072798e-03
3.572504605938280238e-03
1.449795801083212927e-04
-3.780662944782054195e-04
-2.459680307239180933e-04
3.115549804779018609e-03
5.820807131745070473e-03
-3.470328974272947429e-04
5.421866762920234161e-04
4.190824440312708281e-03
-1.053615508172776145e-03
8.787079412408778292e-04
5.460044674471763865e-03
4.725068174246914443e-03
2.085041777363770728e-03
-1.604110343281962489e-03
-6.699931241338216888e-03
-2.520074200290725250e-02
-3.154547745657596686e-02
-6.542224882141229117e-03
6.156064901759523110e-03
2.865931600617281118e-03
5.308369142091384947e-03
4.495645364403796571e-03
3.730598154187496004e-03
4.212835445238297463e-03
1.433452932043688096e-03
-1.507046471493582408e-03
-9.146967608515161208e-04
3.047157950390240889e-03
8.094574252013098971e-04
2.010191516478883464e-04
6.081302881372118753e-03
4.556544569920532688e-03
3.167273571841815291e-04
-6.828129246751831914e-04
1.495651635012950828e-03
4.649185230692976130e-03
1.863829657124703833e-03
1.127387053430864861e-03
2.566165334372281625e-03
3.203212183184685940e-04
-1.166137986413558073e-03
-3.158705661846742709e-03
-2.248259518390088949e-03
1.099593232466446104e-03
8.937335780658720421e-04
-4.923197572285107574e-04
-2.569406001402600899e-03
-1.730329609690606446e-03
-9.719499210692560771e-04
-4.084140255131235575e-03
-1.546468563607522910e-03
1.821542739521981842e-03
-4.849621418317594679e-06
-1.425330725294752252e-03
-2.070738289834257641e-03
7.875193538884183320e-04
4.103066161799662041e-03
3.150316365389629805e-03
3.096072078910459390e-03
2.225100334698595916e-03
-1.454242550327641869e-03
-4.083362231460362264e-03
-3.430208884535494458e-03
-3.602818294087330072e-05
-7.588294196656175054e-04
-2.663836032387867717e-03
1.064317175910350476e-03
-1.184207343335101994e-06
-4.755426247897672105e-03
-8.144642644984424491e-04
3.818715125032677224e-03
1.855513298121727649e-03
-1.173590585146370123e-03
-1.956370411123704335e-03
-1.341526160984304503e-04
-1.984169666849318694e-04
-6.617684157207694108e-04
3.647332678004350671e-03
4.113922285445450154e-03
1.679153907821852375e-04
2.362490115860265793e-04
-1.437452604809106530e-03
-4.056710632269052048e-03
8.062030331572036732e-04
5.137469800523064914e-03
1.611173215875542084e-03
-1.831412444974943104e-03
1.250548705976693806e-04
2.455272999604468306e-03
2.686175442108073089e-03
1.857799542131690056e-03
-2.790430222637746340e-03
-8.031128672955099856e-03
-6.062151138944237190e-03
4.257112055806091942e-05
1.833956969765015337e-03
1.311464736019988695e-03
4.725228338391607857e-03
5.396854132224754991e-03
1.287711895970158719e-03
4.047145608849273988e-04
-3.003223290200892140e-03
-6.297332817815743181e-03
2.398960001391594850e-04
4.202113617438595419e-03
6.402885568741199839e-04
-1.297440418153333538e-03
1.825118873979044657e-03
6.720934436860516101e-03
3.513564401888964218e-03
-1.676673031775670905e-03
-1.425346802137255568e-03
-5.169769433473177765e-03
-6.414554071058471002e-03
-1.126397087099671995e-03
3.085429475733492686e-05
8.182940520657873461e-04
3.524828605152419744e-03
1.557644221049802767e-03
-3.406121412235386253e-03
-4.031702687855885821e-03
-1.192276360933448420e-03
-5.739230140819628640e-04
6.511149525922505779e-04
6.178609559137416326e-04
-2.112756991525739474e-03
-6.146191476124590993e-04
5.054538008092355475e-04
5.025044765224096106e-04
2.105331449940052013e-03
-2.887781721723127080e-04
2.460002991199944150e-04
3.273083839052549210e-03
1.812688942811966752e-04
8.546200516049813015e-04
5.293325739874918910e-03
2.798831739298903235e-03
-1.327825829857728467e-03
-1.987448578525050948e-03
-1.775841959526697038e-03
-8.382003421893228752e-04
-1.503102245995634103e-04
-6.134425536069302762e-05
1.007238215346556703e-03
1.051930409508959694e-03
8.078847959293448445e-05
-3.662163285821719880e-04
-1.333440190884832219e-03
-6.546103605856736472e-04
1.283027793129788144e-03
1.875470951938941261e-03
2.331285159147629751e-03
1.038799997854944913e-03
-2.331976386021673755e-03
-3.392656337860306109e-03
-3.482854754130208438e-04
2.566359430944012074e-03
7.655869066289637016e-04
-2.515329782298586329e-03
-2.876595135533996372e-03
-1.347404642802959912e-03
-9.710233422740215201e-04
-1.837625743220828588e-04
3.198870609183852593e-03
1.496750607535869736e-03
-3.025993781364671141e-03
-1.026516264279492057e-03
3.870768696786247749e-04
1.083883456393475262e-04
1.453761298400810817e-03
-9.114219203818666815e-04
-1.972720703698143448e-03
1.251410767205121590e-03
1.038847489073197383e-03
-1.489380361692009894e-03
-1.076448541310817816e-03
-9.459577078509285707e-04
-8.729198971573705248e-04
3.219005152383420595e-03
3.017041272948604077e-03
-1.437111249912223108e-03
6.698535134486595507e-04
4.230314505714921104e-03
4.247030416129525532e-03
2.749167619906554318e-03
1.634602106786256243e-03
9.426789832761166320e-04
-4.000479837091624677e-03
-6.068836839042852753e-03
-3.200231656362742799e-03
-3.939270101634540985e-03
-2.703173722691611970e-03
-1.845623254126407646e-03
-5.212065512248239586e-03
-3.886038843553202629e-03
-1.091237275009350688e-03
1.819167898477365701e-04
1.924444554238684008e-03
2.318812231201698802e-03
3.192184154350133189e-03
2.256784911178606919e-03
7.739428360435459276e-04
2.749165240779853116e-03
3.571978797601105780e-03
4.904176285021286628e-03
5.479349516010375599e-03
2.874649726301202945e-04
-2.774905669812106207e-03
-8.888005405786254028e-04
3.770328256787862549e-03
6.978794560105493205e-03
2.883391437093958155e-03
4.805384883940972719e-04
-2.111492981196508561e-03
-6.458365870846121543e-03
-8.112516458974050344e-04
1.826145215476131234e-03
3.121942509213947430e-03
7.318296741067248541e-03
-3.562391403123612871e-03
-6.239934750288686147e-03
-4.708699148029810849e-03
-2.257472264274144533e-02
-1.851622415079779913e-02
1.289176652068979492e-03
2.036540622473104623e-03
3.516949209935588128e-03
5.362050876232779192e-03
3.364414238824971551e-03
5.070664614949798449e-03
3.679417342481604639e-03
4.044884963136076428e-03
3.208045064983218106e-03
-3.110836343868918219e-03
-4.119332020178504555e-03
-9.021439752915310197e-04
8.062337067671172201e-04
2.349772622184866967e-03
4.916963624045269342e-03
5.160839592285236012e-03
3.628037853167515557e-03
1.832073210907993579e-03
-2.584418356570231459e-03
-2.615400348331938744e-03
1.067712104025801223e-04
-1.170361784940841029e-03
-1.776986568748433479e-03
-3.571487558504074511e-03
-2.850591237716950267e-03
1.506136221537208867e-03
9.186695504825601391e-04
1.762701172469411780e-03
1.347896482526370109e-03
-3.687636666313784308e-03
-1.628884850403082302e-03
-1.063252836630479892e-05
-2.737772831842510968e-03
1.575808774618267960e-04
1.694616407722418462e-03
3.608899146833392498e-04
2.695741687334753545e-03
1.690341280585581181e-03
-1.527820249858333288e-03
1.203154356801802846e-03
3.971102445435222353e-03
1.852274785590517876e-03
-1.807657338175352579e-03
-1.970276618031507020e-03
1.380614056412361387e-03
7.366848490583725829e-04
-5.916207949489889640e-04
1.592685528841135531e-03
1.698640412398934622e-03
4.834024634650928732e-04
-3.782457572853176707e-03
-6.130840711569568273e-03
1.069101403946939519e-03
3.113123567564398016e-03
-8.765502809434998297e-04
8.833537618148092855e-04
9.195816295425604872e-04
-1.205929898560066963e-03
-1.820754149352378829e-04
-5.427694067905650122e-04
-2.710505629053498299e-03
-3.381545656092774851e-03
-1.418358939727980099e-03
7.233208289269527471e-04
7.693728865393557534e-04
5.415024863011346900e-04
8.169163086966955891e-04
1.858231964253306443e-03
1.344405095025348173e-03
-4.459707682859756842e-03
-8.908117324706098933e-03
-4.196976680640793558e-03
3.529950647164068877e-03
5.859221722627700260e-03
3.186229136512677088e-03
-4.226690911832930818e-05
-1.268622178402224699e-03
-3.438517788413233012e-03
-4.637371768222296915e-03
1.520194168169824740e-03
6.836248406159508434e-03
5.389701091114668108e-03
3.772554263837146586e-03
8.810265480161774991e-04
3.309274858901820775e-05
5.956683016684154001e-03
7.459919642329410766e-03
1.371821086571824210e-03
-4.422120581538549824e-03
-6.949097724756544275e-03
-5.267182667190169025e-03
-1.903021775497775554e-03
6.735811617971497077e-04
2.094785693845714006e-03
2.140036742853426883e-03
2.491469847721027985e-03
1.234824896140031790e-03
-1.736117609517195742e-03
-2.181493084336229901e-03
-1.351599733142449080e-03
-2.014127189744295901e-03
-2.106945450010378612e-03
-1.146723829852676341e-04
-1.071716017736284565e-03
-3.669060626349240298e-03
-1.258235184366837461e-03
-6.639033856363640721e-04
-1.608052051338042764e-03
1.424460965877899585e-03
-4.336884681739717031e-04
-2.366352830645716224e-03
2.059717519590088808e-03
4.295404192000827626e-03
4.617222768618427405e-03
3.909572693355101679e-03
2.720367766721703499e-03
1.613606822625356140e-03
-2.448317656091081838e-03
-2.879501855559788836e-03
-1.375695639526227461e-03
-2.397817122570361850e-03
-1.106562697032735087e-03
-1.272771673894488621e-03
-2.885979884353664406e-03
-2.613833488252091403e-03
-1.086248101701461216e-03
1.138558202563283222e-03
1.719277071088266091e-03
4.161583195284258331e-03
2.518026308180934363e-03
-3.240197366695769018e-03
8.853130076785267451e-04
1.349718877331881157e-03
-4.429253616215242211e-03
5.804324013522197577e-05
1.731690868639052319e-03
-2.916650243201459203e-03
-2.236465360762007921e-03
3.898878134302201023e-04
3.420909390203935758e-03
5.753207124001051380e-03
4.690655475080943507e-03
2.021106160742398069e-03
1.859308119888923713e-03
4.176889488268136462e-03
1.998651144252562312e-03
-6.652691846156161054e-04
9.690289052756089578e-04
-8.454614808606983074e-04
-3.882294044885213711e-03
-3.992014436484978696e-03
-5.500557253626087682e-03
-5.255247376734107669e-03
-1.224243487702584557e-03
1.047087926847161668e-03
1.734231817779287516e-04
-1.247537676191004183e-03
-1.720048137434244387e-03
-1.857698270285085621e-03
-6.920228573234868700e-04
1.883124599186502841e-03
1.855443845341204394e-03
3.158535053762463849e-04
-2.167097324513871548e-04
-3.274009821274937956e-04
9.378712423483418674e-04
3.218606387562608141e-04
-1.063479969197039018e-03
5.901103340781495028e-04
-3.453863476452358845e-04
-2.264008358924561159e-03
-1.767198115020003277e-03
-1.395265365722500378e-03
7.841117079579267533e-04
1.607268953362082659e-03
1.246093999361021654e-03
2.864869200066561331e-03
8.803312068842375363e-04
-1.388010497695267445e-03
1.150120140159812277e-03
2.893773936739048400e-03
8.315628000579189947e-04
-8.944589479775597258e-05
2.489340211393590175e-03
2.045998630508577901e-03
1.617432028039391583e-03
5.273280241587460088e-03
3.809751691223261898e-03
9.246179379908305972e-04
1.994381785738620801e-03
-8.044655071215925249e-04
-3.910245019632730031e-03
-2.972286816218668265e-04
3.513235707394617244e-03
1.916913994840882323e-03
-1.915096008096537359e-03
-4.758310570442715604e-03
-2.066596017051012917e-03
2.368383194556139375e-03
-2.061735218774469710e-04
1.790472475106991601e-04
-5.256920208744513857e-03
-2.666752343992279117e-02
-2.500833604743663008e-02
-7.561890979039865603e-04
6.102767744379309321e-03
4.573480678250696485e-03
6.088647644121501779e-03
2.902195576286392079e-03
-1.397184465521287416e-03
-2.450291591153542625e-04
4.352730967883997742e-03
2.012541010483875990e-03
5.685350398686747717e-04
6.635041554898144303e-03
7.338165128302207192e-03
5.699605745340362295e-03
5.043743592286017811e-03
3.201617928077970729e-03
3.778536178181339782e-03
2.798130949516421887e-03
1.836358448206472545e-03
8.671936085435092475e-04
-2.194263163034790645e-03
-9.063993074259644664e-04
7.331801592944935542e-04
-1.053531238172361736e-04
-3.545262858429482967e-04
-1.039088190847918059e-03
-1.203211654511234744e-03
-3.846554400026194753e-03
-6.696167854254618697e-03
-2.212906705184285259e-03
5.285447015418626854e-03
8.283686538975411351e-03
5.128089239960325653e-03
4.239876065299058946e-05
-3.891894861435182644e-03
-6.993126508704337885e-03
-6.230792126293739110e-03
-4.453722352540847446e-03
-7.244974145141485147e-03
-9.491917393687784518e-03
-6.083024443160859815e-03
-4.904368464192237912e-04
3.620126033699607761e-03
6.941678035461865820e-03
7.537488418601663055e-03
3.541046236208462029e-03
1.664680634136658311e-04
-1.361172607780157919e-03
