-2.783823811492508807e-02
-4.450367257612183186e-02
-3.077282195512431179e-02
-7.183704838272643532e-04
2.318456747798093576e-02
2.518066610402723560e-02
2.820180240780528411e-02
2.610163298184023720e-02
2.087766749303021641e-02
1.856644759797495062e-02
5.124165372139295911e-03
-2.259076258435127518e-03
-5.647913372650658660e-03
-1.313600794696453966e-02
-1.365131473318242222e-02
-1.536967838737078769e-02
-1.853597662564112486e-02
-2.193345560751253434e-02
-2.063948837893275420e-02
-1.386170226128539268e-02
-1.518942452426599518e-02
-9.940692043967578814e-03
1.759114743275576277e-03
7.836915382714009642e-03
1.459267430322810054e-02
1.316787195444497557e-02
1.183415240737577777e-02
1.399885349535555205e-02
7.765093802446100708e-03
5.223435033877814847e-03
1.265106420699975724e-03
-3.414479508303825024e-03
9.418870826157889689e-04
-1.477395053888091742e-03
-4.502458293505874967e-03
-1.331819169315971978e-03
-1.811553654400958370e-03
-1.878605971623468953e-03
-2.737174937170214466e-03
-5.020528717005170311e-03
-4.881248268849998177e-03
-2.877384775121907823e-03
7.404469967281516931e-04
4.170280655911334962e-03
9.398679689693413553e-03
1.027561572684925449e-02
5.217706701793098367e-03
4.687343089913191541e-03
2.648620353698115035e-03
-4.037386500498096106e-04
2.540505645051575933e-04
-2.133054550110054844e-03
-2.506546036789141299e-03
-6.169868177752105796e-03
-1.334097844030461208e-02
-6.262050404512979444e-03
3.000111569348941441e-03
3.914045235040685376e-03
2.906580222207312634e-03
-2.692713832665660171e-03
-4.788939689574355819e-03
-2.735274895335565882e-03
-1.936524343374295158e-03
2.634634198064828708e-03
1.559630780140134785e-03
-2.635113511971049882e-03
2.096073804974284333e-04
7.123186973906280267e-05
-1.603947280586100676e-03
5.772169513481865055e-04
2.591839471007090830e-03
3.086692337137458830e-03
5.103649981765426367e-04
8.117043435466745130e-04
4.151647715764168051e-03
3.654601525556517953e-03
3.836406177218516442e-03
4.207669164140196046e-03
2.354828570096464610e-03
-5.367153220701347763e-04
-6.595396921678048016e-03
-7.971144317282916406e-03
-1.250800545729218371e-03
3.721467667988758062e-03
4.162942972584298892e-03
1.911370020922439471e-03
-2.215556032553724075e-03
-5.588012237608509965e-03
-4.812823993163348364e-03
-1.747132293133002879e-03
-1.506814087386739972e-03
-2.375674862822089312e-03
-3.560883412231561750e-03
-3.946333022108373077e-03
1.603237994465795497e-04
4.294133086637091055e-03
7.884149616086435358e-03
9.657172290981418106e-03
4.199249714016653479e-03
-5.683533689945757372e-04
-2.895106732923613448e-03
-7.133769789816581802e-03
-6.165379019091050267e-03
-8.396200343606237361e-04
4.325819015964420602e-03
9.195489777386706490e-03
7.357500614841225133e-03
-1.104782403885236786e-03
-6.776195875455814227e-03
-4.824863643908523271e-03
-2.966895682153061244e-04
-6.420721265813299867e-04
-1.566916163686173352e-03
-1.120308114979821977e-05
-2.227795107925842170e-03
-2.555852480263446150e-03
3.214446798766984557e-03
4.439601971471275436e-03
4.549200008054811581e-04
-3.803121461790690775e-03
-6.932949921106672589e-03
-4.067138945647151387e-03
6.892592047130547848e-04
1.394742198515364767e-03
2.162617629209463536e-03
4.686314906627338760e-03
5.676912440851243635e-03
1.844897105606754101e-03
-3.332031997861661411e-03
-3.982078562060975026e-03
-2.490374292401010582e-03
-1.149787291758198535e-03
-8.416602672353334057e-04
-2.895866029046830024e-03
-1.972306018874333145e-03
5.158888493896948875e-03
9.090720521211268640e-03
5.153605240195738638e-03
3.444960554018774816e-03
3.140251761900035837e-03
-1.844566123596339501e-03
-4.578566311878892563e-03
-4.741009445531851885e-03
-1.880416803515125735e-03
3.106548784292119305e-03
4.576253919043727476e-04
-1.049571758053196614e-03
1.261910088408501641e-03
-2.313294002773429517e-03
-3.022755088112615528e-03
-1.984999294067895780e-03
-3.288322797755527209e-03
-3.884183763008409855e-05
3.434308932918846190e-04
-8.352250836815841096e-04
4.209451925309465672e-03
8.086381241888892721e-03
6.748338611464176594e-03
3.901564651629090691e-05
-7.684727586460923798e-03
-8.840462518696528757e-03
-5.054813473822216720e-03
-4.346117670545274832e-04
2.436501094632140436e-03
3.510954280585152493e-03
3.737841041689215875e-03
3.456056656621923819e-03
3.629245054658591582e-03
4.093974988119412255e-04
-4.214424046611752253e-03
-3.957571435750655182e-03
-3.247014882728230245e-03
-3.996951086194516257e-03
-3.650829583413520586e-03
-2.007228168955602771e-03
2.380240566138243537e-03
5.271177946345501249e-03
2.223110304804949873e-03
-1.413641514153108529e-03
-3.091928665645298727e-03
-5.627425738423312215e-03
-4.222891822920174162e-03
-5.684314808175817057e-04
-2.641793452893627034e-03
1.052619909418991149e-03
9.838799140145336811e-03
7.642128839682789214e-03
3.079657868946079121e-03
1.072165374372651509e-03
5.760980515294179252e-04
2.650707638277822499e-03
-4.359355148074372187e-04
5.496829241477827269e-04
1.141099853795139480e-04
-7.596423339469948396e-03
1.369508253190971844e-03
1.094120502636983933e-02
6.669458961102784668e-03
6.445623878903855228e-03
2.803844904764168314e-03
-3.066551161741520176e-03
-2.667655245611372933e-03
5.875207672267203189e-04
4.375974032770251279e-03
4.326758486179069219e-03
2.403152133209311616e-03
-1.617520066266790735e-02
-3.612051904478667114e-02
-1.783321311859626182e-02
8.137921937626307542e-04
-2.903584728918877800e-03
2.007829050861294868e-04
3.410754015397730182e-03
3.029068425044443864e-03
3.139055818535533594e-03
4.929913459062657856e-03
1.164830541123412604e-02
1.060831746280311086e-02
7.108035265114793361e-03
4.269117377189888922e-03
-4.010351019079312455e-03
-6.747288245832367207e-03
-5.055497137612727579e-03
-6.503451341474394487e-04
4.365505414853602419e-03
3.572934550886700672e-03
4.715388325429264310e-03
4.699945951628884712e-03
-1.204782757838072840e-03
-6.053683986614723754e-03
-5.722168992570064033e-03
-1.669024608917997043e-03
-1.719142761559575277e-03
-1.862014779109829763e-03
2.530461399469715895e-03
4.015778080951095882e-03
3.355823976164949186e-03
3.304099729867856702e-03
1.772480686573944071e-03
-2.956035818125993253e-03
-4.498542095695401595e-03
-6.383554564410026796e-04
-6.645723533627931204e-04
2.094526154801530627e-04
3.492679102316857079e-03
2.536542212001003695e-03
1.579090788730795527e-03
6.500392479311398533e-04
3.434622530376314287e-04
-1.382687762405427050e-03
-3.482389284113433965e-03
4.370182594770853353e-04
1.722348469419479752e-04
-1.709308081491530632e-03
-2.299662838994148955e-03
-4.054774070417241187e-03
7.463680318456834134e-03
4.206192725839303682e-03
-2.302603140512990768e-02
-1.786866589726492788e-02
6.119136431283935494e-03
3.284140315657652857e-03
-2.653417075413553369e-03
6.419980061538895118e-03
1.316322040518499124e-02
9.319080212939477234e-03
3.169955866391594660e-03
9.916349732881023747e-04
-1.404594780635247744e-03
-2.586457307498898645e-03
-1.593838547808875284e-03
-4.025264164749791686e-03
-6.809131071296953969e-03
-5.935618029567261977e-03
-3.283186080806905333e-04
6.088112027085556578e-03
4.790354804829927669e-03
4.214219171622833084e-03
9.128204835262771280e-03
5.365665952918741675e-03
-2.844651764310431475e-03
-5.187285494174968120e-03
-5.738490571817253007e-03
-2.559165883536975317e-03
-9.389575666068856801e-05
-3.627351038960328899e-03
-2.865156706955898549e-03
1.915009292993854724e-03
4.260820804785877061e-03
3.074775650771767281e-03
-2.744769497046317067e-03
-3.609650467691777071e-03
1.807649957995617011e-03
3.275261740638900050e-04
-2.906171036262138185e-03
2.148151990405557750e-05
2.402660598594368556e-03
5.413179588764278384e-03
6.940997736886630673e-03
1.357948653279288402e-03
-1.911132157561229970e-03
-3.030706096332938353e-03
-5.226474250061199228e-03
-2.410253518677331341e-03
-6.039490429826856622e-04
-4.575545603063051409e-04
1.379791173338158500e-03
-4.420148191280020406e-04
-3.382775251968736865e-03
-2.497278825562186232e-03
2.729392763868579257e-03
5.222091389625410597e-04
-9.964788494942200536e-03
-7.156586140375955155e-03
8.712937032472325635e-04
2.546625202783923611e-03
7.509699819149032347e-03
7.576106342580174284e-03
4.303625279083341665e-03
5.813421120155827168e-03
1.709802976621716724e-03
-4.471786608279546688e-03
-5.231422195297455620e-03
-4.785066641847451202e-03
-6.479832378230112634e-04
6.464267399847569220e-03
5.673211236815133528e-03
1.041174305086940265e-03
5.421778864309290081e-05
-3.415558654267195939e-03
-3.090299975541326450e-03
4.198630227201416063e-04
-2.507802862167595511e-03
-2.436628862335004329e-03
-1.855880759175094173e-03
-2.061967570060770777e-03
2.835625349886728569e-03
2.211349060876632334e-03
1.335440047841539345e-03
3.247545841485895406e-03
-5.869920688858030339e-04
-4.615221982908872429e-03
-5.859862652886047713e-03
-2.039451385390978529e-03
2.392976644342268561e-03
4.602287644853007842e-03
7.484272235726409893e-03
1.011396417675518647e-03
-4.394374096918893420e-03
-1.017885736755839553e-03
-1.659246120500817295e-03
-1.322887350071877324e-03
-1.715941083321885973e-03
-1.378977630521724656e-03
4.108980195209285292e-03
2.880480223520080849e-03
3.254031529895149571e-03
5.687052043954906287e-03
1.689404780821227373e-03
6.571548096024305233e-04
-2.622711787361427151e-03
-7.701369310254612376e-03
-6.501123366468790354e-03
-4.210985153748052039e-03
5.581549271258144304e-04
4.781659083774830558e-03
3.450357825451185519e-03
2.194715728972976624e-04
-4.369867164352737518e-03
-5.726129264721623036e-03
-8.808507119474732767e-04
1.117887461532246366e-03
-1.760435272444088421e-03
-8.130494795859522644e-06
3.021145907333557933e-03
2.688817956548686643e-03
4.684158216429808001e-03
3.514423066392191250e-03
1.532453260667576743e-03
6.532274886921125324e-04
-8.391606266205026143e-03
-8.024804016760299710e-03
1.613761818828627096e-03
-6.565923563524520001e-04
5.842037014212233398e-04
5.610693122789904910e-03
-7.524969602912363539e-04
-4.165303763595501474e-03
-2.119270682269972644e-03
-2.498957038970038135e-03
3.163834440506056896e-04
3.623599747752887304e-03
1.233314802851378589e-03
-1.422912468833732822e-03
2.356737989383395765e-04
2.845921194622792229e-03
5.102810540791433494e-03
9.175913830556152451e-03
1.239947995139420098e-02
8.639727392724115204e-03
-2.403589899232833787e-04
-6.092276545777643333e-03
-5.294962061679280019e-03
4.177101793286117038e-04
-7.922648775787008869e-04
-7.435665145139934082e-03
8.337649862999107434e-04
9.042398963409567503e-03
2.094182789120816422e-03
-1.383759881172598027e-03
-3.690377185414585922e-03
-4.347250731824467765e-03
-7.964082809076306751e-03
-3.091783009821665387e-02
-3.168719965623029849e-02
-2.095142122235840298e-03
7.707107372646314347e-03
9.800454019844735340e-03
1.496833063394342050e-02
6.902023164536579859e-03
5.113879600738898724e-03
6.796441939260358146e-03
-1.373515519042280142e-04
6.774744273946291945e-04
5.142936670275011571e-03
4.459556184950622462e-03
3.229625982610340607e-03
7.847823486842050262e-04
8.242967080307696173e-04
1.601242129391316138e-03
-2.531451256114383708e-03
-4.284044488016526368e-03
-2.875360771294897724e-03
-2.148358133548105252e-03
1.128867802858188980e-03
2.325834663655543429e-03
2.155472808668827938e-03
7.999545603143734876e-03
8.785910755658207089e-03
-1.265463002909345165e-03
-8.029322588622423568e-03
-8.522522816834722514e-03
-8.029275838416989261e-03
-3.668141301679632860e-03
1.015421795623278056e-03
3.232818242608704110e-04
4.077185490446173896e-04
2.255840217704793704e-03
1.836569448847353517e-03
1.995029709709383002e-03
1.936014805259161659e-03
-1.162089457023046977e-04
-1.767035636315993086e-03
-5.220916253859073661e-04
3.006530315939295438e-03
3.435573807622744648e-03
3.281295689580261427e-03
5.088894567813147252e-03
3.096038946388693282e-03
-8.045173569353990251e-04
-4.940332091176047151e-03
-8.692627806588958464e-03
-7.887069338859551554e-03
-3.521641915067368934e-03
9.900372938643833831e-04
-2.651509381077895178e-03
-9.507287034736196241e-03
-3.908971969662156792e-03
4.656300293444276192e-03
5.850404805063524546e-03
3.873004708422261595e-03
-1.324047449461843032e-03
-3.677464483111056882e-03
3.808632319231636731e-04
2.603974086199923287e-03
2.950230218961738798e-03
6.107917480681977762e-03
6.248721445290756141e-03
3.674040849409174886e-03
4.051329271262170927e-03
-1.582366787025276745e-03
-7.088413009208109107e-03
-1.645353596427549174e-04
1.543058754075828402e-03
-2.600089799367355167e-03
2.200112322534596414e-03
5.795522721699699134e-03
3.464045796204887409e-03
9.312419080180973138e-04
-1.152708081403282453e-03
-4.001361394742602474e-03
-7.647442515862148960e-03
-6.799252577734438835e-03
-4.039936561624450986e-03
-4.108304138165637040e-03
-2.984301692208729540e-03
1.313442806653870388e-03
6.801858224492382185e-03
6.957123374670552349e-03
3.118581043166627001e-03
6.521607485450663620e-04
-3.740158525681544239e-03
-5.356287345733060611e-03
-2.023205288146902748e-03
2.881545197577371244e-03
9.245100539571707646e-03
6.959481492461569788e-03
-3.023363552598135051e-03
-7.442006402398291046e-03
-5.163533968724202949e-03
3.466136380008421627e-04
1.614350708476805507e-03
-2.099738639617475169e-03
-2.201396277077310743e-03
-1.950871405808634164e-03
-1.969512253583367064e-03
3.677788357688690276e-03
7.668804587045807350e-03
4.766680817719454351e-03
2.694626193395348659e-03
2.110116094417082214e-03
-2.020467304281080550e-03
-3.982826513198450824e-03
3.496482113497127254e-04
2.976171952117963142e-03
6.857458691670178467e-04
9.707070186178894718e-05
4.266973513033220692e-04
-2.816503980433895677e-03
-3.644468050333415921e-03
-1.217824965902020206e-03
-2.432463622574252294e-03
-4.812066260532587084e-03
-5.050729769932275383e-03
-3.615074582315208878e-03
1.259001282815150249e-03
6.557170913412764882e-03
5.483463465725440036e-03
9.270528186844295346e-04
5.257635002411706988e-04
-8.987918068132271432e-04
-5.610874254547382374e-03
-5.254262183830344171e-03
-2.472183363719548162e-03
4.477005588104064084e-04
5.236810510037834612e-03
6.900077648256434763e-03
5.146992771509883297e-03
9.958186888367475016e-04
-1.612059034788860699e-03
8.103670415808431407e-04
6.388346213668829850e-04
-6.651659896215136479e-04
2.775247279905578859e-04
-2.000695605585933647e-03
-2.388936340145144180e-03
2.547224299383348250e-03
6.089845767674196761e-03
5.586974497979109097e-03
1.364535440689149072e-03
-3.806503492453620126e-03
-4.609937835657647830e-03
-1.214616894258627828e-03
-1.349305616130532198e-04
-8.910535289031579730e-04
1.000155973542511331e-03
-1.733663885906620286e-03
-7.159899501633782207e-03
-4.281860634901888188e-03
-2.500006369653528094e-05
7.975600666911316760e-04
-3.156770138023363829e-04
-3.386739360564544957e-03
-8.088807235824902516e-04
3.559197354414869903e-03
2.900062634874142099e-03
1.178213815938824105e-03
7.422635754216743440e-04
5.034408831818846207e-03
5.540986257098050663e-03
-2.744255888123116847e-03
-6.175980572623966658e-03
-5.260225095952321926e-03
-3.344767732581658323e-03
1.825245114623735279e-03
5.326576453706744450e-03
3.074519589042253725e-03
-5.242046978480113112e-03
-6.480318047839999859e-03
-8.421824998677926877e-04
-2.601854822171323876e-03
-1.504330529864381224e-03
1.887214709421367693e-03
-4.720167371675010478e-04
1.128536827207234864e-03
3.687304589836684892e-03
4.155991018845978970e-03
4.732082255951203242e-03
5.242783379924517186e-03
7.538242579046208237e-03
4.821045856021652365e-03
4.967492668713746054e-04
1.634305320503757824e-03
6.131559803185315316e-04
-1.260315255726028811e-03
1.750714957531922895e-03
3.387159546394916121e-03
3.397837271057335012e-04
-4.171132533014543448e-04
-2.162524672075520106e-03
-7.204322994440558528e-03
-4.598827722902009731e-03
-4.771451384903555222e-04
-3.270508937927169837e-04
-8.776128034384813800e-04
-1.311430164888032629e-03
2.255877114786003935e-03
-1.157080327806264512e-02
-2.811625308037699056e-02
-5.224802498393209260e-03
1.184985510249066121e-02
-1.075830611684482421e-03
-2.397022582472368903e-03
1.649504320467406939e-03
2.498509100846666407e-03
5.051178279117589202e-03
1.398345914127043649e-03
1.555312501923903148e-03
4.360820396301941411e-03
1.873834818328587622e-03
5.072843600238127271e-04
-2.309902211211514007e-04
-1.802831337448873930e-03
-2.946017016887016952e-03
-7.238143861141937106e-04
4.711327463161173006e-03
7.049637333413825285e-03
9.239616584667296323e-03
1.038144170590779222e-02
5.865610894186077014e-03
3.772112028171324856e-03
9.113776883894142639e-04
-7.587826321645779228e-03
-7.931723589560384785e-03
-1.928662843479985768e-03
-2.413632083814265181e-03
-4.375905641462432029e-03
-1.820214053709648828e-03
1.188618275774534511e-03
6.925308266219078169e-05
-1.310854318985652748e-03
-3.661581682521554805e-04
-1.937048840522178359e-03
-2.005666583085720898e-03
1.745980622495449668e-05
8.803028683316042272e-04
2.551230902262432553e-03
-1.832723542245858319e-03
-4.699549327354715297e-03
1.913787633537229098e-03
2.552703568070587448e-03
-7.498198041171778849e-04
-1.231064415178948108e-03
-2.329929161201188363e-03
8.320611922850030661e-04
4.641773035284697119e-03
3.443205572803111764e-03
2.000124548313681611e-04
-4.284651681577211443e-04
8.829860035616597484e-04
-1.411143259708595027e-03
-3.365152397668644269e-03
-5.721618227104246363e-03
-7.751255055883327777e-03
-3.577958049618580084e-03
-8.495906646449082316e-04
3.291384045208120730e-03
7.519498835353247840e-03
4.566263145432688554e-03
6.725186515329144125e-03
7.481891600140176332e-03
-6.097050462237082016e-05
-4.125205761879763983e-03
-6.526018193845902621e-03
-5.298580086685894357e-03
-1.363136076253784789e-03
-6.152148796077906798e-04
3.516117219857662051e-03
5.375928357131650945e-03
-7.697065669406412359e-04
-6.334330189349630588e-03
-6.276961172426797839e-03
-1.381785189284220850e-03
1.296141436112735988e-06
-3.426451057920470999e-03
-2.966238789837150926e-03
4.757771020831062184e-04
4.178547292913001483e-03
7.971890055078300133e-03
8.501325240094864677e-03
5.554898402305987089e-03
2.172206122669819491e-03
9.240416277032326110e-04
7.543982191068544958e-04
9.871572494238986441e-04
3.826588993464017339e-03
3.916185126292158133e-03
-2.486695470588180866e-04
-4.344001478765965895e-04
-1.061103787355943988e-04
-2.892170837856803799e-03
-4.021600707120622648e-03
-4.494022431227556562e-03
-2.308304116565412008e-03
-1.632679360182708473e-04
-3.321999988534224922e-03
-2.792628922060590331e-03
1.096044185002630848e-03
2.514496451448665956e-03
2.896848773448789001e-03
-1.491605899037955207e-03
-7.040723975671041822e-03
-8.034183982503705426e-03
-6.555454239006866871e-03
-2.935544941271308293e-03
1.302719944652389874e-03
4.378180864648415112e-03
2.090744991407039646e-03
-2.447513310946133544e-03
4.497764006092939862e-04
2.475959288678142821e-03
-1.126643461769221907e-03
-1.365005877665224432e-03
2.854036390081287375e-04
-2.049609751170861603e-03
-6.451876168926729861e-03
-3.455811854398968715e-03
4.519399767788037474e-03
6.342718100049919532e-03
6.945675670291389346e-03
7.675949869200304233e-03
4.543882372533142311e-03
1.374768885540910736e-03
-6.750929314111584530e-04
4.424814534832305617e-04
2.439512472675773539e-03
4.528931471706337981e-03
8.450610517913006645e-03
4.811542608509285744e-03
-5.311599835764958723e-04
1.627051895205927634e-03
1.894507231479944723e-03
-4.665440060643661832e-04
-2.942686722159079411e-03
-1.006873867071207294e-03
6.103231447461091377e-03
3.742859157582558837e-03
1.381171426923697397e-04
3.583592386515597333e-03
-1.058541241472216871e-03
-8.000925903622601101e-03
-1.136748932401662228e-02
-1.521586569756049924e-02
-1.251891169672234363e-02
-8.642189111299975954e-03
-5.748379754224207903e-03
-4.633513189474108298e-04
-2.026918114812405192e-03
-2.657438259421774241e-03
1.454080645182622127e-03
-9.635671041156026670e-04
9.865941604910648081e-05
5.364601017576446466e-03
4.446725157035602734e-03
3.393858414358861056e-03
-2.014108976809587124e-04
-3.862475493991271262e-03
3.297469389062856939e-03
9.772921718298625826e-03
7.567884316076192545e-03
4.547994000434024860e-03
8.769073565275960864e-04
-4.522432257974572101e-03
-7.138553139334194095e-03
-3.181343674684248678e-03
6.119694322232358159e-03
9.299972549888223597e-03
2.907861752040664851e-03
1.609529816920153979e-04
-1.434487800168593842e-03
-9.244140678608934319e-03
-1.069167683004662583e-02
-5.460592432272304980e-03
-2.437584722543620439e-03
-5.679676155813578658e-04
-1.330074948955167475e-04
4.326656207035440779e-03
1.335735519665655520e-02
1.858821747394394375e-02
1.828247536701527870e-02
1.094286025189824575e-02
5.460413204830741676e-03
7.346126247823410796e-03
5.292908148064673184e-03
3.795479205893879243e-03
3.660842190094053001e-03
-5.004505629227591276e-03
-1.139131450100873064e-02
-1.325483827163959419e-02
-1.815805506437959474e-02
-1.725551801004886199e-02
-1.058575215480201878e-02
-8.023968312468260713e-03
-8.110668154483175948e-03
-8.496434662260488394e-03
-1.011481993791295275e-02
-7.771650596803354738e-03
-3.775937495297539245e-04
4.518459981850112342e-03
9.674966432218387938e-03
1.451004585071333057e-02
4.795551689434281693e-03
-3.371874549844692745e-03
5.871780892358636691e-03
-7.233988586904088053e-03
-3.944721929576687491e-02
-2.617938172750245568e-02
1.291350231684604451e-02
2.198806162312387513e-02
1.462513784027574121e-02
3.622539126913844158e-03
-4.611332754053658160e-03
1.644750654284747420e-03
5.507306243198914139e-03
5.859331955137419418e-03
8.672818208734346321e-03
1.028936313610301009e-02
1.792922383496969516e-02
2.171765905173902306e-02
1.716156985647035102e-02
1.262088795272832062e-02
6.260842760997952124e-03
3.230120994622516679e-03
-2.387721869098353435e-04
-1.537313051704932874e-03
7.556364186101931051e-03
8.770834051657636424e-03
2.987965411249908238e-03
2.074388293209345618e-03
2.134354869057040072e-04
-5.966427633700156210e-04
-1.124417130699880340e-03
-2.803446090491283106e-03
-6.317535178208696055e-03
-1.573199496555923588e-02
-2.455288941590524562e-02
-2.891677843467948400e-02
-3.005296907200102896e-02
-3.261062161214354355e-02
-3.532642715676294343e-02
-2.801971685614007557e-02
-2.131153666497756158e-02
-2.087818345376427770e-02
-1.300245796828992766e-02
2.009734716501562291e-04
1.423186575806758419e-02
2.936877433823418745e-02
3.810202544908333766e-02
3.665670896986174959e-02
2.749051870587998839e-02
1.501944391496931076e-02
9.872028974106623195e-03
1.398835393059556093e-02
1.666110383097746048e-02
2.272357114709085829e-02
2.088372021495604747e-02
-2.373899865602180272e-03
-8.651920161938391092e-05
2.747216162344126925e-02
2.366267617826309580e-02
9.878846776321191514e-03
7.657053082222569501e-03
-5.636560905207576959e-03
-1.759092666143667258e-02
-1.913329532153329113e-02
-1.862758076064412530e-02
-1.470441832638557690e-02
-1.201563118794240527e-02
-1.406324466276213762e-02
-1.721062139119148085e-02
-1.480075228196269313e-02
-6.113187001205691758e-03
-1.706036373655489980e-03
-2.509756349965124294e-03
1.268887104637356515e-03
1.036357385152550034e-02
1.513431895464113254e-02
1.198740668508162764e-02
8.438102125023421579e-03
4.617513783750345178e-03
-6.221322843094482732e-03
-1.972087574028446103e-02
-2.760008219944943761e-02
-2.973618344340433692e-02
-2.936762645311050135e-02
-2.741262636948661735e-02
-2.605563093121736340e-02
-2.784446965420780962e-02
-2.413231513713285856e-02
-8.752022374754350742e-03
9.563640381141996424e-03
2.826551444086006573e-02
3.645453551321947705e-02
2.337692339018878837e-02
1.292661066714354337e-02
1.340170981110063234e-02
1.498458711126118142e-02
2.511453851121529454e-02
3.698724038320181512e-02
3.876784603139545732e-02
2.896141006156928779e-02
1.848022720288444026e-02
1.796142331668245176e-02
1.494772757098086942e-02
2.365536104855327226e-02
4.610438424030512128e-02
3.835531140350180446e-02
6.279993121804923993e-03
-1.620428341676637476e-02
-1.841709444813252952e-02
-1.662731418428857119e-02
-3.444956700581872783e-02
-4.717070451701431411e-02
-5.365811288522139011e-02
-8.152432531815673178e-02
-1.029629615143148602e-01
-9.654517876142289234e-02
-7.062882491839134191e-02
-3.240237717193218681e-02
3.715208563033063323e-04
1.261715932079308933e-02
2.967435412829336899e-02
8.401802153090140446e-02
1.208369153804536994e-01
9.628909234794609528e-02
5.906892440362582208e-02
2.449959711468588028e-02
-9.463258118499313226e-03
-1.480764148421339840e-02
9.173056498369591000e-03
2.849652543527370768e-02
2.015081848342359719e-02
1.288238258664708806e-02
1.513453583929169101e-02
9.570369893668786987e-03
-8.667576632724568672e-03
-6.089029793135645324e-02
-9.817748172180740251e-02
-9.570339795253768322e-02
-1.155451463080306163e-01
-1.094988886174359521e-01
-5.423105701434732806e-02
-1.161227549153437746e-02
3.599479522595234321e-02
6.858128898403761942e-02
7.443754899214631571e-02
1.008815278953983374e-01
9.280725812933726671e-02
3.209939362950931657e-02
4.955462402730248126e-04
6.982889711135724028e-03
1.645701423477784545e-02
8.067226194995663971e-03
-8.103236923289645899e-03
1.108977258113935833e-02
3.684724297010530392e-02
3.678069650235862159e-02
6.458742763373316598e-02
8.869091117758554077e-02
4.458327278337391453e-02
-3.899409446005450402e-03
-1.559553937516590730e-02
-1.681200338321156215e-02
-3.307938107333537742e-02
-7.156576540083103843e-02
-8.659463519873172865e-02
-1.007145123583971791e-01
-1.524690945974519207e-01
-1.616869147759675274e-01
-1.046472529084067765e-01
-4.856470616917215460e-02
-2.744927190275360182e-02
1.965362369925268901e-02
1.339450739336157659e-01
1.654286678985337489e-01
1.067576108076989383e-01
1.285003912126581327e-01
1.488369903902519442e-01
8.565717272916725800e-02
1.227604838616238106e-02
-6.170981126860810434e-02
-9.513322644081946555e-02
-9.050768915706892959e-02
-9.244338094718340670e-02
-5.847839622983043439e-02
-1.108366723653937290e-03
3.506218721574743541e-02
3.068878000573093887e-02
-2.157197407203126274e-03
-1.149948513387068910e-02
-1.214705171961643314e-02
-9.683212740801239865e-03
4.833547024254571112e-03
-7.422331440890135058e-03
-3.052238860634422582e-02
-3.741561376770500408e-02
-7.722131278227129837e-03
5.122399455231894938e-02
6.629290280440260086e-02
4.288463367108405477e-02
2.459045921591182515e-02
1.303625337603796230e-02
1.046568353027654309e-02
1.178349394923263252e-02
2.594167439481969220e-02
3.638943396785654372e-02
2.698423423819358569e-02
1.296816861878111009e-02
-1.579534699768673014e-02
-2.500277719337502813e-02
-7.884364299930777739e-03
-1.563373515004925357e-02
-2.548016571730571736e-02
-3.166759314853583029e-02
-4.446200659119711740e-02
-4.256995335199493385e-02
-4.490187349982702192e-02
-4.410967244362214851e-02
-2.409863120924298982e-02
-7.824067623688238729e-03
-9.289425374268816269e-04
2.135757621030904066e-03
1.280393928768129574e-02
2.942138027299813496e-02
4.461844349286047534e-02
5.920943207209627274e-02
4.562634901199059956e-02
1.050132676535985542e-02
-8.332441107745074257e-05
4.388738072225118782e-03
-3.451309492934232122e-03
-7.245759736605205704e-03
8.206513217820209918e-04
-2.260719622831232779e-03
-1.270836497708649655e-02
-1.622925105008099500e-02
-1.584357246659545693e-02
-6.631246055328902413e-03
-1.546045787709799096e-03
-5.586950308124897374e-03
-1.252599283461096249e-03
-9.313795384390190397e-04
-4.503104747402049933e-03
-4.502511984882500698e-04
2.038855563408972695e-03
6.125950354829262992e-03
8.666357475164719604e-03
1.034309786284826754e-02
1.578563904554488098e-02
1.033894257215277335e-02
4.370022803088533490e-03
4.314098230355548590e-03
-6.193676782340509605e-04
-3.406577111575772102e-03
-6.965849494007540256e-03
-3.776536156124653612e-03
1.355102070673743506e-04
-2.189848947798515161e-02
-2.785190953007811790e-02
-6.163329577367197181e-04
6.344378929275657636e-03
-7.536038298178566151e-04
2.250570461749863303e-04
-2.243013858485722045e-03
-4.837465443812800740e-03
-3.439407878831466162e-03
4.210305354215933618e-03
1.040251304447641426e-02
4.842876883577665326e-03
1.432017631418773876e-03
2.484519525365191592e-03
1.594863799566831981e-03
1.744638382703988470e-03
-1.459513184450635060e-03
-4.935260371263410113e-03
-4.008695001316322538e-03
-4.800970467952596701e-03
-1.048616740671947430e-03
1.038631871953603000e-02
1.111571559575796030e-02
3.839404384538874088e-03
3.002291284414290978e-03
-2.252184710365672058e-03
-7.146367567043372150e-03
-4.993227428002190368e-03
-8.456758104511302374e-03
-5.209071026015309712e-03
4.319329975443871733e-03
3.149593897289967165e-03
1.349751952961199698e-03
2.211791493925880508e-03
3.083914152972808131e-03
2.415103682851134619e-03
-3.488495874848936227e-03
-4.692279665033852361e-03
-9.352701009286990821e-04
6.400622897951929952e-04
-8.630219670647963550e-04
-3.629084937988075101e-04
5.046315419359777808e-03
4.595164577581909056e-03
1.985014551800952810e-03
-3.443598572946638455e-03
-1.424529970191224133e-02
-8.910123607113544161e-03
-1.571691787104081408e-03
-4.956543969486692201e-03
5.359833884642055402e-04
1.709579384126107791e-03
-4.833738049859371590e-03
-4.252921085762844527e-03
-2.621614480647201702e-03
2.406367530123642868e-03
1.126978226888275363e-02
1.094717336368914752e-02
5.746150168648721289e-04
-9.294735166146294355e-04
9.564029282293835810e-03
1.229736871698376352e-02
1.181775892831926286e-02
9.081181078865801712e-03
-4.180289126118671289e-03
-9.002594707495013143e-03
-5.327157812965885482e-03
-5.982254004995367185e-03
-5.154555902991320507e-03
-1.041543295449833244e-03
3.150041232971802132e-03
3.416360799702801172e-03
4.753436189125587359e-03
5.020610673236805717e-03
-3.902660865784117646e-03
-6.626634989820516519e-03
-3.838410121247092660e-03
-4.964107746597052999e-03
-2.781117495601111416e-03
-1.414210032577507695e-03
2.112158049921414489e-03
7.915431770062411956e-03
5.932991900224855904e-03
2.008824714471257530e-03
-2.858833322727545069e-03
-6.559765755454869188e-03
-3.645495232619943172e-03
-1.519946764588291327e-04
2.446069372274841530e-03
3.571052630129208268e-03
2.107507297159079244e-03
-2.246099134130459876e-03
-7.321000118152634628e-03
-6.158432121558021603e-03
-2.516795532442264813e-03
1.561335363012934232e-03
5.528911762070912519e-03
2.391477238328073782e-03
-3.740217855591934214e-03
-5.910935691760025104e-03
-1.241349092590003688e-03
4.827654452581268268e-03
5.612666479738392770e-03
4.989429505035887329e-03
2.942043704488933533e-04
-3.656969553073576452e-03
-1.695807469170823849e-03
-1.848710926416965430e-03
2.192989241561599072e-03
6.191656854242083563e-03
3.731358604885278742e-03
5.893748682660081110e-03
5.024548482399511171e-03
-7.115592722283640460e-04
-2.516763837890634466e-03
-2.280526788693386809e-03
-5.974807389556372459e-05
-1.171674345437051946e-03
-2.183059318966138005e-03
-1.215363269371426544e-03
-5.766149128008781453e-03
-4.200072789968242737e-03
2.470437159805165869e-03
3.380991692066611341e-03
4.221702808238851634e-03
3.562154189366687797e-03
1.563137898009290633e-05
-3.341930382575318548e-03
-1.762103121975534597e-03
4.982244480375024737e-03
4.484593190929957868e-03
2.141971770678965416e-03
3.126280051890070744e-03
-2.714984540825464854e-03
-7.743428945189892616e-03
-7.733172696366757623e-03
-7.523733053178921666e-03
-6.409344257406145856e-03
-9.929280268724458014e-03
-1.303324142880360470e-02
-6.388482644680017718e-03
2.654344527353392613e-03
9.278565383667475297e-03
1.461089494145977399e-02
1.590195448652829274e-02
1.213523956004061710e-02
4.024437822917743129e-03
-4.204488441169817407e-04
7.141013159105942705e-03
7.296471069866635600e-03
-8.671245222904327976e-03
-9.676827491788216745e-03
1.775926262298787662e-03
-7.666498874492638132e-04
-4.942907292114104463e-03
-4.198829836407490419e-03
-6.927074373668863291e-03
-5.549647378466358513e-03
-8.206517262930993796e-04
1.350573832620090807e-03
2.977137471185060079e-03
3.131479986632479656e-03
2.922767181735153128e-03
3.632041199562891301e-03
1.265317737421314944e-03
-2.497365758479848027e-03
-4.008690366254339006e-03
-8.968253042365309860e-03
-1.266131760136243387e-02
-2.285527625178627922e-03
8.954780097734931985e-03
7.599134784199587656e-03
4.830685427246721002e-03
4.298531269371521149e-03
2.060295294013245355e-03
9.746840340482920391e-04
1.595018033003501538e-03
2.999693324586499930e-03
3.662299428156594316e-03
1.791629113467156555e-03
-1.208436513853469556e-03
5.146729088848032291e-06
8.090662419696579774e-03
9.920472213524581320e-03
-4.033168819733395482e-04
-5.747254631185285713e-03
-4.998146447618041777e-03
-9.042459689392762581e-03
-9.217502811335024152e-03
-3.445819353698374547e-03
-2.413204418219225267e-03
-5.127771715412268207e-03
-6.304124593022419724e-03
-1.440944691777440228e-03
7.383992091133225778e-03
7.612899384906821922e-03
1.806903459994600681e-03
4.547758569669107728e-04
-2.244211973460938890e-03
-7.039634667053790151e-03
-3.650696675386985203e-03
4.745464494309755039e-03
7.580174763720741449e-03
7.330240672103869974e-03
4.725358055324552914e-03
-5.509678530865357374e-03
-8.844202711433822237e-03
-6.808972642151702196e-04
-7.886213917148358985e-04
-1.710325276331576931e-03
4.713318882034763131e-03
4.574920464218101140e-03
3.544328026808440252e-03
2.315248237114620692e-03
-3.133775964013257344e-03
-1.246646806744293673e-03
1.768437346555914752e-04
-1.492312422329918195e-03
2.715906325015563210e-03
1.086811887684763179e-03
-3.166381439144356526e-03
1.592704001033217907e-03
4.905222994723541265e-03
2.186909231698755136e-03
-1.079920611603253124e-03
-2.414897057584840159e-03
-4.068011139832653986e-03
-8.629718676387239384e-03
-7.004651227650744369e-03
1.891630594256337979e-03
3.376493666975730230e-03
-1.274259155797145501e-04
1.045785478299472975e-03
-8.863528643512413787e-04
-5.877683404078149279e-03
-3.164166688532242880e-03
2.485923421364294710e-03
2.600481639507381485e-03
-4.446363643758368929e-04
-9.456607702305739509e-05
4.719222408531346252e-03
6.743081006841220026e-03
7.192203027684680380e-03
9.682233147575795493e-03
7.072541202121749790e-03
6.453992923084021522e-04
-2.892790844658819135e-03
-4.328088505945542307e-03
-4.742812526551246945e-03
-1.786194207693272149e-03
3.845450218181222912e-03
3.998288377097752345e-03
2.003532819040507000e-03
3.110965049537372726e-03
-8.365891741304131010e-04
-3.369258103067636432e-03
-1.410322606652667215e-03
-3.413024182469172763e-03
-1.048944062881284646e-02
-2.858256332836054542e-02
-3.159594032839752736e-02
-1.610596407889712837e-03
1.421198905109816342e-02
1.049789820742550936e-02
1.373797467969322013e-02
9.123470117478627364e-03
3.163103152294124802e-03
4.001508239864591705e-03
-7.790450241611904291e-04
-1.231617820908147837e-03
3.909451059444399475e-03
6.926207442335616249e-03
8.238000100354438832e-03
2.549092792935773663e-03
-4.431375693947605526e-03
-4.090148828519522134e-03
-1.354421521112528530e-03
5.105611410825104538e-04
2.071334465063621815e-04
-3.210285046411081797e-03
-1.032994181455297589e-03
7.436364471889810208e-03
6.540004913299363523e-03
-1.341893114010061410e-03
-3.277394923366714567e-03
-2.489459735645428544e-03
-1.818839508802775349e-03
-3.079284626338162599e-03
-5.100941249151578170e-03
-2.079741335959619901e-03
-3.196503731631597056e-04
-1.516020535543859560e-03
-4.997364811330926504e-04
1.051416345512813134e-03
1.014878400979259869e-03
-2.567725549188822759e-03
-4.037977924921210687e-03
-7.253154049816289920e-04
-1.315141025146271490e-03
-2.202502342313900161e-03
3.427625137674702917e-03
9.945263079168506146e-03
1.125365581055751477e-02
7.373508975384789402e-03
4.518900577594641560e-03
3.099364912380397647e-03
-3.474695398427241153e-03
-8.911385408090928203e-03
-6.296682557794019801e-03
-4.745659489473768103e-03
-3.828416650746491699e-03
5.200151905210703565e-04
-2.394507567552708101e-03
-4.087050149523686893e-03
1.978346245437891983e-03
-1.512095271882619258e-03
-2.859209586858697198e-03
3.499484274667265249e-03
-1.954481016325423752e-03
-4.187901473972888665e-03
2.661630304170075744e-03
3.134886362489278534e-03
4.849263627080381903e-03
7.310361150188607673e-03
4.988916478811775308e-03
2.781808969453224058e-03
-6.057088057481170400e-04
-3.827884750342144902e-03
-4.615237493003886311e-03
-1.986697263921842656e-03
-6.501049616400955515e-04
-4.398730337400080098e-03
-1.139055592130228242e-03
3.708275244946981127e-03
-1.347869250704637626e-03
-3.540353009994987900e-03
-6.882995989522344531e-04
-8.132910102267669732e-04
-3.478167966740752445e-03
-4.905088055108269667e-03
-2.358455257668207704e-03
-5.023815793151916159e-04
2.425015591876793219e-03
9.166382088853562357e-03
1.189599684783007420e-02
8.442084199757875912e-03
3.530776967985376543e-03
1.574180445544657702e-03
-1.605793751171244671e-03
-4.295513551117044297e-03
2.014329824872473744e-03
7.042622204537561485e-03
8.860530320829054438e-03
7.345323085776868204e-03
-5.007255390147099909e-03
-9.832557152003613271e-03
-4.185225220741370378e-03
-1.573318217143367397e-04
1.401913208057669257e-03
-3.604001121725061360e-03
-2.867575365797253844e-03
-8.293393737211581310e-03
-2.773606545875596796e-02
-1.590734687198403288e-02
9.224057916324090306e-03
6.331248596157534186e-03
1.774382130003547770e-03
1.177389981058183299e-03
-4.503516932700749043e-03
-3.287608252722701730e-03
4.496962264565780923e-03
9.013078601145214225e-03
3.593079717402222154e-03
8.192764949841610479e-04
4.782058342505170548e-03
1.474854620278376674e-03
-9.916282457351137218e-04
-9.430680723135381098e-05
-1.853506383489302370e-03
1.021387724346379438e-03
3.256423864615044534e-03
3.769505993644104314e-03
9.612057305326418902e-03
1.101674627780817144e-02
5.133776362245183120e-03
-4.234291214194583239e-05
-5.441635079675350740e-03
-9.751948204062539302e-03
-7.366841955750753554e-03
-2.157755838245518486e-03
-1.172018089232638354e-03
-1.925173809504662596e-03
1.425025176756294400e-03
5.723513592842245298e-03
6.946982066885672331e-03
6.895169036720208075e-03
3.621865126988048703e-03
4.060990220699507822e-04
-2.822047297952495521e-05
-5.611961183568944279e-03
-9.944123399582041958e-03
-8.679501077276767507e-03
-8.120050225830850732e-03
-2.077695974674873425e-03
3.720932514905344202e-03
4.453023212845508109e-03
6.412716187269718558e-03
2.391195036413470802e-03
-2.521452293952018957e-04
2.425380296944476370e-03
-1.898270932607666519e-03
-5.053216132569329777e-03
-6.083476173271135275e-03
-6.644743732717146335e-03
-1.776569232178595989e-03
-4.589294435514139348e-03
-7.923051691444216518e-03
-1.434344428845809715e-03
-3.928372235248252155e-04
-1.663422121446362636e-03
7.935388966580723263e-04
3.078033918822713211e-03
8.271748303371370334e-03
1.022108888982657150e-02
7.368435219489538092e-03
5.787623746338067289e-03
2.829703399710746525e-03
5.008883164619034548e-04
-1.993410032415791552e-03
-6.130750746845556667e-03
-1.269911968111968065e-03
7.454582424314326258e-03
6.043276678549601259e-03
2.526366970525547456e-03
3.215100220649149809e-03
8.855898731523472941e-04
-2.053861021832265737e-03
-9.106147186510419071e-04
3.184695094477030339e-04
-5.886184413245707002e-04
-2.677674779970896576e-03
-3.292626817980272812e-03
-1.794687508695625550e-04
3.235769356733890142e-03
3.860574697548138905e-03
1.431555538971901551e-03
-3.785846062627367531e-03
-5.543764154347748628e-03
-1.756546300552856580e-03
-1.054807752320978355e-03
-3.546359101704171790e-03
-5.784290272749951188e-03
-8.959054152429904785e-03
-7.808925034112635874e-03
-4.418303526281969554e-03
-2.976228778850215691e-03
1.812406386834781785e-03
3.873170469008348649e-03
2.197923645872449337e-03
5.724247986076014261e-03
7.154584191147352577e-03
2.951189068578315231e-03
1.785470956246767689e-03
5.939553244129779086e-03
7.731522109586202313e-03
4.880974656730574057e-04
-6.283404562698471398e-03
-5.007290769961342258e-03
-1.909037537914892464e-03
-2.759973856250239857e-04
8.046126571191568452e-04
8.167718623317615431e-04
-2.403429541035530942e-03
-1.904606485716121497e-03
6.318509395358808990e-03
6.978800921878342174e-03
-9.313126663870640773e-05
-1.609883926198382850e-03
-1.898714653122640737e-03
-6.187634493744579092e-03
-6.997164098978989229e-03
-7.899885688393082708e-05
4.228123917754703261e-03
3.994206049297303364e-03
5.228255696293443271e-03
2.409455465490551937e-03
1.641055288896128795e-04
-3.728487627960734493e-05
-2.171746541524929939e-03
1.898054347549063461e-03
1.624407121353451397e-03
-4.415970653211424152e-03
-9.378757243989500197e-04
2.510046489235069275e-03
3.207262026754986901e-04
-3.903792981950286387e-03
-6.360349791525903365e-03
-3.802632370534407211e-03
-4.272690202296450419e-03
-3.751297602414037282e-03
-3.039655364120579656e-03
-4.487995237528015317e-03
5.128139611160873954e-03
1.104209688229267593e-02
5.700389577561457144e-03
6.375046318571074566e-03
5.284330958324870257e-03
-1.132827379707098542e-03
-3.541335650287855304e-03
-2.555857424348008909e-03
5.931752249732458009e-04
2.947728784671382277e-03
5.787056056215828491e-03
6.365776679278727958e-03
-2.066862356868487925e-03
-7.248635670544544170e-03
-4.372530305005103111e-03
-3.638066381426078785e-03
-2.713021824327653368e-03
-5.569910206228751055e-04
-8.296866546274660019e-04
1.431995722451980761e-03
6.836413567595358252e-03
6.261339129837052882e-03
-2.225494342941127489e-03
-7.627874345217831517e-03
-5.888575617235737407e-03
-3.546651020103161814e-03
-1.844827986687297026e-03
-1.904116073498364427e-04
2.137326762546184339e-03
5.648920087606871393e-03
5.917175798328008079e-03
2.409255124378745488e-03
-2.820448926582922074e-03
-7.425700457124507006e-03
-6.997337482730917047e-03
-5.707428551565240163e-03
-7.194564348734774212e-03
-5.558907523381334016e-03
-1.087100817933637836e-03
3.723698970983944402e-03
1.109908385694574617e-02
1.243071553988505697e-02
3.248107002394159601e-03
-1.976650042808865762e-03
-1.213361926013639073e-03
-2.232763722902170818e-04
2.211211215893951840e-03
1.410168816612590971e-03
4.487172624681928790e-03
1.283627931731910581e-02
1.050935285051893958e-02
2.845806038213095218e-03
-5.587487880330086094e-04
1.953084973034682021e-05
1.559187274528202381e-04
-4.739056557705317863e-03
-3.961181619362116532e-03
-1.987915678361448432e-03
-7.250069224575840174e-03
-7.342333390158909019e-03
1.642154761352738719e-03
1.212870330374968622e-02
1.012411392725981116e-02
4.599090541883161729e-03
-8.930565836672273248e-04
-2.950240428758969108e-02
-3.912055820941654632e-02
-9.487051623324284366e-03
3.200902421572636436e-03
3.631517192404754794e-03
6.699927327326190944e-03
3.887127669378423554e-03
6.423084055171651013e-03
-8.692848865890818338e-05
-6.745482224332384827e-03
2.972635271313109079e-03
2.478145424622133202e-03
-3.859752528259234247e-03
-2.788039678245268944e-04
5.245064812938340579e-03
9.731473357487401693e-03
9.896370466145007830e-03
9.419465300092296628e-03
1.097911538979905871e-02
6.186877486999852252e-03
3.063133549496272054e-04
1.671921235198796677e-03
6.280801956407928901e-04
-5.292237079011097994e-03
-5.441571449452653995e-03
-3.715451951195868421e-03
-4.110148842590344818e-03
-2.466903818446205231e-03
-2.757806255050597628e-03
-2.181789992666609886e-03
1.505666400530068869e-03
6.009649612559175846e-04
-2.093447705023109354e-03
-2.631887980410754172e-03
-2.905329946097214358e-03
-6.551130389826236890e-04
2.570402328325828174e-03
2.954647656564911296e-03
3.684270336941057426e-03
1.778432627326693126e-03
-5.040274255154434009e-03
-4.512413098286872405e-03
3.005896346710163489e-04
2.745807381267982529e-05
1.614880317498425298e-03
3.947062936039069485e-03
4.802837341498545493e-03
2.942719775612282190e-03
-2.152237778972063056e-03
-5.681781865954154635e-04
1.898845821643866576e-03
-1.984637726898455523e-03
-8.997552003456098929e-03
-1.494516057555594218e-02
-7.690944506929061134e-03
3.898772492898476810e-03
7.875909829038138868e-03
9.578411096500592456e-03
5.082499580893527595e-03
-7.574335461612952906e-04
-4.954420081119962488e-03
-8.800892535793929453e-03
-3.661969189534787332e-03
9.565560046969621196e-04
2.917947209699148833e-03
8.407931073488320028e-03
7.392021134757356671e-03
2.299621002704405667e-03
-2.288264115358508693e-04
-8.458445501427806160e-04
-1.065869402225134597e-03
-4.282554309968597712e-03
-5.575165665445788732e-03
-3.736774089802574229e-03
-9.353797100465520084e-04
4.629125592604312403e-03
8.012862575511911500e-03
6.561281142703184743e-03
3.236930299367090421e-03
8.450313693945762277e-04
-1.321854184831156584e-03
-4.158068163468992690e-03
-3.422683073921382185e-03
-8.622497626692116838e-04
2.773508303308948753e-03
6.996144684841355647e-03
2.669099657746643040e-03
-4.027475093255846600e-03
-3.614682529770575203e-03
-1.906472558949096193e-03
-1.252185377601468166e-03
-3.137630193158426079e-03
-5.211307409971402405e-03
-2.418865631814670972e-03
-1.319897091152065494e-03
2.794138917388726880e-04
6.872919193494154630e-03
8.261566550033440370e-03
4.345986575637764485e-03
-1.101083661159139469e-03
-8.433964921919190685e-03
-9.086386827882101530e-03
-5.249428372705692257e-03
-2.886528640787477083e-03
2.614066944303079267e-03
4.368434037687428731e-03
-1.004850678401832380e-03
-1.871862967700293990e-03
1.592467620253093215e-03
4.864539184908202112e-04
-2.353546685388140103e-03
5.233465716434150311e-05
7.870633396240695996e-04
-3.112742658491825676e-03
-1.413240182368329274e-03
3.148128946819963615e-03
6.909701818745222525e-03
1.224523689257459892e-02
1.003200684904857753e-02
2.208880326126342491e-04
-4.707220671920644799e-03
-4.347017246149030741e-03
-5.765713363262492570e-03
-4.891978220668307363e-03
2.033016158201303523e-03
5.262918557659438702e-03
4.379863788054013871e-03
3.181385580484219402e-03
-6.508110599443060838e-04
-1.654898934377835871e-03
-2.983789971397048883e-03
-6.548679430127046786e-03
-4.793069102890785797e-03
-4.503542139296104301e-03
-5.215283324187017754e-03
-9.665470057895622982e-04
2.559848763778060313e-03
5.090950058742277004e-03
6.094882520439362864e-03
4.117415133563255211e-03
1.895263758459297650e-03
9.525566262208940609e-04
2.428577599607915851e-04
-1.797105111546662979e-03
-3.077279455143606436e-04
2.756055402650092398e-03
2.088493180248444069e-03
1.146729761777635741e-03
-2.637999428927656660e-03
-6.007881538226977382e-03
-1.722238567709406896e-03
1.433310874274701385e-03
-2.359101065603593037e-03
-3.990668842212970538e-03
2.963627599688022909e-04
1.680188977038036408e-03
1.537845625203516486e-03
1.936974006410227111e-03
2.158294568886505937e-04
3.057688036657547469e-03
1.517496342001243420e-03
-5.813963888338788931e-03
-3.807982261311309950e-03
-3.405869752352592831e-04
-1.032003952664835127e-04
-1.876005495183104624e-03
-2.285187461137030192e-03
5.436359104189113049e-03
4.326282565819839637e-03
-2.380102058945135057e-03
5.091651996740004325e-04
-3.830879454794327015e-04
-2.257392854592693045e-03
2.269064838923878281e-04
-1.838471644487347329e-03
-3.168862419309618431e-03
-1.668853185747802212e-03
-2.975980869334263787e-04
2.509812801441680969e-03
1.937607848609896645e-04
-5.524139885713758372e-03
-1.494314917093613349e-03
1.506491503485777586e-03
-3.734926828680961482e-03
6.009040336670083953e-04
7.706893003489700966e-03
7.119290633512319333e-03
5.073815737665187363e-03
1.465396283130617795e-03
2.434240905927256230e-03
3.558422528032851272e-03
-2.081917047119227543e-04
3.192282751979804659e-04
1.847155105368954078e-03
2.940867666639726281e-03
4.323694338290861791e-03
5.418481940112372663e-03
5.824972748719534597e-03
2.446409130535082393e-03
-1.417342455185294225e-03
-6.629117051422672019e-03
-2.310292397586438413e-03
6.029328696381058318e-03
1.852125398894378721e-03
1.170904360620470940e-03
-1.257232489087620891e-02
-2.969680788687660208e-02
-1.456157907914321266e-02
-2.296815041522943298e-03
5.407198145814785806e-03
3.177923294372997690e-04
-2.895430943550738809e-02
-1.531766065787791911e-02
1.080698211459560701e-02
4.014098665802266416e-03
9.533818317909692822e-03
1.473524611906213734e-02
9.940314448018430088e-03
9.197901278078233697e-03
3.246155763402933450e-03
-1.180720682030503158e-03
-3.563700730231687559e-03
-1.596590278292497498e-03
1.027356833439659186e-03
2.377203726011461928e-03
1.107343532907852264e-02
1.047388505769516684e-02
5.633813795846077943e-03
3.860085794789329915e-03
-4.930879290184013095e-03
-6.327819699055962574e-03
-3.799193000850494342e-03
-3.954014841660414593e-03
-1.277955431021549559e-04
1.146603554828556958e-03
1.849343309316028774e-03
1.360014528977595335e-03
-2.174610514264833623e-04
2.994094134982336602e-03
2.317859312078156524e-03
-2.056048290158335717e-03
-3.166573465024142674e-03
-6.841527831893875859e-03
-8.658837666578156345e-03
-1.834557455044962546e-04
4.655973578547451149e-03
2.886013546005029157e-03
3.000740588768126271e-03
-1.742970894976077342e-03
-2.675111399858873858e-03
5.313827334048456998e-04
-3.496160430647994588e-03
-2.770765240981404656e-03
-2.051243786441997365e-03
-3.747378663582167074e-03
3.063340903595810488e-04
1.724057972942318702e-03
4.533701664162440546e-03
3.124396749200810102e-03
-2.727744647098240705e-03
1.822291097049690304e-03
3.414153573905396363e-03
-1.105331895675047346e-03
-4.395843252925370724e-03
-5.165664322195322004e-03
-5.515069554229803158e-05
2.224399207915726470e-03
4.284947629605512578e-03
5.089350480469933234e-03
3.752667320965878553e-04
-5.130649095415270883e-04
-3.672467441150733571e-03
-4.946161496179448357e-03
-7.882320938102730648e-04
-2.543444318538820494e-03
-2.412540884302350006e-03
-4.690871754719462485e-04
1.261672588902691076e-03
7.645641424483546299e-03
8.549709326570889209e-03
4.017995663506758984e-03
-2.071230214277043668e-04
-1.849965240830956596e-03
2.222316801269149452e-04
-3.259648955594309601e-04
-3.140957695539679882e-06
1.691245106308750506e-03
-3.718884068463888955e-04
-1.588078724888300789e-03
-3.621208993961321562e-03
-2.910766883959774697e-03
5.469503795879575477e-03
4.779490514604499592e-03
-5.486642388786350244e-03
-6.060315514021090595e-03
-3.776151765910068167e-03
-4.828049699182726529e-03
2.178439951022588755e-04
2.563913775755184178e-03
-9.186318779858344743e-04
-3.685466684302008376e-03
-7.915149553873776500e-03
-7.887939885215855540e-03
-4.697996573863194233e-03
-1.182784647933299716e-04
6.511959811730859068e-03
6.095540581418984992e-03
8.450669396592181901e-03
1.432428503546376644e-02
1.094168199878261735e-02
7.090826813261645253e-03
5.003995557766369347e-03
4.992217978220273196e-03
3.737577899788211561e-03
-4.292740063525537011e-03
-4.600043703767378415e-03
-2.996912374811723338e-03
-6.090309153227834414e-03
-5.377275178582732740e-03
-8.990891148204376709e-03
-1.146662982077031184e-02
-1.027465297131844625e-02
-1.078282173522436722e-02
-2.601405989221509604e-03
5.496275377462083410e-03
6.649610141441738773e-03
8.510785549320909818e-03
8.922070124251675616e-03
1.124861322384168236e-02
1.290571427730377932e-02
8.431777445065383528e-03
6.352101036878388118e-03
6.707918048974477465e-03
3.903092032522851966e-03
2.676973471102336312e-04
-3.889877710658607400e-03
-9.655887790049560646e-03
-1.541763580802631324e-02
-2.027328046467604186e-02
-1.919104997481667352e-02
-1.665909367281248263e-02
-2.128008189775328074e-02
-1.527358693879938244e-02
-9.980995727145907173e-04
4.716775605534265833e-06
3.099232887887937594e-03
1.010927005816396156e-02
1.175204622860821259e-02
1.688400150764202481e-02
1.771142336032450332e-02
1.503133605037649569e-02
1.086146265148362280e-02
2.045634117336637102e-03
-3.779703946607018174e-03
-1.473102075532235072e-02
-1.305003639715722301e-02
