-3.362425053920090664e-03
-1.224862908547088864e-03
1.967766768823350602e-03
3.168062456770313548e-03
5.241054870708847235e-03
5.639907997155171361e-03
7.106863935985046135e-03
3.570732254273772683e-03
-7.918793992296544338e-04
1.943636292792391782e-03
4.605343044953984569e-03
2.007777214750658314e-03
-5.297046297505853853e-03
-9.532526227195303736e-03
-1.141942286030601938e-02
-1.823616961547337711e-02
-2.366673513112853289e-02
-2.181777784525687838e-02
-1.194365817871750196e-02
-1.327446820356276320e-03
4.867517684289918156e-03
1.038184182202074937e-02
1.053368999959908639e-02
9.842899656717635573e-03
1.155331155142770051e-02
8.489502377485590862e-03
7.420918695497908703e-03
6.683501442637499249e-03
3.078408082892566434e-03
3.260974144071452935e-03
3.839261441989819373e-03
5.194944272195076325e-03
6.292361400987231054e-03
3.293470253807883295e-03
-8.190884457601949661e-04
-7.036189521736554986e-03
-1.095010955905298226e-02
-5.824025189962617720e-03
2.172895230394026114e-03
2.488869829276859746e-03
1.095332327957932589e-03
9.024722019513909147e-04
-1.532862228900996188e-02
-2.571008867438044285e-02
-6.913778434277048114e-03
5.284074411681594780e-03
3.851703329419428959e-03
4.488769273000526791e-03
2.852300736022736136e-04
1.484368748567141232e-03
6.676628298556945215e-03
6.769950970248504209e-03
8.419178868855679496e-03
4.560028268951715757e-03
-2.670181098440353295e-03
-4.553759359437528458e-03
-5.583566593205886198e-03
-3.834424779606213692e-03
8.918458458896295514e-04
4.313558959891490401e-03
5.037603793898659359e-03
4.287075649971323725e-03
4.379538121766713560e-03
2.027596301000030455e-03
-1.940941289433922422e-03
-4.499635558678912253e-03
-7.183174209776687844e-03
-9.108275082793644215e-03
-7.957349799450914168e-03
-5.792049097121485402e-04
6.873108193781939448e-03
8.032073664317119360e-03
8.707961967318111202e-03
5.280253812077652029e-03
-2.767357859613686459e-03
-6.377682952774111312e-03
-6.062491953065543733e-03
-1.004631574339887468e-03
3.928214692576616034e-03
3.546174627926348532e-03
3.491773091653330423e-03
6.368606641141695253e-04
-2.030793371754763613e-03
9.813845951184905873e-04
1.517054860704440331e-03
3.059312277228332750e-04
5.132835223668409837e-04
-9.765863368057193725e-04
-4.913694731291365705e-03
-6.371292010203699618e-03
1.203116136955017997e-04
5.202572149294487289e-03
5.062505577473849251e-03
3.015643341770503534e-03
-4.185167373537388574e-03
-6.012361938411557583e-03
-3.955310381529290008e-03
-7.083666975356292875e-03
-3.519134596002473220e-03
2.475267395258556099e-03
4.426241988410129814e-03
5.403651258657399085e-03
-3.891046361572942486e-04
-2.288744027580477940e-03
1.435109967450780245e-03
-1.124787621942048566e-03
-1.589761951815802038e-03
-3.310653990028666785e-04
-8.956509704693656811e-04
1.597951545689559744e-03
1.360239101355785593e-03
1.475785133303238747e-04
2.340696302325940073e-03
2.311222399708588206e-03
7.711629264677338433e-04
6.466450535415187119e-04
-1.666057149746787537e-04
-1.383459447498219764e-03
2.962185562304543712e-05
2.808634843528967119e-03
3.558398355939273658e-03
2.212898845129937855e-03
-8.945667591942219065e-05
-1.593922773558727060e-03
-2.343271794619328739e-03
-2.593493576167045598e-03
-8.567107281462130316e-04
-5.205054172339641664e-04
-3.519808299246663611e-03
-4.084100994602565468e-03
3.239820815622934344e-04
4.339108494911968553e-03
4.943204220671392271e-03
4.155486786650433063e-03
6.887211460825681288e-04
-3.409021111038536798e-03
-3.117980772562379318e-03
-1.756423966118972595e-03
-4.252136141636323006e-04
2.558601191421278759e-03
4.830585633213289182e-03
4.423447384041098024e-03
1.406245855997888218e-04
-2.401136022862587587e-03
-2.191129634431805261e-03
-5.461557758994658486e-03
-5.354495358697898555e-03
-2.259061513194831824e-03
-4.121731210603845133e-03
-3.039006696987049585e-03
6.857345352791480641e-04
1.383344931695566944e-03
4.040282683098074708e-03
4.492506579346536300e-03
3.960484531110224169e-04
-9.932033258413810149e-04
-2.371942240593736487e-03
-3.802766074064328847e-03
3.632515461259016990e-04
3.906077292127614186e-03
4.462148153689875912e-03
5.925124805003654377e-03
3.257297878746999355e-03
-6.392473168961917019e-04
1.046624823423080927e-03
1.103336953373248303e-03
-3.916419562526282693e-04
2.081784319570218096e-03
3.077603698130702164e-04
-4.767365714040781334e-03
-2.562334681712494493e-03
5.910530891096979402e-04
-6.392981891829699120e-04
-1.003058050877962681e-03
-3.430296802107650478e-03
-6.284534168021280523e-03
-4.524199929304752524e-03
-3.481436579950012138e-03
-1.241363784272592500e-03
2.861902529696860528e-03
2.023790101132424621e-03
1.510019502871713919e-03
3.164774689289465322e-03
2.930866259371747891e-03
3.104547409481809607e-03
1.488236386409057949e-03
-8.554179811170123122e-04
-5.794097606163574636e-04
-1.432113040640121526e-03
-1.209856902577679952e-03
2.671906481623733884e-03
5.872129796592170936e-03
5.824799567316115388e-03
2.723748061258966444e-03
-6.930677469850450101e-04
-2.333227581532281748e-03
-3.645073452729965038e-03
-3.564448598945497374e-03
-7.929892178627097723e-04
1.677691620981344072e-03
2.335586477549739942e-03
3.999310973901598100e-04
-3.799630859609574949e-03
-3.833954396333983522e-03
-7.085748132156124805e-04
-1.691017225293540288e-03
-1.105699496527272558e-03
1.605191533041410660e-03
-1.938096685190168322e-03
-3.637954368443508443e-03
2.828627516872793055e-04
9.557267751890173102e-04
2.722087605763772681e-03
5.908166344054798826e-03
1.411676015005863252e-03
-4.434989600236331417e-03
-4.702307332302140853e-03
-3.483380153503321929e-03
-1.553074004646475470e-03
6.700360128588728681e-04
1.483728021414351759e-03
1.795670010590497308e-03
3.277934938376239214e-05
-2.458805369972071747e-03
-1.033036375340574790e-03
7.217352425890914344e-04
-9.013503768047584916e-04
-1.594836874853675481e-03
-9.484077695585455925e-05
1.392515806224455671e-03
3.994347501063913973e-03
6.657571417301388038e-03
7.269573251092955116e-03
7.132664176619079102e-03
3.695862300039432814e-03
-2.511985503207783167e-03
-4.150510258849488335e-03
-3.041875460614682988e-03
-1.482517722548356036e-03
3.507282691905849476e-03
5.371155718630764124e-03
1.382557462836980951e-03
1.107783926311335133e-04
3.050242646599419724e-03
3.222568120147434410e-03
2.688918395632618457e-04
-1.706772368140984991e-03
-1.361340679312730839e-02
-3.041034387706335884e-02
-2.024523580824579699e-02
2.456226831651995689e-03
6.972862325898465143e-03
9.850548119223685381e-03
1.194492281001385478e-02
3.095425131099744515e-03
5.289671900791904306e-06
-6.679859218639864690e-04
-4.070240526910982870e-03
4.140298593999229733e-04
4.616267203675314748e-03
4.027529961850642715e-03
4.545308150674234882e-03
3.789963755606880376e-03
1.506222613947740289e-03
7.225006661618196607e-05
-4.663997692619091550e-04
-1.663849267755302752e-03
-1.950093936123333113e-03
-8.143925249476616657e-04
-2.188995048491390594e-03
-4.220725020399724269e-04
4.061274201513305308e-03
8.997669968329750825e-04
-4.608011660425881915e-03
-5.853983344943310130e-03
-4.100890387200139403e-03
-2.862112059803618644e-03
-5.009274181429598967e-03
-2.021781875227166188e-03
4.992737418629307131e-03
6.756614954674030130e-03
6.120912720067799712e-03
2.239532785617733435e-03
-1.107184227535687546e-03
2.081006590645844995e-03
3.782142453384960273e-03
3.915036077683234188e-03
2.965881313756470097e-03
-3.839574902286470044e-03
-7.116921993848435851e-03
-1.623299477005886535e-03
4.151401488605965459e-03
5.215582525391084662e-03
3.631644153833150923e-03
1.815634447404797019e-03
-5.415725616640191522e-04
-4.028802768602091425e-03
-7.534337522810208645e-03
-4.784620928097498872e-03
1.147899532074850727e-03
-2.016542611120464203e-03
-3.240176744875219658e-03
4.448398330594745265e-03
4.210650095740594082e-03
-2.401288844844217275e-04
-1.627632319053617460e-03
-5.459352341973740773e-03
-4.716429317805707379e-03
-2.186623221856425544e-03
-4.940579118108245037e-03
-3.120729789693606551e-03
2.521401859947908393e-03
4.555056342894345765e-03
4.334108407710311403e-03
2.784382139501795275e-03
2.066839608990857745e-03
1.852039423404783875e-03
9.151074961319982963e-04
6.908994624682337658e-04
7.312386830374895726e-04
1.827769222960047915e-03
3.993081181100528992e-04
-3.771279763976876764e-03
-4.066345494268757722e-03
-3.997305073610828846e-03
-3.123895146465874382e-03
1.700541438916819198e-03
1.598432962511869360e-03
-2.617887438811810838e-03
-3.794101852756651995e-03
-2.322751795811581199e-03
2.706738774741050159e-03
8.285443229194541792e-03
7.959310839431556206e-03
3.787345183201865691e-03
2.970518941856121640e-04
-4.514663765326775401e-03
-7.941291780890541094e-03
-2.598902631267755673e-03
5.366044390936587291e-03
7.269025217563561056e-03
6.127073805949405545e-03
6.352006350536905377e-03
6.285321836232270025e-03
2.944512041942493139e-03
9.443695889885707221e-04
7.440128050066761780e-04
-2.628152792319065744e-03
-5.051522828903784283e-03
-5.256144861397273743e-03
-3.279952308308947857e-03
1.343983785684016528e-03
3.107463181521177408e-03
1.949522278497466815e-03
-3.589892385839576344e-03
-1.057880410837771373e-02
-1.076769779168731608e-02
-9.264438524424954691e-03
-8.576248355077455143e-03
-8.966064102150840889e-03
-8.534826327008419172e-03
9.584879567086288226e-04
7.407238868434195232e-03
2.866532210793865630e-03
-4.433613143527933881e-04
-2.151980020484094841e-03
-1.759592304982891082e-03
4.005935295073139932e-03
5.129109473411059238e-03
2.354817287211416043e-03
6.995373574312529867e-03
1.021041259811696945e-02
6.624970715605335396e-03
8.396294515689349189e-03
7.549402530609670980e-03
-3.381978962291194973e-04
-1.919873422251508824e-03
-1.962892575383564514e-03
-9.667567832147596881e-04
4.355867869024390021e-03
5.096857075966521045e-03
3.679374483347962362e-03
1.359497510264538614e-03
-3.387967445967272635e-03
-5.996274743564622423e-03
-5.872336841137641011e-03
-2.361796217939365547e-03
-1.484573922009385606e-04
-2.059584288072192123e-03
-4.064596219606222277e-03
-5.057420923775680054e-03
-1.607015819014016595e-03
3.901402427392624758e-03
6.285130011597289852e-03
5.288322833747434622e-03
1.114026246270116878e-03
-2.539843669457335015e-03
-6.980819719191113000e-03
-8.155533403665786094e-03
-2.451387817230238093e-03
-1.959447406923949843e-03
-5.382057739503913387e-04
6.449178569752534937e-03
2.361812333985355890e-03
-5.521545672577807783e-03
-5.178845296779987367e-03
-3.871490751385230945e-03
-4.597973054509420406e-03
-7.093012945487087162e-03
-7.605767508861738593e-03
6.622306265271594517e-04
1.315331384530702905e-02
1.961624922920333566e-02
1.926499885745896687e-02
1.420633495694034569e-02
3.255619644389421558e-03
-7.415609209153728280e-03
-1.297342425619714412e-02
-1.400073598203020395e-02
-9.113887944433313876e-03
-5.276706737170355939e-03
-5.223323711095849940e-03
-1.068433164528343133e-03
9.176216685942359397e-03
1.945690227829668592e-02
1.206293302699005567e-02
-1.162768902627829733e-02
-2.159078646389938141e-02
-1.256953720173457911e-02
3.259107013201013869e-04
3.195976546754338531e-03
-7.880118439869977440e-03
-7.068741763385332291e-03
8.229497874775676056e-03
7.258436699726819076e-03
-1.015790419383972090e-02
-2.497094563595732633e-02
-1.946316008794570299e-02
7.700614572964902677e-03
2.850689841380777897e-02
3.390319050032517684e-02
3.321969642776759213e-02
2.610569100589818503e-02
1.521163359281238990e-02
1.279399369941892515e-03
-8.828582116092650867e-03
-1.024709925820114012e-02
-1.265903774990149999e-02
-1.132365857220859855e-02
-4.352927767985225252e-03
8.198055890256283505e-04
5.986526429822929679e-03
-1.414294034035394262e-03
-1.660450468007318436e-02
-1.205028902337554331e-02
1.520975706040639621e-04
1.213496344771741210e-03
-5.568045055871380638e-04
-6.024421952237467986e-04
2.960442294332102722e-03
6.776440127246996688e-03
2.871293268645216772e-03
-2.220412729973039213e-03
-2.064887184990714646e-03
-2.983833887219607215e-03
-6.869388059948361089e-03
-7.818273532116870247e-03
-7.386861751318125544e-03
-8.758704500156120482e-03
-6.432024817896446478e-03
1.126658677412077821e-03
6.785933656049051091e-03
3.716421753005299308e-03
-3.008394283674750962e-03
-1.865056619505542270e-03
2.491666405490965477e-03
9.167163386126303765e-04
-2.691971045292556632e-03
-3.259284899629654505e-03
1.374990829325021125e-04
5.370883019854214534e-03
2.706370870958871040e-03
-1.503287653931388926e-02
-2.619443348364589030e-02
-9.082294759045695526e-03
1.450673455444894018e-02
2.404129165643267493e-02
2.079126297908057142e-02
6.982506017302284908e-03
1.809830957300896388e-04
5.963622249155075064e-03
5.157853471273821620e-03
-3.646567486755320810e-03
-7.140706785323103559e-03
-6.611376225993874194e-03
-3.027791185407060527e-03
1.816471001232055835e-02
3.773249770991951579e-02
3.067493470285483775e-02
1.863366282137301350e-02
-5.677181498692869012e-03
-2.778269351083668959e-02
-1.929747850246428379e-04
1.135854129220233849e-02
-2.563104251044043963e-02
-3.099162606328920849e-02
-8.599457726533447574e-03
4.908585663140358629e-03
1.558282604360554900e-02
8.393858045744377605e-03
-1.185759728053834873e-02
-1.857188705475568136e-02
-6.320433588175873758e-03
7.766652594530694398e-03
-1.292907147041973256e-03
-2.113084218289048438e-02
-2.327335887298473058e-02
-1.656280763591988156e-02
-1.551559327813387644e-02
-1.112699263213763612e-02
1.848281707955241264e-04
6.853280311630573565e-03
6.872102765091429172e-03
8.010553474732633530e-03
9.296998325591760912e-03
6.748113099787816059e-03
5.582439755737139339e-03
6.722160767363192548e-03
2.571300581839636255e-03
2.680771244051179092e-04
9.504991696059082729e-03
1.907226082839948850e-02
1.849215495354098945e-02
1.214561459475108941e-02
6.691575501173168891e-03
2.457713237085836465e-03
-2.282623144268021258e-03
-5.949184272974533325e-03
-6.390528314955420605e-03
-2.288521523373318167e-03
-1.324056531499730183e-03
-9.512307252788997428e-03
-1.327778813282302212e-02
-6.656902636816143352e-03
-1.522696813480735063e-03
-2.888631596741763653e-03
-5.208079487686851847e-03
-2.076508375780605764e-03
2.199315518630536818e-03
4.746696557218465498e-04
-5.618985238470496069e-05
6.142011832745407525e-03
8.282341723622979601e-03
2.239885022716341881e-03
9.919092261193251069e-04
5.002032084922727710e-03
2.466650377228811475e-03
-3.897803479063884080e-03
-5.847492514111749841e-03
4.076651092171517960e-04
1.120098489220783256e-02
1.507955227694236962e-02
1.089292852162862014e-02
2.950763064191064700e-03
-6.488306776505738289e-03
-1.234446768955259864e-02
-1.412023536314514077e-02
-8.116902762906432964e-03
3.431999724296848440e-03
3.023879614272305914e-03
-6.983428224749266798e-03
-1.174999046514296937e-02
-1.207950634542399176e-02
-8.181932173724202825e-03
-4.294608874903882954e-03
-7.080853754418007899e-03
-6.690072053905956120e-03
-4.027808264907785829e-04
3.825886314328450551e-03
6.580270018549827515e-03
1.019180052420285906e-02
1.354779705421307878e-02
1.156715369478508899e-02
7.595962432859387596e-03
7.397153261110091076e-03
-4.106148608047694879e-04
-1.321968476589156088e-02
-1.422384111381098416e-02
-7.159954864654699894e-03
-1.181878948069456630e-03
3.889223344670472097e-03
9.300031559182433266e-03
8.998700532123732332e-03
2.843830008575340407e-03
2.987320019796718424e-03
4.731639153407493463e-03
1.380013564809115523e-03
-1.967998093290450768e-03
-6.565349690658173719e-03
-4.524984212675831063e-03
4.777152302122450976e-03
7.203756005988820946e-03
5.149092529057062127e-03
2.613673011745907583e-03
1.419068701146216499e-04
2.148722844402787158e-04
-2.074835755493025587e-04
-1.308434913871919575e-03
-3.138863060610431154e-03
-4.372470903935475779e-03
-2.561089920655694376e-03
3.236263269337714044e-05
1.048690061868341955e-03
-8.092484965398693761e-04
-2.691874110540668115e-03
-4.602671761350337828e-03
-5.992019060346747035e-03
-3.954096862787608545e-03
-3.666927688171046570e-03
-1.208692870819238043e-03
4.013994374135680665e-03
2.848174910553763223e-03
9.892542623027575973e-04
-3.176647738640249984e-04
-2.575452666291348693e-03
-1.488739612202179133e-03
-8.107811261672021215e-04
-1.590261289290438107e-03
-3.757629904715748242e-03
-5.217998314488997078e-03
-2.718748193169819981e-03
2.485561879768477533e-03
1.125010261381246233e-02
1.511960940628634051e-02
8.650738602308020997e-03
9.084906243536069797e-05
-3.534248876599465142e-03
-5.241218064396149616e-04
1.187305498866578950e-03
1.770650931472730026e-03
3.626637839893642745e-03
4.771158147505614121e-04
2.134224662746297914e-05
1.982801544443527336e-03
-3.750867894157118424e-06
6.155972328311931901e-04
6.491366213511765926e-04
-3.862758725194609648e-03
-8.590671953177926590e-03
-6.036440487977311024e-03
1.464078808843590146e-03
7.920015562627995710e-04
-1.660441067208745427e-03
1.460814176156201988e-03
4.666791520164702972e-03
3.954999281031603212e-03
-7.877538063708805277e-04
-5.940393547084988832e-03
-1.925992392158904984e-02
-2.540820050692919191e-02
-5.384859497032620443e-03
9.119705368834963091e-03
1.041689164514316215e-02
1.142070535889835523e-02
4.389262056221924363e-03
1.026056657101849946e-03
1.153760458791954283e-03
-2.399470447717918630e-03
-2.301969312620977671e-04
2.882664509605102534e-03
4.424050414806528220e-03
6.249028232012143226e-03
8.062549164578580382e-03
7.186169911564121993e-03
-8.125801583855943831e-04
-3.078949640129534544e-03
-5.288256938992043918e-05
-3.940040462920000632e-03
-6.292758981177540983e-03
-2.375706068770912574e-03
2.235040193720574941e-03
2.698963478500654000e-03
3.673336956743062081e-04
-7.730072454482600584e-04
-3.216562654820363364e-03
-4.197261161720418181e-03
-2.311064551510012832e-03
-8.978991639624031877e-04
-6.658537421431531074e-05
-2.578876178013227768e-03
-5.246588000048501080e-03
-2.155765509843811725e-03
3.704097183026682730e-03
6.365880619326564835e-03
3.654165039793024795e-03
-2.798185558576141521e-04
-1.766211646760898479e-03
-1.411604340175719521e-03
-8.813763062847287119e-04
1.259673799943774632e-03
5.622931652911685937e-03
5.443976090314415345e-03
1.814587670772200255e-03
1.933382544507142265e-03
2.308865227062265046e-03
-1.389006422335581576e-03
-4.834799869185659078e-03
-3.610751247629130894e-03
-3.140234008800183232e-03
-6.130928747032058507e-03
-6.584585788834152083e-03
-3.746217679918249343e-03
1.755056703627011321e-03
5.280888839228294572e-03
2.388933361874577381e-03
-4.775183850207767805e-05
2.433872049637402001e-04
4.195066278038874267e-04
3.378637405606529356e-04
1.943963361358307367e-03
2.434228711984694378e-03
-3.257568659361369072e-03
-4.593263435097878940e-03
-2.034703293140874541e-03
-4.434653024163911529e-03
-6.226888898919760110e-04
5.950104725083068570e-03
5.313329279243742161e-03
2.606975579598404084e-03
-5.071426840713626292e-04
-9.816558303776948876e-04
-6.410587652962655009e-04
-5.410649783304868898e-04
3.442231101694548205e-03
6.183527073279035911e-03
5.743280166192735701e-03
-8.456725203975973054e-04
-9.579596508879000688e-03
-6.539934565150771519e-03
1.362982473468884103e-03
4.784728042019273722e-03
5.336023479728094557e-03
4.686272103259434864e-03
3.981461582295740646e-03
-5.034081105488570716e-04
-3.804626520459376306e-03
-3.540008160450956644e-03
-4.388320589475747102e-03
-3.416858953232947051e-03
-5.897801687924391321e-03
-7.434618246833319018e-03
-7.982626152253525370e-04
5.199656688062938206e-04
1.124697080225851647e-04
3.433895364081515546e-03
7.119505499969348622e-04
-2.996185320034246667e-03
-3.982667317116706657e-03
-2.549065380119534905e-03
3.033676579277381179e-03
5.357646514974031063e-03
5.915428630115711697e-03
9.088550583886507647e-03
7.739433849152462311e-03
2.080200030725266880e-03
-6.172692386842017860e-04
5.533083447739013455e-04
1.756770428628828340e-03
-2.707198019730777845e-04
-3.135745346512332395e-03
-3.229607224138253321e-03
-1.881754964719064638e-03
8.069955249630753101e-04
3.692288386417770778e-03
2.553145316952622722e-03
-3.600428449142050943e-04
-2.230501688572770168e-03
-4.316949569423378721e-03
-4.776572172008525241e-03
-1.508630143924361098e-03
1.341417402067578580e-03
-2.632184672978422641e-03
-6.506982758848499360e-03
-1.991017664304868800e-03
-3.720548359272110497e-04
-4.350949108976276576e-03
-4.515316728544383797e-03
-3.943757260468265004e-03
-3.360871587017863222e-03
-2.359796270359964393e-03
-3.284943852339964471e-03
-8.214978728848794202e-04
2.955914239142361753e-03
4.327327437351602586e-03
5.841288221106683345e-03
5.611822626269320942e-03
4.100544747402108323e-03
1.803850767008873587e-03
2.008234389794547406e-04
3.030762061771690840e-03
5.306321685280133114e-03
6.845709080344849866e-03
1.022136963040455246e-02
9.075799069487784296e-03
4.189973146809943157e-03
6.335251208438363651e-04
-1.562383067817082116e-03
-2.470840605517127513e-03
-3.503443014175899352e-03
-5.735089716342356599e-03
-6.497426500058973986e-03
-4.184366398032535010e-03
-4.540582999989783292e-03
-6.112676603897516242e-03
-2.269496259975707815e-03
-3.076242185584591397e-03
-9.407556501764892734e-03
-1.101533354685624820e-02
-1.017086061357868124e-02
-3.422357725660616669e-03
5.083484648029218053e-03
7.158773892855059204e-03
1.207846990365568640e-02
1.542368372022417597e-02
1.442996795460172246e-02
1.991965290484109391e-02
2.218103211701119917e-02
1.059670259725209104e-02
-5.606045422397064847e-03
-1.368359146301146960e-02
-1.255005986593539513e-02
-8.371906335230596893e-03
-3.005667752803158847e-03
-6.868247550568511856e-04
-2.207836251061529552e-03
-3.121185919420654039e-03
-7.197031430211309395e-05
5.931962112335514847e-03
1.017275023525747316e-03
-1.214751910180146555e-02
-1.739207056735694520e-02
-1.989327815857095533e-02
-2.109972795525829128e-02
-1.751077420269828155e-02
-1.593839456327576787e-02
-1.591578379793354842e-02
-1.280263494716657631e-02
-3.791414973786628052e-03
1.011720676877279207e-02
1.624385520234113492e-02
5.891712674423201651e-03
1.891233643111433875e-03
2.010241924618566198e-02
3.075493586335448226e-02
2.472948978704920392e-02
1.875690310568409527e-02
1.069502439347219148e-02
7.063566311035970706e-03
1.103637441623172254e-02
1.611093631140324972e-02
2.024052208045800175e-02
1.839205469953376915e-02
1.419607671246174256e-02
-1.138510070899985665e-03
-2.001401139671737245e-02
-1.135032354133555521e-02
9.628180235396860930e-04
-4.383309737934960697e-03
-7.698289655296714981e-03
-1.023522751324427993e-02
-1.404999520769498016e-02
-1.422147564071348305e-02
-9.223598666934285095e-03
-1.068585972858072247e-03
-1.948393761534850783e-04
-3.944568972793667527e-03
-1.130053381234013242e-02
-2.069769837375531885e-02
-2.088672328669481312e-02
-1.639540493702904000e-02
-1.118804142293699892e-02
-8.755093059446562506e-03
-1.352240996360237757e-02
-1.544086659185092518e-02
-1.209664277695218434e-02
-3.989837793445070481e-03
9.062742213132968239e-03
1.968746235806662775e-02
2.459321003074255510e-02
2.220522980160336349e-02
1.971767547950771526e-02
2.152877009966907423e-02
1.890551628882530810e-02
1.263873313906538516e-02
6.493136504367975383e-03
2.882139112977453923e-03
1.703686813749582521e-03
-1.504095154434907568e-03
-2.435709258369201345e-03
-1.416146691297040299e-03
4.645808209325913559e-04
4.997034003355499063e-03
5.885927195476889015e-03
5.989319294144933130e-03
5.538585751461254716e-03
1.735277280034876928e-03
-8.362457307586892378e-04
-7.628790491875312926e-03
-1.438895166129941332e-02
-1.660250754329996997e-02
-1.950500200454926766e-02
-1.448057661974577748e-02
-9.363197130799621321e-03
-1.114576522838220396e-02
-6.043125252582015952e-03
-1.909059382162576601e-03
-3.515598966893670151e-03
-9.246943422432535873e-04
6.000190583396359731e-03
1.382963207734939221e-02
1.578187681177757942e-02
1.499061416552234689e-02
1.290299744320983280e-02
4.881232100535506241e-03
3.273734039792509064e-03
5.502364238876089955e-03
2.859907406538375520e-03
3.956864337762729285e-03
4.831334088377877561e-03
3.148067624121552669e-03
3.042730960315837051e-04
-2.787686940944948850e-03
3.005872126959514661e-03
5.372178967910662233e-03
-3.717547267549163679e-03
-1.245425370241928266e-02
-2.165133860991666839e-02
-2.689593429314840814e-02
-2.441454316769184688e-02
-1.928732461047070676e-02
-1.141304569165512914e-02
-5.037165570242919423e-03
6.332204177164050922e-03
2.586406717287126691e-02
3.928762263227647544e-02
4.501802632061690373e-02
4.405826844222690553e-02
3.821787867887113666e-02
3.229149039790843445e-02
2.105773385285635360e-02
6.594825762815610497e-03
-4.729565307047381255e-03
-1.012849803543131900e-02
-1.319679056192226210e-02
-1.903948176975943721e-02
-1.727922722346300274e-02
-1.324193360061383558e-02
-2.156258606775279460e-02
-2.922256625237097324e-02
-2.837179066827992882e-02
-2.258727569364965895e-02
-1.351763430979475988e-02
-6.325336481558089391e-03
-2.384042914945687743e-04
3.781855320064679820e-03
2.309188441499989124e-03
-5.503925420008194680e-03
-1.073047953795691276e-02
-1.009892950811547632e-02
-2.892763970447804339e-02
-5.866697730800445043e-02
-6.576079667447502775e-02
-5.705923877685033230e-02
-3.720234946464025944e-02
-7.893272088371393325e-03
1.653587460634681205e-02
3.230368765272710607e-02
3.415251821067590010e-02
2.437598353396256204e-02
1.894289354773435671e-02
2.730137149789369638e-02
3.403471660381674618e-02
3.009843312588436626e-02
3.582554894516412625e-02
3.935857016959339039e-02
3.336889682204931262e-02
3.808269315683220774e-02
3.392084281885455327e-02
2.061190273228872410e-02
1.960787574927565918e-02
2.243484408385885628e-02
1.834199192419937521e-02
3.031137667264713256e-03
-6.443385603924105427e-03
-3.124080302456593624e-03
7.598129979909021454e-03
2.491833153416586275e-02
3.970601001717900813e-02
7.278304887085371155e-02
9.069573858102299158e-02
5.401480480763036496e-02
1.226394751686217359e-02
-4.991906767443698295e-02
-1.171016169108333588e-01
-1.330295212311545239e-01
-1.349189921700962302e-01
-9.614583656019339009e-02
-3.509296978498681330e-02
-4.541457184536687453e-02
-8.492101237265330116e-02
-6.829733421399378224e-02
3.357825811897213047e-02
9.331077791640429719e-02
8.760754444411900446e-03
-5.506616766236280963e-02
-2.771630639562513293e-02
2.083918707711196819e-02
7.178878226644953842e-02
6.652324050698692204e-02
2.661132807186025392e-02
-1.811415694038772187e-02
-9.964811236855591892e-02
-1.374365465577408740e-01
-1.124155228653829081e-01
-1.146578787019550127e-01
-1.195818542213909624e-01
-3.264940180084200533e-02
1.154298744841351643e-01
2.117604461273054350e-01
2.666275856507605568e-01
2.766274805800264525e-01
1.613271543692145205e-01
1.733701650377227413e-02
-4.637356660891225196e-02
-7.924416528381436620e-02
-8.870771953693645795e-02
-5.892181654752184916e-02
-2.167870630265042800e-02
3.364968858413732583e-02
1.117349983019573501e-01
1.469827751462622623e-01
1.258037902189474144e-01
9.072958852183116152e-02
1.924638890244494832e-02
-6.779675802551309027e-02
-9.413956121049710246e-02
-8.559548480582722385e-02
-7.916601792117358705e-02
-6.869805722073171750e-02
-6.682642497546412153e-02
-6.705180228337334625e-02
-6.797327020585376689e-02
-7.852990266805327801e-02
-9.612800643851869553e-02
-1.127654133681427889e-01
-6.687840524022814481e-02
4.346984460446086385e-02
8.936353908580993433e-02
4.049554926804336402e-02
-2.082155177298952459e-03
2.235231328847685477e-03
2.704567369399097157e-02
3.685762404307192652e-02
1.809733834514935802e-02
2.074663903758372421e-03
3.343047641783180885e-03
6.066185471284234708e-03
1.005537323577551830e-02
1.661807691805304923e-02
2.193775474690150620e-02
2.861062583317224364e-02
3.187466893450814631e-02
2.072802537547715693e-02
3.122540852616611465e-03
-3.525110153234469954e-03
-9.367396337147060326e-03
-2.495757836606895749e-02
-3.675570256147532577e-02
-3.621978748378121282e-02
-2.416923175668459281e-02
-1.009546562685374564e-02
-1.059522832410780520e-03
8.447084405357697598e-03
1.512451905356941399e-02
2.071121333638880832e-02
3.215432734526239150e-02
3.936348612665666741e-02
3.941047028738483421e-02
3.912580763014967405e-02
3.868198992929101909e-02
3.050447342788924904e-02
7.982764662237943135e-03
-1.098343814784831854e-02
-1.132034950872650575e-02
-6.322626549355869416e-03
-5.888607355973661701e-03
-9.195429559380675216e-03
-9.952556863823288497e-03
-8.565082418586160429e-03
-1.137722897133241519e-02
-8.808122626643375905e-03
-8.532938659692455071e-04
5.301421876411723964e-04
-1.906251963425715807e-03
-8.587000563994719865e-03
-1.716389042636475362e-02
-1.538862865299457303e-02
-9.844099188338405887e-03
-1.038688442660782273e-02
-1.257690075986564113e-02
-1.678181242553277580e-02
-1.825741348925906046e-02
-9.292025891073146457e-03
-1.378565048842245785e-03
2.037699699944102265e-03
5.967321841884128640e-03
3.323973975687133982e-03
2.112214004937973486e-04
5.404646724370492337e-04
-1.556745317686643705e-03
2.206634834268812739e-03
6.958546783433367140e-03
5.711490992491815785e-03
5.877410167190579536e-03
4.894574888192937227e-03
3.630466644202559080e-03
7.103914094099500563e-04
-6.098987723188262038e-03
-5.304875059089461317e-03
-1.855359849506989928e-03
-4.207262725690246417e-03
-5.764820461494546064e-03
-2.502928464758062081e-03
3.934599543765167004e-03
4.148001358478335676e-03
-1.727311061701028005e-03
-4.201128598806736121e-03
-4.166214272550540845e-03
-4.162632969685527498e-03
-4.579792836995317737e-03
-6.026147296412257080e-04
7.165656570388517950e-03
7.349818756901280517e-03
6.182289200095822390e-03
1.085022975877918648e-02
1.177718317456523389e-02
1.016449246322107501e-02
1.178053184637222264e-02
1.260449888870468146e-02
9.478801647496398752e-03
3.517964092208272428e-03
-7.134088892169233040e-04
2.304007050416119961e-04
3.103165361396549148e-03
4.043010384011790775e-03
1.641477712743313932e-03
-2.979098736445526426e-03
-5.257056256034507366e-03
-6.354903450292771240e-03
-7.758150862420988905e-03
-6.636803788517347917e-03
-6.147521252847387534e-03
-5.018712671726825898e-03
-3.542481135651306262e-03
-8.114412117973987884e-03
-1.061284291882778029e-02
-7.577388371237396732e-03
-5.694333643314072359e-03
-5.346920324204335918e-03
-7.889801723739327255e-03
-7.860219429165857252e-03
-3.237357667962364408e-03
-1.615939933020679427e-03
-1.239164723271976012e-03
3.138944542117814139e-04
2.923882868211975013e-03
2.992714690802457389e-03
1.255923706109911145e-04
1.632478840166492291e-03
2.260644937705749008e-03
3.231968191076602884e-03
8.191669842298588897e-03
7.386052051815530754e-03
6.173256348126660541e-03
5.445071469058917688e-03
2.787140285143761050e-03
5.153714018272564229e-03
1.870314765858825234e-03
-3.568333064779233982e-03
-9.721134076891165508e-04
-1.774487008027197336e-03
-2.327719629001780144e-03
1.110695374393530152e-03
3.620612575065701270e-03
8.994150530751731862e-03
9.687654639971586545e-03
3.164063869412230088e-03
-3.817140386023796595e-04
-2.112452659698898713e-03
-4.588617140929766684e-03
-3.901736253754462154e-03
-4.031317906891701032e-04
8.828688727412705058e-04
6.583937525526303836e-05
1.858699807776426592e-04
-2.151069721837162445e-04
-1.100434410951156745e-03
-2.414766420939527640e-03
-4.540407300496796493e-03
-4.581652556438578668e-03
-2.738136044688712321e-03
-1.065606830522069061e-03
4.920932322419820266e-04
3.022498654326247463e-03
5.667643249200849179e-03
4.935862960498845452e-03
2.046109621410067449e-03
1.043416232201509891e-03
3.573436460405632602e-04
-6.206209103219006550e-04
2.032703420249721595e-03
3.373903172257692196e-03
-4.464631717157348093e-04
-3.759484238562571935e-04
1.958982058426875271e-04
-4.031907359964429297e-03
-4.056256186899282780e-03
-2.924710613384323438e-03
-4.119435452984765433e-03
-3.639509454148938481e-03
-4.638489085231633363e-03
-5.870837164139562463e-03
-4.698126210817402983e-03
-3.025963475479570217e-04
4.148527926031060804e-03
1.409280313160997519e-03
-1.922299948104285762e-03
-2.378067334949955994e-03
-5.955061606306029029e-03
-6.483661998422562446e-03
-9.041767917928914770e-04
2.135767406013734139e-03
1.534462740922906254e-03
2.671312748703811527e-03
3.046266740468823574e-03
2.625325113818094023e-04
-4.980931777824979412e-04
2.679741308327437174e-03
7.084636712089356289e-03
7.001709385439583086e-03
1.997471644525208607e-03
-3.685329703875416983e-06
2.764465789907438742e-03
7.163737071480249553e-03
9.412041030922933815e-03
8.431404066614960058e-03
4.534007311894074424e-03
-1.422306629712561093e-03
-1.258420025713668936e-03
2.349454319446697779e-04
-2.230153963766263320e-03
-4.924366200162113997e-04
-7.432773979482879890e-06
3.115648369257328324e-04
2.086346241001557026e-03
-1.943679901830486613e-03
-2.671316651470787441e-03
-4.233666678618346925e-03
-7.163631856413505382e-03
-1.473291052577726514e-03
-1.392781361768797048e-03
-3.452770023295364307e-03
-3.086143853966443634e-04
-3.499489770341903273e-03
-1.102842127491597372e-02
-2.058194155203540640e-02
-2.064657580924384936e-02
-5.982082743503334965e-03
2.664985218113072665e-03
4.447149240143222215e-03
6.373152269595480472e-03
6.828486152938250536e-03
8.775008181334295609e-03
9.275690615620337323e-03
7.914882582023115287e-03
4.717633812656865135e-03
-1.412446843977510419e-05
-1.153790446553721406e-04
8.534429069389222293e-04
7.505051998117257569e-05
-3.959506193814787793e-04
-1.387312112923407958e-03
1.551341857160062248e-03
6.532444753386659579e-03
8.119800324399004121e-03
9.802462435120548601e-03
6.128365664478834136e-03
-3.511370987579410380e-03
-4.406156179253955044e-03
-1.416502377130166327e-03
-9.509552782567638404e-04
3.581129916805243871e-03
3.250861890012550059e-03
-8.809988450480647510e-04
-1.557582586357973958e-03
-6.076466450036662435e-03
-7.445731161208632952e-03
-4.814894071116704657e-03
-5.098650710958025668e-03
-2.790840800665269923e-03
-2.417328171397361419e-03
-2.442173616812402543e-03
1.677418709730830928e-03
4.432311306375068954e-03
7.392149280235823898e-03
6.075847795903951791e-03
1.848743846570301622e-03
-9.414241084541442699e-04
-9.315758309402018267e-03
-1.336071576658765490e-02
-7.215612506432389668e-03
-5.427660976210778613e-04
2.485967539408874289e-03
-9.609018274564255432e-04
-2.681018932313029152e-03
3.892141345243139202e-03
1.090851504875170117e-02
8.534886889448169839e-03
-3.334453072556132786e-03
-6.484352044817681335e-03
-1.607033587216420353e-03
-3.364169184176396977e-03
-1.152213339383966915e-03
4.741498700270998547e-03
3.866177671934426224e-03
3.128099592122565893e-03
3.748736778793831850e-03
2.514936827767350926e-03
1.100422771816577950e-04
-2.463257293539921917e-03
-3.347276182094600732e-04
5.280068467596862013e-03
5.990847936797937499e-03
2.612453504413760150e-03
1.397496183684060391e-03
-1.200463729274590073e-03
-5.213378833284007183e-03
-4.264341262800448555e-03
-3.141753253931658420e-03
-3.840293348819457959e-03
-2.829822297981754355e-03
-3.450164814037354373e-03
-3.932056184567126085e-03
6.872553998860816103e-04
6.143333284148378391e-03
5.719010638533331310e-03
2.469943613895751993e-03
-8.116364600413926954e-05
-4.182727487827140461e-03
-5.285756744757749356e-03
-3.892446595062766350e-03
-3.571922090093219287e-03
-2.078147941867213098e-04
2.906259968152868651e-03
4.818994145245847523e-03
3.979297609979190985e-03
-9.948810615975146095e-04
8.705836477851825600e-04
2.740537000482014957e-03
-1.868044690778890380e-03
-3.982765029092962504e-03
-6.300977707943244965e-03
-3.928286211873735154e-03
3.467052894934845829e-03
6.121043420386352955e-03
7.434939359982373555e-03
3.770556343921262123e-03
-1.770702368670116220e-03
-1.330539185941892683e-03
-3.713659752900362512e-03
-4.403230515490137720e-03
1.042939642973208418e-03
1.852706117851336950e-03
-5.139985565177428801e-05
1.331953139741962012e-03
1.745112134472869090e-03
3.954399504396473742e-04
1.567922927399668801e-03
1.375944083381553870e-03
-4.329299885421125085e-04
-3.307452339857076731e-04
-4.500646158901903428e-03
-6.165215171804313762e-03
4.615651403406722327e-04
3.129126946877561904e-03
2.920653467241376283e-03
2.782150522099516559e-03
-5.926245188518075840e-04
-3.047864128379247292e-03
-4.004160975413722547e-03
-1.591562523013343279e-03
3.451109020197841177e-03
4.265733778882370777e-03
3.454230226253640797e-03
3.747343164008543059e-03
2.409325574998857911e-03
-3.118935667353932512e-04
-1.967735204862058277e-03
-1.625780074013161115e-03
-2.334942637733562146e-03
-5.256946088579433907e-03
-7.059804339125294939e-03
-4.004681366849427090e-03
3.194359479706816718e-03
7.625144093600804557e-03
7.069610488669934856e-03
4.240861034884281511e-03
-4.100487937764789423e-04
-3.771057524126091021e-03
-4.560342465045888298e-03
-4.774075119019487862e-03
-2.021131843984057784e-03
2.252633423938621600e-03
3.151407949495897871e-03
1.353402444866287548e-03
-1.018561653026396922e-03
-3.341982994698237367e-04
2.050831676571799374e-03
-1.057339683450972271e-03
-3.342238798886496432e-03
-2.093455013785642908e-03
-6.392110850590404861e-03
-6.494732360891457799e-03
2.875702820223911306e-03
6.736104099748810477e-03
4.720103371446528716e-03
3.515691691919199929e-03
9.107535904771685027e-04
-2.442576727898551018e-03
-2.526444946632479521e-03
6.321835169419343830e-04
2.486689660684237180e-03
2.618490382797872187e-03
2.878799663889270409e-03
3.386375469799659740e-03
3.554804908443185210e-03
3.409944700483756109e-04
-1.940485991100796741e-03
-4.391287892339293506e-04
-9.331529291947874378e-04
-3.237745303119803769e-03
-7.504790795693789401e-03
-8.515494043107111818e-03
-5.415797390313174114e-04
4.751545955820218360e-03
4.717842488360628715e-03
4.210676705856400241e-03
7.226103429512881855e-04
-2.116995281563585803e-03
-3.839650533496549896e-03
-3.359515697057969923e-03
1.085306653474779138e-03
1.557141227848009724e-03
1.599285345479383152e-03
4.910253021601942297e-03
2.608428861104379517e-03
-1.516622238778947375e-03
-4.343577370457160874e-04
2.294885649486091625e-03
3.496578103631158528e-03
9.577756819500454896e-04
-2.483933414100763896e-03
-1.755288924477612983e-03
-1.232722029405072675e-03
1.924840931366077071e-03
1.162038816496909453e-02
1.019953640984843854e-02
3.587942106120093396e-04
-1.636099886402684559e-03
-1.479833968521635651e-02
-3.004841754245451621e-02
-1.309538591459782735e-02
8.613444511646108775e-03
7.890890317479101398e-03
4.525239290070221659e-03
3.690885041638740718e-03
2.236634894113380921e-03
3.759814099738454686e-03
6.804546324309679881e-04
-6.148240399151828038e-03
-6.189959517813438915e-03
-3.025360612099720677e-03
-2.453637469460803831e-03
4.414277820953503833e-04
5.618781603005594018e-03
7.980136205314212333e-03
6.871952382842735560e-03
2.759318064021885203e-03
-5.247723982331315394e-04
-1.840221560919756997e-03
-3.103855688609961135e-03
4.569800967468659494e-04
4.687760429074943128e-03
2.251117284807539060e-03
9.141863673296351253e-04
1.717551528307314883e-03
5.608857505106860496e-04
1.137842148498817863e-03
-9.931110182189974633e-05
-2.378303967095076344e-03
-1.802739662337837171e-03
-5.862922831596267988e-03
-8.623406409752579216e-03
-2.259349901175679992e-03
2.927446521069915729e-03
4.050441339026151881e-03
3.198560036572796472e-03
1.259786999935923277e-03
4.815122064016455787e-04
-2.478663396837122064e-03
-2.488541348199876848e-03
2.534532172164170871e-03
3.075534533078189223e-03
1.801280053596949300e-03
2.305628399831732064e-03
1.306472332831102017e-03
-1.212507033730333668e-04
-8.095990548896439759e-04
-1.190960120536766788e-03
-2.128431332917584632e-03
-2.382436268342348704e-03
-2.921966830972420881e-03
-2.943604824558587480e-03
7.052836127369487614e-04
3.244798824367060852e-04
-4.750719728525702908e-04
4.932864674774502245e-03
4.187025120551951703e-03
-4.649444891917400803e-04
-3.158903679519808275e-03
-5.537688795446867041e-03
-8.017109547569068557e-04
3.331819067787723972e-03
1.310069063124614337e-03
9.808610348153255082e-04
-2.321657549274618493e-04
-3.239946183185453410e-03
-3.860674971523553149e-03
-1.554108928696023087e-03
-2.383323815284470540e-04
-9.044504409661314505e-04
1.555817068050929016e-04
-1.709118631269613111e-03
-2.589371872860748557e-03
3.620118161545905853e-03
7.405409511777305380e-03
6.884380113363098262e-03
2.870074191443863602e-03
-2.119407060340432105e-03
-3.297352646088636940e-03
-5.686106126171465436e-03
-4.019007186009305836e-03
8.151681812756234307e-04
-1.776136282619191712e-03
-3.473039635562395495e-03
-4.914338446876361302e-04
4.318507903911965318e-03
8.457785446902956264e-03
5.260194347468751842e-03
2.724926231780251586e-03
3.110613355433833761e-03
-1.879795781874575144e-03
-3.531220103830043800e-03
2.618953173477045482e-03
5.952291996868210554e-03
6.039483935881030663e-03
7.051173409426775458e-03
2.443693394358703065e-03
-3.932747972047253779e-03
-3.590632007397876434e-03
-3.829728963270705947e-03
-2.926661869723908016e-03
3.912602895557502311e-05
-1.511949752278950133e-03
-9.336942900911847929e-04
-1.737456970368766746e-03
-4.204363793980927036e-03
-4.611245202467288739e-04
7.352912308806758019e-04
1.097921449163535325e-03
-8.320424081980213509e-04
-1.092988466541229553e-02
-1.345380475942259749e-02
-9.630828575841186498e-03
-1.012653558777710031e-02
-1.216049825855900629e-02
-1.294971709611782498e-02
-4.701058870854403493e-03
8.288517350374949993e-03
1.426402576803366233e-02
1.503158797773852980e-02
1.247109384340746793e-02
9.415925149993341001e-03
9.719757373716240989e-03
1.073802553383891405e-02
7.307609579488614712e-03
7.723329801447374309e-04
-2.002312785018354156e-03
-2.322701793506555968e-03
-1.344134646846071148e-03
-1.003886887334172343e-03
-6.043018536995938862e-03
-6.868144984284211933e-03
-1.575851735152483560e-04
5.514985327373419198e-03
7.893094128461614414e-03
4.341929273863984889e-03
-6.801141137085200310e-04
-1.083573933851159164e-03
-1.350192761082806862e-03
-2.702766912640729591e-04
4.072301238631378939e-03
5.165373257777152068e-03
2.946202739500250727e-03
3.944877208619021643e-03
5.083761602469346989e-03
2.275070636917539673e-04
-5.868144919139420441e-03
-8.243465922478918073e-03
-7.947536697159056016e-03
-1.068724135731913098e-02
-2.022116836295174275e-02
-2.494713693495070189e-02
-1.533796447265535316e-02
2.073615854164771038e-03
1.762986011819266119e-02
2.195319486201256776e-02
1.494066807740144359e-02
6.971706422358206826e-03
-1.284099078984875632e-03
-1.377234610926267658e-02
-2.198692408141475485e-02
-1.800508483398810186e-02
-9.732531252029876997e-03
-6.636526391546770064e-03
-1.412632201710456534e-03
1.511933101290942327e-02
2.953976470192443485e-02
2.811407625409307123e-02
2.038875826042444231e-02
1.204640359210128880e-02
1.672583594849870155e-03
-1.995943913185538928e-03
1.727310819255143456e-03
4.584712391580295435e-03
3.944687999335606127e-03
-1.344584315494026317e-03
-7.253802289001237170e-03
-6.831664750893344344e-03
-6.035629478214410600e-03
-1.131885253125259651e-02
-1.306996554794379213e-02
-9.670065064139489117e-03
-1.039978726654239467e-02
-9.734280416821458962e-03
-4.378678612171425961e-03
-3.166892659515492927e-05
7.108498549768587846e-03
1.254895971937741370e-02
6.449568265953070471e-03
-2.824870868881390173e-03
-7.985793329356248582e-03
-9.607702124189407972e-03
-2.976768564357387074e-03
6.455940650014532073e-03
1.083707039802123996e-02
1.615577117663501150e-02
1.609706838796637687e-02
4.536048120563725659e-03
-2.268010635606585584e-03
-5.020739961637577268e-04
1.293126552223648230e-03
1.308362206529670082e-03
-1.981452544554173755e-03
-6.616284430366607856e-03
-1.101308883682967227e-02
-8.313091857947527141e-03
3.448602374797583858e-03
5.662800470662773464e-03
-1.289764210769829859e-03
-4.273720856203915008e-03
-8.363213701035022984e-03
-9.527641946280612784e-03
-2.811332591318700322e-03
1.291328598833665605e-03
2.402174306471154420e-03
4.849949776590202835e-03
3.573326783055828879e-03
-3.066860846727040941e-05
-7.982296694554699180e-04
-1.505196831557004556e-03
1.887200373769166778e-03
9.806116769605683139e-03
7.663734178598198034e-03
-1.116015221473100208e-03
-3.933832046717122312e-03
-3.337257468028825922e-03
-3.449593033326350941e-04
-1.388869843152165749e-03
-9.293161325863970659e-03
-6.058424920777638785e-03
4.586878025890332375e-03
2.685401074814547807e-03
-3.927113720835844851e-05
6.273824370481769289e-03
8.027866700287721730e-03
4.742033768490462771e-03
1.326609567492714791e-03
-3.182359164594908071e-03
-4.801187150170352878e-03
-4.366415483785179678e-03
-2.318301349929229298e-03
2.487829233743999412e-03
5.339477599001507709e-03
6.160600823028230220e-03
5.230265840345908746e-03
3.705616674454449005e-03
4.117331869239732392e-03
2.386895376342167488e-03
-1.093974001436040250e-03
-4.886271150017163813e-03
-8.334427301579553152e-03
-8.063059982116631969e-03
-7.062660681329639527e-03
-3.817195134689302903e-03
2.324036655968189299e-03
2.941621973360490031e-03
-1.787077704321069112e-03
-5.626776226842022596e-03
-5.055560131475849046e-03
-2.785979921278061277e-03
5.776642581461138371e-04
7.176315077386676011e-03
6.375481487802019814e-03
-1.116984193255030153e-03
-4.216040183561788925e-03
-4.409434209307928898e-03
-8.012783897573457501e-05
3.619962947639051437e-03
1.905647180183031803e-03
2.454254004946910400e-03
3.679348738407560936e-04
-3.608263233413813026e-03
-1.898808984623666114e-03
6.627353404235260823e-04
3.636708803748228344e-03
5.360009157845418808e-03
3.486254836619167869e-03
1.645259416586694005e-03
-9.565211008434810255e-04
-3.136155502992182906e-03
-1.314515155316002722e-03
3.788017209815463041e-03
5.342251075965479684e-03
2.002670672163738962e-03
1.816671512361306981e-03
2.308772180585541914e-03
1.434483865235405093e-03
2.925948305677041018e-04
-4.725113019071030748e-03
-5.771917367794027545e-03
-3.047592330880144473e-03
-3.632933600118805860e-03
-1.379301345729495474e-03
1.527216828579987685e-03
2.404427761427582223e-03
3.697576839521730940e-03
4.908396510230877280e-04
-4.794979093613031818e-03
-7.993400101447585906e-03
-8.523741405972035112e-03
-4.251002896108646741e-03
4.725785957138969135e-05
2.489986291295195019e-03
5.851403476797857085e-03
6.790342443574916807e-03
4.982551222512289837e-03
3.330274995244081413e-03
2.788934063916846283e-04
-2.368095844219749845e-03
-1.937461694015114822e-03
-3.444235130168065914e-03
-7.066278686436119373e-03
-6.864703552629587702e-03
-2.824509181217275348e-03
3.251014595066620098e-03
7.565451380852547363e-03
7.534616944804742311e-03
7.334443138785978755e-03
4.723865164482967012e-03
-9.341383940468289595e-04
-1.328729895199684411e-03
4.298629219523674078e-04
2.094169099544934036e-04
1.838452755949050070e-03
2.890253094890484213e-04
-4.228302782757386441e-03
-3.254392821621973630e-03
-1.124137351985080068e-03
-1.462052873202925474e-03
2.016261609367838077e-04
4.916870242056795449e-04
-3.576024303730564700e-03
-4.782975105935168697e-03
4.349079243001787690e-04
5.416946168069693320e-03
5.199956018412917394e-03
2.641670154257244607e-03
-4.796164697366124921e-04
-5.668616665543553881e-03
-7.658862028770815379e-03
-2.320978352677709970e-03
6.516833253107068812e-04
-1.328272683236855897e-03
2.536443991640927997e-03
7.074230335135952771e-03
2.479612984228985600e-03
-1.837653193021707848e-03
-1.193034174143929680e-03
-7.046218634818283586e-04
-4.720138047981994596e-04
-3.316396703046985313e-03
-6.297885058292586498e-03
-7.949230508590464719e-04
5.492232781153286690e-03
4.480426162260580866e-03
2.506506239178369309e-03
1.781282075511635490e-03
8.826885668356907605e-04
-6.264512486659186766e-04
-3.917340750235645368e-03
-2.128915435802862001e-03
3.327524239775260517e-03
2.314844713180028851e-03
1.560097147216532891e-03
3.110705482841440508e-03
2.467928594871124132e-04
-5.801737048277067410e-04
2.507679447197881228e-04
-1.133966840195496434e-03
-5.750001961236820636e-04
-9.978016436292854851e-04
-2.212475411576530875e-03
-4.910174565894581417e-04
9.066170350491821678e-04
1.312359311006371402e-03
1.320023060101754115e-03
-5.820158468145720946e-04
-3.252265572817080071e-03
-5.214628056577927037e-03
-7.370443313190162132e-03
-6.361717515115649160e-03
-2.019491880165195225e-04
2.195789979872767202e-03
7.893859613450267829e-04
2.598473854099674248e-03
1.951275572336302194e-03
-8.105979647729361602e-04
1.108158353274535423e-03
2.377451443098262986e-03
-3.607152981558086951e-04
-2.539775097443043410e-03
-3.312275456482779035e-03
-1.588094524395879982e-03
4.793585613434354908e-03
9.834646163962202162e-03
8.926213443295066136e-03
4.942065357290000363e-03
1.407676452376816628e-03
4.660795444576780466e-04
-2.282434687317244203e-03
-3.224629433508338291e-03
2.200146633024906845e-03
-7.913570984870836340e-04
-6.718978914216425236e-03
2.947782189339041435e-04
9.583137023542102548e-03
1.151884421339471540e-02
3.051612956011274906e-03
-4.641277403314611819e-03
-6.135436317144708253e-03
-2.091271936864792791e-02
-2.712143626769577057e-02
-6.535824404536889204e-03
5.111280626708883737e-03
6.297616646830700785e-03
1.022132867162703004e-02
5.554696474773437170e-03
1.950535479343483024e-04
1.917941025384382035e-04
-1.392183256887347077e-03
-2.331876037195810755e-03
7.310564374359753564e-04
6.384002698824334937e-03
8.520273345212370925e-03
5.926743208537338381e-03
3.136292804191624477e-03
1.050291791189213013e-04
-3.098068450414931310e-03
-5.279453936030859516e-03
-5.214584506046991176e-03
-3.345139280205217547e-03
-3.859794652812935812e-03
-4.406629516446426004e-03
-6.887975812460224488e-04
2.793440312814472574e-03
3.313883866055842599e-03
2.105985001251415960e-03
-1.091527919171051027e-03
-4.772321026731726583e-03
-6.779831152427463065e-03
-3.284109354918953068e-03
3.945479790631209807e-03
5.628581103732584710e-03
4.055014250869009608e-03
3.537277034660832060e-03
1.710045851642162814e-04
-4.446853102249600023e-03
-4.547340263706082554e-03
4.249870190209077865e-03
1.182189918990504338e-02
9.046103957529104400e-03
1.048199595190132602e-02
1.373807191122294533e-02
5.847488223949217322e-03
-2.575303609525443713e-03
-9.238083254906489378e-03
-1.678530504824319106e-02
-1.472049786705490089e-02
-5.153690587275995896e-03
-1.755009056582241362e-03
-2.989359844764657558e-03
-6.246098104375459939e-04
-2.007296296058654148e-03
-4.864875410442323633e-03
1.472717945512114473e-03
5.288627285365431543e-03
3.742760430683694361e-03
5.482535930560463941e-03
1.225710919228396823e-03
-9.026216476241084863e-03
-1.129948418257728168e-02
-7.978397161661061193e-03
-4.353451556390068068e-03
4.658521255125351937e-03
1.128524239049163470e-02
1.116555938010241680e-02
1.364310688863623958e-02
1.020499858972258485e-02
-7.160775354287688896e-04
-1.067870178755090348e-02
-2.198347515854348969e-02
-2.090144780407443906e-02
-7.354717411248882369e-03
3.390155125956649355e-04
6.001045110131316383e-03
1.136270740321944014e-02
1.484266407136771056e-02
1.721886083412420276e-02
1.547353553618242838e-02
1.355880848613212619e-02
3.050965914352821856e-03
-1.464404402709725689e-02
-1.471626201700300049e-02
1.944107019115009854e-04
1.378369918825173360e-02
2.216294498823674630e-02
1.627841664071758010e-02
-8.538555594572247312e-04
-1.217973369246744611e-02
-1.861055597041553697e-02
-2.238943586584141165e-02
-1.479896748266703449e-02
-6.050050136281180310e-03
-6.495920065373027817e-03
-5.088577879470758750e-03
-3.172839083352109284e-03
-1.052802402973991754e-02
-1.598238464496869529e-02
-1.010450791555203565e-02
-1.770996429924614080e-03
6.438967003373354848e-03
1.227183422953483961e-02
1.004640197247281055e-02
1.007442512476194353e-02
1.191708718008886725e-02
1.090393865435015756e-02
1.060264888456486504e-02
-1.742529449989736919e-03
-9.259675438359198096e-03
