1.606111923991416016e-02
2.468606995415922878e-02
1.517627455610166994e-02
7.737933959308819672e-03
-7.591453974155845143e-03
-1.249823738457598102e-02
-1.272512241133980440e-02
-1.695337674683639051e-02
-1.560392463273654363e-02
-1.225570605377472762e-02
-7.902333641566543915e-03
-9.716242473941387806e-03
-8.722041104943964798e-03
3.168151037262580735e-04
-1.461870792170072637e-04
2.738021861234530511e-03
1.137243553761203146e-02
1.292373786640398439e-02
1.423858298910920736e-02
1.200270499987388453e-02
9.945500564996177795e-03
1.225983570830055380e-02
1.139636500734404236e-02
7.708207075060273007e-03
-8.912412963738079556e-04
-7.978821961974781607e-03
-8.758860757271141884e-03
-7.877261434332922044e-03
-3.067936323478986926e-03
1.319566404372230243e-03
1.841659480104358660e-03
-2.759574110315000939e-03
-8.435734687765265166e-03
-5.009779695470454458e-03
-4.284891636110908721e-04
4.321017867934173230e-03
1.015875817100120489e-02
7.024624027859062425e-03
3.578165838133664373e-03
1.610298192442095270e-03
-1.100824425872468180e-03
3.450415696099141949e-03
7.459207896960189099e-03
4.732895640446536933e-03
-9.544058606778629307e-04
-5.262418257570991922e-03
-1.427239889620911251e-02
-2.837893058167237012e-02
-1.922938960003248154e-02
3.591198686797499387e-03
6.174072231865217197e-03
1.568473329696630156e-03
7.533834233641820838e-05
-2.795048473405259068e-03
-2.181772933595911741e-03
1.606817415505582599e-03
5.176917503216739609e-03
3.355259544808085123e-03
1.508542954510835692e-03
7.103731945326508760e-04
-2.617532769163764903e-03
3.849224937817524641e-03
7.915734055043199824e-03
1.280008395218398603e-03
1.029344030161917197e-03
-1.851307918027497940e-03
-4.993466897193006744e-03
2.329708183817444985e-03
7.399771057844508129e-03
9.735461741495239282e-03
7.279254960318169362e-03
-4.852217392196549249e-04
-4.616139483092990096e-03
-8.128146593472549905e-03
-5.866904716943421340e-03
3.109810350131709394e-03
6.916907439360929499e-03
3.075655254147923682e-03
-3.345908411675581513e-03
-3.155354678120504599e-03
-1.586780389820296360e-03
-2.814627798766091132e-03
3.174292369959651021e-03
6.123360254760473569e-03
-1.652080011849767259e-04
-5.894076459553377820e-03
-6.954418140613065000e-03
6.387681351409370224e-04
4.038818580912750637e-03
4.691787932997433324e-04
5.634677469832895941e-03
6.320160560395281409e-03
-1.721708023174296429e-03
-6.340500630267155088e-03
-9.528578842668533264e-03
-3.877565122957957969e-03
3.908943153833865577e-03
2.897716799987298027e-03
2.530995593452594217e-03
-4.969802631476469799e-03
-1.280661590313820000e-02
-3.007273553480613749e-03
6.047067600264301526e-03
6.788033608873387213e-03
3.868855287798897164e-03
-6.626521894379375915e-03
-9.541982356798829265e-03
-9.249723826369731384e-04
3.264993480447285577e-03
4.145145224496170171e-03
6.892473297030492739e-03
6.231436782117251091e-03
1.049164965315062693e-03
-2.294398355929689812e-03
-1.384880506631689517e-03
7.028287335180376108e-06
1.127082356516215592e-03
1.101947492885287094e-03
-2.417004277591372138e-03
-3.914839681875008533e-03
-2.683712098467519718e-03
-3.243018482941092788e-03
1.095687714213032819e-03
5.150345891244792126e-03
1.021384166824703538e-03
4.424772483482297160e-04
1.368447388155082090e-04
-2.560367357243290096e-03
1.386984303476804844e-03
3.794201318775461840e-03
5.228966858241244388e-03
4.828046793093732948e-03
-2.450760958655515825e-03
-2.022622722382157959e-03
4.902170739955240492e-04
-2.103072198114020082e-03
-1.949264474309876020e-04
-2.222562673974000608e-04
-2.204685493111554258e-03
-2.511156796454132312e-03
-2.096600084030656244e-03
2.744247908886582321e-03
4.296909424129124848e-03
1.014815930216054433e-03
-2.094351182501440276e-04
-1.732635039326016133e-03
-6.091845417915069116e-03
-6.549039687181175233e-03
3.133293560268526120e-03
8.604658886998300601e-03
4.469897975376719082e-03
4.090124694850241467e-04
-5.027932047844072168e-03
-4.028289328821394594e-03
-5.037398951042828046e-05
-2.731345634451011299e-03
-7.241829647359017061e-04
-5.330342771999085818e-04
-4.692287060988015700e-03
-3.802937694576601687e-03
-4.782651694715843622e-03
-2.406687229609236808e-03
5.445890264894443292e-03
7.472374334366423815e-03
2.245778886018881450e-03
-4.900411622396579070e-03
-4.798354371283445295e-03
-7.968484608113462868e-04
1.174982005036540825e-03
5.919618345022815628e-03
8.476590086225293391e-03
5.334729151763118425e-03
-8.085539570832725475e-05
-4.113077339320098634e-03
-2.227275734222224600e-03
1.766401737425915650e-04
2.071941619514194605e-03
4.730616653410091646e-03
6.612385181136815971e-04
-1.869090143731591633e-03
1.382937223858986134e-03
6.533635067767983268e-05
2.952239699072689658e-03
7.862681662531558965e-03
-7.019799419700781468e-04
-7.795160152940855923e-03
-6.299693408035899646e-03
-6.233981095285031152e-03
-2.122056063413312564e-03
3.091221224525104137e-03
4.081323674836696488e-03
3.850695654742729117e-03
4.571294638457533313e-05
-3.293681230500929234e-03
-5.167658380265377667e-03
-4.157232030604107210e-03
2.946995822682975559e-03
3.297299676729244754e-03
-1.786319596059233734e-04
7.107383265494003513e-05
-4.792158118368768267e-03
-4.811197267017017568e-03
3.155412314687414382e-03
2.763477292494103885e-03
-2.454137047452506232e-03
-3.759260291197949813e-03
-4.920966466017254008e-03
-5.109464850700122518e-03
8.355942709937689249e-04
7.176239699690858259e-03
8.724079943259259798e-03
8.114516498302269676e-03
2.450601899661306558e-03
-2.132614563087316915e-03
5.827991713270129623e-04
-5.947926609043124174e-04
-3.374445482891906371e-03
-5.631397695921724770e-04
1.312531952432361522e-03
5.364402610566973168e-04
-3.045265591847837790e-03
-4.464383478555677444e-03
1.794515211619623083e-03
3.302379345645850735e-03
-2.742469853320808528e-03
-5.637703325242364276e-03
-7.402662307133733334e-03
-6.410037317867832256e-03
1.366159723979282160e-03
8.219843283445438242e-03
1.137035412042651343e-02
8.686567972957557476e-03
5.067387942768316559e-04
-3.082521866144468173e-03
-3.092863698534199183e-03
-2.023388853735228442e-03
1.317844858226028312e-03
5.097254633638588278e-04
-1.023134456755189639e-03
6.925695761709174843e-04
-1.926789136145830490e-04
-1.136565150637551232e-03
3.242056570900564774e-03
7.442949046440131174e-03
2.845425432284696705e-03
-4.003784368624484918e-03
-5.291510798476674673e-03
-3.670431409870458794e-03
4.031246916929967332e-03
8.387496830663447242e-03
3.928251606805175343e-03
2.680483333865836884e-03
-9.584632895102820904e-03
-2.551538237931450306e-02
-1.464633005084004999e-02
-4.276899034500721095e-04
1.084079754391230202e-03
5.661521446291848184e-03
5.252790419441043766e-03
-1.459790791991549038e-03
-3.130730274510201000e-03
-4.955599367149155030e-04
4.168094165178670013e-03
6.235172355171455377e-03
3.265540877861045077e-03
-7.782886091027582751e-04
-4.288666244569376042e-03
-3.329746235178887397e-03
4.095037736109975214e-03
8.062005834406988508e-03
7.835697090952204943e-03
8.694571727185912077e-03
3.285269353598547744e-04
-8.586295689617126289e-03
-1.912906570868365191e-03
2.896030509089343122e-03
1.719816536022370900e-04
2.326881533864106613e-04
-2.079255160806523330e-04
-9.383477569015639605e-04
-4.338707233394762525e-03
-6.289379536555200767e-03
2.576312311320057714e-03
7.793468059727698058e-03
1.100503394850985313e-03
-7.313203222045954431e-03
-1.149625331635295740e-02
-8.051750404629194613e-03
7.286133256033640662e-04
7.324323992147987669e-03
8.454450728894348163e-03
7.061009498222106835e-03
3.410014885325806863e-03
-1.269681913160274110e-03
9.081633363505448812e-04
3.081792110461619317e-03
4.981464279013228654e-04
2.020660694144972482e-03
8.229984604029312980e-04
-3.735302961956351187e-03
-4.511321172967801101e-03
-5.235999100530812703e-03
-7.376409838803824580e-04
3.994882062310808370e-03
-6.321652161527368391e-04
-3.570467148590052500e-03
-5.676638525849033931e-03
-9.890745418707143008e-03
-4.010845001574859028e-03
3.085917197582823020e-03
-5.943922274928175632e-04
-5.214630331232243286e-04
3.636271161568960415e-03
7.643560526904391952e-05
-1.079351378372653183e-03
-1.000255410274932324e-03
-4.269245741032458123e-03
2.011968595129355782e-03
6.073514771760035562e-03
1.986411324134960184e-03
5.403479234550626412e-03
5.496924246389450763e-03
1.727767222444361820e-03
4.668591632613344235e-03
2.414265856571930213e-03
-1.866461528498320876e-03
-2.992521514183892669e-03
-6.019355867482058080e-03
-2.671657495280961234e-03
5.287329659947714866e-03
9.717956434851661440e-03
8.968241438224640663e-03
1.289979121989750241e-03
-4.795911235690823553e-03
-3.809626795526837532e-03
-2.552156344413700553e-03
-4.985097405291085380e-03
-5.731490017311817453e-03
-2.084582664988295954e-03
-3.075083920594735582e-03
-6.098439337423411030e-03
-3.082245724602675121e-03
3.048491148164487693e-04
1.459487967292773204e-03
-1.496553805224483304e-03
-3.155465000727079947e-03
4.034130997024296811e-03
4.577854098915925922e-03
-1.928693000961941018e-03
1.658856992488279281e-03
8.327131891142121670e-03
7.759816562445439291e-03
1.846234033897506312e-03
-4.681327989265875698e-03
-6.911821785075477134e-03
-5.372871109785504022e-03
-2.120546231880853557e-03
1.681978794696751319e-03
4.499683067895961404e-03
3.973235084579247560e-03
-1.847629613623807249e-04
-1.816474468232618256e-03
2.139836229200439439e-03
5.802829280724034096e-03
1.987382985331377899e-03
-4.014816028811844448e-03
-3.874936864142486132e-03
-4.614403556312568488e-03
-5.040547513067306779e-03
1.087379170633043582e-03
4.968466593172829807e-03
4.235013932881660954e-03
6.493429233876529252e-04
-2.756212288239621045e-03
-8.213518724393138303e-04
-2.378305165212230823e-04
-5.711697927738464673e-05
3.547529442053021578e-03
2.748333694396780900e-03
-2.365766712547457719e-03
-6.689531226004880038e-03
-6.382503691368633658e-03
-6.183884306747153888e-04
4.806945125143241224e-03
3.142898364309222852e-03
-5.613425731070037852e-03
-8.410896012040043612e-03
-3.100728839094554334e-03
4.769587656408948509e-04
4.339125155257814517e-03
7.985660495754730998e-03
9.715576612604465492e-03
6.999260759918042758e-03
-1.845763234253560391e-03
-3.493751909915934935e-03
-1.021458011456632779e-03
-1.596574472185494390e-03
1.722132754510569824e-03
1.795328263484236931e-03
9.581794299180416800e-04
7.060434961463907385e-04
-7.419880815523273269e-03
-4.634776499789064474e-03
6.491372982726823990e-03
2.420423027521513386e-03
-2.680278857217927198e-03
-2.877793133016438160e-03
-5.990459432531385769e-03
-7.757825131568533072e-04
4.733569535357085023e-03
2.240550439889238323e-03
4.461354615057427572e-03
2.808571446731585909e-03
-4.766587377852952133e-03
-3.114771340796304924e-03
-1.049687192422405369e-03
-1.805260677326231931e-03
1.695941027402137705e-03
1.638417850477974589e-03
-9.770480022523991143e-04
-1.481129681390629333e-03
-1.316508392588281633e-03
2.941424736910318565e-03
6.977187571451669984e-03
3.986667238292340883e-03
-1.266488826671505414e-03
-4.454934099201119345e-03
-9.021751094420101674e-03
-1.251718879371289776e-02
-5.490025670485231511e-03
4.838467528524681427e-03
5.469822518401118092e-03
2.479467565113960791e-03
1.141931768276179112e-03
-8.877566445613907682e-04
-7.383612836359733107e-04
1.237271146229799827e-03
2.849967530831908069e-03
3.621174257061435513e-03
-4.199903665984772378e-04
-4.557614483588958570e-03
-1.188615841470733007e-03
3.757742392805487469e-03
5.725894146076606142e-03
5.502550734181638377e-03
2.619579120784371138e-03
2.349113656356040703e-04
-1.112725981470287376e-03
-2.183638406177338190e-03
3.177420375350482927e-04
5.303001943616708104e-03
6.471882261370808659e-03
3.432070185266036626e-03
1.798828820164804273e-03
-7.638739270788889001e-04
-2.826197188169689376e-03
-7.934581160432357082e-04
-9.712323989196849569e-03
-2.245939001552537534e-02
-1.420585561234469218e-02
-2.527368479157607577e-04
2.124463262146510274e-03
3.887247250277462741e-03
7.284392101278238177e-03
3.269592083062113162e-03
-5.672531603438822102e-03
-5.735771530378311334e-03
-1.138668075810090751e-05
1.484631803659221781e-03
5.586074274815605069e-03
8.818818992138223109e-03
5.268063552934035276e-03
2.678885635436203429e-03
-2.791644446388610347e-04
-3.457473483679024753e-03
-2.252512927261245568e-03
8.522584370830694426e-04
6.124452080290264736e-03
8.235522257848591765e-03
1.810427264954103449e-03
-3.300359526397663845e-03
-4.047405760209596241e-03
-3.843548564502942237e-03
8.447706423303899450e-04
3.417995581301972764e-03
-1.171626791541884169e-03
-5.433063570732178660e-03
-7.872028347025704711e-03
-3.918966338649015370e-03
5.142682053043821054e-03
5.069562533384699803e-03
1.564266592623994720e-03
2.074741467495443137e-03
-7.971672045334946260e-04
-3.011596146196874116e-03
-1.192206217848720091e-03
7.151697793695622508e-04
2.202763490242917819e-03
1.352042145718640193e-03
-6.057307630540274238e-05
-1.477962623054173991e-03
-5.957357015009046887e-03
-5.616617864656056787e-03
2.683527774549887123e-03
5.761370413926003749e-03
2.491481121394826300e-03
-8.472014354481209293e-04
-6.480310125093927814e-03
-4.089328897180581276e-03
5.461681323658861345e-03
3.339748591681979042e-03
9.278512377254495049e-04
4.940402618608548922e-03
-1.363854252589250145e-04
-3.727865417500961231e-03
-9.793994682499790935e-04
-1.322763354362159428e-03
3.018554088210682797e-03
6.097376316733498641e-03
5.228946976751391081e-04
-2.159798484915727464e-03
-3.207993097894640874e-03
-3.722439705330497263e-03
-3.275493927430772135e-04
-7.095849924580850893e-04
-1.112656580701361624e-03
1.512867496107747753e-03
2.470556050079185861e-04
-3.367475871626008331e-03
-6.499533306210828441e-03
1.985294270605325497e-04
1.205665199255817437e-02
6.413819086319070238e-03
-4.516286394184465015e-03
-3.672508551756131345e-03
-2.740475329200389634e-03
-4.828420418517940724e-03
-3.674612743593846063e-03
1.421280654478659445e-03
2.587802334002443916e-03
-2.454054375131140345e-03
-4.254093358307758053e-03
4.747501985810517961e-04
1.194384652791693861e-02
1.536546756480704386e-02
2.137215249502378428e-03
-4.893716373200393543e-03
-4.912308149627864565e-03
-6.467063830163777456e-03
-2.397754196815160294e-03
1.760043114609649443e-03
5.988116320071961048e-03
5.363788597717273655e-03
-4.431727126484653369e-03
-4.467221685639692977e-03
1.441483926069517859e-03
1.905721564338034614e-03
3.101981913295535302e-03
2.666602329252404542e-03
-3.168631564728749319e-04
-5.289926275930796791e-03
-9.060763617401757647e-03
-3.923498529339093481e-03
2.486073363986269612e-03
3.428420091073509576e-03
1.316071493986239538e-03
-2.345566816850328147e-03
-4.550778596846857642e-03
-5.209133501403751323e-03
-1.778208062046712258e-03
6.338980264207906556e-03
9.398955295351167638e-03
4.615790565306872317e-03
-8.121269413207849201e-04
-3.040164473582473298e-03
-3.483794983437300038e-03
-1.966150915184490099e-03
2.874119075936554853e-03
4.596754985718866544e-03
-3.340955437859176270e-04
-4.497362138542637840e-03
-6.778171178795706041e-03
-6.888214781998576279e-03
3.907981360283739299e-04
6.426753240712843214e-03
4.369803601751715526e-03
7.878401191760066747e-04
-3.523713864203813044e-03
-4.770310026556479066e-03
7.282710716991626192e-04
4.187431216840517036e-03
5.937221325028651034e-03
8.923421004124796815e-03
4.702293188096240591e-03
-3.138997659204978939e-03
-3.505154609733220419e-03
-1.370025860637511320e-03
-1.451290094828624816e-03
9.587100257862531116e-04
1.692619884485703453e-03
-1.748102572010062873e-03
-2.245994591751304930e-03
5.343941823865218941e-04
3.105279641253097349e-03
3.158369200329764776e-03
-3.075344890334079937e-04
-4.354921712911088982e-03
-5.446186027889571291e-03
-2.892838319318915500e-03
-2.566491241900346713e-03
-2.930480168699334947e-03
3.215018882509033341e-03
5.485704918766677422e-03
-6.888669569482225687e-05
-3.503314239462471547e-03
-4.351164181861897316e-03
-1.725943867814759471e-03
1.116400934174278979e-03
1.522034689448968419e-03
5.534548973169848771e-03
5.542777581595837930e-03
-1.911178108773308642e-03
-4.234851086441500205e-03
2.196756614688395465e-03
7.394980394964856610e-03
3.216201688915469939e-03
-5.270143137658931699e-04
-8.487391630510655351e-04
-7.013356631889785392e-03
-7.295228835414495350e-03
1.081462289936952262e-04
1.084605731687905998e-03
8.676203667577101842e-04
-3.647768030552165416e-04
-4.375063785082270243e-03
-3.428609428482208479e-03
-2.488385329207831211e-03
-1.030825347875497259e-03
2.522465007371942677e-03
-1.017737547340100222e-03
-3.434997642463963937e-03
6.804105588561865873e-04
1.807746455175250405e-03
3.886451813074068111e-03
6.959112748202172030e-03
4.318399262151073094e-03
8.780118907003720127e-04
-6.133019092081949675e-04
1.423080571307404774e-03
3.915641519670552337e-03
8.340877576437299382e-04
2.587152089830348570e-03
6.787435283022696941e-03
1.697027417961737960e-03
8.874409877190924702e-04
3.771979658700643466e-03
-4.202496978810284570e-03
-8.884353174501069192e-03
-3.939499500161472846e-04
4.865367774543562750e-03
-3.803010900731158394e-04
-5.826207769655300343e-03
-1.136985776479487557e-02
-1.909070671775310937e-02
-1.330650337382086393e-02
1.515625835695261301e-03
4.466892602362960811e-03
3.918374176931767490e-03
7.593158279981594358e-03
7.794672667223532386e-03
6.828133069512843517e-03
8.170990906209207871e-03
9.423386732285245204e-03
3.461731705061108031e-03
-5.357094567638433398e-03
-3.133709331283712849e-03
4.678083516111228171e-04
-1.911623951692243990e-03
-7.451913445915153440e-04
1.915509914164373296e-04
-2.599255519305092819e-03
-6.763332963380548450e-03
-7.994142902096188635e-03
3.476784410801105605e-04
5.381590091848238548e-03
-1.385163573736544621e-03
-7.532992272804297021e-03
-1.038112095782341669e-02
-9.272095225810765215e-03
-2.582003371934909770e-03
2.316145021829111358e-03
5.630189524803156514e-03
9.381829212458881601e-03
8.230196719213333373e-03
1.905979945364344886e-03
-2.410915835570879868e-03
-5.863108112466794680e-04
4.154181266409825470e-03
7.371031515058385809e-03
5.172515287709103862e-03
2.532848080170629554e-03
4.494326507819086138e-03
2.657180164533357297e-03
2.916429081480241721e-03
7.243029120565556457e-03
1.615307096195895287e-03
-1.876591164517328516e-03
-2.133443503969772222e-03
-8.068252912956654435e-03
-3.438768436122258999e-03
1.838582104583208476e-03
-1.334038297590596760e-03
-6.973674783379429920e-04
-3.637251814598082764e-03
-6.947528649844632656e-03
-9.473258120907660645e-03
-1.401030550719965101e-02
-5.421664837384606618e-03
5.753434784286322497e-03
1.060820585814238604e-02
1.174589670539966275e-02
4.032692694410274772e-04
-6.010316029779166902e-03
-1.536996694589991535e-03
-1.871538768251302266e-03
-1.708856329329132241e-03
-3.187026590607223205e-03
-6.605297117066632855e-03
-4.327044069319291135e-03
-3.069647454911298302e-03
-1.474232032229183531e-03
4.760677941507291018e-03
1.174882270511273460e-02
1.313804322119490643e-02
4.401416231367385329e-03
-1.514060771413445290e-03
1.429847359495119586e-03
1.141617777755227561e-03
-7.276746598235329282e-04
-3.060481681398674342e-04
-3.579354193673223161e-03
-6.588257596554958351e-03
-3.432461139341968885e-03
1.564861611576334787e-03
6.746658736358425619e-03
8.735542466595892785e-03
2.219145282412086722e-04
-7.511045014534648706e-03
-6.035929423855228466e-03
-4.768296129898833002e-03
1.241783425174544870e-03
8.966037075972757217e-03
4.788441007703835017e-03
1.268297325591498468e-03
3.212212668061139383e-04
-6.979582864763536620e-03
-8.561174419744181641e-03
-4.627793192564551815e-03
-2.156128119852316651e-03
2.017354552634843118e-03
2.229422666930798783e-03
-7.271105835508703819e-04
1.381085306515796463e-03
4.984188061969407543e-03
6.564891262796121452e-03
7.029286845321038035e-03
3.419460085655340060e-03
-3.692221860087014067e-03
-6.550220327914902524e-03
-3.419685333926852748e-03
6.944977518553248266e-05
2.981523788606515405e-03
3.877984970400979742e-03
-2.010449537568131158e-03
-7.617985636222755763e-03
-6.083282835742529621e-03
-6.419787994402854046e-03
-7.652886460901744091e-03
-3.674296825560183655e-03
-3.325695619880096078e-03
-4.142507434633207163e-03
1.204960488289143206e-04
5.055954669175161120e-03
1.070838859101167981e-02
9.965574833626734963e-03
4.064372854602228517e-03
4.681842832409429007e-03
5.979930232040405608e-03
5.304762974113743854e-03
4.753601713439623878e-03
6.054188811178348728e-03
1.131325025016560563e-02
9.168404979707065264e-03
1.866129232054294408e-03
-3.059684617234749437e-03
-7.326555393172284880e-03
-6.447772345223412409e-03
-8.551819257890176662e-03
-9.899115680391579880e-03
-2.318979178681571367e-03
-1.662701051264198985e-03
-1.245315256212883252e-03
-1.286649659497343841e-03
-1.351784853495564126e-02
-1.686860562242611244e-02
-1.191939838561924953e-02
-1.038038834335785858e-02
-8.062071667967209837e-03
-1.118739388462647658e-02
-1.008760407217946208e-02
1.244581978135539824e-04
8.923924847492803111e-03
2.027275395749329398e-02
2.653528684259916226e-02
2.189340397372627894e-02
1.499573786411878204e-02
8.877215436345111885e-03
7.897242554200920028e-03
6.566661782812089135e-03
3.224377687127345533e-03
3.288663914463391125e-03
-2.083712431408822445e-03
-6.844537838533945769e-03
-3.325236687871315541e-03
-2.196084571583587104e-04
2.901774600676397704e-03
4.848378851481330732e-04
-8.329935207326917904e-03
-1.088195750756996115e-02
-1.016149455084986927e-02
-5.937450702662960302e-03
3.119351759404833096e-03
3.770109268926684094e-03
-1.891187116978756879e-03
-6.019441354538320951e-03
-1.060516261104293978e-02
-1.221295884141141048e-02
-9.715235678613726861e-03
-4.319408003052369396e-03
1.628124332574414079e-03
1.552224211870183992e-03
5.703311955696060672e-04
2.086377544104131478e-03
3.975468831019807019e-03
9.980280651633097536e-03
9.950892782470565148e-03
1.042714501767408580e-03
-2.589623127423040100e-03
-2.153927007083094019e-03
-1.493504631175510827e-03
-1.518784838176986387e-03
-7.693198076741163604e-04
6.160307173157067960e-03
1.095208254838849621e-02
8.793642190107737663e-03
1.800863700269320598e-03
-3.480982005699960122e-03
1.598244173136814964e-03
4.991182629452898915e-03
6.153863332447693374e-03
9.490864516991255259e-03
3.235835213189972026e-03
-1.336913252221464538e-03
4.025639152039222485e-03
1.070880168455526880e-02
1.421762489313028316e-02
1.075159210862053002e-02
4.488551812455368085e-03
-5.427275371500062118e-03
-8.647155886199140232e-03
6.006648729446679340e-04
7.272262534333375546e-04
-2.245526001015892090e-03
-1.303193578865443313e-02
-3.655548401439111944e-02
-3.242984326542570905e-02
-1.554981987280994529e-02
-1.481203024233285377e-02
-9.067039657289183846e-03
-1.901867021303191210e-03
-1.924354889344368413e-03
-3.351624359747418149e-03
-7.609139824173315105e-04
9.073649934803404427e-03
1.488191987274296683e-02
1.853748308228291702e-02
1.950610028197641288e-02
9.637367624539903282e-03
3.072273699118942790e-03
3.412852346466390806e-03
3.541460179431816808e-03
3.380698794953484673e-03
8.296758809256713722e-04
-6.246327634213304572e-03
-1.937950497758725299e-02
-2.553831021565106107e-02
-2.066502368625143179e-02
-2.145354790960801727e-02
-1.872201933987959616e-02
-5.644544514260437656e-03
-5.523880276600131797e-04
1.567618027031891055e-03
1.105983131735751093e-02
2.216596085559442014e-02
3.812197585199024463e-02
5.278193824153599306e-02
5.258810081177600626e-02
4.569146724563953599e-02
4.013074361692647168e-02
3.785550315312775221e-02
3.673174548506411008e-02
2.625874377194907516e-02
1.300305155686067894e-02
1.774771725489835382e-03
-1.474683535029343989e-02
-2.673530371490931770e-02
-3.194755940565783409e-02
-3.767114894333332964e-02
-4.132185555834812229e-02
-5.209988583621383285e-02
-6.918135445452289201e-02
-7.102316605820940820e-02
-5.797453656705331415e-02
-4.272714256812996242e-02
-3.229853120399004546e-02
-2.786935259151019847e-02
-1.657583786057384434e-02
2.963031813606653922e-03
2.166561591179376467e-02
2.624289546576852317e-02
1.631855366938937115e-03
-1.811855491017498251e-02
-2.482218916205542868e-03
2.108278414941620188e-02
3.622689178242978481e-02
4.346681142970655609e-02
5.419494025304880114e-02
7.563178238386335239e-02
7.195133322648027130e-02
3.789594037201603205e-02
1.302173346361960513e-02
7.626589957562813354e-03
5.180755662120663414e-03
-1.237352965209436838e-03
-5.750775201877736387e-03
-1.417647320016280320e-02
-2.491910439409281142e-02
-2.912179505852711958e-02
-3.380139810288994989e-02
-3.264417762596080047e-02
-2.314893900987207223e-02
-1.528340532292386984e-02
-1.541376580647699050e-02
-1.900335771003615684e-02
-2.777380091718215788e-03
1.409959565331946225e-02
7.070788873218688056e-03
-4.124884419545128342e-03
-6.781487296948739141e-03
3.326898761929008436e-02
1.007152804590304568e-01
1.107931453276344291e-01
6.408710835327875721e-02
-6.811924039935937820e-03
-8.245723385579577236e-02
-1.102320045636328849e-01
-9.888637569167574304e-02
-9.241575551391524590e-02
-6.477526192961149953e-02
8.947485457147515836e-03
8.506192591872335784e-02
1.103489402797572794e-01
6.926846165059272198e-02
2.843652555340433260e-03
-2.343571683378208384e-02
-3.648324891027839023e-02
-8.494917640440499684e-02
-1.085228570732588299e-01
-7.410832351752698333e-02
-1.980170088383140584e-02
5.834303707173026793e-02
1.408988196556286432e-01
1.498686571430294656e-01
8.425766389911140686e-02
1.196554795989701082e-02
-5.442264398344199422e-02
-9.754021298686139929e-02
-7.180150745171996751e-02
-2.300210082602168957e-02
-1.727604471273187087e-02
-2.731309060857050816e-02
1.125812233773183964e-02
9.823588461062097987e-02
1.380240497202354644e-01
8.341075670890020499e-02
1.674548981656395763e-02
-4.665410234658771624e-03
-1.574881649995263366e-02
-3.806571279706028044e-02
-5.105227592241863566e-02
-4.948420382915140470e-02
-3.210728172303047023e-02
-1.058798413208808867e-02
-3.560045268265729645e-02
-9.443781190331042297e-02
-1.169780091590367777e-01
-1.099129646656994419e-01
-1.009928015846493360e-01
-3.826490676087430931e-02
8.729183169919611796e-02
1.452759149544064765e-01
8.909254518852585680e-02
6.270803108144323845e-02
1.077695009636971124e-01
1.030027411921601022e-01
3.141121784244481352e-02
-1.845935093371766852e-02
-2.513623752646571355e-02
-1.235271296002239845e-02
6.782781574706533978e-03
1.025933448443618577e-02
1.134393471987048957e-02
3.649735761046724036e-02
5.914997602649735980e-02
6.549533645850162678e-02
5.817597703947800791e-02
3.038873358348559428e-02
1.517312714581237488e-04
-3.456097358065166741e-02
-7.824597721162959707e-02
-1.076741046095694848e-01
-1.248503943999442062e-01
-1.327894524568096479e-01
-1.248837920837536919e-01
-1.026721188600057122e-01
-6.647641063132864181e-02
-4.417794773634380751e-02
-4.196553312880817177e-02
3.048193046884943233e-03
9.069153749374675444e-02
1.261180148330713346e-01
9.640784006551392227e-02
6.651090457974154213e-02
4.787019826222954633e-02
3.790801759603472376e-02
4.270251859954930090e-02
4.674587349120631202e-02
4.545882323110778112e-02
3.742939833928763532e-02
2.419919223672617123e-02
1.652410134746523998e-02
1.060542246652335964e-02
4.449144929911673201e-03
-5.714538604683567016e-03
-2.178711803566695318e-02
-3.151861864955640691e-02
-3.636395292516401978e-02
-3.988594505176673577e-02
-4.185558921337783483e-02
-3.892085936694239523e-02
-2.604234880510161027e-02
-2.246533699286112906e-02
-2.544325091231974811e-02
-1.797225928030320857e-02
-8.566702377435007551e-03
6.739917761595454887e-03
1.343440608479734913e-02
5.678399960977765018e-03
1.323557071933877810e-02
1.901960169787856800e-02
1.580334139845169725e-02
2.116489978510245271e-02
2.082569352622416076e-02
2.025021700394462679e-02
1.868773654400660705e-02
6.661824970287113894e-03
7.970244752907596213e-05
1.597206600385705664e-03
4.965788348232315873e-03
-6.585693041412302509e-03
-2.377626185544642543e-02
-1.717021535144091365e-02
-1.394156206031952998e-02
-2.375364593672420199e-02
-2.046497545888848954e-02
-8.627570015383487223e-03
1.556241487108958295e-03
3.994786883324726035e-03
4.855438598523889419e-03
9.253350558284061805e-03
1.244816226509012913e-02
1.785788264603528630e-02
1.711815871097588371e-02
1.326189691825486842e-02
8.802028948213545811e-03
-2.186880584587134330e-03
-3.772623097096348011e-03
-3.604286836399495618e-03
-5.165215549184505074e-03
-1.881196601606966627e-03
-4.363535913710024292e-03
-2.821264324995806936e-04
-9.205605848309893202e-03
-3.209689777182162668e-02
-1.758826721928808887e-02
2.921259449852842312e-03
1.147628012274025475e-03
4.652373940853465027e-03
4.724273405069305543e-03
3.375100040134279816e-03
4.054116888759326520e-03
-1.124089059577977308e-03
1.311746124528665293e-03
6.804814240148359707e-03
8.537391543714013126e-03
7.652155660928768206e-03
2.709172511238120340e-04
-3.734422569786125662e-03
-1.116489874848433953e-03
2.777162820914705257e-04
-9.684874196742486669e-04
-2.139410060192563183e-03
-2.591595717487105675e-03
-2.346699271111494633e-03
3.351088620608044018e-03
7.880962595252394287e-03
3.016859831883724440e-03
-2.640032047465855954e-03
-3.504725012827400368e-03
-1.746556030218051822e-03
-3.016394319895031404e-03
-4.754192319675638358e-03
9.622440941892248991e-04
4.499834837814265312e-03
1.641145581986868524e-03
-2.338790666916328465e-03
-6.115108160470615270e-03
-3.041180679137302049e-03
-3.372258387996244014e-04
-2.973872437882939344e-03
-1.989889745747239680e-05
1.444689133326648852e-03
-2.050276623247169767e-03
-1.300738334280828129e-03
1.465595570545921581e-03
4.688106550830793348e-03
4.957674338860369907e-03
1.828304454019714616e-03
1.298374722363263315e-03
-7.012088108670749137e-04
-2.236386239475090729e-03
8.807622489767457903e-04
4.712016696024056393e-03
1.059190365092195496e-02
8.592005424366349134e-03
-5.290921971051119367e-03
-9.507621001309311121e-03
-3.511669918353781290e-03
-3.275934067267062891e-04
3.512499469700980023e-03
4.758828157964975838e-03
1.175615784268546236e-03
-2.892966930707711708e-03
-8.618047111096746593e-03
-7.195056389138374323e-03
2.676950000823684860e-03
5.523245915878359676e-03
6.234010078900157790e-05
-5.746245127154184403e-03
-7.604714180265727957e-03
-3.971773843699994040e-03
9.626956386986505656e-04
5.042442663935746937e-03
6.497174111840437610e-03
3.326242268988778821e-03
-7.834742355075018875e-04
-2.775587199184303966e-03
-2.830357165271687753e-03
-3.238501085976367919e-03
-1.174730347329996276e-03
4.716675796092710017e-03
2.115640196778954471e-03
-5.931300111272614847e-03
-4.318036321326894703e-03
2.173188507662102836e-04
2.407478438973080330e-03
6.343512834190253268e-03
4.915313385809315198e-03
-1.758688890798906432e-03
-3.776598112229241026e-03
-1.480234672802276325e-03
1.860589948431006424e-03
4.120758170067594095e-03
4.184778405112696970e-03
4.351148497831528600e-03
1.381129063144018263e-03
-2.792851416704673646e-03
-2.592905614893222226e-03
-2.736841891227186942e-03
-6.638498939297326389e-04
3.395751637337089159e-03
1.767604321391234249e-03
1.083662739725664180e-03
1.297711611511053603e-04
-4.540176112899681725e-03
-1.846932442411214782e-03
4.982878675708452346e-03
4.259095933698724308e-03
-3.227852544892161578e-03
-7.524744172507868978e-03
-5.685756839673736934e-03
-4.041473363146066457e-03
-6.598462515184254015e-04
4.346681055163434393e-03
5.773082552035911467e-03
1.379375405665727748e-03
-5.387722044489408856e-03
-4.733015212098894142e-03
-2.905129994466517599e-03
2.534267291773440031e-04
1.025180910433219801e-02
7.452510854495920933e-03
-1.045518292914179512e-03
-1.252582818821777657e-03
-3.512085043576663405e-03
7.501986204860756761e-05
4.137613374776400073e-03
6.832860012566495866e-04
1.945703953896239574e-04
-3.569057465629981666e-03
-5.193884487928902317e-03
3.453886437744025143e-04
1.122664606436287685e-03
2.457341730070709222e-03
6.589348402431084196e-03
3.981511451905202573e-03
-4.148260616110110814e-03
-5.509126980273705565e-03
-1.390167422094706288e-03
-2.142760877426659605e-03
6.347211577342422089e-04
3.611079433458955039e-03
-1.247103569572897367e-03
-1.934171346132426477e-03
4.584321125809271563e-04
1.967521850180970616e-03
3.499367878288390989e-03
7.461837280359188583e-04
-6.157983854368087248e-03
-1.325169343394068736e-02
-1.142215222593107732e-02
-3.977520008099658978e-03
1.562184000175331853e-03
8.320977543058577508e-03
9.598620048783833292e-03
5.230141280344603218e-03
3.087950633807958704e-03
3.088442487322302140e-03
2.402461045175513770e-03
-4.033320729511329344e-04
1.811519436668571461e-03
4.121107172661321594e-03
5.604345406650740801e-04
-1.380157219896007348e-03
-2.707843051630116123e-03
3.129420542474937311e-03
1.022222635408385517e-02
4.550828195212393810e-03
-1.617663864613893480e-04
-2.588299891504581597e-03
-4.677649806459116370e-03
-1.079174756496794913e-03
4.751565488273615571e-04
2.106640237087210443e-03
3.083923270372444184e-03
7.447252293472166832e-04
-9.876864688357510813e-05
-1.241586895162680344e-03
-8.072450482047638029e-03
-2.219095436259767642e-02
-2.040307030104910810e-02
-2.372687769037050247e-03
-6.685575548086736828e-04
-1.960841103910593297e-03
4.510279077426666491e-03
4.448049865514395323e-03
6.268517727473193156e-03
6.054208556063254629e-03
-6.783560009461848299e-04
-1.717185744362386812e-03
7.734766142394426669e-04
1.235005591892726629e-03
4.166549656431988921e-03
8.950709331935220031e-03
7.892145255138224499e-03
7.321653503447378419e-03
6.316161353305954629e-03
-2.814266104309384210e-03
-3.725943485437370646e-03
-4.490366472699808200e-05
-1.286376229363093288e-03
2.782258516694307258e-03
1.405311600326407308e-04
-8.499442243443473127e-03
-6.966214225025161785e-03
4.569359660817533611e-05
5.867947318628102295e-03
3.182644692532296364e-03
-3.361744103685924707e-03
-5.096356416822210231e-03
-7.244758678378641903e-03
-6.619402401463880294e-03
-1.101663544953395248e-03
5.744342173090500638e-03
8.321580427375593544e-03
1.738663593003373720e-03
-1.532358168173686506e-03
1.509034317970899637e-03
1.387401710043955185e-03
1.564222568848344609e-03
3.783573002989087854e-03
3.889010727284385096e-03
3.780295937916224210e-04
-3.976834353524767024e-03
-5.213595866309146502e-03
-3.731929296697527373e-03
-5.193817741910006480e-05
1.889140258568202096e-03
-1.677752042652726422e-03
-3.589462539719258730e-03
-1.644689176651677404e-03
-2.731709946057289066e-03
-2.503941498867958641e-03
2.422358468486065369e-03
2.745841988975046555e-03
-1.327024885246607584e-05
-7.050664202094410974e-04
-3.217964951428197318e-03
-4.195272326649109561e-03
-9.375472869082594665e-04
3.543803587053921417e-03
5.759224481932299043e-03
9.518969504059122087e-04
-5.515667520268600910e-03
-4.988108321266031785e-03
2.020238915298823434e-03
7.683242635883916552e-03
5.904731534565886217e-03
1.512621573607729692e-03
-2.403281933681910600e-03
-3.947582282310492519e-03
6.048880972517980178e-04
5.152469860462990589e-03
7.364199864880452938e-03
6.327367413980505666e-03
-2.465081918991038042e-06
-1.991541584367097564e-03
-2.075729538602317376e-03
-5.058680120299383597e-03
-7.144187500298876739e-04
2.214915409015696338e-03
-4.651738147811857252e-03
-6.434293958962215843e-03
-2.625552086210566211e-03
-1.910012449093937813e-03
1.370992781563480081e-04
4.547999612200419317e-03
4.242126536612112093e-03
-1.692528081195908939e-03
-5.032846031121891196e-03
-3.064456525331576541e-03
-1.241694968691175885e-03
8.319985289145175695e-04
5.681445567292075539e-03
7.777468927411000481e-03
2.093180983642605342e-03
-3.554366691942750268e-03
-1.639265353202503045e-03
1.527498912681059164e-03
3.004261454605638981e-03
3.759950265063911976e-03
1.138522792587171994e-03
-1.616542851787741795e-03
-4.338645775550578100e-03
-5.774126688398151935e-03
-1.128763353525518397e-03
2.318056968020082583e-04
-4.749633053831001789e-03
-5.910198412916731377e-03
-2.871206847670747676e-03
-5.847651412505549835e-04
-4.265213968582483219e-04
2.109334898695168937e-04
1.868695546041002206e-03
2.181836147611455109e-03
1.312893124796374279e-03
-1.563768291305583924e-03
-2.386550400761430421e-03
7.115797413466635806e-04
1.653817561035696333e-03
3.238623749651303209e-03
8.322993381551622646e-03
9.716399692477643499e-03
3.844697125325777752e-03
-2.153689676814081640e-03
3.470769629344579014e-04
6.184990007956465800e-03
4.580762008353015703e-03
-2.081912195381815326e-03
-4.463226003946021286e-03
-3.933213317972816120e-03
-4.375490249898050278e-03
1.220395420773136210e-04
5.718526287389798408e-03
4.109069817378270019e-03
-8.453841433933784654e-04
-7.005640912340092841e-03
-8.800860524903116391e-03
-4.192987548262284980e-03
-2.124507671833731313e-03
3.653456443392927430e-04
3.146912098423863217e-03
-1.252914519320259910e-03
-4.926937768812409725e-03
-3.253942841467042432e-03
-2.178807152633824903e-03
1.025153604938273656e-04
3.792704084934896830e-03
1.824429814548026926e-03
-1.295185202815450978e-03
-7.138500494481670009e-05
7.462892167021386788e-04
4.231012978477304530e-03
7.211102070236721437e-03
5.542307233733438643e-03
6.812091256965295549e-03
2.383353777736588620e-03
-6.028168917364216256e-03
-5.058888711994794819e-03
-3.910695547398690235e-03
-1.986092157916804265e-03
2.122319984074285716e-03
1.140814906437604206e-03
2.383473934393009683e-03
1.758316655478691292e-03
-1.406196744766521423e-03
3.119012486015996979e-03
4.051122017300817779e-03
-2.538028113373615516e-03
-6.158072811445568402e-03
-6.798165686978436921e-03
-5.029328004731281783e-03
-1.056139792035056457e-03
1.580373602639280860e-03
2.820689810509912580e-03
1.656669403652877770e-03
-3.413317999115873282e-03
-5.375955025945480976e-03
-3.270312950672733289e-03
-3.770118632764528094e-03
-1.045998462098074022e-03
3.957325663632396684e-03
2.625386885318834254e-03
2.876822021035968123e-04
1.600630626032792793e-04
2.569765869848627052e-03
6.910410910607909900e-03
6.794311877931504332e-03
2.332063894195045371e-03
-1.879819466447475934e-03
-4.152050965355552994e-04
3.799089733177769216e-03
4.786892418611156212e-03
8.410830518574259271e-03
1.054451183821986104e-02
5.905272955938446061e-03
1.720432748677971869e-03
-3.701240412297436815e-03
-8.787286872179797190e-03
-4.907748700359376368e-03
4.071631057076131183e-03
6.221418650175730355e-03
7.608717106192787938e-04
-3.261090945145219810e-03
-1.180408114325421330e-02
-2.482263833228864902e-02
-2.174034087751913411e-02
-4.554784439493472954e-03
4.752001834207584575e-03
-6.678554938832920868e-04
-6.675865204976316747e-03
-2.050851496282549147e-03
4.861967919482782473e-03
8.888060924761301967e-03
1.126183393817732116e-02
9.562539618588310891e-03
3.383005038411282528e-03
-3.072731943173380963e-03
-3.510108866716946108e-03
-1.756595411539866973e-03
1.053969737256401848e-03
6.830541540206633636e-03
6.151796649896084171e-03
3.655244183856115429e-03
3.651154577586301908e-03
6.173037397376175510e-04
3.181849443866914193e-03
7.009478495936720920e-03
1.321351568608030574e-03
-5.925520567375225020e-03
-9.476507934280434600e-03
-1.031792340239101602e-02
-8.311231007330197734e-03
-2.169811644513368245e-03
5.714809195493739634e-03
7.892934020021794006e-03
1.601544190443693469e-03
-5.294702878361336011e-03
-3.298394398666875185e-03
-2.687478532643929052e-04
-6.426695947990592448e-05
3.810040037425156071e-03
2.330373431956353231e-03
-1.168610735129323348e-03
8.201124750206675602e-04
5.178823473964241269e-04
3.290773939096220367e-03
7.742141004384508508e-03
6.209283527911918510e-03
1.720068856003318302e-03
-4.395474004895569102e-03
-5.539869676278993092e-03
-2.495249110827526141e-03
6.541444682331970647e-04
4.970100038627723281e-03
3.832444677781963755e-03
1.098574145629803141e-04
-1.998577634545065443e-04
-6.223020237014000337e-04
-2.250479195998710859e-03
7.250150032954720460e-04
2.489913869583873507e-03
-1.395352436825583915e-02
-2.408442169655705678e-02
-9.062610378052749285e-03
2.335866139335790546e-03
9.227933007520847455e-03
1.217108202387149479e-02
3.725912094801416777e-03
5.116675643331647719e-04
-2.925821734359929528e-03
-4.078913855054439562e-03
1.583126644082017559e-03
-1.000436075763264532e-03
4.218968130633596846e-03
1.155213138203050466e-02
6.767731882498500412e-04
-3.976711012896675876e-03
4.499698380427819672e-04
-2.951926687547079715e-03
-3.088733205197484628e-03
3.986430096077816718e-03
4.403863339598036372e-03
-8.519682723048380060e-04
-2.204605902431273478e-03
-2.343093429960145697e-03
-4.581304921612664458e-04
3.811737459072260612e-03
3.938615030693802012e-03
1.872246816117586858e-03
-3.082967342670579237e-03
-7.999429593239400921e-03
-4.396077543905401591e-03
2.254408931004000735e-03
6.289962531286561256e-03
6.574236104388183656e-03
2.434515551745204155e-03
-4.557489416916757699e-04
-4.201152558645503978e-04
-2.414084166918871888e-03
-3.463348981384789180e-03
1.683925128259037250e-03
3.185905762636368713e-03
-1.365602339506074778e-03
-1.907794714924810524e-03
-4.392904245174185634e-04
2.317849498495970929e-03
3.785148836064441535e-03
-1.079313166483449895e-04
-2.311664545132310986e-03
-3.928245807294921364e-03
-5.217074862775827708e-03
-3.860941080860515878e-03
-5.495480303523860954e-05
6.833296924324855359e-03
3.390233332030208324e-03
-3.480079083103842456e-03
3.006252436141956049e-04
4.205531763422898340e-04
-3.442346492542356718e-04
-1.984296551944383295e-05
-3.270463228181855284e-03
8.289535264345476500e-04
1.877510815517958705e-03
-2.633683436046965840e-03
-3.589049377749211657e-03
-3.052993428145224074e-03
5.324936598418116007e-03
6.144279358187685995e-03
-4.378324258656975457e-03
-4.799840678717862824e-03
-5.088587726072963356e-03
-2.883396346581477802e-03
7.244007528662248750e-03
9.112767101309147619e-03
9.588979002541676150e-03
5.093339824302768951e-03
-7.623365253893402832e-03
-8.146541153571634775e-03
-3.406070695927899700e-03
-3.379578313762466365e-03
1.087626879379864457e-03
5.111667300199208668e-03
-6.592437696249056926e-04
-5.576696647258167112e-03
8.207673700980819796e-04
5.847004538509236599e-03
5.591657714576398798e-03
6.379074763604744742e-03
2.407877506512606704e-03
-2.761112841192308980e-03
-5.492837643405094374e-03
-6.170058243447685588e-03
6.616008042986795592e-04
7.013698553757686041e-03
6.647260574483864447e-03
2.738255350047806048e-03
-1.933327309738461534e-03
-1.772251038457381238e-03
4.612786653634239954e-04
1.781048418525621631e-03
2.396615944480724476e-03
-1.672448681685001189e-03
-4.359325926853612788e-03
-2.955529058271488905e-03
-3.814725184119073433e-03
-1.653002182502603728e-03
3.623398971173486579e-03
-3.657709488718282676e-05
-7.078508643680088246e-03
-6.285277945542117398e-03
-5.009157065632056406e-03
-4.302882181609716042e-03
1.556823140495384138e-03
5.343944706134652264e-03
6.464176401794689830e-03
5.360082004981377678e-03
-1.161970037166515108e-03
-2.721364877921658969e-03
-2.083400176378743434e-04
-2.112569286505041493e-04
3.831296943265265036e-03
6.197124919659836167e-03
1.552025756253191209e-03
-2.737676312537690258e-03
-3.794684738194513320e-03
-1.074853202151750163e-03
1.265843640021896378e-03
-1.348092122231990108e-03
-5.640350991661045518e-03
-6.058269686232295621e-03
-3.187833283232446770e-03
-2.260289312560518227e-03
2.559443312231819180e-03
8.925374197944214646e-03
6.363078135663820765e-03
3.666503408558065627e-03
-2.501897821400602914e-04
-6.371006075671513565e-03
-2.543028454686623550e-03
3.911078008144646539e-03
7.539553934498807383e-03
5.544355352805754172e-03
-8.412002080076314741e-04
5.883500240288700020e-05
1.688628011618403032e-03
6.343364412762939920e-03
1.219923097565273756e-02
7.323657446615752104e-03
1.042517235636991873e-03
-1.016370858823874637e-02
-1.346005810220929182e-02
-1.523194763158572428e-03
5.231597127817417614e-04
5.949811289711084278e-03
4.762561106466401024e-03
-1.211772503189065785e-02
-5.917080146095210491e-03
6.191819879002954073e-03
7.140900737477499580e-03
-1.838734938577069218e-03
-2.158168532125987263e-02
-1.592819435158418853e-02
-9.565722484410260629e-03
-2.048448516279592971e-02
-6.301519836666652843e-03
9.041212368701445970e-03
8.824753735477783995e-03
9.862934459535864506e-03
6.016863841995854015e-03
4.904748081907734508e-03
3.558347409322920509e-03
1.366771415110839931e-03
6.069250809263727203e-03
7.463318337611076284e-03
7.466586228013567979e-03
6.335648346895015465e-03
8.674558449836686962e-04
-4.001256649264945536e-03
-2.934926752438530781e-03
6.338792874290850865e-03
7.299620662246043314e-03
1.274023186212859364e-03
1.916184726255445135e-03
-2.414425573263283623e-03
-6.893223315710794719e-03
-4.115628935651778793e-04
4.106389328262300374e-03
-1.555921186110221241e-04
-4.055954940227669663e-03
-3.808474561540882430e-03
-7.747284401626522085e-03
-9.315269276364699508e-03
-3.213954694494598101e-04
5.962308524965631226e-03
6.765344398923090266e-03
3.552825154916136249e-03
-3.602917085376108712e-03
-4.511266431443380909e-03
-4.609780434202962601e-03
-3.461280442065593505e-03
5.560006108661621517e-03
5.826655846837621756e-03
1.567096951331654539e-03
1.843002431253010567e-03
-6.229914763788872017e-03
-9.055624841176765361e-03
1.995908821060637624e-04
3.737979978471474632e-03
1.740373107656161466e-03
-3.615081817144600706e-03
-5.900806422077827310e-03
-1.947394319321159003e-03
-1.758070996877198876e-03
2.888449727458716493e-03
9.504602853709437360e-03
5.246209523987248498e-03
6.713377127280427219e-05
-1.688279387315267093e-03
-2.853201546277383659e-03
-3.139315276031514647e-03
-6.435645243377083498e-04
3.076738297415323575e-03
1.161696796467977981e-03
1.212468103226470740e-03
1.653161275356468743e-03
-4.408720752079362632e-04
7.532495127561193542e-03
8.221615827985856786e-03
-3.023545165524914834e-03
-3.539663969949402231e-03
-3.414052263990116545e-03
-6.308082603858133214e-03
-5.748479774806994303e-04
4.500890237279523733e-03
3.416279973866536389e-03
7.230210478784917681e-04
-2.265535449513468493e-03
-6.190691060261063403e-03
-6.031771950535410806e-03
1.568033674144948342e-03
6.616537951347498635e-03
5.015496635424791273e-03
-2.388574316016561143e-04
-5.854591423451266374e-03
-4.715926415652060139e-03
-2.472555288872250209e-04
3.374597387316441086e-03
5.738452856434215869e-03
1.485491552564654864e-03
-2.321522126902710037e-03
-8.616777063549128576e-04
-3.038162417081461449e-03
-4.450928383258797791e-03
1.749006963905695277e-03
7.800174533217374764e-03
6.850985039634419418e-03
1.096301011574795856e-03
-1.527654972842489326e-03
-7.024841461622348404e-04
-3.080526168593761445e-03
-3.378346048886037966e-03
-3.513975532693765311e-04
-1.742730033069283917e-03
-5.283883496116411477e-04
1.550468816832290984e-03
-2.616014550264560319e-03
6.846611468841629642e-04
3.519864110604592911e-03
-6.052957881844709537e-03
-7.077896171026762384e-03
-1.605764269617652616e-03
-3.263987853191382439e-03
-1.529235952200447713e-03
4.523368364921270118e-03
1.061970149083850228e-02
1.187492025069845046e-02
3.111846403315604581e-03
-2.572422424546602290e-03
-1.134018440536152354e-03
-1.444964455323659389e-03
-3.221855123244840146e-03
-5.094531951198817861e-03
-4.183902661048208120e-03
-1.052212693305371082e-03
-4.159220767018452806e-04
2.154455716213261006e-03
7.302146571018840529e-03
6.252287842046014982e-03
-6.812254606432581678e-04
-4.711723362684602096e-03
-6.089320919057308185e-03
-6.827432330887020506e-03
-1.214229681774571523e-03
5.752687935195982538e-03
7.138277474393854224e-03
6.700342143716661591e-03
2.493171718209937025e-03
-2.932059143043855721e-03
-2.576948715994272030e-03
-1.860091883064505548e-03
-1.945541834096021485e-03
1.830667443943482034e-03
3.274859037400264933e-03
-1.708138353872270783e-03
-4.369207105530348301e-03
-1.855360778193099061e-03
1.462217394093530192e-03
4.265958612499694443e-03
8.067002374828754173e-04
-4.858902699588624023e-03
-4.509956467157873010e-03
-5.620572176115739074e-03
-1.064998429625062248e-03
1.179919468459661447e-02
1.079489048641395395e-02
2.015854805237575920e-03
1.632429728662464045e-04
-3.604959114452346933e-03
-6.250521879745569130e-03
-2.700612920159255453e-03
-1.509752685282570112e-03
-1.125730453426447130e-03
2.696858236297381187e-04
-3.951676415151908831e-03
-5.933178431549452313e-03
-1.861272759224304272e-03
-6.363845027941426218e-04
3.021986556511863445e-03
4.711056918106257610e-03
-2.013829865153156113e-03
-4.245821116871125074e-03
-4.006717104922396210e-03
-1.322555912435124633e-03
5.953134023537393939e-03
7.332087291544665299e-03
8.998437496117187018e-03
6.863298709735126887e-03
-2.058866771114657278e-03
-4.053766690563107228e-04
2.339112076032406028e-03
-1.490258154249397057e-05
1.736596032631537202e-03
4.236302004452700094e-04
-2.692807353281139772e-03
-2.044535552767390123e-03
1.023863952911771265e-03
4.930815120398365607e-03
3.529587398690786811e-03
-5.399955597038677080e-04
1.246303520050675304e-03
2.917378251364615305e-03
-1.936074976282903780e-03
-1.237244025916031231e-03
-2.546288000065646123e-03
-1.985161352909913315e-02
-1.962174284680530054e-02
-1.631523653364268950e-04
2.366017654294162893e-03
2.497185436192611400e-03
5.469420570536898119e-03
3.870019896010206935e-04
1.932857859667721188e-03
2.345859163010043883e-03
-2.839553201154591550e-03
-2.636827177609399418e-03
-1.128658608805687335e-03
4.511496262490268493e-03
9.046312844198654488e-03
3.996851920448121417e-03
2.309072931028383633e-04
-3.883122788249564281e-03
-1.061607303257787287e-02
-5.633158859910323592e-03
5.474467892941111899e-03
8.766226942578300360e-03
9.789117032510220168e-03
6.142864095309039790e-03
-3.956494378344537627e-03
-4.044198097220419799e-03
2.937681346363975950e-04
-1.657132651011371293e-03
1.658948054870973800e-03
3.905635107085971350e-03
-1.593336768294559367e-03
-1.747544950854461971e-03
3.882304835592214612e-04
2.196118167475817444e-03
6.927042156584992810e-03
2.997296029643526771e-03
-5.878846427212700183e-03
-7.577464565460070162e-03
-5.753908389427068136e-03
-9.021547607772617810e-04
4.215194747043835011e-03
7.314379948919953224e-03
8.185780860616444568e-03
-2.340034666353067293e-03
-1.086829487161406274e-02
-5.020933990991077386e-03
-2.632819223701706249e-03
-3.041243373125609734e-03
2.278614739229151837e-03
5.096668249693012305e-03
2.350929188239027964e-03
-1.884233348348500134e-03
4.468703797039775519e-04
4.249170892218762444e-03
1.409170952156341573e-04
-3.860710859153022000e-03
-3.755524804634692310e-03
-2.423453217117099365e-03
-4.124987688748173176e-03
-5.050064174593000589e-03
3.249865016445178771e-03
8.497390006803164433e-03
5.735385418203189055e-03
6.306233112758361306e-04
-6.555282092646680207e-03
-5.970739649776755920e-03
-1.211501751424961994e-03
1.363431026745091186e-03
5.109543278535647916e-03
3.324804878024641488e-03
8.332189242068031463e-04
9.645127463200958359e-04
5.437521722564085669e-06
4.239633958836324171e-03
6.781289348565760697e-03
4.680292309880072950e-03
2.359126202178258094e-03
-4.798244307048473573e-03
-9.491635820965975759e-03
-8.011791668282813514e-03
-6.810863498494555864e-03
-5.848531788456802147e-03
-4.110253138800853967e-03
-2.078874272686918705e-03
-6.113783722255506509e-03
-1.155235667732717672e-02
-5.922689034861042083e-03
1.798422487417601981e-03
6.455398154754890538e-03
1.110095359707764795e-02
1.120454545485387483e-02
1.200605217051528215e-02
1.385918974104038970e-02
1.489720049289555703e-02
2.106162686805895801e-02
1.988860436589191816e-02
8.819657609729596517e-03
6.522485685051173515e-04
-9.674556832429284312e-03
-1.419263557152744895e-02
-9.215547319218812122e-03
-1.226049580185111822e-02
-1.145059694876815297e-02
-6.260873543210146268e-03
-1.303968757289502081e-02
-8.096524524533152065e-03
