-5.886631907630780237e-03
-3.215809653515085392e-03
3.917414188443029549e-03
5.782972119703241182e-03
7.566152339921735324e-03
6.331821405606665940e-03
6.999974999989411542e-03
1.135140547904899336e-02
1.415695650824426444e-02
1.549413035784900569e-02
1.441052038810795334e-02
1.078072980371696209e-02
2.847594426635497930e-03
-9.071675476850254993e-03
-1.570825699354963523e-02
-1.587211917753239554e-02
-1.957008342255273786e-02
-2.643381388885818889e-02
-2.622357773338012191e-02
-1.785345467194471639e-02
-6.156074261677377778e-03
5.104321099956156405e-03
1.128995969296191920e-02
1.307484013196481658e-02
1.266674675422786549e-02
8.941084119790327148e-03
4.336830340789565690e-03
4.924428143640969570e-03
9.558928398358434303e-03
9.361723353173413004e-03
7.138118332229582107e-03
5.026593989050118054e-03
-6.958243185392202698e-03
-1.908646537656634445e-02
-2.031524172539486348e-02
-2.164223639518096307e-02
-2.475473708386350877e-02
-2.181430046910470474e-02
-1.109489640841177654e-02
1.095237982695073092e-03
1.027262528694269580e-02
1.882225403791266613e-02
2.058044927351930509e-02
2.057611556193789798e-02
2.497351731038134973e-02
1.575161569107442344e-02
-3.786878249319705972e-03
-1.537190238705327984e-02
-1.561254146310191507e-02
-5.069185900174049374e-03
2.091956370551760133e-03
2.263750067607053448e-04
5.381345115048264587e-04
2.634594184003487445e-03
6.865591118508782530e-03
1.908007878211865488e-02
3.183704189984748467e-02
3.031289376977398808e-02
2.565626489350672501e-02
2.823481393708822049e-02
1.064347549676731425e-02
-2.076604640164560894e-02
-4.002706930839581428e-02
-6.170362064257448736e-02
-7.047105227239504333e-02
-4.192846171941279343e-02
-3.769528506279343390e-03
2.005038460610878218e-02
2.295875667621227051e-02
1.265260730962880845e-02
1.176779904594044482e-02
1.384076050793090450e-02
7.783703368990441823e-03
1.086828642529616418e-02
1.576928444805210383e-02
3.335219687430015416e-04
-1.256895793904919470e-02
-5.328609014517995089e-03
5.324971452169655409e-03
1.266594353528023228e-02
8.269492789038468059e-03
-2.647617114807556803e-03
1.016598120696436854e-03
6.692322592869267249e-03
-2.533480786965640070e-03
-2.534420303341223743e-02
-4.122800264388502833e-02
-2.222802741232964355e-02
9.236962587648882284e-03
2.084659593896366625e-02
1.647488726853829633e-02
3.560639235672782496e-03
-7.624264407827121420e-03
-1.298400477799517214e-02
-1.345835459238223925e-02
-7.598267505340108863e-03
-3.534649014765318259e-03
-1.115893784662470162e-03
1.906000885260547085e-03
5.247331700120727929e-03
1.211911358854017400e-02
1.742377785242646415e-02
2.284891638199597688e-02
2.566798036465324853e-02
1.703994867268273511e-02
7.501860606509601175e-03
2.457561146293852500e-03
-1.603457594935673181e-03
-2.843717448938079366e-03
-2.098323613305305008e-03
-1.113676528099117897e-03
-2.471537704232664584e-03
-5.589362340995273314e-03
-9.722805370769355485e-03
-1.094122364603785334e-02
-3.931829149508916932e-03
-1.468753800521698622e-04
-1.424953102474219339e-04
-2.448975586177989765e-03
-2.026638920251249212e-02
-2.696438868729201729e-02
-3.318835423173390874e-03
1.346711097970580868e-02
1.307453418246891375e-02
1.291214829394291518e-02
7.065313217533594585e-03
-2.834268295450126634e-03
-3.841722472308721319e-03
-1.032811944249200113e-03
-5.205547396086140487e-04
2.912008603049950797e-04
-3.412550908816384433e-03
-8.229652647757927653e-03
-7.741599765569359692e-03
-8.550329605990645426e-03
-5.546276326159092079e-03
3.639836943628127594e-05
-2.025920499819752925e-03
3.675900551351946369e-04
7.311937365894381757e-03
5.416634376723812767e-03
-7.701642297003439717e-04
-6.238962344614417755e-04
6.362948280460236847e-03
5.211841476005276037e-03
-2.901631140769819414e-03
-3.476186058854518080e-03
-1.361704539640364552e-03
2.875657742647306711e-03
5.487972421117128831e-03
8.376414289445921653e-04
2.750437484973538866e-03
9.909834068741322707e-03
1.265091371597449992e-02
9.359222431184421875e-03
6.097161617628356692e-03
1.515916665889094177e-02
1.429094557086811601e-02
-7.616077227254464989e-03
-1.701475264672157664e-02
-1.309377803767124149e-02
-9.627702624754820929e-03
-1.844110265195856744e-03
5.863005152050477804e-04
-4.013519808033923740e-03
-5.455783080550997803e-03
-6.327525532761091830e-03
-6.338972581026528982e-03
-2.862883467190687706e-03
3.282933580805415187e-04
4.573093398931249443e-03
7.033715442407270819e-03
2.574110884239302552e-03
8.862972457331500572e-04
4.050683476974186077e-03
4.806686805987430561e-03
-9.266671911089836150e-04
-1.707662804378636337e-02
-2.302121791165707282e-02
-6.515751278254415350e-03
9.833487447721766042e-03
1.634580115282695256e-02
8.086436218296346942e-03
-5.619394372205661035e-03
-4.347014573888334163e-04
6.518549724892692965e-03
3.511317667776019938e-04
-6.947541967460889832e-03
-1.048743058900446570e-02
-1.620559573499533819e-03
9.904513756103723240e-03
7.432306718237267906e-03
6.295294359641090886e-04
-2.552060289397687330e-03
-2.095531934129821108e-03
-2.807208147218247089e-04
2.674825717337945153e-03
6.104487740426886057e-03
4.658673657444967718e-03
4.776629952011048237e-03
5.062811469401197126e-03
2.377214219262531632e-03
4.509232549991100576e-03
2.562086204774976367e-03
-3.905008609605036332e-03
-8.581456282008254749e-03
-1.362658128183477819e-02
-8.905089906277446898e-03
-2.224274974976034737e-04
3.793446451760621764e-03
1.070501763393799481e-02
1.376591387822500082e-02
8.901249523222748081e-03
-3.062576837471370911e-03
-1.635555372416553493e-02
-1.322716374280750486e-02
-2.246241242997108062e-03
-8.195072998961490645e-04
-1.379751391990539228e-03
1.837748259035075667e-03
3.021805089860956153e-03
3.299182834107193367e-03
7.889482533850541643e-03
8.416594630008942049e-03
1.126451987548135274e-04
-6.393945445845066432e-03
-7.342377787402015743e-03
-4.695153349896699808e-03
-1.948033763091611440e-03
-1.761849259643080267e-03
-6.101605878643208067e-04
-1.116105139681913003e-04
7.354705682664052901e-04
3.062585252143964175e-03
-1.994952134441853949e-04
-3.747778243677517187e-03
-7.823473267194497489e-04
1.373365117710556235e-03
2.596036007340803337e-04
-1.185257795871244016e-03
-4.079621823478755092e-03
-5.063452335701688206e-03
9.656997184393713470e-04
7.795863723526711732e-03
9.975887686406392785e-03
8.361193487715232187e-03
9.976929185420040699e-04
-5.198094607018921565e-03
-2.542866932597289287e-03
2.544035779997792530e-03
3.490200957085557235e-03
-2.923849813166229839e-04
-2.146748213513315941e-03
-1.097682901185818242e-04
-1.565648919251016449e-03
-9.759448875164337912e-05
6.125339274560711450e-03
5.760253872063025860e-03
3.899456599259638369e-03
2.753957249591099110e-03
-2.780935512302182885e-03
-4.283116004463434837e-03
-2.700209620436751744e-03
-3.154957634471008184e-03
-6.749446606357103291e-04
-1.582308638434964118e-03
-7.635092067630820656e-03
-5.919048416711158306e-03
2.716671469969680289e-03
9.837310996412832603e-03
1.311363385951784706e-02
8.123946720562292070e-03
-3.903125846202617003e-03
-1.250933391366879262e-02
-1.510906681434370444e-02
-1.249421475810356778e-02
-2.196393668388720716e-03
7.322805550359481885e-03
1.018446771115332460e-02
7.863156681840387588e-03
1.723864417142542595e-03
4.695741515581608244e-04
-1.037113122891240684e-05
-5.578456859498656141e-03
-8.099472624216664390e-03
-1.063941209421021515e-02
-1.085114245442041388e-02
-1.478367553177508103e-03
1.056847823087633462e-02
1.632791889632466409e-02
4.756179530355549544e-03
-1.159466434220271687e-02
-7.023149356282908790e-03
2.833219090109754829e-03
-7.035340488760011366e-04
-3.030089920007098848e-03
-1.577823345310740675e-04
-6.792141575168279561e-04
2.281438634492964027e-03
9.709706401199239001e-03
1.156034883350766200e-02
1.022656067223409911e-02
1.116801809698142814e-02
1.465296445028964160e-02
1.448193805621434890e-02
6.753070712376305854e-04
-2.173351041147605564e-02
-3.458061031860332202e-02
-2.405873229019805937e-02
-1.474761063069028513e-03
1.219308250399767091e-02
1.449190229511183522e-02
8.134569901883196077e-03
2.674650767589255816e-03
1.343313982331434571e-03
6.964452360197043949e-04
6.625755309326588315e-03
3.270361631437104268e-03
-7.928086706019556174e-03
-6.165030410025109514e-03
-4.063789065247486176e-03
-3.809436636261416629e-03
-4.898838132408682086e-03
-6.698766656701425973e-03
3.967951464869323534e-03
9.679460112732246255e-03
5.351236303165544418e-03
3.208493302051381498e-03
6.124365109535481050e-03
7.429263827193990574e-03
-9.320799322071344692e-03
-1.255931577471147871e-02
-2.381457264574503817e-03
-1.964797130040650888e-02
-2.322012894173920011e-02
-2.071801164093785719e-03
4.962824419682550225e-03
5.796735619910244573e-03
4.680100727203117573e-03
2.114838732743932331e-03
-9.658781789970011245e-04
-2.428249982274667800e-03
4.932458311170631604e-03
7.901493095357665225e-03
9.064152302517936716e-03
7.720476491180642588e-03
1.072596939494384078e-03
4.775577958430238419e-03
5.346678924686004523e-03
3.307137416588603381e-03
9.572738689754006422e-03
6.829788742670294885e-03
1.615374207593173704e-03
2.561410163287333817e-03
5.876539258954538870e-04
-2.522706201171107977e-03
-2.428295406595846855e-03
-1.505596051275489167e-03
-5.764466694781507708e-03
-8.935421280912781566e-03
-6.662505103166133612e-03
-6.129657066360818043e-03
-4.246041632137475055e-03
-1.069301000382421891e-03
-5.009474323714962042e-04
-7.265155371730869964e-04
-6.002572171938226966e-03
-1.459508392449435955e-02
-1.203038567893050838e-02
2.434377672980961478e-03
1.263370050385655141e-02
1.414198574891756960e-02
1.048221293823215113e-02
2.131747303038538082e-03
-4.691825143072753460e-03
-4.687605952933021625e-03
-2.058372589859065824e-03
-4.711091412973762542e-03
-3.135064198483538973e-03
7.584260931301439398e-03
9.513597508948014314e-03
8.404897978299798525e-03
1.202214947682132655e-02
1.503602845478563786e-02
1.518924935435771346e-02
-7.350703126052927742e-03
-2.982381199399289709e-02
-2.095829542574491680e-02
-1.182104124094078730e-02
-6.508999519206606216e-03
9.207711410096846389e-04
-9.625183038907312531e-04
4.350310616821144970e-03
1.069093503807091311e-02
7.528193630406556681e-03
7.080179643346007357e-03
4.624433749791995694e-03
-4.363994422048196576e-04
-3.561474610427931529e-04
7.157296825547174082e-04
-3.317954479198108840e-03
-6.679440121025952311e-03
-2.205020876781577707e-03
1.952257149143588749e-03
2.461740354418007117e-03
-7.332246384778815526e-05
-6.444515878728741300e-03
-6.677804097674548862e-03
-3.717156037585023307e-03
-5.456624384019069345e-03
-3.581623171652825125e-03
3.526884508425764259e-03
7.953883173729784165e-03
8.686506347264179306e-03
9.397929739261677226e-03
7.084668067332763192e-03
1.839676311159400487e-03
-8.011777667012151332e-04
-3.099181159798226198e-03
-2.622369543092144869e-03
-1.818176353091446179e-04
-2.661550843179692348e-04
3.614448853024784195e-03
4.064068116231934341e-03
-6.899386178651811851e-04
1.586004684905985675e-03
1.734337201504236332e-03
-1.350198491101387357e-03
-1.412616432754325866e-03
-4.214350687833145863e-03
-2.691660050518005810e-03
-8.351035022570498781e-04
-7.206526578344154242e-03
-6.942012842165679216e-03
-3.224048962478782195e-03
-6.080275387805853839e-03
-3.880065578754629541e-03
2.563990112125546193e-03
3.961380888145214080e-03
2.149844498269368079e-04
-4.865745255432554761e-03
-2.928210213488533810e-03
1.887348290527159685e-03
3.142137707038237561e-03
7.889880632272838409e-03
9.928350095246200532e-03
4.018371975922076407e-03
9.084590612558791911e-04
6.546029327446489928e-04
2.530595699199694303e-04
9.468785180425086942e-04
1.672430793636440127e-03
2.564045112037081041e-03
7.652188842403976092e-04
-2.429621489201256625e-03
-1.834289818456564256e-03
9.337765246555746130e-04
2.520193415162655989e-03
5.623520485791796454e-04
-1.767683979415874502e-03
1.191350347223943293e-04
1.410638581027308380e-03
9.799647288603972189e-04
3.091852079915248866e-03
3.134041702622559263e-03
-3.385182106981549088e-03
-9.807670275947394378e-03
-9.539582966658603433e-03
-4.659738570975432807e-03
-8.545258600081754273e-04
-5.750483649719225713e-04
7.742940777321997156e-04
2.913965638576946661e-03
8.488306944827000424e-05
-3.451005796514463805e-03
-4.855053615669270572e-03
-3.127110635582925919e-03
3.032778585378482963e-03
3.530127868764550841e-03
-1.508982194417522304e-03
-3.662251680119990756e-03
-4.060679762858695682e-03
-1.692104245235222259e-04
5.383742005047347477e-03
7.476702487951938404e-03
7.536436710500009177e-03
2.759755716519666537e-03
5.521421392421629794e-04
4.851380872737589417e-03
4.056842599326758100e-03
1.619207666598770001e-03
3.110963184883537742e-03
4.461124740465208585e-03
4.771466087443653262e-03
1.733198192991547903e-03
-3.729181939782255954e-04
1.053429196289292370e-03
7.208160632889661274e-05
-2.695228267249456106e-03
-5.934238734301036308e-03
-7.721387019493024945e-03
-9.107976526792137956e-03
-9.775806303371900249e-03
-2.127920611745981287e-03
1.344877152118353469e-03
-4.803924326631508514e-03
-5.930816855882218609e-03
-6.376636007834793340e-03
-5.437782955736033229e-03
-7.168832634966543736e-04
2.064406770297070887e-03
9.066223177418670023e-03
1.022185337331099099e-02
4.567859740229233446e-03
4.858421252337308954e-03
1.412585372958828373e-03
-4.262238344824974138e-04
3.860444496843750371e-03
3.305569746519636861e-03
2.857905712934568363e-04
-3.062704758104051184e-03
-1.490935470474322568e-03
1.495180505055874326e-03
2.099318840058870747e-03
7.928645610086122036e-03
9.669425626534090823e-03
8.897721911441711096e-03
6.742148387847660997e-03
9.371267144153523285e-04
-2.432194959391679372e-04
-1.792575569178314274e-02
-3.364204814760633766e-02
-1.570345300877882405e-02
-2.690455055496839346e-03
5.091259101378233171e-04
6.881219289839378243e-03
3.228448686899205566e-03
2.289932723768655851e-03
3.779144560869690441e-03
4.388629911710681571e-03
6.405638811958883766e-03
1.595128126192292854e-03
7.360421549722040262e-04
1.676981933767906444e-03
-9.790808714511592382e-05
1.984700695510010094e-03
-1.493605275624039930e-03
-4.237655485492374495e-03
-4.310286294756805314e-04
1.862231113499102043e-03
5.067367518482471939e-03
4.088595151108452563e-03
-1.485277877753352765e-03
-1.803319135212427685e-03
-1.578711121732639814e-03
-3.520907377783078027e-03
1.856797358612214885e-03
9.049110107415792373e-03
4.402070806773478000e-03
-3.151499453660224718e-03
-4.367217568906389506e-03
-4.846809990109722174e-03
-4.835271964565113906e-03
-2.883540783583934692e-03
8.661830644657063979e-04
3.215658009919343269e-03
-1.615982675608529698e-04
-4.942502076114123344e-03
-5.601820340996180488e-03
-3.217949858325742951e-04
6.037444267579480592e-03
6.176567627519633473e-03
1.515164668142581243e-03
-1.546691514954229860e-03
-3.304544147987463400e-03
-5.174611514247183866e-03
3.111970196178366448e-03
1.180064871981763470e-02
2.956877622991922056e-03
-3.356162231959900714e-03
2.420139552401272617e-05
1.899543190827282643e-03
5.941696274978292523e-03
4.673460319704725308e-03
8.258466917870639201e-04
-3.257242308461901457e-04
-5.337740299945702496e-03
-5.102525210609038138e-03
-5.304873822539262276e-03
-9.160431694036198433e-03
-1.346004954647104677e-03
6.194898914610719523e-03
2.524491544846514061e-03
-2.340254541873397227e-03
-3.203188211892504886e-03
-1.303223659569032692e-03
5.735910996316467142e-04
2.155861500883047514e-03
1.495628499362234003e-03
-1.209539859313997706e-03
-2.735214601505280615e-03
-4.831827984661936533e-03
-4.179301519476178069e-03
6.514616779789640828e-04
3.705285782612081479e-03
2.761665709325502368e-03
-1.502467107704148069e-03
-2.890457741561796266e-03
5.758434326868044992e-04
3.215462199510664594e-03
6.789733749771974594e-03
1.050869219058382827e-02
6.978080963283148780e-03
-1.142497477800128803e-03
-5.235467529266045646e-03
-4.779160795629558076e-03
-2.825435280914769150e-03
-1.941883447476459629e-04
1.985569228989387907e-04
1.697926239554680393e-04
4.126612421585502608e-03
5.697556695612717922e-03
1.103145861564709587e-03
-1.983176402107706196e-03
2.628269255133146623e-04
3.182265894065008753e-03
2.418976661551931924e-03
-1.968624699462654445e-03
-6.179243164195839279e-03
-7.276028900652228501e-03
-6.966222263592601951e-03
-4.265835774738374088e-03
-1.926585995202838731e-03
-5.302865521458879905e-03
-3.640039123501995384e-03
3.455165398159852370e-03
5.125981770737834606e-03
7.836147031389852427e-03
8.296895041064565254e-03
1.873360975412728365e-03
-2.326019128232449749e-03
-4.185525780983134769e-03
-1.649873178730117346e-03
8.117110966697431819e-04
-3.286632815868237713e-04
3.920664708672091416e-03
3.738109099921168438e-03
-1.301820266756023928e-03
-1.847288793743865655e-03
-3.026366419412376309e-03
3.082937172194038979e-03
8.203258510784471741e-03
7.363904748067988740e-05
-3.470595054255547034e-03
-3.015232216542892626e-03
-4.529034010816467871e-03
-2.888623437823322621e-03
-2.430889338019705855e-03
-9.756941644075977109e-04
1.242192974456012553e-04
-9.299006308411847345e-04
1.269179171785025928e-03
4.045185879573217833e-03
6.030830892106300335e-03
5.164836716964446052e-03
2.768771394012073568e-03
1.204418194534023995e-04
-7.177309703278304288e-03
-6.348852264634867286e-03
4.513684521816922150e-04
-1.929292933700025485e-03
-4.134888406498312362e-05
6.552355595376632702e-03
6.700351030488627471e-03
3.885274480144296910e-03
-2.913190035943051016e-03
-2.429827398402072472e-03
6.492874029624641323e-03
1.940660841544697294e-03
-5.803174494613308129e-03
-2.224443873220551850e-03
-1.063664627102025228e-03
-2.781054909867828034e-03
-1.272612970240858147e-03
-8.588500207366938071e-04
-9.891595954627354151e-04
-3.496379543022321099e-03
-7.940945959369399496e-03
-5.221479552676115167e-03
1.067138849556990322e-04
2.801426856691702477e-03
8.508762958112758845e-03
7.536712556753102921e-03
-2.969163389655832264e-03
-5.951735905911493922e-03
-2.466493602376574126e-03
8.313967978261836787e-04
6.013115369839949764e-03
5.085208590799358136e-03
-1.829452663230230576e-03
-3.476063054485403325e-03
-2.608403847209000894e-03
-2.720542073721026952e-03
8.362672869680279212e-04
3.446732286183996734e-03
2.653949893025485222e-03
1.272415203987845326e-03
-3.929336409818323661e-03
-5.415216947296241055e-03
-1.989018590920792120e-04
3.798944353235965930e-03
9.468742512751020940e-03
7.734455089025404559e-03
-9.300906581601926402e-04
-9.152141236924252491e-04
-2.866281939635207353e-03
-2.992009080554255875e-03
3.661660753272119768e-03
3.528117417941768318e-03
6.653677720061261687e-03
4.854912034263413577e-03
-5.910586198894534314e-03
-1.101888834739443886e-03
5.096338396091800588e-03
9.505032001308882103e-04
-2.953892623433792934e-04
1.298855498512193132e-03
2.109688906292459237e-03
-9.033193456305061786e-04
1.864460127749146135e-04
5.306486512467404465e-03
6.699196956864623270e-03
6.124569360900448262e-03
-4.324944068104106393e-03
-1.192184120724151287e-02
-1.680860567315199672e-02
-3.473549315492692469e-02
-2.904579744482459550e-02
-3.115753903002103399e-03
4.240629128333494105e-03
5.408679434498460219e-03
3.907448088139515649e-03
1.509306991377927423e-03
3.964889143570396977e-03
7.415748790291384852e-04
2.038658988859961847e-03
4.905627230153669638e-03
-3.904364447977167526e-04
-5.523146876957079265e-04
1.969196500496458394e-03
2.186606425372836140e-03
6.551064498043970320e-03
1.005973358966776032e-02
7.465312436063567189e-03
6.246303188519878452e-03
1.102797497864601434e-02
1.759213897018173378e-02
1.652798778482842193e-02
4.864844065699570029e-03
3.219038223720699973e-03
1.188907730833810295e-02
1.178689000454515197e-02
1.391424919862050205e-02
8.512817451414288542e-03
-1.561280805003919560e-02
-2.833047398899526947e-02
-2.604141047047868127e-02
-1.892971824829953534e-02
-8.446896054801967396e-03
-3.969596866527334844e-03
-2.792927360642794444e-03
-2.800517681100086250e-03
-4.510264305358222155e-03
-5.921599081581755721e-03
-6.221790796358974036e-03
-6.323153821203440945e-03
-9.082873257266685374e-03
-3.043833412444267236e-03
6.107267029495571341e-03
7.336780378789741972e-03
1.025806026477204744e-02
6.026293311532489316e-03
3.140628872860492995e-03
8.347824908184180853e-03
5.283364807822093535e-03
5.616708279527631714e-03
-6.767798243761178126e-03
-2.810215202562899722e-02
-1.305353765543433922e-02
5.896746278513650963e-03
6.686049451413963833e-03
1.279682138335977784e-02
1.034042652003764641e-02
2.971710509839488139e-03
1.949254281746624603e-03
8.273660021136192361e-05
2.824469989405554472e-03
5.968684802630836068e-03
3.426987431768518770e-03
5.901009684572706276e-04
-8.142949702907864313e-04
-2.898208615736060654e-04
3.081131083827432816e-03
6.972879777680787358e-03
7.931257195131470594e-03
7.345229557149557387e-03
1.844511350344457505e-03
-5.854537905492070149e-03
-4.278233844046144818e-03
-3.423910139486794572e-03
-5.621999079542147962e-03
-1.769052988628073845e-03
-3.033855891644745249e-03
-8.133385953078933403e-03
-9.491724359963453136e-03
-9.970620902753999509e-03
-6.151268726211668592e-03
-2.703840620495092262e-03
-2.162898033413988928e-03
6.171912061593000333e-04
2.363964195026148959e-03
2.467605036534971548e-03
2.880506578963097208e-03
4.279844198029530804e-03
5.937907666019395965e-03
6.500528895867458551e-03
5.458706816691173691e-03
5.387532555770540915e-04
-2.865662373352329895e-04
4.263888463369508962e-03
4.595474488423114019e-03
7.173327725186535130e-03
8.458405316499984644e-03
2.499244464841123784e-03
6.467079284534317041e-04
-1.553121084189180122e-03
-2.148082298307135013e-03
3.308598716744137400e-03
5.981325726165509895e-04
-3.800027449158906775e-03
-9.291880543609227702e-03
-2.281846529854516040e-02
-2.385518865420695883e-02
-1.420924472357882815e-02
-8.194865076035893689e-03
-1.286919817432468586e-03
-3.501220779782830304e-04
-5.551967036229478285e-03
-3.423019058023086571e-03
4.627876223267547197e-03
8.534090785260666640e-03
9.286966797105779617e-03
1.266572198470824334e-02
1.205482716225854747e-02
1.081166586328928883e-02
1.558832885739003249e-02
1.638182923647843459e-02
1.783804574070616336e-02
1.976191942440348043e-02
1.225850487744828410e-02
6.565721071904919576e-03
7.483864208743789680e-05
-1.216206476246016119e-02
-1.694587425829956195e-02
-2.015642002651066647e-02
-2.901853264537225183e-02
-3.602126967201274566e-02
-3.717039709495020133e-02
-3.375020049579452452e-02
-2.801530843093849588e-02
-1.209327915907874341e-02
1.248664439738824024e-02
2.668658343426484961e-02
2.541980182948202355e-02
1.197266991722066923e-02
-1.133881043074804786e-03
5.510568163575207609e-03
1.930145451626984199e-02
2.420078021247103542e-02
3.204102472702797383e-02
4.303041885655404380e-02
4.490141397860428901e-02
3.520077355459261953e-02
2.000600910512765826e-02
9.737620466999833552e-03
3.051595429249084890e-03
-3.293105182099978490e-03
-4.290154677293970056e-03
-3.037941594846098759e-03
3.792172501107195681e-04
7.818944779288260205e-03
9.054909645154169545e-03
-5.198114199855183824e-03
-2.845970172636121120e-02
-4.205959086937296337e-02
-4.760851445979777385e-02
-5.808369822531776749e-02
-6.845376392779090047e-02
-7.756194305598641814e-02
-8.127221604589689175e-02
-7.064241662129551458e-02
-4.956728614840577585e-02
-2.218220649992852164e-02
7.248695172287292383e-03
5.755251365901489086e-02
1.230815125099887775e-01
1.271836717369791425e-01
7.089058612785080482e-02
3.637694333828878079e-02
3.075125478783276300e-02
2.905333050871677925e-02
3.076417972304361717e-02
2.807449361282911282e-02
1.581763182659014916e-02
3.293926434514639519e-04
-6.818760242465893816e-03
-8.304316218945229089e-03
-1.122723025100877230e-02
-8.413270785219265080e-03
-5.450560277768082100e-03
-1.046408398363772715e-03
1.491813873695515408e-02
2.065323723291784958e-02
8.979727649258613734e-03
-2.509838779557476644e-03
-1.403164999419814242e-02
-2.574480160315162358e-02
-4.103404901578181635e-02
-5.569830781207217585e-02
-4.989588799136497610e-02
-3.612022471066513724e-02
-2.721280551593364960e-02
-1.977878677642331412e-02
-2.046248227148842955e-02
-1.668957141543518305e-02
-1.243489625151994980e-02
-1.817397861153407027e-02
-9.438528295669717724e-03
8.668614149972010338e-03
2.249656722219475768e-02
1.983374087546313849e-02
-1.569018237464886792e-02
-3.039921837291903114e-02
-6.798266373385917528e-03
2.878797643991566017e-03
7.088244685638055501e-03
1.471742159294841916e-02
1.403344517793412780e-02
1.538583318060701005e-02
9.352801668022093368e-03
6.958913881900025827e-03
2.181952042787871360e-02
2.429585457787224873e-02
2.027411355399957524e-02
3.701847223632579592e-02
5.498926322304672348e-02
5.961245982804990601e-02
6.308487442123603128e-02
6.025779917870439928e-02
4.899103943195604050e-02
3.402793144879309728e-02
4.179699096288371635e-03
-2.210047709964739135e-02
-1.804587508365567902e-02
-3.258830610523232117e-03
-2.768296071607518477e-03
-3.026433320708362892e-02
-7.684647576134648328e-02
-1.090672501599382199e-01
-1.264355496881904017e-01
-1.213574648082656748e-01
-6.491908071305213523e-02
3.526943090960575709e-03
4.414473784727316469e-02
6.925050203707472374e-02
7.141504427178442527e-02
7.170280917304669432e-02
9.862121772825531429e-02
1.070899860425827410e-01
5.347599340236190713e-02
-6.436178755144585095e-02
-1.793879859261238441e-01
-1.947518632662844085e-01
-1.337640727492095671e-01
-5.461196266568152380e-02
5.611190143490805970e-02
1.646615756682182075e-01
1.732347179583693664e-01
8.992062017699983811e-02
4.111105179284534755e-02
1.913444164484777790e-02
-5.615348054466545030e-02
-1.095108079893260117e-01
-1.230380860081329714e-01
-1.378468166356786040e-01
-9.324295397306608946e-02
-3.367979034289662887e-02
-1.861373935248952435e-02
1.628951525012233784e-03
-7.888390499377678430e-04
-5.224241166904348109e-03
5.328607020887819734e-02
7.587804388234922759e-02
5.509199697039309646e-02
1.117943623172920758e-01
1.578544187036554913e-01
9.312773969224871773e-02
2.552506648178529125e-02
1.399299180422717420e-02
3.482744409951005204e-02
7.850718695250495649e-02
1.031955831223606984e-01
8.599056331927970587e-02
3.618100829222550829e-02
-6.989753976096402949e-03
-7.987476137944845081e-03
-1.938529938444052275e-02
-5.463464698887587900e-02
-6.250883522828019900e-02
-5.587122241752073143e-02
-5.637684525843306149e-02
-5.794303305053807168e-02
-5.476617799689336569e-02
-5.139589181484657127e-02
-6.482970995708467465e-02
-7.838462189203412867e-02
-7.608095177266624431e-02
-8.115622805708440357e-02
-1.048612066370721990e-01
-1.200445773752899931e-01
-1.029010560294208315e-01
-8.933699883507660588e-02
-9.257073038541600851e-02
-5.255785844456085237e-02
3.475186678737793994e-02
1.098559422559802212e-01
1.345929172264724027e-01
1.127698568006740010e-01
1.001398021643169628e-01
1.270551178075856602e-01
1.405652311377868502e-01
1.048927097875783504e-01
6.136720333161026220e-02
4.560739816286179388e-02
4.417948591874320402e-02
5.665925248906016759e-02
8.368001089150357841e-02
7.796999252598527108e-02
3.042804584821015221e-02
-1.288374876239912559e-03
-8.460553894787481086e-03
-2.376106572717484600e-02
-4.014744512260286224e-02
-4.644482131159504562e-02
-5.360905604536425617e-02
-6.889373258636333208e-02
-9.035275830372480055e-02
-1.044761099812421129e-01
-1.075972559773157172e-01
-1.096911485076022402e-01
-9.708779069762206448e-02
-6.867796693234506922e-02
-6.034049201965258069e-02
-4.463049206572416300e-02
2.820415844974345082e-02
7.718214597689056211e-02
4.200857324949580640e-02
7.622385884424724180e-03
3.918153666661585051e-03
2.946955478120081087e-03
1.995179028110003611e-02
4.088366076649675024e-02
5.709805687846942340e-02
8.393874763661995919e-02
1.190550358535155673e-01
1.535798636808417272e-01
1.403322426951261470e-01
6.917748357303754592e-02
1.469772016920836352e-02
1.628637086598123257e-02
3.622804786327876725e-02
-5.909654220435411919e-05
-1.036158703589656338e-01
-1.869114895162908019e-01
-1.821759218659098900e-01
-9.562013700881004385e-02
-5.510835077313081670e-03
2.065782434803343712e-02
1.360003578648127237e-02
6.473958667640083986e-03
2.427606350390022674e-03
5.547089327389301272e-03
1.630612105775027009e-03
-6.630297647688078791e-03
-1.269526220769109925e-02
-1.852311235902807593e-02
-2.353138541794310215e-02
-3.523967969416290369e-02
-2.882771401236267766e-02
-6.062466646820663949e-04
9.178752541018807970e-03
1.062839038394413314e-02
2.146986523306996034e-02
3.361213260969920374e-02
4.266086459309242906e-02
3.479184772731508390e-02
2.105712890831084108e-02
1.580641016000390239e-02
6.292369570578004029e-03
-1.929732521311145485e-03
-2.191396724220174685e-03
-3.934562937325293726e-03
-9.596212325059822607e-03
-1.471797114695676603e-02
-1.400709985023995685e-02
-9.981513925469774617e-03
-4.559152208570386999e-03
2.302179373690392116e-03
6.411136071302883307e-03
9.406486771400986852e-03
1.187965460048810880e-02
1.560099156518248917e-02
2.035043088142889089e-02
1.935019527262823655e-02
1.869456431508116287e-02
1.738313693116029165e-02
6.967919193373306452e-03
-4.100452752094854367e-03
-1.324619543408634033e-02
-1.931330414640949206e-02
-1.864586047669005570e-02
-1.889182360025437254e-02
-1.995824417877667400e-02
-2.034606815001679253e-02
-1.982043319578375914e-02
-1.465534589611633062e-02
-8.993435169738609597e-03
-2.462284330437793578e-04
8.852795912853102245e-03
7.860716998761957050e-03
5.138717496061610303e-03
6.024145702878831374e-03
7.693119301815062525e-03
9.197312294985505662e-03
6.090726824828082003e-03
4.151346855845908235e-03
6.570727984348269726e-03
4.780411181197708782e-03
-2.357669760843483873e-03
-7.632903484175684698e-03
-4.171374104060360417e-03
2.026220112456019774e-03
2.934059866281292939e-03
2.049484863741196476e-03
-1.265759256845502747e-03
-5.813391005330659743e-03
-5.507421459477215148e-03
-2.672032256954656303e-03
-1.915370249538398632e-04
8.945284835766599552e-04
-1.661867163879079392e-03
-2.611939259442461192e-03
2.415818123203153974e-03
4.508176795121355065e-03
4.498060048891807175e-03
9.744618446108466170e-03
7.522706065531224208e-03
-9.946021565319300255e-04
-3.154199546720009000e-03
-6.170376361492448808e-03
-5.154356597251768569e-03
3.550029714278674087e-03
5.214923193284137608e-03
-4.903652300498179389e-06
-4.834146724247772101e-03
-6.318902280315742345e-03
-5.409867363756476824e-03
-2.288449090375157136e-03
5.099096486383410121e-03
7.364971678688469678e-03
7.029862715089161065e-03
7.059656126634655977e-03
-7.484867193100821006e-03
-2.113214017501343495e-02
-1.285436148711974549e-02
2.730106905320077090e-03
9.719401132764026244e-03
6.317849356186424487e-03
1.677675233237049032e-03
3.622750681604535936e-03
9.193849122866571549e-03
1.146246021157240787e-02
7.495023481267241300e-03
5.771122254228910550e-03
1.815807173818348398e-03
-1.125059376250042535e-02
-1.480096580820239663e-02
-4.477443676215975797e-03
6.786937930418320344e-03
1.134327315293243675e-02
7.501213246209704165e-03
6.331400540477189094e-03
5.738780142001203947e-03
-1.236650400656085511e-03
-8.317056630465679418e-03
-1.699652892916789573e-02
-1.723349947898331763e-02
-3.792340878355822485e-03
1.800434634255991106e-03
-1.750846990217365048e-03
-2.041022409111419630e-03
-2.648376418406206629e-04
-1.644182922398976359e-05
-3.251973716604073840e-03
-4.636068162219843594e-03
-1.867932851337315197e-03
-1.683321646492804812e-03
-1.514262442414148011e-03
2.947769593417466031e-03
6.086084669921457135e-03
5.042255613057324351e-03
2.969730611020556486e-03
1.483453118567627533e-03
2.328246094991915337e-03
4.948835763211814447e-03
4.816285176871877398e-03
2.490760179046042598e-03
-6.713889382436812373e-05
-3.182142533974033610e-03
-3.847665502241439956e-03
3.944083112232969800e-04
5.850377693902314435e-03
5.540741558093051876e-03
1.500396590354981024e-03
2.400959293952812323e-04
-1.868458819789157706e-03
-4.115055135731413363e-03
-1.677693209438194935e-03
7.503719287072854478e-04
2.274301187406215386e-03
4.467545359759782578e-03
3.310748679986501210e-03
-1.891480687306100559e-04
-1.094626380842427058e-03
-1.679045886668696955e-04
5.271835748505487515e-04
1.569771817367395308e-03
-1.912378302426179970e-03
-9.134505556915828786e-03
-9.533084266067982579e-03
-5.784755507354363314e-03
-2.110436841698979434e-03
3.763165823566764438e-03
4.157566690454621988e-03
-8.339184819392484989e-04
-3.290439563529447536e-03
-5.947715527652837342e-03
-6.930070940379308257e-03
-1.369873524748125562e-03
1.880778710292017094e-03
-1.721962190499832981e-03
-2.184010962800598914e-03
3.226341638707024093e-04
1.280220917196412235e-03
5.963133954549866035e-03
8.132389980197204937e-03
4.076625317572882441e-03
2.415652380288191466e-03
-3.621467505950207470e-04
-3.130820060959492532e-03
5.287097442056706495e-04
4.349520718597295332e-03
6.369304832424008307e-03
4.421429901113898067e-03
-2.940180792995198723e-03
-3.509167757688651506e-03
7.940227414689229575e-04
-7.149113815764997128e-04
8.529837446369663203e-04
6.193014936643018511e-03
4.092807469356717943e-03
4.889240028964096305e-04
-3.229199931607446331e-04
-2.182188429127659025e-03
-1.236970822522735249e-03
1.942282409761345767e-03
1.857610526995005784e-03
-4.282074557302802294e-03
-1.068325407592092546e-02
-7.156322532003269246e-03
-1.329261562159020707e-03
-5.135281797543813764e-04
2.082815271943948710e-03
5.178058605260894495e-03
4.307918953282425210e-03
1.018422000630780314e-03
-1.075354923343623502e-03
-2.621866287325692792e-03
-4.440678640780042728e-03
-3.318112206489860598e-03
-6.838301508610660287e-03
-1.058583962147924620e-02
-1.258423960413993827e-03
5.317211771619749505e-03
3.254115967395988969e-03
3.887237812055728201e-03
3.166037999315218700e-03
6.296575527137257457e-04
-2.178709402175362918e-03
-4.669466937334696560e-03
-2.416358881269119706e-03
2.112138672672440268e-03
6.070231253697800332e-03
6.071863675570479159e-03
2.708701532732509572e-03
6.105390484276916564e-04
-5.282335139395389527e-04
1.531767392251107314e-03
2.675470592634012282e-03
-1.987887586368946593e-05
9.275363610505847926e-04
2.189836756642777639e-03
-5.219190656755461934e-04
-3.131752190487150592e-03
-2.100618351494120111e-03
1.854859136192816508e-03
2.243051628759115332e-03
-5.186090373672273216e-04
-3.837753464964671971e-03
-6.525225704641651400e-03
-4.058275064572585203e-03
8.767800180514255255e-05
3.093925191265015084e-03
4.450919594256173145e-03
2.799174357944326716e-03
2.389214430113743414e-03
1.036734010943999055e-03
-3.356369750188504847e-04
2.686388667674542013e-03
2.340753936156374313e-03
-1.407206392813457147e-03
-8.834320946062351396e-04
5.618798989734059618e-04
-1.306840613015223087e-03
-3.817262434424225628e-04
3.636961332637860585e-03
2.110505550229763161e-03
-1.160724427494642030e-03
-5.255310180899473368e-03
-1.155075555400643036e-02
-8.820558908571474177e-03
-4.235266991288471131e-03
-3.402134938161624142e-03
3.714086188729005204e-03
6.933787771688093050e-03
1.176444190768027474e-03
-4.817625815675899946e-03
-8.126324477862444801e-03
-3.827276185739586587e-03
2.654686267460679757e-03
2.795967568249039300e-03
1.979803954401440722e-03
3.972844080820065599e-03
4.490003863321383355e-03
3.078035291476057065e-03
4.399581271313215448e-03
4.581787898274080478e-03
7.611570960235297754e-04
-2.050523166164315656e-03
-2.503610792564629241e-03
1.064243303044725038e-03
3.690515688428978435e-03
3.737895117649588615e-03
6.781862933858330555e-03
4.515424917094728804e-03
-1.328365706435246209e-03
-4.542410706547185539e-03
-6.337173885648026903e-03
2.438103946337695223e-04
3.517879492814008583e-03
-9.504436139046581545e-04
7.669462275073316709e-04
-6.554898110244411664e-04
-3.398828200721485011e-03
-5.511557937692018478e-04
-1.054140417545265359e-03
1.490363297421720907e-03
2.295424957888774712e-03
-6.164411521479106273e-03
-8.687478927596104308e-03
-5.087657290624395846e-03
-2.705286748566342915e-03
7.016338005805064114e-04
2.440940710490311499e-03
1.054675963147302508e-03
-2.276991326266674179e-03
-7.027315359331020792e-03
-5.409841175527631794e-03
3.595995984363627336e-03
5.768368158331319689e-03
2.727489921386809339e-03
3.639111949107338290e-03
1.043558197965271982e-03
-4.964132840941930681e-04
4.817250590067499554e-03
6.113671821705651648e-03
3.913896660791007891e-03
1.139155139389609649e-03
-3.331514006552916893e-03
-4.501236086008951302e-03
-1.965582876900012679e-03
2.201115429700579388e-03
4.715674427783842632e-03
3.065076478708498101e-03
-2.630116054510121945e-04
-2.737660798046023195e-03
-2.518935692201145285e-03
-1.952494250830848427e-03
-6.896801340134503717e-05
5.411129146625864861e-03
4.863706722501346703e-03
-2.896331476513050625e-03
-5.931954875824017176e-03
-2.343882119022299652e-03
1.136761669236699282e-03
2.485082149541691099e-03
2.793817503828179786e-03
-1.365134823724623719e-03
-6.646130429568430399e-03
-4.862724669168829415e-03
-9.879108300763978553e-04
1.133037918778376880e-03
2.461085816616845768e-03
1.494419674249540509e-04
-2.987303332849950040e-03
-3.969824702373264853e-03
-2.384370733434608425e-03
2.001962561406466379e-03
3.763241933646894240e-03
5.464927229089952369e-04
-1.773081211978813762e-03
-3.542418348924984911e-04
7.739450835356224880e-04
2.493397845366688171e-03
6.846054758712825060e-03
7.284614892479389023e-03
3.741498587558450030e-03
-1.129690038322026142e-03
-7.431396975664282707e-03
-7.255481157402578207e-03
-2.994280390899092380e-03
-1.249021896991657282e-03
3.712326489047651935e-03
6.382656450037292595e-03
1.344706858239979284e-03
-1.486603376706122429e-03
-2.196677754917545321e-03
-2.952837374051450661e-03
9.664772528283544807e-04
2.736676706403479067e-03
-6.726426927747948753e-04
-1.398150766113089982e-03
-1.198606783681684497e-03
-1.086134150682612756e-03
1.518394387837322971e-03
2.184762967921303686e-03
2.821898911963021794e-03
2.380643856342742372e-03
-3.859796047954457653e-03
-4.930491638478222936e-03
-4.243313135491243952e-04
-1.022997736264149790e-03
-5.187959855429334589e-04
3.345919660470389901e-03
3.307554948598471350e-03
-7.931119288675242277e-04
-5.074895344350203140e-03
-3.983414490762544544e-03
3.066820491997884106e-04
9.813075496075763030e-04
1.052247139417297880e-03
1.901485562852153624e-03
-1.030750419623854310e-03
-4.582558491353780177e-03
-1.725432550453996454e-03
2.777374215879021679e-03
1.258225112132240527e-03
-9.692661735621382803e-04
-2.135440821580223292e-03
-4.292475663747358748e-03
-7.077435337979546669e-04
6.017727397350245214e-03
8.865468963271377206e-03
8.403103660977902928e-03
3.919531338044548487e-03
4.077596003076583973e-04
7.395606330857232768e-05
-2.318652628834587306e-03
-2.050984706420272592e-03
1.278511383499797210e-03
1.780232539919479162e-04
-1.249433769473233709e-03
-8.269352710541007104e-04
-4.324628815700152021e-03
-5.623234490802538760e-03
-8.414489452679979479e-04
3.778547979178672545e-04
-1.116170474712458024e-03
-1.931193099632302727e-03
-5.460173721391205041e-03
-6.679447496084702646e-03
-2.960186689853133019e-03
2.887447463051912803e-03
6.810339003998114663e-03
3.647174818256939625e-03
-2.291159100575612152e-03
-6.911406807635996422e-03
-4.531166904604487337e-03
5.626923271212282487e-03
7.178441151934758860e-03
3.177281163070533321e-03
3.360390972696703123e-03
5.604695432721306953e-04
-4.423939679710516925e-04
1.759749133980383550e-03
1.853742561274185569e-03
1.696785263042970785e-03
-1.802326213873845645e-03
-5.290728041803186531e-03
-5.004485398133711252e-03
-2.660019459267291744e-03
2.625230743569677717e-03
4.334612799774208505e-03
1.892001492755459192e-03
3.934257537348346732e-04
-2.058264362498334488e-03
-3.861813227242246686e-03
-3.311034530102134523e-03
3.509209248849042397e-04
5.427599592340924539e-03
4.930799630715348471e-03
7.428672090332363864e-04
-5.562345987141441945e-04
1.504348871739090822e-03
4.417789872737393729e-03
5.368389395197180856e-03
3.925884189756265533e-03
5.433003099553945000e-04
-2.455023210959282783e-03
-2.319887289865910866e-03
-3.685783871192687636e-03
-3.502088703231859886e-03
4.497776570595687223e-03
5.133028972569935594e-03
-2.285562719376044182e-04
3.090737578693673470e-04
-1.698124948714595933e-02
-3.544290561488497998e-02
-1.310492799140055772e-02
1.139331512912502252e-02
9.423764096578621241e-03
7.708660626386515564e-03
4.936260958578100183e-03
-1.643465804867586411e-03
-7.170264739204982793e-04
3.639672830863183422e-03
5.915682250607137704e-03
3.916073015805893003e-03
-5.978857568957476150e-04
-4.083152541864521617e-03
-3.742896107496738838e-03
4.347648022519008974e-04
3.385137409768418284e-03
6.637410752838783339e-03
8.721531860186553312e-03
4.481809873860416980e-03
1.451563571912068600e-03
5.099343505986736122e-03
7.558172007499639952e-03
2.787847201821755903e-03
-2.783176785043902333e-03
-4.716308639201667076e-03
-4.793161507691558708e-03
-5.796574822947714832e-03
-1.072969068927323057e-02
-9.950258992992353294e-03
-3.986507271344559046e-03
-6.142112774718693630e-03
-6.350131088690067621e-03
1.635451585821074544e-04
3.139944207713354311e-03
4.752264490603144015e-03
6.814455595989838722e-03
6.244172128510551249e-03
-6.166986134640915340e-04
-9.663429408652089020e-03
-6.726461020067691851e-03
7.620751540362967306e-03
1.567740600151195859e-02
9.982714795492788132e-03
3.951237159359155017e-03
3.345857291727586790e-03
6.954295803866426210e-04
-1.298087374797063679e-03
-1.360286500209667137e-03
-1.261912872990326746e-03
6.532964623477119153e-04
6.194798737078040587e-04
-2.098958101326177210e-03
-4.196821123859552707e-03
-5.103974427238344366e-03
-5.217113217942942992e-03
-4.215777401050752049e-03
-8.044820696940475219e-03
-1.592597005307105906e-02
-8.066310309715168589e-03
7.119859741170605008e-03
9.364749253542026253e-03
8.734220643290466907e-03
2.422398867148653750e-03
-6.879321362422711507e-03
-2.761243303603485265e-03
3.113869823126044333e-03
3.428879358056139120e-03
5.443764470832336902e-03
8.937206750404443067e-03
5.606052842665544371e-03
-1.096951882780517178e-03
-5.335093340811550375e-04
-3.379102860157447586e-03
-1.726166883041766126e-03
5.907714740102811175e-03
1.665358781330826673e-03
6.357945726003810284e-03
-1.547518204455819522e-04
-2.691841086548590889e-02
-1.456846407820909343e-02
6.402680029531977561e-03
1.233466405536674890e-04
3.125124138888254587e-03
6.257670825569093022e-03
2.996251902682121448e-03
9.667273735786514281e-04
-5.607324480113083306e-03
-1.968346985573576902e-03
4.166885805215609848e-03
3.038796852900213421e-03
5.837443641345390309e-03
3.522163876315565281e-03
-4.516614480435083602e-03
-3.133580624418421008e-03
2.411161537786979652e-03
3.799895559843404456e-03
5.871918330038864570e-03
4.990714867192443116e-03
9.956294401267089950e-04
-6.076510983673210839e-04
-7.617541156192429025e-03
-1.090333659547561979e-02
-3.860864844616308626e-03
-8.373773982114741466e-04
8.840465813206493722e-04
3.622569010628067616e-04
-6.911668871061473320e-04
3.793348092538386881e-03
3.100267952872748129e-04
-1.868046080897079776e-03
2.664853617658844657e-03
-1.757197386470644388e-03
-5.562157059901286921e-03
-3.936119217230739549e-03
-7.402142865297986919e-04
5.879442703233373792e-03
8.041273434608444542e-03
3.309477941616938406e-03
-2.021908156529954575e-03
-2.809972099038454511e-03
-3.643277323855445386e-03
-3.754745825644671860e-03
3.952747447359106735e-03
5.342898276652932772e-03
-9.785834377028688417e-04
-2.047308782892564433e-03
-1.103869560263451028e-03
1.645857653990384552e-03
2.587931458670294366e-03
1.240060826997204085e-03
1.294142199857241512e-03
-4.436362197652070176e-03
-8.405881715852162733e-03
-5.986795007502786203e-03
-2.280999841385809249e-03
4.020842176301882114e-03
3.131033075357060949e-03
-7.451999134219874530e-04
2.133878253642379746e-03
1.829297400252741452e-03
1.199648419769747598e-03
3.773673492266983211e-03
3.880148203430028829e-03
3.638570229789421257e-03
1.887486152174548855e-03
-1.371719020770763558e-03
-3.045291662066977080e-03
-1.275585293432562948e-04
4.897361405299572798e-03
1.230219743418315900e-03
-4.564164023955426946e-03
-3.944330778345773482e-03
-4.203399392669773457e-03
-3.824981155385343348e-03
-1.300638038072501109e-03
5.915837162105341482e-04
3.175636467326433104e-03
2.702029954660883221e-03
-4.625215993318568470e-04
-1.549026733824746633e-03
-1.014656958578317048e-03
-4.784138959056192381e-04
8.744169507680027778e-04
3.788147091716407427e-03
2.576147890526953813e-03
-2.055968569393338066e-03
-2.584895786622758932e-03
-1.941791101048899069e-03
-5.699872230318609812e-04
2.126160364880868778e-03
1.287577748787375022e-03
-1.119280093485156089e-03
-3.279284497178126291e-03
-3.022412508974396846e-03
-1.396710482504053864e-03
-3.248289306534409959e-03
-1.043241365063789618e-03
3.105564297214115626e-03
-9.559540547934233139e-05
-3.309022610602465730e-03
-5.063985795159359378e-03
-4.782477155862818567e-03
3.811967265955709585e-03
9.223853750908837454e-03
3.406272252701943691e-03
-1.927661104209450098e-03
-1.155644646452009920e-03
2.107134624360646879e-04
1.644851151186859381e-03
4.264523243150511976e-03
3.286913930640047912e-03
-6.280952864763696001e-04
-1.375708370980072842e-03
-1.390429617334582534e-04
-1.125835311982666641e-03
1.698611773012541175e-03
1.257454171490657302e-02
1.515626482503311737e-02
5.751307776916093732e-03
-1.858240345464793643e-03
-1.117538473244396660e-02
-1.330030384027437902e-02
-1.901900400354452703e-03
-1.895889929912182624e-03
-7.573264480559863294e-03
-2.359132860815199399e-03
-3.769358021513279002e-04
-3.247507304137829242e-03
-2.754380988854641683e-03
1.514614075722707249e-03
3.269893015347374258e-03
-3.180534661082552467e-03
-6.900126375408965548e-03
-4.443209164029369128e-03
-2.305941460475749698e-03
-5.284393837968160649e-04
9.878311691016300466e-04
3.291836289239735702e-03
1.758555530879638831e-03
7.319869818596828133e-05
4.216176108187721233e-03
3.716555676013193199e-03
2.465936930450947796e-03
3.702574765616624495e-03
8.670217884121772783e-04
-5.723817500407517230e-05
-4.478294657792594117e-04
2.280771185535236494e-03
8.602262874932899844e-03
6.632752057272591623e-03
2.943732966300765651e-03
-5.790101050157964342e-04
-6.047115695334298428e-03
-5.394740269372396216e-03
-3.079214559305583875e-03
-9.832347339775561815e-04
7.459636296644763616e-04
-1.222848043537471925e-03
-6.122960111952378999e-03
-1.226329005880569777e-02
-7.349627449978251778e-03
4.130403219526919585e-03
6.428514485514078350e-03
6.805342170495510754e-03
6.590770577747401271e-03
3.193128234973518446e-03
1.561675637243523356e-03
-5.511940408140698650e-04
-2.825476311682105415e-03
-1.499113856797656529e-03
3.404575629738946715e-03
-4.003392717210283716e-04
-1.171079550870392054e-02
-6.590499116795449711e-03
3.388210696177857990e-03
1.147880016186372983e-03
2.581037313257663734e-03
4.670975461244780171e-03
-2.799677053643448389e-04
-3.633158021791326603e-03
-4.015446983734776570e-03
-1.683646695392375858e-04
4.655969105728951889e-03
3.262563269177575637e-03
-2.407887171783937384e-04
-2.644681867767180884e-03
-4.354078907528600821e-03
-8.151761669058353197e-04
4.140247292431404290e-03
3.088010504230057421e-03
3.115412184773110570e-03
2.607183043277251904e-03
-4.726567725777351507e-03
-5.789578745855622141e-03
-1.345030845409034758e-03
-5.401400609543890400e-04
3.021649920651056209e-03
5.089085995056525161e-03
1.263242421605602350e-03
-2.316176477462035272e-03
-4.302079495286923773e-03
-2.319921847550774317e-03
3.102279810930242548e-04
-1.517552365928665761e-03
-3.046101701992613622e-03
-3.062913944054081877e-03
-2.751022275402241479e-03
-3.011982716666566440e-04
3.872135585020899419e-03
7.832919987343710949e-03
7.717728164644177720e-03
1.278475404183077252e-03
-4.608048373800553016e-03
-4.091141157307907547e-03
-2.647885031266243930e-03
-2.785358012843067578e-04
7.706792252655319045e-03
1.017550849824268126e-02
3.163152318147184183e-04
-7.268214560882086707e-03
-3.814240211030316043e-03
2.315279430340692283e-03
4.359361409739342247e-03
2.733463784264953539e-03
-2.158636416652251564e-03
-5.366835346268777028e-03
-2.607546221287618520e-03
-1.596511446457130274e-03
-2.197483956531201543e-03
1.112388549327963071e-03
-4.254491280312245639e-04
-5.430090671729536841e-03
-5.999042355208727452e-03
-5.944105403076159130e-03
-2.694208086202127487e-03
1.877033433279797414e-03
2.301591528131440457e-03
3.982925871911480523e-03
3.866040650639519967e-03
1.146476126617528967e-03
2.060467069173063616e-05
-6.302754776222446167e-04
3.914286509390632433e-03
4.450440516773294247e-03
-2.219897757160843761e-03
1.990135644624944217e-03
5.793307267944924205e-03
-2.026949261726522511e-04
-9.410335279961701965e-04
-6.587943039068097466e-04
-2.046806535327046987e-03
-2.463449264650390078e-03
-5.396832685200081414e-03
-3.868154935172560000e-03
1.018904401646422882e-03
2.125645739466996975e-03
1.703450940156786423e-03
2.727341720228853433e-03
4.198377314399062005e-03
1.823829519913880675e-04
-6.064456557676066971e-03
-3.123588788624848209e-03
5.194102558396981352e-03
5.041338474273340461e-03
-3.724473024364839853e-04
1.002654441474697036e-03
7.527720921463957335e-04
-3.819422445488420727e-03
1.278125792016007050e-04
3.774876665834420077e-03
-6.903513214732102119e-04
-2.522506393595897508e-03
-1.036822556969346906e-03
-2.786369107563683566e-03
-5.595541852933606439e-03
-2.951435605967112508e-03
2.579747384904870419e-03
3.619877695709520452e-03
-9.557844061305758882e-04
-4.673148820194855842e-03
-1.712425503399879131e-03
-1.684976135190180153e-03
-4.253254817663083658e-03
-1.337185583324452176e-03
-1.189478485989236374e-03
1.711527224621159577e-03
7.208867723669872170e-03
4.790293285629059622e-03
3.101088197228380004e-03
1.245911439711907447e-03
6.708305542905328243e-04
2.166793073508436942e-03
-3.690348812640963181e-03
-4.601353907983622184e-03
-1.135098882802320578e-03
-2.773798361103091935e-03
-3.918946991081888190e-04
3.644745484452260875e-03
1.941506689278588160e-03
-4.292630608499142970e-03
-5.960033843791301585e-03
-2.164107520180770169e-03
-1.520562421723777903e-03
2.782859935637418611e-03
8.081046814741484063e-03
4.313773234136797537e-03
-1.009229681506336983e-03
-1.113221832432274546e-03
3.964833649898506177e-04
2.150225904501962119e-04
2.562480006235267737e-03
3.256131833976728604e-03
4.880335185862390984e-03
4.451802498207686407e-03
-1.875190418144287441e-02
-2.379577189554229685e-02
7.170422101194669912e-03
1.569133324356434753e-02
1.143118239274777334e-02
1.159202074715195638e-02
-3.427896530030393428e-03
-1.143217079126135696e-02
-4.973419502492956723e-03
2.195476249067209156e-03
4.491404205141875440e-04
-7.405781271963163097e-03
-3.489494260336433069e-03
3.448592220376285686e-03
8.304078630934460387e-03
7.329039432359248964e-03
4.099320916288697741e-03
1.244431750255498362e-02
-4.683607690065790322e-03
-2.561806395961780877e-02
5.071243422197407912e-04
1.647643541510604090e-02
9.825074632507422787e-03
1.476363485165080314e-02
1.027081256913108843e-02
2.015352715490155173e-03
-4.731751001944381474e-03
-1.788938536004733640e-02
-2.117960678777406833e-02
-2.307983479421250178e-02
-2.920215302658998868e-02
-2.669176422331125814e-02
-1.955315343150144589e-02
-9.053202990581156809e-03
3.708663715831708209e-03
1.027557267025694387e-02
1.238484107763593994e-02
1.409722050535038365e-02
1.421292479470375250e-02
1.370654430280263299e-02
1.304679470249057484e-02
1.200938943772933594e-02
1.602354334438892483e-02
2.169740140988900973e-02
1.587508269174377554e-02
2.487051439055930173e-03
-8.014278573269877429e-03
-1.391131697171444324e-02
-6.936483589557259147e-03
