1.851101020308349929e-02
2.413348701614232913e-02
9.520396844196263655e-03
2.763050308824327190e-03
-8.458117146827703881e-03
-1.706454675114140243e-02
-1.655816594532054029e-02
-1.694011313670579916e-02
-1.469021885108098141e-02
-9.907551477134386372e-03
-1.084880174402621383e-02
-1.200775089730850460e-02
-2.239909751825024543e-03
7.234309902857801074e-03
1.077405361253203422e-02
1.897181631294890189e-02
2.009018645885049872e-02
1.486086141245528298e-02
1.571291179284791187e-02
1.032906393867870018e-02
7.955297435649592852e-03
1.451237319886344336e-02
6.977380328023748829e-03
-6.548379620791506747e-03
-1.378617673152166337e-02
-1.835488515234783014e-02
-1.365067410828856714e-02
-6.667236687051943111e-03
-3.183357183142759145e-03
2.184965417781220293e-03
4.297786811985062141e-03
3.912508919418477963e-04
-4.472879606662162263e-03
1.029440456481835360e-03
1.051054645877434052e-02
7.399667137233293703e-03
6.316603620094092889e-03
8.498426031121291205e-03
3.278939816607777738e-03
1.258592015404716999e-03
7.206036880087795041e-04
7.646187754380809158e-03
9.638033792101256825e-03
-1.993067750628576412e-02
-3.481686600805269927e-02
-1.269987843861853857e-02
2.824436053427992763e-04
6.734802227340182506e-04
3.592611586903267200e-03
5.529233531033315996e-03
2.240238658892879792e-03
-6.961917973990570246e-03
-7.455360958540453893e-03
1.170817870936575024e-06
1.941505412486417689e-03
3.931539919727077004e-03
5.250633937420532901e-03
1.082532230086378968e-03
-4.894844287107811675e-04
2.588324231021745165e-04
1.353520800709050479e-03
7.188375185444286983e-03
7.538466088898996414e-03
-4.311926680438627965e-04
-3.244615083768419023e-03
-2.366656602010289677e-03
3.989911962135757849e-04
2.411413980564165293e-03
7.344583574563660552e-04
6.237699677965048879e-03
6.533550650730854566e-03
-5.559631371012016023e-03
-8.691009393489055115e-03
-5.598650675512812508e-03
-4.168082976262938583e-03
4.167978412919695749e-04
5.637775182307634518e-03
5.092893868567166353e-03
-2.751705199970160345e-03
-4.523379986923994032e-03
1.111170554308264519e-03
2.654326198484090096e-03
2.515593411376696592e-03
-4.710382017387727263e-04
-4.263832006395347311e-03
-3.270650741846177316e-03
-1.172858233823475919e-03
2.275937930457386498e-03
5.992386209925692868e-03
7.959300948066790754e-03
4.507825668876279043e-03
-3.335556691540332314e-03
-5.311247196550601159e-03
-4.086598409069507748e-03
-1.245544840102593949e-03
3.597573591825411771e-04
-4.369916916064460130e-03
-1.791680914705199960e-03
2.163912187022293092e-03
-1.386956169651049672e-03
1.790337085807217369e-03
5.637293632604880624e-03
3.266021896948675517e-03
-1.283002941511333190e-03
-7.895277188606341506e-03
-6.999475517192946250e-03
-8.702408676667458412e-04
1.531401759560705074e-03
5.093319950769815106e-03
8.290174963172875638e-03
5.703231267610511454e-03
3.571139073604062057e-04
-3.049397544468787895e-03
-3.389830785796054020e-03
-1.540358426558176719e-03
1.352750984063665627e-03
1.107128258226038400e-03
-3.239199008149904260e-03
-6.230715923075011778e-03
-5.020605349553314278e-03
-7.099624930407003520e-04
4.095311159400386904e-03
3.322511483099158548e-03
-3.261648329551712980e-03
-3.709063669052685506e-03
1.165147867944492160e-03
1.594193887251480878e-03
5.084316322251499105e-03
9.227833194031939343e-03
5.515875861492963717e-03
2.475548332022189414e-03
-2.187126600737213621e-03
-7.240811283733027300e-03
-4.410402904772108695e-03
-3.082354294890881936e-03
-1.263898581102563048e-03
1.529511998447036962e-03
-3.464366462424214345e-03
-4.956653068357572307e-03
-3.178047571841867945e-03
-8.372690568587863114e-04
7.953681938220467235e-03
7.074144821510411872e-03
-6.565106809082341078e-04
-1.392916294742223803e-03
-4.811787236456636051e-03
-2.915402181882242871e-03
6.998381820835336900e-03
7.089218084413486179e-03
2.781522818476580162e-03
-2.537658869459342667e-04
-3.962602938495235483e-03
-1.646978107294636831e-03
-1.383182528710570332e-04
-2.720148623179937698e-03
8.330793064295813864e-04
3.871238825538359830e-03
-8.185631418740945200e-04
-5.511179770680200811e-03
-6.211111149768454645e-03
1.671318553156017335e-04
8.655191043048073365e-03
4.832231763083478550e-03
-4.374339903911626630e-03
-6.471913788460919963e-03
-5.540526260341146689e-03
-2.281291486624617299e-03
2.772976590864281460e-03
6.957432512046072583e-03
8.930250329485987792e-03
2.734242420477769366e-03
-4.368500001041123772e-03
-3.947536541782694849e-03
-3.960288074285250003e-03
-2.837317107097374596e-03
3.621438430603667134e-03
6.787480867998694871e-03
3.808788057351229252e-03
3.282181075011112240e-04
-9.186477578364828870e-04
-9.062132099995999631e-04
1.469708144909239681e-03
3.791122333606260740e-03
-8.956319069510485821e-04
-7.173628595746855963e-03
-7.066554824554479447e-03
-5.135629619165929527e-03
-3.063705242642854494e-03
1.661869574775619524e-03
7.350163589019927286e-03
8.189075642041890660e-03
-7.707438280310220614e-04
-7.827832972791173849e-03
-2.921255346891236428e-03
2.420628906107532945e-03
5.191565979872261871e-03
6.600017123075976183e-03
1.804474312516830261e-03
-2.426041262798036245e-03
-7.373228134955648119e-03
-1.077717734397633763e-02
-1.784188944819542402e-03
3.771053047406420274e-03
4.214385208397461685e-04
3.632522294761824115e-05
-2.081155643214775176e-03
-2.246527515850413499e-03
3.133194069144409552e-03
7.684750704030223617e-03
1.028007415286874907e-02
5.165753504341295647e-03
-2.220539463257343617e-03
-2.164371497653175182e-03
-4.190315033472711594e-03
-8.088502970518511928e-03
-5.908293592723878017e-03
-4.619909721103055041e-03
-3.065386980967747810e-03
3.086565838848782852e-03
2.102014738166953049e-03
-1.347530311112590112e-04
8.803583859879240969e-03
1.045151743840684253e-02
5.974726333885478700e-05
-4.775141590627749941e-03
-4.826455295253613553e-03
-4.581032160002568125e-03
-2.047614418377074856e-03
3.263569423787780928e-03
8.972904578535688402e-03
8.854541326996628187e-03
3.261524681983139252e-03
1.322649878787395678e-03
5.990691041300855342e-03
6.309918063198169218e-03
2.495391448575945935e-03
4.277556975170669325e-04
-8.162540427810132185e-03
-1.397971486354597503e-02
-1.116170850877799652e-02
-8.975945313863305935e-03
-3.235120765990256216e-03
4.320368002949666981e-04
4.180358481019176217e-03
5.913184084236761812e-03
-5.972615744844183422e-03
-6.610516359718426362e-03
-4.136962983513517260e-03
-1.259622101249359069e-02
-4.732397771577173304e-04
1.163737660099023463e-02
3.701456586822621849e-03
-1.424403406099409393e-03
-4.269083876528839000e-03
-4.391120909999325118e-03
-3.552459837785048799e-03
-1.700478441152488297e-03
7.755783214602430913e-03
9.805632095324515532e-03
6.443187438254538955e-03
8.863190283761599245e-03
1.349526941049512124e-02
1.424179404715577787e-02
3.395412446572324688e-03
-5.696970262839285912e-03
-7.531265401865862297e-03
-1.125589702323638239e-02
-4.588277846538030627e-03
5.768477044238372667e-03
5.191793411552375614e-03
4.754931015708126207e-03
3.687243224831011218e-03
-4.752979940200351659e-03
-1.276444839231847400e-02
-1.131945828940022700e-02
-2.337049757148009117e-03
1.818569777890576304e-03
-4.724044107223386796e-04
2.050968543755005125e-05
9.348549370171494637e-04
-2.574023538303711438e-03
-1.577604115533989305e-03
5.330439759570542065e-03
5.258585360398945578e-03
-5.002690637196840606e-04
-3.370774473601366450e-03
-3.814179080233257545e-03
-5.058122246458019756e-04
4.985767404537571300e-03
6.962553053699583640e-03
2.356338552325920165e-03
-5.988665028704372867e-03
-6.334962902648805065e-03
-9.242846367138164796e-04
-3.071106416819338039e-05
1.627467110883360499e-03
6.560319615258830648e-04
-4.101667310463997206e-03
-1.087377687475682116e-03
-1.155223778664390922e-03
-5.156192006932554771e-03
2.571997301484478353e-03
6.976617314509548674e-03
8.170070233860291355e-04
-1.057809559313394911e-03
-2.159598300988942144e-04
-1.904954387703242710e-04
1.502644957883856897e-03
4.793796734321472894e-03
7.378746636431184058e-03
4.666024868970610265e-03
-1.057265226036704052e-03
-4.380452767250755941e-03
-3.644533910791070749e-03
-1.298908668259186362e-03
-4.529743130771551060e-04
-9.888979125581081556e-04
-4.782100576694421450e-03
-8.156447861379621106e-03
-6.050915695412456378e-03
-1.519294358277858579e-03
5.042283204728466653e-03
8.720353743588002068e-03
5.391864276247720564e-03
3.050910119405682817e-04
-5.547061436797823437e-03
-5.925758635358478223e-03
2.074121610538178992e-03
7.294121706792920830e-03
8.227123168620589094e-03
8.082484115848326614e-03
5.103049688859862508e-03
-2.334435762479375042e-05
-4.931372574636942036e-03
-3.625798557004339742e-03
2.905941779429576429e-03
2.223065967118013908e-03
-6.293321317725161443e-03
-1.000656756906279955e-02
-8.829176875608892028e-03
-7.376277127093359802e-03
5.668077075200427797e-04
7.457438390993314375e-03
2.327619566929312479e-03
-4.542005914535344156e-03
-7.935586749258134384e-03
-8.171927388661416256e-03
-2.075004816933203895e-03
5.504211975319888393e-03
1.088122496576050119e-02
1.055107933109255408e-02
4.288013306879333818e-03
-1.039100667823230251e-04
-1.343534620114983195e-03
1.307539401178029522e-03
6.841011439566954157e-03
7.906935613820232842e-03
3.690933815359448335e-03
-2.674380607765639104e-03
-6.953541638167332062e-03
-6.484652044938085842e-03
-2.681974082842490843e-03
1.454560117861402636e-03
-8.732588305072842751e-04
-7.416504263431426824e-03
-8.894190946114807761e-03
-5.580777272350219941e-03
2.823619417983718903e-04
5.368015644178394073e-03
4.970735982614848426e-03
1.009414371402152883e-03
-1.900390622268326776e-03
-1.432338345757411214e-03
-1.389368810624234171e-03
-2.686872187499289404e-03
1.829600834403646674e-04
2.365931607700606353e-03
-3.842708516754338773e-04
1.660902938992249206e-04
4.544657885132699464e-03
7.704097301716876338e-03
1.051436513832060098e-02
7.137130866607510789e-03
-5.183733020486276134e-03
-1.098858267091955276e-02
-5.227959501094710769e-03
-7.014542796458628996e-04
2.036912488093332342e-03
6.787166508681443181e-03
7.631833640605148114e-03
5.366643494372966977e-03
1.636245611878554699e-03
-4.550303800523894902e-03
-2.906329406445351364e-03
2.051832113825980720e-03
-2.750762983985455528e-03
-3.277352894267791632e-03
3.555990843009525660e-04
-4.713641630145971179e-03
-6.863230400956967826e-03
-3.713975518846180865e-03
1.522735380383409987e-03
6.872724057974492588e-03
2.642813595333179822e-03
-2.872758378364299089e-03
-5.927096402722016079e-03
-7.054316827148675653e-03
1.407523277844954226e-03
6.431388851614591902e-03
5.039701679766962934e-03
2.458895275738514491e-03
-8.207674465270145200e-03
-1.337257808838050906e-02
-7.446772662606371621e-03
-2.516277368836381499e-03
7.478069505609126998e-04
2.059024375951106628e-03
3.673896586298029503e-03
3.170844085556404762e-03
-2.253676843922107573e-03
-1.150168286937556421e-03
4.964510647518959562e-03
6.080453727773189355e-03
2.415871283894082278e-03
-1.443102500234155457e-03
-2.082836146528472317e-03
-3.000667209357479534e-03
-1.159969257021668495e-04
9.239925686160072732e-03
1.231737631410733703e-02
8.382544075324804139e-03
3.299388646735328372e-03
-1.127322294248743906e-03
-1.584871050692058039e-03
-2.026455148029694328e-03
-1.065756361088859719e-03
3.393396198766499266e-03
3.462112448007547121e-03
-1.415059894435079582e-03
-6.189908204709311176e-03
-3.325348430961914698e-03
6.340307982810549844e-03
8.234171747403677341e-03
1.966838995931273048e-03
-4.100766084798759641e-03
-8.027500066001428194e-03
-9.002664298205216228e-03
-5.933727206877383031e-03
4.532575487749414267e-03
1.513659767842169719e-02
1.665349118932594671e-02
5.503740808763564821e-03
-2.203615841883027962e-02
-3.759135427066544882e-02
-2.088073227486948735e-02
-4.247836251806656749e-03
-8.468015589524819546e-04
2.539850832767829702e-03
4.519954416220090150e-03
1.674772394819888524e-03
-3.535457463558624308e-03
1.510084829714048631e-03
1.092391474468895445e-02
4.474026565709454846e-03
-4.734147202522956920e-03
-6.775635174401827519e-03
-5.609188689752697861e-03
4.888009102506861089e-03
1.137013945120187754e-02
9.887557625968183481e-03
1.549248792482113904e-02
1.433702640603111769e-02
4.277026549723087975e-03
5.594823269823648304e-03
6.655911151723247279e-03
-9.610963373693247932e-04
-1.341154833007495665e-03
1.755560873119254282e-04
-4.584393437502446572e-03
-6.102528115615345715e-03
-4.360367132815332059e-03
3.462514485101853738e-04
8.201472181689152888e-03
3.549200541135115634e-03
-9.973015104402535233e-03
-1.208504989922432223e-02
-1.058134973273767120e-02
-1.011265419788090134e-02
9.232154902716110858e-05
7.727419780514564566e-03
4.387192477522993198e-03
-4.230135706254923786e-03
-1.395217157862535182e-02
-1.010517612266764557e-02
8.249636468762764577e-04
5.693956353863812402e-03
1.352569437953872467e-02
1.165458971868853048e-02
2.907375234906532831e-06
-5.413730995392383380e-04
-1.745990109085295049e-03
-2.207495170368091886e-03
4.628457999926524277e-03
1.626283069024649346e-03
-4.499138822280074508e-03
-8.624133953639421743e-03
-1.279011495251498529e-02
-4.264603699362642074e-03
7.114132986653949088e-03
1.131471612917655037e-02
1.248299708880552111e-02
5.022526502212749065e-03
-2.352233887573197246e-03
-1.321713399762678657e-03
-2.082933011656231022e-03
-3.078136476627276689e-03
-1.202667645632335934e-03
-2.965877905112400837e-03
-4.559852473987241472e-03
-2.579591635920159848e-03
-1.555664177245345142e-03
2.930978515991699337e-03
9.910209978007180134e-03
5.789925975495081867e-03
-3.492607320436581786e-03
-6.141565443667337983e-03
-5.177657085532281350e-03
2.588709651302112304e-03
8.172675228001793565e-03
4.179316669923301489e-03
7.951038250864340268e-03
6.662318476542698938e-03
-8.569636364785698443e-03
-9.240244518941221480e-03
-3.299102386635858683e-03
-6.579431858360766314e-03
-5.225078386458629175e-03
-5.213733793144305568e-04
-1.206880773782237522e-03
-5.561680686074476146e-03
-3.183894876622854649e-03
6.717809296175156382e-03
7.153879872862698060e-03
2.150842677762726182e-03
1.073788804739680275e-03
-3.706781143742080443e-03
-6.119535321078729308e-03
-8.429150394578709604e-04
3.268301542089533784e-03
6.025691900790893819e-03
9.237878429882738496e-03
5.593203905141128432e-03
-2.020972994450870829e-03
-1.609740011583336199e-03
1.495024541231790359e-04
-1.631332888289789042e-03
2.904963476994657304e-03
4.711144794482506268e-03
-2.210831703279572506e-03
-5.210278021733248492e-03
-4.266606410701860586e-03
2.530477833961831610e-04
6.129661167900497983e-03
1.625022042417879811e-03
-5.277073566949281105e-03
-6.555560515678005712e-03
-8.164554658132662165e-03
-4.365517235478263806e-03
4.680274259788649686e-03
9.341349398492604025e-03
8.636531122356568696e-03
6.500600412580118115e-04
-6.611220771870428801e-03
-3.558796452813076452e-03
-2.741435721880218328e-03
-6.255759324492876639e-03
-1.876045363413619957e-03
4.155880961857071239e-03
2.696963543271891587e-03
-1.511619899636658642e-03
-2.605302650662141666e-03
2.042127033113496238e-03
9.322034096254617000e-03
6.656269371404469060e-03
-5.311715833212838841e-03
-1.073977787505161867e-02
-1.224786401971241119e-02
-1.140179473674266496e-02
7.524650849284593521e-04
1.123477287045698998e-02
1.323277900556166925e-02
1.160810798022281556e-02
2.279683814565668619e-03
-4.321089396130047347e-03
-3.416379991651734456e-03
-3.613631040452367112e-03
-6.298945963325000737e-04
3.895878596975365163e-03
3.714434875972303773e-03
5.327504772326356998e-04
-1.163219645311796245e-03
5.446278988761841210e-03
1.266663147784150706e-02
7.680195951048734461e-03
-2.510068647322175744e-03
-8.310725204751158446e-03
-1.221755194081550894e-02
-1.189163434131799979e-02
-2.556013407801683256e-03
6.562734626585709288e-03
1.043652376187480246e-02
9.583467276885705363e-03
2.858233427836462826e-03
-1.060088233720424353e-03
-5.808311882512862297e-03
-1.175770043149941373e-02
-3.855874248854431006e-03
3.865858143870808290e-03
9.450681224932366625e-04
-2.822210579901204223e-03
-7.417010658990631083e-03
-1.512751414246999880e-03
1.078031118040176026e-02
7.086874380829373196e-03
-4.033047159819558303e-03
-1.103402909857588605e-02
-1.466480585757156709e-02
-1.050526141724575889e-02
-8.755773983110353006e-04
6.469131311130403052e-03
8.959360037074790700e-03
6.055843030211189443e-03
-2.173318377382491614e-03
-6.337139671397134383e-03
-3.603826499139368804e-03
-4.864988238141515833e-03
-5.785892056792504672e-03
-2.740057294016710020e-03
-1.991253101353479549e-03
1.767810443758343741e-03
5.134951872720255883e-03
5.365863243281566129e-03
1.253803691191782664e-02
1.558377601921230766e-02
5.951440194401784282e-03
3.557322813043835297e-03
1.011798586048274010e-02
1.122111249273009641e-02
1.324878778120103413e-02
1.282273819998251511e-02
1.941277116249444574e-04
-8.307800885485213532e-03
-1.764039932596735095e-03
1.009393215335803798e-02
6.754684339428025132e-03
-7.551518214274539204e-03
-7.336676178099618695e-03
-1.860908062510041247e-02
-4.349647560878947689e-02
-3.239976249028097416e-02
-6.911591553017972477e-03
4.901835957684077226e-03
1.282944839738942716e-02
7.413176442834725974e-03
1.681108508836052454e-03
5.150523994028485776e-04
-8.139842078119999616e-03
-7.202745436698324184e-03
2.361948709939667383e-03
7.221581265957737090e-03
7.941001306908324758e-03
3.317426758645815495e-03
-4.457046639277512969e-03
-7.908509617549980969e-03
-6.868462844333843602e-04
6.284024902291197520e-03
7.461835605211197125e-03
1.190275497007649806e-02
1.212321101539289014e-02
8.100754977110538255e-03
2.846627603236399212e-03
-4.896312578942484985e-03
-2.988938750758455849e-03
-1.231745480800823598e-04
-7.069382475628156574e-03
-1.325417441777508760e-02
-1.286410448356194169e-02
-3.745305420823533994e-03
6.994479002461665915e-03
1.092906243977040739e-02
8.176453572477435441e-03
3.005220626292934467e-03
1.625489119409141356e-03
-1.419391403722566978e-03
-2.010463707218464440e-03
4.887670199147858136e-03
8.610193723048957873e-03
1.168208876434931147e-02
7.065224491046598505e-03
-7.227357978117469189e-03
-9.058779149022064964e-03
-2.166478767424469785e-03
5.158678809220594921e-03
9.333184206016646028e-03
-1.164650602841355324e-03
-1.272272930368499415e-02
-1.344891831207525000e-02
-1.008583205930032797e-02
-6.050141260669989265e-03
-1.942730672700205587e-03
4.513408552692191496e-03
2.733570107347067703e-03
-1.027308675858508262e-02
-1.176140902670920821e-02
-4.564278461477146165e-03
-5.394998649384967482e-03
-2.391487509408702587e-03
7.135066108156232038e-03
8.526858212987676114e-03
8.685018600343459919e-03
1.045905728538319701e-02
1.113721613556965242e-03
-4.670685903750844067e-03
1.289711429350951519e-03
7.704245623857739313e-06
-1.382760450412227286e-03
2.607468863497157396e-03
1.578758041825873044e-03
6.315046904300204537e-03
1.352785604704016646e-02
1.391825810608774208e-02
1.447193530683989898e-02
3.370573989510742847e-03
-1.325313052215534859e-02
-1.055861096668735469e-02
-6.512877698460412153e-03
-1.303344680518150715e-02
-1.037836858812700089e-02
-3.528102495078969982e-03
-4.982269916094364537e-03
-7.096694880286615915e-03
-1.932090497140212266e-03
6.961605582983550373e-03
7.577444999375227558e-03
2.186015880441345618e-03
-1.382163036526994158e-03
-7.707574979906175322e-03
-7.278932985681648392e-03
4.114557431470154333e-03
9.043046124113617718e-03
8.596402259657388856e-03
8.391949012793952639e-03
3.681096866257424320e-03
5.225888500610205347e-04
1.601606730428346923e-03
2.995073961781971779e-03
4.632506232539545556e-03
3.572077885324112523e-03
-1.531032435702685181e-03
-5.624570983338929991e-03
-5.286857599748349783e-03
-3.776645788359086261e-03
-3.091705525571896047e-03
-1.596406237102776298e-03
-8.943306307472794229e-04
-1.460650600605024885e-03
-2.128627130208614413e-03
-2.019755927609138187e-03
5.795499825728453024e-04
1.421118085574459271e-03
-5.786328764581787510e-04
-3.215503071589482153e-04
-1.715257368367389739e-03
-6.686996009419900362e-03
-8.425773050339240705e-03
-5.037677903432300278e-03
1.894350121945043413e-03
7.797936709048861395e-03
6.193327657053869853e-03
1.495294544509057511e-03
-1.716609318164673010e-03
-5.903202084460459215e-03
-2.305962628639224819e-03
8.582296886625108076e-03
8.383308123476825025e-03
2.575672364207105217e-03
2.485970204816719681e-03
2.318788641169772669e-03
5.735884449307193135e-03
8.810611558621585931e-03
4.267422102467367806e-03
1.574969242244889144e-03
-1.867300578046049301e-03
-4.900906808563849568e-03
-7.630086183682976714e-04
-7.409714035525314432e-04
-2.167622406630312446e-03
-1.728321462958692109e-03
-4.970466274817500127e-03
-1.927986795100432131e-03
4.082660717054994049e-04
-2.249523507874223813e-03
4.507373219497633893e-03
6.916653856978363310e-03
-4.657338917076205790e-04
-1.792600788168115938e-03
-3.155697199044159035e-03
-8.120987919007633532e-03
-7.805742781670843566e-03
-3.011849467832674113e-03
-2.979488852163311892e-03
-9.691013039774739116e-03
-1.314245673966636836e-02
-1.043334967327774233e-02
-6.068823950888062833e-03
-3.883034858978740185e-03
1.756146821237834993e-04
9.596230057711652162e-03
1.089520379717833463e-02
5.694187523700494288e-03
3.827316814132510417e-03
2.700868980860660854e-03
1.015075173178480589e-02
1.702917497181727358e-02
8.939930434643502191e-03
7.784241163080755834e-04
-2.521262037636231614e-03
-4.951618067978500078e-03
-2.705239710012955889e-03
8.668734095702887010e-04
2.298977417657053265e-03
2.591821771932764466e-03
-1.102549015040451934e-03
-9.465917419260514235e-03
-1.040048296743598111e-02
-4.070825968337993261e-03
-2.162271112128712029e-03
2.348440749455132752e-03
7.667230854225426211e-03
7.297779058407395138e-03
9.719775094208328581e-03
1.222468731539123367e-02
1.327699652005534178e-02
1.493048056434155557e-02
8.058719677191582970e-03
-9.078335417892508669e-03
-2.288634699652645002e-02
-2.127560787179463148e-02
-1.207913401452311540e-02
-5.885343098508309494e-03
2.359406166114345459e-03
1.862414646456189704e-02
3.050221326317147444e-02
2.422706501690577788e-02
1.504056334750324131e-02
5.563017623567656673e-03
-8.924397771430779211e-03
-1.197354099428225675e-02
-1.465430289329151640e-02
-2.178169675403829331e-02
-2.970981239921359485e-02
-3.996717923357780838e-02
-3.146249414573163566e-02
-3.268727341369716960e-02
-4.265872696708748746e-02
-1.962635870618487099e-02
-9.865618257068739169e-03
-1.710734047792069452e-04
4.455178341563566236e-02
5.899524243677421037e-02
4.334717111091416358e-02
2.583162277227805600e-02
4.722835781127704934e-03
-7.804201552386409377e-04
-3.862595089873556431e-04
5.776897650055446559e-03
1.803094708709149924e-02
1.691654934761358670e-02
1.488187047849541186e-02
1.617707713947728540e-02
1.412828905850476574e-02
8.302747542718216800e-03
3.037318995693364786e-03
5.592182639221976795e-03
1.271959601313509425e-03
-9.763155599493707204e-03
-1.992255416102678423e-02
-3.111258322694445896e-02
-3.197480343195065189e-02
-3.012025411938603486e-02
-2.794297069344280765e-02
-1.980694448675335631e-02
-1.840638323599899651e-02
-1.216311714128234800e-02
6.214718195165204462e-03
2.078824518131119209e-02
2.770034339694566611e-02
2.838214962397714314e-02
2.506218235900167096e-02
1.772772407271467135e-02
1.136939981785505677e-02
1.230533453776482856e-02
1.533097693123120289e-02
1.716650668775892077e-02
1.405337191835658375e-02
1.204821784228849238e-02
1.713535915903379933e-02
1.940139895528923686e-02
2.597705246000315757e-02
3.277598887190773247e-02
2.068003073312114914e-02
3.471053515846273668e-03
-1.665174952935580960e-02
-4.962094352654376067e-02
-7.235726401366816829e-02
-7.296857756818585228e-02
-6.927177710017602685e-02
-7.330333383794719604e-02
-7.450365278902044974e-02
-5.926062371396826484e-02
-3.905306969620621349e-02
-1.768722594105431520e-02
1.451908967469969260e-02
4.100698576164534676e-02
5.591767110009399772e-02
7.243520281572719821e-02
7.701403923032881793e-02
5.876982878213012074e-02
3.700930890400520173e-02
2.725782738439069819e-02
2.456004125520107328e-02
2.692105178482397804e-02
3.121230546001376241e-02
2.271697515261919889e-02
1.190795580651728310e-02
1.326718401672043884e-02
1.402850145714286054e-02
1.426489179083938706e-02
1.364821642756447288e-02
3.148085380677231176e-03
-9.080489239206439994e-03
-1.994639147467901219e-02
-2.920310672391425097e-02
-4.456907647148094370e-02
-7.698238648114549831e-02
-1.022189776994926746e-01
-1.070247903543819490e-01
-1.063119445329854251e-01
-9.155197951267418643e-02
-5.602036371782920937e-02
-1.750820490623930525e-02
1.862280622798710705e-02
5.228828154587263077e-02
6.547418137438032470e-02
6.672742688457929117e-02
8.366499557272885634e-02
9.011432090793136673e-02
6.216512100915221745e-02
2.882687332210528974e-02
3.119914444174707972e-03
-6.173602089390818788e-03
1.375520564463276856e-02
3.472298732540670535e-02
5.453147249822041381e-02
9.461478600072725786e-02
1.118612786076965682e-01
8.977304766706678540e-02
7.182570188092185504e-02
3.795668431593380437e-02
-2.708300495781944262e-02
-7.159318866025078665e-02
-9.105268743735574211e-02
-1.130687159901371808e-01
-1.449616904191768918e-01
-1.802176188746266450e-01
-1.810376510356007107e-01
-1.382226800118667720e-01
-1.017466044025260863e-01
-9.856546843830479854e-02
-9.081270676128851138e-02
-5.221651556536355959e-02
-8.702019016751041600e-03
5.449671922164511101e-02
1.463218318578398958e-01
2.135161749155061739e-01
2.404054005269448679e-01
1.895438129339881150e-01
7.038653552297423344e-02
2.707043508049428518e-02
4.307111417890605726e-02
4.182813432097656769e-03
-2.414363518257152744e-02
2.379144027831804273e-02
1.181101941157518403e-01
1.923710393551660569e-01
1.638699918572952552e-01
6.219468916973622946e-02
-2.931864409874198815e-02
-1.071146368638543622e-01
-1.688246163091596530e-01
-1.887537140133108693e-01
-1.805974638673078225e-01
-1.588941222039855494e-01
-1.149308910515397658e-01
-9.346866864751963988e-02
-1.278399025972076497e-01
-1.331310985870597652e-01
-7.428532226452984333e-02
-4.564202935422648211e-02
-7.678326461660951729e-02
-8.429451693413667068e-02
-3.562075905775943796e-02
4.528476358435467967e-04
4.259865912451606118e-02
1.701434380325425044e-01
2.919036685380622664e-01
3.294068180317890060e-01
3.328482845364956755e-01
2.705772635208953947e-01
1.445154478687519783e-01
4.816398477292004737e-02
-1.686353410501519740e-02
-6.715620177352307762e-02
-8.766596538908387470e-02
-9.170397654235536156e-02
-9.022798735871907783e-02
-9.309593623637429927e-02
-9.414261721419814322e-02
-8.467403417031846291e-02
-9.482688674636600978e-02
-1.085727309002655905e-01
-6.380784738569175718e-02
-1.027844107108819000e-04
-7.507273110603419723e-03
-5.149496146704575505e-02
-5.929600656869082193e-02
-4.343599227833525034e-02
-9.221890057196835758e-03
3.609367676967962374e-02
4.171424567765599778e-02
1.770861095006960942e-02
3.412996601050899328e-03
-1.622245112188575294e-03
9.864228475238101534e-03
3.086166486509972148e-02
3.618153383349140967e-02
4.365588872209417298e-02
7.229739382003727566e-02
8.501069998772878278e-02
5.714668435138281488e-02
2.423045229096740596e-02
3.827004747020499014e-03
-2.223450182712031001e-02
-4.703290024434283317e-02
-5.787716737105217529e-02
-5.985047865567821868e-02
-5.640514378955398950e-02
-4.756230858436397840e-02
-3.692483508640910517e-02
-2.875331816047627803e-02
-1.844946116952456833e-02
-7.941501933394531920e-03
6.420355831060364608e-03
3.944017868501640406e-02
6.820053801929994164e-02
7.469456923510479907e-02
7.690414660511302181e-02
7.806514114092033552e-02
8.797104481467868387e-02
9.711248020217792820e-02
5.808783119836337383e-02
-1.892932546792869611e-02
-7.678148239318141610e-02
-8.664381744048740841e-02
-6.211381103832219752e-02
-3.945339605822113793e-02
-3.535427666208036668e-02
-4.275931406445000749e-02
-4.484136419616882585e-02
-3.487220659285744651e-02
-2.206845386094746786e-02
-5.642302764191768107e-03
8.563864996264689694e-03
1.563865739996412457e-02
2.125570950880246654e-02
1.766144389929866221e-02
8.913034064549270677e-03
-5.114454088158419849e-03
-2.524084051401585121e-02
-2.148251424884624686e-02
5.102922773247357390e-04
1.182052856305305585e-02
1.302858959493956477e-02
8.467373165177920213e-03
9.634670995070666183e-03
1.379615697688720867e-02
8.496032061045630940e-03
8.465854513749246357e-03
1.105691451624710338e-02
3.962990225281824881e-03
-6.779251901114966526e-04
-1.266307739766637640e-03
-1.336803939280102604e-03
2.475407778961925993e-03
9.269690040544179693e-04
-9.872163434030533508e-03
-1.580518996591840503e-02
-1.229636868319970537e-02
-6.698851684050169397e-03
2.847591996920010964e-04
6.665946573802483677e-03
8.357777455375603806e-03
6.543637170012290422e-03
2.490370719174426605e-03
2.525677974810830624e-03
9.525009446401708213e-03
1.291740903498377925e-02
9.198160087033236884e-03
4.865487707317693936e-03
7.141604950485217406e-04
-2.940599555910771747e-03
-5.954908264167411980e-03
-1.117061260380755074e-02
-1.133622740527617107e-02
-5.502824837506445181e-03
-7.497926771214059004e-03
-1.114482744029928786e-02
-7.198876366578965853e-03
-4.967489514374110425e-03
-1.563575652701109080e-03
4.108147935758810210e-03
1.559150109681165224e-03
-3.943167143173525145e-03
-5.885962000351752273e-03
-6.922483914921632488e-03
-7.238610870748831035e-03
-6.480702765786819884e-03
-2.708616622400036519e-03
2.707401746129323161e-03
3.023306355200948859e-03
2.635251344038315111e-04
2.880469993186580806e-03
9.883611296964717186e-03
1.254285225930530483e-02
8.681547491135315972e-03
4.036118096056391137e-03
4.800640750005292145e-04
-3.611846898418394954e-03
-4.029846065599763591e-03
1.515736681579071994e-03
6.268311217948858115e-03
6.862145214675480567e-03
3.842230025702059269e-03
-2.540186602426950605e-03
-5.639111185549878884e-03
-4.187028437314087477e-03
-4.919263144801144273e-03
-3.743403565567919502e-03
1.601455591843481234e-03
3.124417899278554827e-03
3.069865832967677219e-03
5.486420929060722984e-03
8.726919152133199784e-03
1.463745499183253911e-02
1.664722597283552902e-02
8.575107143988883532e-03
1.484029536433801449e-03
7.476854433240252710e-04
-6.309673300339737473e-04
-1.215094633080864538e-03
3.797251326962769978e-03
7.833149078313795741e-03
2.765864829878620507e-03
-3.672993217977973610e-03
-2.517061960266190040e-03
-4.120755386169068328e-03
-1.420349567882483836e-02
-2.041456169067952867e-02
-1.864237621851748405e-02
-1.761177245066638045e-02
-1.846633022283179423e-02
-1.248188256405643320e-02
-2.382632753847205992e-03
-1.496094702292878045e-03
-1.187708720396457411e-02
-2.858707683240004419e-02
-3.992369460660402658e-02
-2.965251194658749187e-02
1.269625241083664237e-03
3.557352539804107400e-02
4.986575236737721822e-02
4.225783596275756171e-02
3.254697795037801711e-02
1.856907127584528014e-02
4.386525103564104834e-03
5.744550434739988110e-03
9.282060051901930633e-03
1.012806328327298805e-02
9.508641486059375009e-03
8.883556150438530474e-04
-2.405738521537610555e-03
-2.287305175719440194e-03
-3.205515265737034734e-03
5.905810667031824793e-03
7.993702925858209643e-03
-2.662661570218652438e-03
-8.502431236467893408e-03
-1.048257562956068922e-02
-8.989115184210826059e-03
-5.730360338201372604e-03
-4.002615946679805893e-03
-5.922365620576301466e-04
-5.419214911389633356e-03
-1.628245908730024255e-02
-1.563188390530735952e-02
-7.787472068046610157e-03
-3.492813080688952909e-03
-5.761487078858079820e-04
3.060288017445983010e-03
2.990178320389034767e-03
-1.226240504534845295e-03
-9.963706143351202128e-04
3.708978250394655892e-03
6.408368716400375878e-03
8.379117861333018960e-03
6.849188086449233166e-03
7.223135708829902212e-04
-2.361088318102293540e-03
-2.341953575702327740e-03
-7.196910924426665364e-04
1.936202486996117409e-03
2.310172641610065952e-03
1.151343111368056255e-03
-3.649829464063067755e-03
-7.634698327222832689e-03
-3.852382641688909589e-03
-7.685980872896673588e-04
1.376152221586319883e-03
5.640905578801175269e-03
4.406310581123978019e-03
1.536985443684130712e-03
9.266892578382357243e-05
-1.384621820530871922e-03
3.316977918613599283e-03
6.586128218597319187e-03
-5.890599322838532652e-04
-5.375867012230270067e-03
-4.857033074306806551e-03
-7.627185297729082575e-03
-2.963791973762609517e-03
8.472589007868411640e-03
8.362597934406501218e-03
1.712237221229403854e-03
-1.742244009850243665e-03
-1.697911146115785568e-03
5.207262984110534645e-04
-1.081990172819766866e-03
-4.792971714911517392e-04
4.030705388801568943e-03
3.700961814741837805e-03
9.786498584896015113e-04
-2.294984479519655233e-03
-8.332376529832740244e-04
6.003626692569315020e-03
6.689293224289264046e-03
2.384635484223599552e-03
-3.018540250154159218e-03
-7.213636117425679256e-03
-4.456211474345998097e-03
3.706856772056864313e-03
8.541631328996469874e-03
7.210854559346190074e-03
5.926174211015268825e-03
-8.676297443153154279e-03
-3.078992974774060962e-02
-2.166001217817080035e-02
1.464496699741577208e-03
8.130918883245167109e-03
7.917912495871735207e-03
2.619717029347050537e-03
-8.158895893782777166e-04
-1.272530146464943921e-03
-3.923306112262045682e-03
1.783490085656108714e-03
6.402211427520403293e-03
1.554025108833735104e-03
-3.880036513277458632e-03
-5.541289438802591075e-03
-1.768354226305235161e-03
2.009066904482834440e-03
5.536833160929028469e-03
9.352608935886672081e-03
8.259362143137259984e-03
2.994361300213337768e-03
-2.433541158778299972e-03
-2.886684267238043039e-04
1.435892323453790038e-04
-5.269524976652310497e-03
-6.159560219656042175e-05
1.918836849510290174e-03
-4.601542494767266352e-03
-3.845470621213055093e-03
-4.308200100267241435e-03
-2.475415304189073577e-03
3.368392582188642782e-03
6.093952724773516513e-04
-1.713411286250737710e-03
-2.281855770879304135e-03
-4.719485866346090179e-03
-3.368646112703137501e-04
5.942941105851387747e-03
9.020879589567841472e-03
8.966377268450551052e-03
1.269513070474119704e-03
-4.132682630383440262e-03
-2.027453336152930385e-03
-3.153031102081340926e-03
-3.763406062143506551e-04
5.712584239129019255e-03
-1.108951466676416425e-05
-5.036244500489648473e-03
-3.201812924728542932e-03
-1.358856470883636636e-03
6.864064135426770075e-03
9.192217738411662467e-03
-1.929708692478541987e-03
-7.103293193373618440e-03
-6.394574663705713743e-03
-9.810510691656414151e-03
-6.094245010935274258e-03
6.389221483143981035e-03
9.913550367995647983e-03
6.289900713699721028e-03
8.685288342918548151e-04
-8.409105720569730671e-03
-6.645475435645367517e-03
9.725069966230214576e-04
1.357940081758735387e-03
3.156854222719348343e-03
2.101510145359744217e-03
5.085811950603920210e-04
7.457086744586091708e-04
-5.197990793625346419e-03
-1.012950592254850722e-03
8.182333963495040663e-03
3.275055414031842037e-03
-2.260997080322229603e-03
-3.949283140974115675e-03
-5.776727464905897363e-03
-3.154745102531070905e-03
2.433482592427163582e-03
8.267884593838682739e-03
8.727259193871902271e-03
1.380753174830860698e-03
-5.497088333049975420e-03
-4.896831469811508200e-03
-1.714895558028200389e-03
-2.448945169743154543e-03
-1.631056398062637734e-04
1.111967044736052266e-03
-7.798375042022324607e-03
-9.694550506870264206e-03
-9.506591106655819972e-05
5.277652814348567610e-03
6.728637658289374386e-03
3.193063587041828234e-03
-3.572742946718842055e-03
-3.562723929765555624e-03
-3.323769143087667004e-03
-1.042711948558988286e-03
8.068709471531878077e-03
1.064970558486643022e-02
8.578645068259053985e-03
3.465357233045768520e-03
-5.979271708700719182e-03
-4.722305346382967006e-03
-5.813502136962252209e-04
-2.067634804336577429e-03
1.625411496116787192e-03
3.385661889328887755e-03
-1.779455251382670096e-04
-2.579507899159237064e-03
-2.746850576458691445e-03
1.909241079665844340e-03
4.502449203028981162e-03
2.376985734918333137e-04
-3.888096754767244971e-03
-5.113585637279986079e-03
-4.878118573892139404e-03
-9.592647859943724889e-04
6.206970484483870579e-03
8.985338569834014008e-03
7.531452965606019734e-03
6.713820937319954626e-04
-9.572131402631946229e-03
-7.650732528956905552e-03
-3.378165089926610243e-03
-2.816874360252156258e-03
4.482184607633496638e-03
1.733723292009021946e-03
-5.707106995132231811e-03
-2.967808987309350326e-03
-2.219828662915780074e-03
1.786384518006555204e-03
4.154785003711569495e-03
-2.834673400620126276e-03
-5.244043480186216626e-03
-7.309309788456939440e-03
-6.916692899695226632e-03
1.275148549293411357e-03
5.000320031572717469e-03
7.616622572409161712e-03
1.180785278828391446e-02
9.281864845115422868e-03
1.605523079367987419e-03
-4.016194069912822767e-03
-3.288771112219944070e-03
1.581696729966521314e-03
6.297393228143186722e-03
5.345211627030960026e-03
1.983043425856014115e-04
-1.765820951571728942e-03
-2.621410085205171277e-03
-1.099128395780136743e-03
3.115596207038093257e-03
1.522274696441606318e-03
-4.542306697651506305e-03
-9.336422715756643662e-03
-1.048245849004733436e-02
-5.593559800192040785e-03
4.340278474202697440e-03
1.233347369314820481e-02
1.096467616798832249e-02
2.566712082282167698e-03
-6.583850301811488594e-03
-1.021318722610265947e-02
-4.421650348111847567e-03
2.411134959257997794e-03
4.343060294146898828e-03
4.625345898282734979e-03
3.261052251900785348e-03
1.300313777675760800e-04
-2.828767527555223291e-03
-1.115892227213290339e-03
4.261351428417051862e-03
1.239322214890517439e-03
-7.140260536257820971e-03
-7.739996201450835903e-03
-5.104163112084583037e-03
-1.414717263187157846e-03
6.074671260923755062e-03
9.406152059648903094e-03
8.254198370135284318e-03
5.754147454569769667e-05
-1.520691307411546275e-02
-1.445363005148877535e-02
-2.932072509157680404e-03
-6.625156268730781652e-03
-9.865410404464378460e-03
2.260314920539301716e-03
9.857596875882643911e-03
6.253650079285489119e-03
6.201648213135717985e-03
1.137755718533640589e-02
1.370115901587803421e-02
1.014295884171281456e-02
2.769388171085512959e-04
-6.143996446653263513e-03
-5.358511215449114976e-03
-2.420420586151746014e-03
7.215038520935514350e-03
1.262436302703989592e-02
6.367696419232854108e-03
9.876982841741171418e-04
-3.587387225422713957e-03
-4.577601220754909730e-03
-3.142381182211809957e-03
-5.038038701783534822e-03
-7.643554367865749467e-03
-1.980486193959282368e-02
-2.302451933374733556e-02
-3.603660931420196896e-03
4.411441241596595481e-03
3.682813633268756503e-03
1.167423821729230392e-02
1.097832732461749734e-02
4.557279074912456789e-04
-5.872031202708309985e-03
-6.389199278030241111e-03
-7.958049639938855405e-03
-4.076676552914628576e-03
9.897861182137980898e-03
1.396697249297717061e-02
6.461346414025109092e-03
5.948684152089595781e-04
-2.463466318086263585e-03
-1.076608299372694985e-04
3.358001752406788130e-03
4.179497554560400972e-03
3.426615593786119709e-03
2.068030895406238086e-04
-2.358776494187979095e-03
-5.056104077273685347e-03
-2.791275309081753860e-03
4.504951344248143107e-03
3.487699218903973861e-03
-2.382383624940716867e-03
-6.616498653827350938e-03
-7.356852572517653607e-03
-1.978876453991783909e-03
2.013787498370206604e-03
5.799462464699853270e-03
9.510087020346292760e-03
4.428859104088521924e-03
-1.417551138439981451e-03
-2.232791655785788983e-03
-3.399113075664394936e-03
-2.086427387931834299e-03
2.644191845077895845e-03
3.861877596769309855e-03
-1.690899355989625413e-03
-9.585449981510748771e-03
-1.040389124681091043e-02
-3.043479314785714723e-04
7.465473463536988555e-03
1.625378694409590182e-03
-6.713479791451472563e-03
-7.385470554438808982e-03
-4.686005641467230927e-03
-5.847194211236458666e-04
5.795157505971955739e-03
1.029362466463968999e-02
9.687062491926473271e-03
4.718498704033536120e-03
-3.758797689787674815e-03
-7.976588507042350548e-03
-3.045506910458258172e-03
1.193194307025559993e-03
4.314654517595002681e-03
6.506329322969045537e-03
-4.036460440928117763e-04
-5.220654205574386426e-03
-3.849153740543214113e-03
-2.848526273848964001e-03
4.904630045598679447e-03
8.808964676010142686e-03
7.412177512935312542e-04
-4.675410408214016912e-03
-7.502862303994258485e-03
-5.501461046848931009e-03
5.199576165934847484e-03
8.328600932025398071e-03
2.368842462244847777e-03
-9.979047969839493007e-04
-2.520904207071818920e-03
-4.363128200293843982e-03
-4.253758426348464190e-03
-1.886105857851144403e-03
1.331226081534383435e-03
4.418302343493163420e-03
2.526308310470698308e-03
-3.558747991576008060e-03
-5.336989340202384809e-03
-2.721799968256470234e-03
4.684365636807931270e-03
1.106786731127050970e-02
3.514943567181595500e-03
-6.524982289510461962e-03
-6.723355761866305590e-03
-2.572845774750622851e-03
4.795831569934448126e-03
9.871888313303007340e-03
7.284655468845689825e-03
2.468059964200187669e-04
-6.877494717073298798e-03
-6.858809110936916337e-03
-2.914320042215122215e-03
-1.513370434187896567e-03
-2.928298856459565129e-04
-8.734219268742562589e-04
-1.938750432671376960e-03
-2.048043219278404287e-03
-4.151328790947605291e-03
-1.891556845343955609e-03
6.822118652516894963e-03
1.043140319264786349e-02
1.995368361063377949e-03
-8.388422223919861365e-03
-9.221911220086968786e-03
-4.347490825327370544e-03
2.348655430443406886e-03
7.895530280509594281e-03
6.686014423737119718e-03
2.846988467056494557e-03
-2.965806846730512287e-04
-1.944960817283290875e-03
-4.175857212421154501e-04
2.110794528339900080e-03
5.749750187432878766e-03
6.585938086579461864e-03
2.905475356969717919e-03
-9.680296479484683421e-04
-5.549263473997236018e-03
-4.790006565160775248e-03
1.680280010645037727e-03
2.574162923502699291e-03
-1.000371389909953616e-03
-4.977772713500830566e-03
-9.001551371849917174e-03
-9.146864280769811256e-03
-3.994011807437448068e-03
2.704061500180493169e-03
7.779610818753491391e-03
9.068794821981598919e-03
2.332140896035441932e-03
-2.780830370391335852e-03
5.231299971930518725e-04
-1.396202313366644299e-03
-2.492905487393666780e-03
2.215674425293844788e-03
-2.633828729362519766e-04
-3.650516522779047399e-03
-6.682570739408113386e-03
-6.066667682691084633e-03
6.089583663534168557e-03
8.727516145562394870e-03
6.347787766015424186e-04
-2.252814880840671788e-03
-4.490514719804340402e-03
-3.428692653114294095e-03
3.657037757630338809e-03
1.041049563153862052e-02
1.157505263524862688e-02
4.376632447183241049e-03
-2.991801442310541587e-03
-5.011314576538496851e-03
-4.961754414124352509e-03
-4.734765074047847869e-03
-2.411683444383352134e-03
1.595673061411821301e-03
-1.453824677609455570e-03
-6.467491755302537219e-03
-1.849679690596424354e-03
6.251224124508279224e-03
1.253316425636728272e-02
1.167969017934740276e-02
2.222441673329879016e-04
-9.149136553709285441e-03
-9.314949439619276197e-03
-3.401513242325173055e-03
3.449678857879074929e-03
4.824530616274213569e-03
2.542933923704454331e-03
-1.231933370411950187e-03
-6.904613242832579982e-03
-9.898440633908670017e-03
-8.168733858510647192e-03
-3.808666847284105771e-03
4.776644312184211995e-04
2.910980106446297601e-03
1.810766907057885294e-03
-2.324142218565982548e-03
-1.734064292430966383e-03
3.853799215133913488e-03
8.577082814493340590e-03
1.205445116327664122e-02
7.836417203776509591e-03
-2.262876168037508857e-03
-7.089635307872892492e-03
-5.606241131135037380e-03
2.316961934608163624e-03
7.363182441562358092e-03
4.598173311295488189e-03
2.289476296223717788e-03
-4.856994905322161750e-03
-6.488708601966434314e-03
4.415749027045724230e-03
4.634746342950041113e-03
4.223937505986002754e-04
2.672978036255047908e-03
-5.207832543347334269e-04
-3.620601437816378838e-03
7.022020173744573381e-06
1.378964706188178999e-03
-1.113303654372342806e-02
-2.128920328673215151e-02
-7.099524209907260262e-03
3.008696557897216212e-03
-2.738858007489989796e-03
-6.347592224333195240e-04
4.821941761461656477e-03
9.191341568035726536e-03
1.361650127624615056e-02
1.087431750571093807e-02
4.016539143254123367e-03
-4.855485079230792813e-04
9.564630115893388166e-04
5.878952610087038620e-04
-3.095688675821561993e-03
-1.621426806480989876e-03
-3.923508490360189983e-03
-8.305701124537519589e-03
-6.539078422523433159e-03
-4.956810550077744501e-03
-2.701173548433295811e-05
6.050155860282093595e-03
4.700457038882189034e-03
-5.909401651115950543e-05
-4.770377928689025111e-03
-4.634875759127808463e-03
1.032492930838455015e-03
5.617658687691888010e-03
8.643872281655478815e-03
7.442911317853296606e-03
-1.018303583244554132e-04
-5.013830372379566788e-03
-2.846886245343546121e-03
2.812682472136334528e-04
1.722712639971083447e-03
8.380742277533665806e-04
-3.099460346267934961e-03
-4.162626563263912942e-03
-2.432723463520093752e-03
-2.637309907425761275e-03
5.927467370647985243e-04
6.142264742708299086e-03
3.292435965489781680e-03
-4.882031607900994517e-03
-7.397356905557673883e-03
-5.019772441165749367e-03
-6.086237141717562148e-04
5.272156710150066421e-03
6.236090868617920335e-03
3.846500310024605039e-03
1.243426438697898271e-03
-4.408635854138105888e-03
-4.553255094321893154e-03
-1.941661304619862771e-04
-8.053228063071701456e-04
9.957127998588295031e-04
3.337563870413499945e-03
7.335524716169372888e-04
1.408795117687525753e-03
4.068542151683137049e-03
4.456934449627853248e-03
2.360196761741016787e-03
-2.028298098521567634e-03
-2.453394054939720976e-03
-1.004486220673049893e-03
-1.884012972483378127e-03
2.772374079316983512e-04
2.833138092534031455e-03
3.797367715408203875e-03
4.703859384767868079e-03
-1.667488813196995809e-03
-8.416481411841605920e-03
-4.873303085833189351e-03
-1.352224852824182762e-03
-1.596942770099754431e-03
-2.281978883305848214e-03
-5.142816663090045252e-03
-4.183218827246724079e-03
4.718349981592582327e-04
5.187182393929961818e-03
1.194024729452450133e-02
1.072153958052912866e-02
-1.004577331447582041e-03
-7.927306257207318227e-03
-8.708705491567594534e-03
-9.204480316791791711e-03
-4.029772192636034769e-03
3.279271692799949622e-03
5.395273990172981711e-03
7.201522699202544085e-03
4.370156783949554619e-03
-1.884642951950373088e-03
1.025834566070161005e-03
2.161592669016738216e-03
-4.320506906846936410e-04
2.948780584864244946e-03
1.856702407305173914e-04
-4.440620717237114476e-03
-2.757854720656973888e-03
-3.481056734326769698e-03
-1.015305678954285572e-04
5.016540322343652526e-03
4.342757069445345132e-04
-6.060647146314582581e-03
-8.603704641580832077e-03
-7.397266278943808587e-03
-7.693500010612011738e-04
8.204258727417952993e-03
1.306208192935909285e-02
1.025923168514642457e-02
2.009792474790765560e-03
-4.877228825562638162e-03
-4.836712477890733886e-03
-3.082351075776305471e-03
-8.634906227657498457e-04
4.729317757809711927e-03
3.482872138198034317e-03
-3.748190350763775432e-05
1.262882619648367450e-03
-1.615282731766572904e-03
2.383630101826409147e-03
1.116504611619141205e-02
4.420373966798871873e-03
-5.227449708511279491e-03
-7.688136806969932645e-03
-7.309146697129806879e-03
-1.416992436629748147e-03
3.698715486114847149e-03
5.150369752407894797e-03
2.677160363954530185e-03
-5.423629766852287523e-03
-7.955746396738865370e-03
-5.468176218309785119e-03
-5.945859543348991187e-03
-3.641150187769921689e-03
4.116365688336967804e-04
2.430973817539195260e-04
-2.976375603320715289e-03
-4.885890972770198099e-03
-1.943951858433221394e-03
1.118388507674264931e-03
2.827598270500024467e-03
6.543788850945394912e-03
6.328335565972745269e-03
2.739335338354376929e-03
3.391021455918545244e-03
5.234958830902633649e-03
6.123129750817409706e-03
8.777124935222991794e-03
7.013509813782704654e-03
-2.731925560513734016e-03
-7.398151228398213049e-03
-3.704781191997320693e-03
-2.911645656598171698e-03
-2.492815716220095606e-03
-1.513728741569295546e-04
-1.750682344303406898e-03
-4.418732518217537326e-03
-5.738060778292633154e-03
-4.170477045025595790e-03
1.585495821020488274e-03
5.741557081869000725e-03
4.885392759739170566e-03
-2.174180415557084027e-04
-6.184694440757293639e-03
-7.365600762187394721e-03
3.359138622875291070e-04
1.141665048346557354e-02
1.362928473375360321e-02
8.749571684065617777e-03
2.684806493390173854e-03
-3.524928744488984439e-03
-5.662816925272740574e-03
-6.190471734029273469e-03
-4.079913746722840795e-03
-2.055609620585181676e-03
-9.580039596066583507e-03
-1.266416385422004971e-02
-7.343238926987533804e-03
-5.069996035274120655e-03
4.090893811310029535e-03
1.450056659173058413e-02
9.651065456118960648e-03
1.858377293153171258e-04
-2.718436501368913689e-03
-7.776065335340898686e-04
1.374162756275324870e-03
3.091571620043734227e-03
7.158047576695690181e-03
8.330016655432715897e-03
3.447802245713442459e-03
-1.652538824747695322e-03
-2.774253081925321090e-03
-6.007792619415796079e-04
2.880461125888010478e-04
1.030193521670442949e-03
4.784855129965286981e-03
4.856365375083957457e-03
8.875468011439390740e-04
-6.056570800328578419e-04
1.436993749198579168e-03
6.554816566656201764e-03
4.328423310091750534e-03
-5.269859666549253294e-03
-9.244563499658266931e-03
-2.123053571548279977e-02
-3.496422649555697149e-02
-2.132114204933875309e-02
2.864929928219660856e-04
1.013879443990869933e-02
1.349536153873381883e-02
9.691366656051072712e-03
9.658383252870723912e-03
1.069400276570440025e-02
5.050333541742555062e-03
5.084809538117715348e-03
3.818939502400427611e-03
-3.926120446260619561e-03
-6.220693505929061895e-03
-5.267357973595721693e-03
-3.351917062935686441e-03
7.942523754334042656e-04
2.683417702276364239e-03
9.907340578634311738e-05
-3.256657193635701265e-03
-2.858496638947916578e-03
1.638895463647874022e-03
1.035452613926988487e-02
1.457425089777411586e-02
8.219128669553354624e-03
2.161706503281853042e-03
-3.198431766301160824e-03
-8.592266779718521832e-03
-5.770970783542973825e-03
-3.194543509249480034e-04
3.969105283036409963e-03
7.016869233067117920e-03
2.770796471903634942e-03
-4.710164548756129270e-03
-6.737203713285603961e-03
-1.444131005263689848e-03
3.123596914781383207e-03
-8.035198760300806594e-04
-6.881796588610922076e-03
-1.108199114899279664e-02
-1.316454317336963192e-02
-8.702771682796943756e-03
-1.800394502869589151e-03
5.147372916567805913e-03
1.238752902760008497e-02
9.099835629870486192e-03
-5.903271140432920366e-04
-2.831012213143675391e-03
-2.925007086914887915e-03
-5.993331343919506551e-04
6.598068190079065670e-03
8.523150061292013302e-03
6.014815011563850317e-03
-2.076662049528462122e-04
-4.984852114629600636e-03
4.782964172592955344e-03
1.517112561589394407e-02
1.250201959328201343e-02
3.882849573352910137e-03
-3.796775744107400759e-03
-4.453596841891921073e-04
5.644161390567946010e-03
-3.584814556473457127e-04
-3.409991707299065040e-03
-1.010658165418045146e-03
-9.254187749453133757e-03
-1.870623258380822718e-02
-1.903977866468312824e-02
-1.903874605524497748e-02
-1.675486322367487554e-02
-3.911516062240696402e-03
7.023722146119065236e-03
1.683938027602349067e-03
-9.220236321602758023e-03
-4.527238545622303684e-03
1.646407405169838384e-02
2.482231245100513864e-02
9.744497468841865906e-03
-1.324857473512813192e-03
-3.957066434728357014e-03
-9.640548506825928968e-03
-8.655292742718338414e-03
-3.472395258378768550e-03
-1.743697143140508993e-03
-3.175474922517495624e-04
-9.520335319124521509e-04
-4.490241747823660052e-04
3.425418450243273606e-03
8.195298540141542770e-03
1.429964735752827822e-02
1.850163421515949036e-02
1.778597040119994643e-02
1.416768877974665386e-02
1.574532162385975861e-02
1.875739683234548677e-02
1.601383185888908406e-02
1.702660110208784744e-02
1.165844303166458512e-02
-4.230394820590711868e-03
-1.227026420522208706e-02
-2.009119447828068908e-02
-2.781543549317401498e-02
-2.779867866060080697e-02
-2.261117589368304148e-02
-1.304342436133414974e-02
-1.780459663121861796e-02
-2.170776267415948368e-02
-6.859960879380335927e-03
3.068994371591316980e-03
1.853048855982000059e-02
2.132381353916029329e-02
