-1.122358376340232798e-02
-1.248290818121160217e-03
1.277808415720823806e-02
1.531894474446639405e-02
1.212305235902786348e-02
7.208259465884386472e-03
2.512820686130667284e-03
-2.345201282207006344e-03
-5.255528409268139974e-03
-1.581822839216361423e-03
7.192560644287641219e-04
-6.346725997446435669e-04
-3.264312117469195945e-03
-1.042370490626394648e-02
-1.135484031574108578e-02
-3.452136601501765243e-03
-5.551986858873031363e-04
-1.217178990195293348e-03
1.418991195862377675e-04
-4.243386855653607354e-04
-3.065034013658416746e-03
-7.317672709566186082e-04
4.306194375158158179e-03
3.446104348648284035e-03
4.350634431921095169e-03
6.418179987137387008e-03
8.332178392201511916e-04
-4.725179919424858221e-04
2.801858847447027435e-03
3.023006437633322333e-03
4.923412608610061060e-03
4.690637820017769070e-03
4.889342023245066542e-04
-1.043085534935856221e-02
-2.331692165130212421e-02
-1.146465551061867823e-02
1.386489197390056161e-02
1.640609897714982723e-02
3.362448943321986149e-03
-6.804257344533715113e-03
-1.162777515863152450e-02
-8.795337979043841084e-03
-1.581732686809120617e-03
5.080518916711671863e-03
7.025470661742771496e-03
1.639423263797857352e-03
-2.388754312018767471e-03
-4.463671304136812958e-04
1.817194538350683751e-03
5.004870460335527314e-03
8.536176704670637300e-03
5.415781904501626963e-03
3.114605117724658255e-04
1.800418877159773662e-03
2.469160395552838505e-03
3.290105652376340648e-04
7.502696768162223388e-04
-5.287399693561918752e-03
-1.006829326087283968e-02
-4.039906651174396748e-03
-4.142841143137670525e-03
-2.038065620466350970e-03
6.756985359931147461e-03
1.711750582341793440e-03
-2.902995909151447930e-03
9.623788704591773472e-04
-1.244219131285484621e-03
-6.126417218858778643e-03
-1.046464257397922148e-02
-7.559320481048003963e-03
3.075948708957148853e-03
7.398647017163400424e-03
5.401654407800618451e-03
2.310669982283514515e-03
2.351247817894264354e-03
6.236643359495559237e-03
8.484517590360025202e-03
8.575487661869026293e-03
9.027557309803001251e-03
9.715542658130271389e-03
2.819208942362107749e-03
-3.553020037819221329e-03
-6.446603565319061280e-04
-1.393407192369298811e-03
3.398314252961936489e-03
1.904312110505734573e-03
-2.313524713730465490e-02
-2.555418543459860720e-02
-5.588858106862979770e-03
1.792613147761974073e-03
5.145768533179892815e-03
-3.209360489134966115e-03
-1.083808864484067484e-02
5.326766009325226495e-04
2.933995578374079972e-03
-2.379733754913678097e-04
4.172691208250894034e-03
2.743834264891925351e-03
-1.882733059890887321e-03
-3.896594123864369034e-03
-3.280172353514493322e-03
-2.134660253893004307e-03
-2.584962872147394345e-03
5.310048654506817822e-04
6.114319693554955658e-03
1.120981135904071391e-02
1.464368136702898053e-02
1.184967020011240720e-02
2.187175240437930386e-03
-8.329108477239761596e-03
-8.489802815822400373e-03
-5.984421560973199935e-04
3.124191009268108103e-03
5.352221395735530171e-03
3.648366837634191284e-03
-3.770273993682753469e-03
1.431980381335638645e-03
1.118351402926886888e-02
8.367239920407533015e-04
-1.369768009600722848e-02
-1.196525027243771841e-02
-4.500328243268214221e-03
-8.513800212269288488e-04
2.651623255724178899e-03
7.998068229874349261e-03
1.081631383395414113e-02
9.304482138881220096e-03
5.444431016165045441e-03
1.213753873447483101e-03
-1.614301857433316249e-03
-1.105668879874843226e-02
-2.183870143828536836e-02
-1.263503233967213681e-02
1.611418429774139549e-03
1.577836742052042204e-03
-1.640086668910866602e-03
-4.464448673311686988e-03
-5.208145183450019894e-04
8.204859094709377604e-03
4.863929918756624941e-03
1.423945301894839017e-03
2.403044637057705213e-03
-2.752128340855325254e-03
-2.331904633875433140e-03
1.910750911303844357e-03
-9.809243892206411658e-04
-3.632916133132463310e-03
-1.604403372910346605e-03
1.770411864171850345e-03
2.765889125753147153e-03
2.117669861145618330e-03
1.647265725095828836e-03
8.825355404750584182e-04
2.355908267622876858e-03
2.688675807513908351e-03
1.576468074657964413e-03
4.187428695767418489e-03
5.502446156561690074e-03
5.206099760379054482e-03
1.738105773251591218e-03
-9.652536606554171228e-03
-1.464728690508909636e-02
-8.608524641219084117e-03
-2.593370027074676926e-03
4.450419389626923336e-03
1.030083805133683028e-02
7.482331654379984279e-03
6.146580124406261347e-04
7.389982403212577277e-04
8.824863730362434225e-03
1.159758003802225518e-02
1.256154694265590541e-03
-1.284955593950577214e-02
-1.358687007702173016e-02
-2.116569404443430572e-03
2.011887014197732363e-03
6.423298299389986789e-04
-1.258554693100856709e-03
-8.697592355488500265e-03
-5.655760361777874279e-03
6.773377925670668286e-03
8.168384211935034514e-03
1.670453559223250952e-03
-6.126738976115553466e-03
-7.569224360803854940e-03
-7.626996961530188406e-04
8.650930926626790090e-04
5.486371775998959838e-04
2.179277129753777464e-03
-5.673820827968486516e-04
-2.141912936616282518e-03
-3.411471614637716387e-05
6.103912500614825385e-04
-1.803101521230394445e-03
-2.669222781608464757e-03
3.240224420484647851e-03
9.937547015233165124e-03
1.099114530915482404e-02
1.014777099112125491e-02
7.967645241825907151e-03
-1.771475753554074394e-03
-1.074970706166374079e-02
-7.834254833439410065e-03
-4.033359381497737296e-03
-5.161259735398785777e-04
5.230790847827296135e-03
1.217666413872688135e-03
-3.160388735595006434e-03
-2.048261224623251428e-03
-3.638855385126426277e-03
-1.301005544976686868e-03
3.164761241043157099e-03
4.231900243989411385e-03
1.481723353277494609e-03
-5.166068747090237119e-03
-7.598763006419254583e-03
-5.242193517016139129e-03
-6.138187630408856003e-04
1.719900992292286218e-03
-1.682837714480769215e-03
-2.952982148086547194e-03
-4.438575658638168470e-03
-3.722071832291692570e-03
1.007389016902484648e-03
1.540010021613383035e-03
6.824700411760501947e-03
9.795097730125443616e-03
4.043379482434282350e-03
3.355697608097477688e-03
6.301680380166879572e-04
-1.233904098461496845e-03
-1.949685190507121843e-03
-1.159638806495124318e-02
-1.073890069061170412e-02
1.128225346168551784e-03
1.122027348790139920e-02
2.001920370374394437e-02
2.211827415369364142e-02
2.051051359600776156e-02
8.634005359867327062e-03
-1.130018291822366613e-02
-1.892324115344529156e-02
-1.943117968252010275e-02
-1.477690134556023521e-02
-4.502191060094451122e-03
7.151065221094056977e-04
7.707295441771762476e-05
-5.674708705159875466e-03
-5.419156201508236806e-03
3.908108220000257251e-04
9.425241487790611506e-04
3.982649919392564249e-03
5.425344265165695304e-03
2.128109442767686654e-03
-5.413237335239259526e-03
-1.587697341161831144e-02
-8.610665721180700213e-03
4.931899019040228600e-03
6.866461607553768498e-03
9.088638468346097593e-03
8.268183557731983990e-03
4.958737762559656433e-03
3.299882196341282718e-03
5.087431502368793381e-04
2.480002302205758062e-03
3.702026941741732961e-03
2.098011407390599006e-03
1.548211564635907115e-03
-2.929631861160547309e-04
-2.119399870016900863e-04
8.197567593616319950e-04
2.294832128534548578e-03
1.191190082120099089e-03
-4.361550502086674816e-03
-3.570474238064031726e-03
-1.613043890852785189e-03
-4.373439939691475473e-03
-2.922471909579259838e-03
-1.894895909933999199e-03
-6.690928027336596161e-03
-9.462297570140757244e-03
-4.451329209244722640e-03
4.017868019047052090e-03
8.018305578841504119e-03
7.424076955271281288e-03
8.406896304482807530e-03
9.154250251915936956e-03
3.003131434850337626e-03
-2.662711549540776931e-03
-4.453296275990527991e-03
-8.662041848199934432e-03
-8.197866146877598459e-03
-5.532573328416108376e-03
-6.002693900650271294e-03
-4.716395161555375160e-04
4.752725114898180558e-03
4.547585746425623389e-03
4.311334167000585235e-03
3.146746823418838934e-03
2.838790826043902440e-03
7.905418549158340269e-05
-4.435865318445034004e-03
-3.218983797060610570e-03
-9.521280447074969297e-04
-5.296525646668422864e-04
-2.390555438314138827e-04
-5.796887504959522463e-04
-1.236690407048141429e-03
-1.809836314488807822e-03
-7.342155610840063538e-05
5.067570776172496474e-03
1.322159018230896141e-02
1.298434047253412861e-02
-5.428755538356382212e-06
-5.092913937143922921e-04
1.002785834356281769e-02
3.839206712591685267e-03
-9.603925069174181275e-03
-1.176547877275463394e-02
-8.555420882791799075e-03
-1.056745746128708550e-02
-1.262822657227185598e-02
-2.436707577470158693e-03
6.878929481377097678e-03
4.028051928651908350e-03
3.369268652319958816e-03
5.934540916294014923e-03
4.373393230660236296e-03
1.578228882069290535e-03
3.870094350760677369e-04
8.151154308845625588e-04
5.462006215248555298e-05
1.413276428726739208e-03
3.974899815644594887e-03
-4.931948448745687111e-04
-4.564539597673739763e-03
-4.030739139493890594e-03
-2.980994285151549773e-03
2.558780963993663188e-03
8.373006057976129651e-03
6.726554947141283845e-03
-4.315534188917693331e-03
-1.773483572225930185e-02
-1.810520683067581502e-02
-9.873916172701368774e-03
-2.477714199420239655e-03
5.875139498445262204e-03
7.540191943501826054e-03
3.557391117265805598e-03
2.976051351322983683e-03
2.548205286807590265e-03
1.888521487207253267e-03
2.309973133245430202e-03
2.088910804752852710e-03
2.690910302932967256e-03
2.854449670476319652e-03
2.421483059191224287e-03
5.529015312021129391e-03
8.361122910891638504e-03
5.678721509571700229e-03
4.079202833458998520e-03
4.888064292262724563e-03
5.116984097999811160e-03
8.915948951968103234e-03
7.214672753897382121e-03
-4.951560827329308176e-03
-1.273733748448440360e-02
-1.507040962733140026e-02
-1.531043087174575011e-02
-8.680454630047747255e-03
-2.292146579408337395e-03
-3.128070855194171277e-03
-5.343114334767571673e-03
-4.038077322798169430e-03
-2.653954023851549677e-03
-2.362573471372388361e-03
-3.026119504256171073e-04
1.559135636223171490e-03
2.989469946913415107e-03
3.442563734538829547e-03
9.673944422970936997e-04
6.670760192859049123e-05
2.110423617585500695e-03
4.886634455500457608e-03
6.602988377104238200e-03
6.950171300206556442e-03
6.779203729269263172e-03
2.656201841682666667e-03
3.485023817946689508e-04
3.851418423682549663e-03
3.704009357608793133e-03
1.960396819051517248e-03
1.050173597971764067e-03
-9.375953330856794240e-04
-2.294785503142208701e-04
-2.265178307917690981e-03
-4.776220622429806772e-03
-3.544328235129283900e-03
-3.682084335195178870e-03
1.370495245876233873e-03
2.877101389697421865e-03
-6.167128324567892547e-03
-4.511908943358612818e-03
1.749340747698321279e-03
-1.935748346904656633e-03
-5.157654381517852264e-03
-5.758381553508172372e-03
-4.976119356774680313e-03
-5.407151529088715346e-03
-7.087264582123690634e-03
-1.757293229417528427e-03
2.561458716981316296e-03
1.812299074585666924e-03
3.523167643265281545e-03
5.072440716267227930e-03
6.132918338181226302e-03
7.289271413401582876e-03
7.030594376226242254e-03
2.066925945834843445e-03
-1.128676059161317323e-02
-2.114737081061348126e-02
-1.683845022093895596e-02
-6.136352008755787193e-04
1.603101833185423264e-02
1.962733349667309529e-02
1.833812316464408093e-02
1.860896648383675994e-02
1.674954235468698385e-02
1.639729456971708924e-02
7.662578591992416643e-03
-7.551247587358143540e-03
-1.122011616476182097e-02
-1.282933613958447093e-02
-2.058616725570709335e-02
-2.148697318604115419e-02
-9.096551069959657454e-03
4.028184265187981575e-03
5.269387535633885712e-03
7.086575571284917281e-03
1.261250191285653681e-02
6.940800257756505817e-03
1.103994103960471594e-03
3.322750020960574605e-03
-6.738098821716401177e-03
-2.623841860994222119e-02
-2.335403796721351524e-02
-3.429879884098928876e-03
-7.750949621095445290e-04
-8.708915566023805316e-03
-3.999156298825377875e-03
5.717424363645958428e-03
7.608570249723710724e-03
5.811863341403037363e-03
7.501168407685445197e-03
7.260325530490031008e-03
6.912029461927634254e-03
1.394739580678346427e-02
1.300595336801127835e-02
1.984096318794364468e-03
-5.669789849170744304e-04
2.382524373220435039e-03
1.606266522548576966e-03
-3.097854637779393246e-03
-7.880568723198300846e-03
-7.978182324041092899e-03
-5.747043715575388297e-03
-2.765047945862060628e-03
-2.264811260241039476e-03
-6.296863944230889423e-03
-5.450971473269383520e-03
3.993687276277433111e-04
1.808332760584793015e-03
-1.492161350613633057e-03
-4.023063049310316580e-03
-1.782792938316137736e-03
9.172213647660220400e-04
3.215274210640453600e-03
1.160889541203045244e-02
1.588524196662746343e-02
1.177216199862348572e-02
9.143133223885751421e-03
-4.964266840268538074e-03
-2.545052835039886621e-02
-1.992040303806562676e-02
4.504031879541451310e-03
2.312466460447203109e-02
2.502333643454508760e-02
1.057558005333115829e-02
6.585600806930128016e-04
3.500826636747793991e-04
-5.984583194831906167e-04
-8.552440626097497544e-04
-3.043932387500791065e-03
-7.971755202795709552e-03
-1.242988612559216624e-02
-1.201573086475590454e-02
-8.518168548493758666e-03
-1.065654990218085560e-02
-8.788432645549947367e-03
-9.193576660430080594e-03
-2.141142206639609635e-02
-1.731011528719861303e-02
-1.077709940294055554e-03
4.810077182535204242e-03
8.903422843773338771e-03
1.082956177351340407e-02
9.783114422892690357e-03
8.163858242755096806e-03
5.854903833621577861e-03
8.568575820387386646e-03
8.681744625494583131e-03
7.549453175269576002e-03
1.003244929721926887e-02
6.185368773472691394e-03
2.144474160005325342e-03
1.607511199582244881e-03
7.270776972804292694e-04
1.550640768845643936e-04
-6.528014499266450617e-03
-7.933457205543167218e-03
2.748847091291310892e-03
6.207825076161545969e-03
2.058427165392282595e-03
-2.414321331509659222e-04
-1.959810710812740463e-03
-2.580053688205099366e-03
-3.158329990830122027e-03
-4.328200990779228555e-03
-4.644766778842852016e-03
-4.720755970783789383e-03
-4.817325090018175111e-03
-2.892773252155593239e-03
3.719125104543801125e-04
-2.042114204326062402e-03
-8.519651759950274197e-03
-8.942521761261625068e-03
-5.191270895751091356e-04
1.218201997518510854e-02
1.686679440086686840e-02
1.151403591822529673e-02
8.121082747936256285e-03
1.711588501463872161e-03
-5.984318159358584244e-03
1.900234406551223562e-04
2.553735101822663268e-03
-8.931075262397957654e-03
-8.866460228188603049e-03
-8.668378478110817234e-04
-5.703787924092468438e-03
-1.431006778034314350e-02
-1.545155279231462397e-02
-8.776118738719149506e-03
2.131269636756789529e-03
7.249704920847727108e-03
8.137911721457816508e-03
9.563909198705337553e-03
7.832978712710948407e-03
7.543149609164942308e-03
7.347774925927592904e-03
2.017301653978397901e-03
1.979101399744955978e-04
1.622104508507180021e-03
9.991396388382412213e-04
-7.514206378024016440e-04
-7.251516490442840371e-03
-1.219800081209158719e-02
-6.378646696136473088e-03
3.623773633411771222e-03
9.381448199611107722e-03
9.329631803878021129e-03
7.148848912037008597e-03
4.792769256834993920e-03
8.814297149348621595e-04
-1.634866177376055694e-03
-2.957321637511816943e-03
-5.734706847478620272e-03
-5.542776666679584928e-03
-1.697364393084859402e-03
-1.707555454451025129e-03
-4.305056068257370055e-03
-2.936327254508481858e-03
-1.478574285147029547e-03
-4.104445289495409492e-04
9.201888241354191488e-04
-2.836874544439767221e-03
-2.289650723807935308e-03
5.480121937548210198e-03
7.194949278171565606e-03
5.120363034622534178e-03
3.751876515927735339e-03
2.370369022321134733e-03
2.247517211060276552e-03
-2.128111973389650372e-03
-5.744490585635607383e-03
6.979123113032723535e-06
2.731098780201799813e-03
-5.281815911544254609e-03
-9.395410364467348535e-03
-4.373848802346118857e-03
-1.540853039208641339e-03
-1.867413092993431591e-03
-3.599620659189517197e-03
-5.554473592051264660e-03
-1.222377040185167445e-03
4.519057003775833747e-03
6.802437789169686784e-03
4.574400029655882952e-03
9.092404181626049815e-04
6.256660579192598222e-03
8.564362878648472399e-03
2.396593557628819236e-03
2.227832579336435498e-03
7.693393338712684829e-04
-4.305432345386969555e-03
-5.066857205269326841e-03
-4.372215349840421865e-03
-3.849536948176275099e-03
-2.014943063947935431e-03
5.610080759556034316e-03
1.145551077976206429e-02
1.229375415004668390e-02
1.222766528107809697e-02
-2.754660448644281369e-03
-1.779509857676935675e-02
-1.611735658471708660e-02
-1.420985618205720599e-02
-5.947227200284749098e-03
1.871426058548879539e-03
-5.003538203100219885e-03
-6.029760928864636577e-03
-1.451690970125796591e-03
2.373056759898533111e-03
1.007777461807082137e-02
9.652815222681085730e-03
4.232565776313985950e-03
4.207242268776818436e-03
5.029651806562093590e-03
8.258003300509167768e-03
1.067882698028412881e-02
5.267805926652133902e-03
2.191075129492444772e-03
1.632191073754046991e-03
-4.662130289430185121e-03
-5.429790157025386060e-03
-2.729071228156781134e-05
3.866794770805828674e-03
6.445020054624255729e-03
2.883114644918797174e-03
4.758420052650199489e-04
-7.546606681327278424e-03
-2.744382265459123157e-02
-2.470872028898843387e-02
-5.314524955133203589e-03
-1.779871400997952218e-03
-3.112169483183754425e-03
-3.668919256482626023e-03
-6.521464350545246730e-03
-3.506949396998461973e-03
5.973643065256027847e-03
1.310930796844188978e-02
1.088260232743870452e-02
5.938531990641967261e-03
1.378504257263065465e-03
-1.341831560339149573e-03
9.096619386036123439e-04
4.628261634650795292e-04
3.453373504214787577e-03
1.260818727391261294e-02
1.409283708624773507e-02
8.690737864695720002e-03
3.685059988366582665e-03
2.769737658483828642e-03
1.854239094662657960e-04
-6.282106895062124219e-03
-5.677340006667406548e-03
-4.677769188090791230e-03
-8.763975776843199381e-03
-7.551301012983725053e-03
2.776359447181299856e-04
6.767693992442127583e-03
3.872667822761375733e-03
-1.434553500035740115e-03
-3.132267977273642430e-03
-6.702641296259729056e-03
-6.505917846874184444e-03
-1.531932770890695418e-03
-1.865848335602754383e-04
-2.945912589842749046e-03
-1.830561704732974748e-03
3.966834771151495770e-03
2.133449150172756111e-03
-2.956605306053828176e-04
2.915392738928295879e-03
-1.077092647925279191e-04
6.694352030953449207e-04
6.307650552241788472e-03
9.938364177660987363e-04
-5.989767159569605801e-03
-4.698894266522275071e-03
-7.380331424212785733e-04
4.276270683903903328e-04
-2.243037233518633058e-03
-7.515443331282540586e-03
-9.177976969457577600e-03
-1.481937488770786225e-03
5.070922107518702551e-03
7.276192494361556802e-03
8.742911296229336979e-03
1.550820929126195966e-03
-4.798114888752973151e-03
-2.401306225566666227e-03
1.256580660569391050e-03
5.720185800923359778e-03
5.498648053209199277e-03
4.063142301357995471e-03
6.536685029847618712e-03
4.064513903355641659e-03
2.195888106770637477e-03
3.444609596719371784e-03
1.795197492973978591e-03
-1.032006993120839064e-03
-6.144710089261385885e-03
-8.329771745775798458e-03
-4.785195535696676154e-03
-1.232146517765554542e-03
1.986567464820642489e-04
-1.933404412505935338e-03
-2.408763977517932014e-03
-9.553071953235427877e-04
-1.734265106064478406e-03
7.171064585109266157e-05
2.904987746532635990e-03
3.857650473488979589e-03
1.070784337404654101e-03
-5.672885827428850170e-03
-6.637996162389630563e-03
-2.268534877383831388e-03
8.074245282722826347e-04
1.717864992843778265e-03
2.492800474757897911e-04
-1.650345745456203604e-03
-4.199007713441207414e-03
-2.197680683287506469e-03
5.680722092128995433e-03
8.407805700961773834e-03
5.373548101950089556e-03
9.801061481069784070e-04
-7.294073635292215411e-04
9.839592378996886261e-04
-1.084280952640089609e-03
-2.043300065549581018e-03
7.172083905338509126e-04
1.406683826665417695e-03
1.457676991707201799e-03
-1.604634996486600882e-03
-5.259704146026890695e-03
-6.094261534881747523e-03
-5.687275403428885233e-03
3.363587371114531814e-03
1.241029686228362593e-02
8.524275236593735483e-03
2.940215628710814676e-03
-7.239533100324487414e-05
-3.069546559207858658e-03
-2.326765855325759174e-03
-2.004265662792404593e-03
-2.757647292157929149e-03
-1.193915925001738437e-03
-2.061512155877032355e-03
-4.225186699815771871e-03
-2.468017702670092985e-03
-1.161305824677277918e-03
-2.095137345832939930e-03
-1.813352500011558479e-03
-2.259913891713932841e-03
-1.581826030086722328e-03
2.818717721214916011e-03
2.891829449106372591e-03
-6.994138354062700604e-05
2.802705381770432928e-03
4.955614837080486203e-03
3.432727715263285233e-03
4.558908709819189942e-03
3.891011658618891405e-03
7.194438089628396983e-05
-8.122649411114938982e-04
1.246814153883780887e-03
2.634234269077555431e-03
-4.675703847835781528e-05
-1.850665491991332909e-03
1.042071950278230337e-03
6.515832396931072260e-04
-1.636874317397017057e-03
9.302074795785904694e-05
5.641164557845480473e-04
-2.270534005180273145e-03
-3.978289238847387485e-03
-1.486266880236746532e-03
2.373008434003920277e-03
1.048582499838709861e-03
-2.346174802311378708e-03
-2.033273154659546392e-03
-3.242949787647280910e-03
-6.143216034785602304e-03
-5.212565662423659062e-03
-6.387494776312389877e-03
-6.320374360601645897e-03
1.197807627272998903e-03
1.356827990470095818e-03
-1.552529860332861351e-03
4.304373032346789536e-03
4.708411956492455572e-03
2.594872072959948216e-03
5.876460914211071446e-03
4.689490926829895101e-03
2.562988717141778238e-03
4.152879536010338490e-03
4.813044916437132607e-03
2.017162206437847580e-03
-3.235776410215042594e-03
-6.991199995632822739e-03
-8.832984585826996610e-03
-7.683244048763299486e-03
-6.830250672736340976e-03
-7.269246595031301182e-03
5.449258867267516276e-04
1.075296067392681604e-02
1.450884781272030084e-02
1.389056167946008287e-02
8.921650441798415279e-03
4.597403697445949858e-03
3.430417435551327485e-03
5.073104834165180661e-03
5.235781630109516763e-03
-9.198261237423607578e-04
-2.674506570388568948e-03
-4.043032891273245534e-03
-9.230537194330158332e-03
-4.524265025285930004e-03
2.170337253796543399e-05
-1.897313639698917183e-03
-3.365205839300818534e-03
-5.435951929818757210e-03
2.087160144412332583e-03
1.238615403817164978e-02
9.894030277994483175e-03
5.093769675664781664e-03
1.257571673019799909e-03
-7.058802842790476602e-03
-1.413524869052175045e-02
-1.417688480564690059e-02
-9.880391263363113089e-03
-8.767558913859026595e-03
-1.347557259235468256e-02
-1.719223854108186192e-02
-1.015091779864942499e-02
1.054614806482737441e-04
3.528096165733838208e-03
7.319903959550982074e-03
7.680141529801422055e-03
3.458761640784904171e-03
4.175963526260774959e-03
1.819502597982282583e-03
-3.325853551337662733e-03
-2.590426375597627059e-03
-2.297736408629800012e-03
-2.115354444929272524e-03
5.418494438488592919e-03
1.375072855105092737e-02
1.416666883439149545e-02
1.649863579305834577e-02
2.139530468147269465e-02
1.875537541724854596e-02
1.883399098161167920e-02
1.783177821183082670e-02
1.139736042761254828e-02
1.483834884149120951e-02
1.718109235521115413e-02
1.387770373776888583e-02
9.270160057505255277e-03
-3.255668969261942165e-03
-1.178028976859197413e-02
-2.849389629667544929e-02
-5.355257579052209727e-02
-4.849320279865592526e-02
-3.252207245826270465e-02
-3.141648202157030362e-02
-3.035426553431289087e-02
-2.984273588201523039e-02
-2.340094392976890467e-02
-8.704218453298278799e-03
4.477600924623261619e-04
9.299917645001491012e-03
1.752559576891542237e-02
2.185992164704895005e-02
3.397310062267683284e-02
4.550524817860175653e-02
3.799021684515243441e-02
2.230910900223546933e-02
1.595935934080600777e-02
1.480786557149170977e-02
1.260358143968312583e-02
8.885599464706305656e-03
3.467164669990565207e-03
3.483787391721739589e-03
1.118756010766182654e-02
1.718752696797064619e-02
1.858681255576054986e-02
1.562134088730107034e-02
1.465348126891507282e-03
-1.293257331012201590e-02
-7.908895208474238728e-03
-2.193291004571722332e-03
-1.227101305161381641e-02
-2.135242902074218144e-02
-2.841348875130267695e-02
-3.339571216161861533e-02
-2.768632624727752206e-02
-1.595771555753615692e-02
-3.172179587629372910e-03
-6.304255146690043721e-03
-1.562979553174163524e-02
6.017947936147789332e-04
1.141197920274512195e-02
-7.509642336923629154e-03
-3.134995210297922275e-02
-5.167040653195550254e-02
-6.214474941485089582e-02
-5.768382394253497580e-02
-3.608512435755014541e-02
-7.366487997725245859e-03
-2.310222456855551016e-03
1.279710055695451381e-03
2.689358448841479635e-02
3.325578355355724575e-02
1.104194180828135113e-02
-4.821967773326322169e-03
1.644260619035265575e-03
2.167869731859071655e-02
4.301258505394574966e-02
5.865240554274195328e-02
7.254463144796795271e-02
1.066640165379535710e-01
1.333919691508799465e-01
9.957915460591421075e-02
3.942628329339953330e-02
7.553714086769586743e-03
4.416426022889059777e-03
5.155366356289987732e-03
-5.277686670518978197e-03
-1.943242970957795301e-02
-3.375604909631389761e-02
-1.670047723741810777e-02
2.083065260667461144e-02
-1.143935246688967781e-02
-8.291927114292303724e-02
-1.112292772712011601e-01
-1.198256646771331535e-01
-1.275584790460675133e-01
-1.187370935324330024e-01
-6.546825496530185584e-02
4.727937000228478459e-03
1.046869401137952640e-02
-2.039974461069143583e-02
-3.488258976691555047e-02
-1.402654020799650944e-02
6.803397516378811849e-02
1.197473852756114066e-01
7.248323483525291600e-02
1.198045842669595920e-02
-6.831258141297561100e-03
1.566318904686185912e-02
4.185635849811889658e-02
1.846828054011071321e-02
1.931594945044600928e-02
8.730858796598445215e-02
1.029489177527136423e-01
5.892085018822774273e-02
4.000220231274720373e-02
1.106663666108544108e-02
-7.052726874891117326e-02
-1.912051230192847451e-01
-2.421252672897095393e-01
-1.446664920952771549e-01
-7.816480129118499875e-02
-7.843497306905475308e-02
3.118386845664114504e-02
1.458345603826031456e-01
1.308445805322500100e-01
7.168101013259810250e-02
4.715856415435627086e-02
7.748762085503235753e-02
9.139380205685265768e-02
5.966078991515205016e-02
5.531339709118593406e-02
4.878419533954782283e-02
6.442686109415773736e-03
-1.316649762556761603e-02
9.687918702953513331e-03
3.197188962232369591e-02
2.418270308554643089e-02
1.180123844412165821e-02
5.643869378150674979e-03
4.215869663342435361e-03
3.375492443117699554e-02
7.408258580019613793e-02
5.933265961768766084e-02
-1.790765428115983701e-02
-8.326447744766266035e-02
-1.272931267117372311e-01
-1.915292447398754538e-01
-2.210161369442954216e-01
-2.006725357553919564e-01
-1.837401873559574017e-01
-1.649742416313550175e-01
-1.207731153629109794e-01
-2.822700189129998330e-02
7.214778343766256596e-02
1.137650682044106520e-01
1.287541473194044883e-01
1.556481837231624699e-01
1.845176957341205515e-01
1.707872191468831902e-01
9.959683226896834385e-02
4.040455234940613927e-02
1.377370638052613158e-02
2.684064989188262446e-03
7.721062451450769887e-03
9.150447868451450431e-03
1.817598062609037182e-02
2.993239632202373407e-02
2.422067224258703244e-02
2.376889009907978689e-02
2.196652915095790096e-02
7.871576351153267842e-03
-3.797611817087597017e-03
-1.416664255921717963e-02
-2.555426770634116468e-02
-3.444323767693781985e-02
-3.836512333852907380e-02
-4.368458515413334298e-02
-5.090661022595308061e-02
-5.473531630109391977e-02
-5.755038171006009867e-02
-5.234073839164078007e-02
-4.202508070481086877e-02
-2.999811481963283663e-02
-1.307785844556452574e-02
-1.607278309741309169e-04
1.333122616370309606e-02
2.440045004174945867e-02
2.979175152701219603e-02
3.942860062477129834e-02
4.208370283051300620e-02
3.867998029434955437e-02
3.607159979540862371e-02
2.972663393139490448e-02
2.138214458602236481e-02
8.467263881798487574e-03
-4.286493187063454731e-03
-2.441817975919327935e-02
-4.952590737217615890e-02
-4.871109753343141197e-02
-3.189824104953589701e-02
-1.858528675633118465e-02
-9.063919945154440966e-03
-2.904037928172887445e-03
8.911337992096190000e-03
1.569884413246468158e-02
1.803772625762872089e-02
2.559309133685367874e-02
2.494602739480561784e-02
2.480788713234039974e-02
2.669416000935224964e-02
1.954747301661655806e-02
1.235994132748923467e-02
4.228442378055886734e-03
-5.037388070009892480e-04
2.124185066309119442e-03
-8.023779773174477331e-04
-5.520203178571892084e-03
-3.971435590392456000e-03
-9.147618591450492470e-03
-2.891908622083498928e-02
-4.237906245514828224e-02
-3.307777216664654213e-02
-5.813616147734502332e-03
1.426065704845735395e-02
-4.761635701916731508e-03
-2.166862479516735301e-02
6.856190125069933214e-04
8.811978365494535503e-03
6.739696011327366443e-04
4.585143016878339729e-03
6.034517168998883773e-04
-2.857581340191863058e-03
-1.101866549992509174e-03
-1.858269781346229103e-03
4.009967530794303174e-03
7.368595700253843979e-03
8.297968123910690053e-03
1.176040752895781728e-02
1.018245869669628587e-02
6.293645671041003635e-03
2.110384565692197817e-03
-1.721541187976895161e-03
-2.646754023172904861e-03
4.385089425777203534e-04
2.793810049230669758e-03
-4.509901612061043095e-05
-1.962951998004007232e-03
-4.479987108243552521e-03
-5.084118914909365600e-03
-1.347584025258855315e-03
-3.793914965085449717e-03
-6.164592130009406007e-03
-5.657070081515073491e-03
-5.628809607482260051e-03
2.308803972422498758e-04
3.856531629176357563e-03
2.080015665817162851e-03
-1.696554645340772485e-04
-2.309645852234889357e-03
4.315760141420178818e-04
2.376994445890406957e-03
1.226872857624023176e-03
3.770379655995067213e-03
6.954276609390215060e-03
6.386215402307774541e-03
2.068522340951628197e-03
-1.101216662395327305e-03
-1.097613297385421297e-03
4.422689394701974927e-04
2.758420498223498191e-03
-2.083064691602864744e-04
-5.066612253589363769e-03
-4.612289309764358580e-03
-1.602046448192071763e-03
2.027782535577635301e-03
5.689149270340741879e-04
-3.736329512913479957e-03
-1.206637071862705281e-04
2.409006658433884233e-03
-2.231462556335740092e-03
-1.614152514079886724e-03
1.844653995499817480e-03
1.068573335759607362e-03
2.313486449223049832e-03
1.220427816546808958e-03
-3.279022510361481735e-03
-1.138924450623744842e-03
-1.898034710554428062e-04
-2.538488002000374461e-03
1.785579970112611799e-04
1.789081518709762951e-03
6.937052821759947824e-04
-7.174527359227796802e-05
-1.064920872869609290e-03
-3.013959902846779734e-04
1.748837796633676391e-03
4.741492644148882600e-03
5.374054819394961241e-03
1.942142800498036564e-03
-1.879256974967391861e-05
3.078376409949909595e-04
-2.369756249814428193e-04
-2.412267583202389975e-05
3.887107685860444715e-03
1.002069113192079588e-03
-8.340968111118960207e-03
-5.175188129585525307e-03
1.203083745354693737e-03
1.272319319031768939e-03
2.594172453440284944e-03
-1.759552180180408410e-04
-8.755136168226356841e-04
1.044842361250487649e-04
-5.907380905354803549e-03
-5.551161619462988486e-03
1.804058888493508569e-04
2.492983462840785494e-03
2.618300216916915474e-03
-7.808508155280850923e-04
-3.900601844428275636e-03
-4.447942243043698750e-03
-1.522599211054840619e-03
2.635231646983427801e-03
4.842678936910425544e-03
4.763887094886451630e-03
-1.124942152546918976e-03
-2.712116681487769087e-03
1.780379648648942187e-03
2.306574808626859954e-03
1.838726537804704578e-03
-2.444394064221570243e-03
-3.376195703675328313e-03
2.305995693915774154e-03
2.932650617685218482e-04
-5.629549684644905190e-04
2.560204167307184985e-03
2.811592245914241572e-03
3.687921201795736192e-03
-1.007621016614233854e-03
-6.005524882395738874e-03
-3.155706272849586116e-03
-1.731152929505444743e-03
-3.932349408669450624e-03
-5.890084002742299084e-04
6.479702871718762656e-03
3.886879728590132439e-03
7.383411696663950800e-04
4.795664588403115991e-03
2.232821533651258017e-03
-2.231737691822060869e-04
5.909928764167150621e-04
-1.657427840142579800e-03
-1.220698360824274417e-03
-2.331357244524590294e-03
-2.795863588683897196e-03
-1.004458628243382404e-03
-1.218184352078813129e-03
2.440450317100703159e-03
1.628103368432742533e-03
-2.851112677055406795e-03
-8.198742334742517633e-05
1.784297689226644733e-03
2.481999211738430532e-03
4.460980489698675513e-03
5.358082217356279799e-03
6.268522377134985030e-03
4.545251995070618070e-03
9.365242438157275837e-04
-3.375215866519971648e-03
-4.546411196202018376e-03
-2.540256219507350081e-03
-4.992919353387350809e-03
-8.841549808321368803e-03
-1.117121928267882959e-02
-9.345538147366570791e-03
-4.423929989405571417e-03
-4.945608302365881240e-03
-4.968055896589926301e-03
-4.115858994505568191e-03
-5.328557472418876846e-03
-2.596607953130920885e-03
-8.572802851544874571e-04
1.170844999861246627e-03
5.693773894912213841e-03
7.207591713749438196e-03
7.253892917267319024e-03
5.156659080216228694e-03
3.197581380568349525e-03
3.676414889679785383e-03
6.486578895883773205e-03
9.859299327597754667e-03
5.093925929021089240e-03
-1.807307750571075311e-03
-2.003918051346560182e-03
5.169008626129066239e-03
1.462389258372193482e-02
1.765652467272101067e-02
2.596637726457122833e-02
3.057724836347485917e-02
2.164034283579966550e-02
1.290643742102564294e-02
-2.616342337363550957e-02
-7.079153098782907383e-02
-5.152106159441660616e-02
-1.493454898728119491e-02
-4.722641306807884298e-03
1.242271848248001874e-03
1.916887794139545938e-03
2.082362139651702890e-03
3.996749566052420176e-03
6.371528595782215230e-04
-8.704229508013272467e-04
-2.366683481762379190e-03
-3.356290530303707251e-03
-1.792540800078306143e-03
-2.052383132269037808e-03
-1.524526989184072116e-03
7.490422145285666796e-04
2.752381966598107035e-03
3.050683629804084099e-03
3.268377393617967908e-03
4.918155085771798961e-03
4.446620936252333560e-03
4.530898353089590769e-03
6.730236394610684958e-03
6.338043635078670877e-03
4.144354595088029468e-03
3.432328724833611650e-03
5.274730366729422047e-03
5.458595203708244831e-03
2.252972022583495625e-03
2.462588602805299530e-03
8.029882353221995286e-05
-9.677124544813040657e-03
-9.094491380194802410e-03
-7.456385934495344875e-04
9.725355184547008949e-04
5.054795105196401017e-03
6.961176017328832288e-03
2.072291229886089742e-03
1.672327656381606331e-03
-1.233876440468998801e-03
-6.384989739229258304e-03
-6.029910186639157559e-03
-3.752659703410200082e-03
-7.031472685395197177e-04
-6.227782302932038244e-04
1.220383846449178775e-03
5.225243632649454600e-03
8.201978416157369375e-03
9.362541988320000758e-03
-1.278525250309502266e-02
-2.994544188313616115e-02
-7.372517904509164055e-03
5.534974301582174828e-03
-3.336719830378128381e-04
-1.967138127885874636e-04
-6.895785158423293343e-03
-6.807293764434460895e-03
1.356527775208088643e-03
3.126048852960429045e-03
5.140262754416548806e-03
2.429463730164708405e-03
4.036553224155875301e-03
1.032767007878339707e-02
4.605252165395386406e-03
1.137851294661655589e-03
1.939857271317901432e-03
-1.089423133611892771e-03
8.779703793811519802e-04
1.594749532333786766e-03
-9.997545550526770481e-04
9.648848470129945190e-04
1.355226123276709327e-03
-2.169755195225396387e-03
-1.204607900607648037e-03
3.800860311724732488e-03
3.348542407061981703e-03
-7.730165553966004141e-04
-2.387798952944706656e-03
-2.728370266819191235e-03
-1.314880249874963861e-03
-1.085112976712246944e-03
-1.596653482635839458e-03
1.861163290447160126e-03
3.176905971008457067e-03
-2.545435940717702709e-04
-4.726154420179081404e-03
-5.153087202338119122e-03
5.154676039479124360e-04
1.286097289284955517e-03
-1.579260638706341804e-03
1.185497448543779576e-03
3.048181693926850944e-03
3.020832331679461878e-03
4.671057339002851125e-03
2.352252489851327458e-03
-3.541690902977010988e-03
-3.531008180431334780e-03
-8.948433216281493361e-04
-2.825475939574624302e-03
-3.643002966835463471e-04
-1.634596468664440306e-04
-7.853569780025054445e-03
-4.501391688922155854e-03
1.145991019263225413e-03
-9.606061367657861127e-04
4.930750684082038432e-04
-3.938055193223235898e-04
-6.549950108989400751e-04
3.279897962227412266e-03
1.123498970352309256e-03
-1.756738801190781563e-03
-1.457581750174598550e-03
9.552509245109523216e-04
4.752210475676895210e-03
5.484202232677913048e-03
6.217777537695459190e-03
5.195466999536040888e-03
-1.109424928448897186e-04
-3.263465682333565633e-03
-1.577327760727422574e-03
9.367214927530799354e-04
9.159701340543282937e-04
1.688527085036500407e-03
2.209501602145106779e-03
1.373091601841536138e-03
1.119028356126522145e-03
-2.299702189506816312e-03
-1.853073328215732157e-03
8.006922255137953384e-04
-5.175863137343386829e-03
-6.678876582203477526e-03
-1.472961804930859441e-03
-1.044089838656828226e-03
-1.241537078752118998e-03
-2.769586331097625325e-04
1.205523361153631318e-03
1.502235561300513866e-03
-2.001215118370258238e-03
-2.065452891402103346e-03
5.818161477482862356e-04
-1.194501104080108187e-03
-2.980634640045213245e-03
-1.075774960507539652e-03
1.512701017594738793e-03
2.143831275442448052e-03
3.852288207543612224e-04
2.018154874899332103e-03
7.868684478863102738e-03
6.053879419511719491e-03
-3.031633067946820203e-03
-6.170505074694360680e-03
-3.601936679388169447e-03
-1.168303773262238622e-03
2.725036119175045825e-03
5.700832355842551900e-03
3.456628478686624845e-03
3.396863012885043692e-03
4.848102524001418612e-03
-1.807173645134229267e-03
-5.436476176473365417e-03
-2.393752079072615935e-03
-5.264942960170949579e-03
-6.950442324711204357e-03
-5.563721116896096740e-04
4.654231742198975882e-03
2.004638784773752052e-03
-8.375880650859160448e-04
4.171249691024104395e-03
5.875021925527202857e-03
1.640450464372771250e-03
-1.550085827605895798e-03
-6.612915006391040067e-03
-8.230112962244923863e-03
-3.826976658404925360e-03
1.119873594586068657e-04
2.306799713593674604e-03
2.750187879209919136e-03
-9.064212502361487789e-04
-7.749172820118445729e-03
-5.366271570272247542e-03
1.486425764326572288e-03
-2.150915132563390863e-04
2.059155801835771838e-03
4.555493559702884603e-03
1.435398959384159411e-03
3.700440335069090682e-03
2.923806423226012544e-03
2.152593534873029502e-03
6.836801728117149028e-03
5.132513037317905716e-03
2.577286099077182036e-03
2.576658952759526555e-03
-5.035570448893368260e-06
-1.124608879269980424e-03
1.081563635312019151e-03
2.231029276417627761e-03
2.385928311349212738e-03
2.478397222207859990e-03
-5.999818199366464821e-03
-8.801005359207919251e-03
2.910108540342824096e-03
2.861167164039663327e-03
5.170253774337416541e-04
2.718479282067071730e-03
-4.891569623783162402e-03
-5.192002691272307874e-03
-1.144392799181935885e-02
-2.243236404653571603e-02
-4.851767104733285298e-03
8.056028624588287140e-03
2.886073204759873403e-03
5.940311616866952686e-03
4.509916292086997049e-03
1.101023061616160110e-03
4.537884139733005390e-03
3.800192902456782894e-03
2.381914147931113706e-03
-1.070791076342625554e-03
-6.311243084456965961e-03
-3.770926950952304714e-03
-1.889080648382688047e-03
-2.753316342442057359e-03
1.740197783277218444e-03
2.537429761439774414e-03
1.376518696734696815e-03
5.630348513476430075e-03
4.213642702193153532e-03
2.798292994741155299e-03
5.117516924417304762e-03
1.017092525165534688e-04
-1.226813962314792514e-03
-2.140296435923811236e-03
-9.124751225482567035e-03
-3.687589885727747020e-03
2.692069325323990028e-03
-1.596260215590631889e-03
-1.890568910753400887e-03
-5.953396708643818010e-04
2.356309772881259867e-03
9.175632554411951650e-03
1.026803454793089564e-02
8.428691629914400463e-03
9.610038938518992990e-03
1.073136011787348236e-02
-1.137746208223924078e-04
-2.113174384488277630e-02
-2.232528858939898664e-02
-6.612812536470928475e-03
-2.659014575965483115e-03
-2.095062095825526299e-03
8.790008982645267869e-04
9.292540789825526120e-04
5.792656315001785267e-03
6.657873109424740019e-03
1.844334300194386050e-03
9.967136270060709610e-04
-1.390068052700989785e-03
-3.153437255134864010e-03
-4.781884476187209590e-03
-5.906174399475902156e-03
-2.718671021373362043e-03
-5.454469009973199334e-03
-4.327079290594451448e-03
2.655251412215196404e-03
1.453512456173955067e-03
3.080010242701965075e-03
3.345808936042667017e-03
6.632815860530621391e-04
5.375290690112472826e-03
3.266517322523369588e-03
-3.613013945569967366e-04
1.675785766714023382e-03
-4.718173811603989512e-05
-7.842910575906753684e-06
1.896423675275581491e-04
1.465866935075587187e-03
4.665305897546087599e-03
-3.071051064727331990e-04
-5.871053445925362817e-03
-5.972405853472325873e-03
-2.967851587383515174e-03
2.568454221391591654e-03
5.918905549467497022e-03
6.459236602544485804e-03
5.725889340845473872e-03
6.632655623190631365e-03
4.167265424956718110e-03
-1.614034881988317752e-03
9.904196298055239003e-04
-3.034309294554926248e-03
-1.481091391226705203e-02
-9.718588739125916948e-03
1.262508952908760005e-03
3.890651363270067851e-03
1.909781773629321997e-03
5.747264945886740653e-04
4.935775799259846559e-03
7.581770335577124511e-04
-9.692765023673135388e-03
-5.893792930562354732e-03
1.747181006080570503e-03
2.674874269279684750e-03
2.795023635504185946e-03
5.680036629816970781e-04
-3.642708521134656405e-03
-2.113701419085150211e-03
3.754420777312097567e-03
2.149245574776836084e-03
-1.540842547441154207e-03
1.346741489298810927e-03
-8.059441141086771043e-04
-4.797141848702731783e-03
-1.030154341678966726e-03
1.200685207967168173e-03
8.006889421958211751e-04
3.513718676988629094e-03
6.199067561495197505e-03
4.032595063071694498e-03
-6.214732940643527201e-04
-2.504942452893809714e-03
-3.824805368939364868e-03
-2.414953411012625041e-03
1.864985009813943922e-03
-2.475238615210206827e-04
-6.324467431040810966e-03
-1.010849044619152592e-02
-6.257960410430692816e-03
3.691885573149534562e-03
3.447352703969011438e-03
-1.146995340107317572e-03
1.892768292112223267e-03
1.870839305242700049e-03
-2.348840895203620530e-05
1.306533742773149974e-03
1.977687392269196834e-03
4.331602571216691504e-03
4.627307862889090684e-03
-7.109499536551896473e-04
-2.704860241789031842e-03
7.666674582510044815e-04
-6.130505490743497557e-04
-5.592641185537814037e-03
-1.197727933900025014e-03
7.689046559197553442e-03
8.742337076928542727e-03
5.222062949629223752e-03
3.575934475080948336e-03
5.197453731726245016e-03
9.230416926628143975e-03
1.332511566676792408e-02
1.067275896124705165e-02
-1.375000389709290800e-03
-9.853111328468604213e-03
-9.685176367049149956e-03
-1.088529063199533166e-02
-1.352298183439064501e-02
-1.066429042376839005e-02
-4.799046744470242785e-03
-3.094948511302108435e-03
-3.452733997568986548e-03
-3.176216838449608722e-03
-3.589601577226067281e-03
4.410427934972895730e-04
4.637068569992857867e-03
1.987628714852684823e-03
-2.073606090799714834e-04
-1.376573422338925844e-03
-8.935504622037076074e-04
6.147675508788584195e-03
9.335039972215453813e-03
5.419688734026034162e-03
4.093372659184403746e-03
1.690308421520966527e-03
-6.025147059946764361e-03
-1.133421167809130214e-02
-1.012828011953015306e-02
-5.665849818082365451e-03
-3.627381970870376116e-03
-3.946099838835781005e-03
-8.020766384549002587e-04
4.424981013320854542e-03
9.554191920209405275e-03
1.308534974195628420e-02
5.289814882934019621e-03
-1.277320728082858951e-02
-2.043225049655788758e-02
-5.204852033262703619e-03
1.636716451154135790e-02
2.107247044391852980e-02
5.444262817993770869e-03
-1.427553152340263476e-02
-1.332483608025580683e-02
2.995704538218062207e-03
9.314801925316962966e-03
1.157133016557755460e-02
1.705086657807363890e-02
1.667323363531786340e-02
1.295810555888545455e-02
1.448597539038353615e-02
1.644907890385853902e-02
3.511933803901289925e-05
-1.836292975347873085e-02
-1.181277598876707274e-02
-5.247151794763337852e-03
-9.375760038953625392e-03
-1.189389850622416325e-02
-1.494863659094060326e-02
-1.235416924054872495e-02
-9.005547727649478029e-03
-3.191231886448748709e-03
3.834655900568438146e-03
-1.472984903125373023e-02
-3.144979694561257644e-02
-1.113960882250589028e-02
1.226952200222156120e-02
1.508808216019426156e-02
1.345195370027114923e-02
1.459976075767627050e-02
7.365954799425285596e-03
-4.010146003292413240e-03
-4.929066452967327018e-03
-2.301955109703515429e-03
-3.578748681247904202e-04
1.690641760081532542e-03
1.655651314920669791e-03
5.354234053398386657e-03
5.475042296687124797e-03
-2.101191472513156289e-03
-3.333121207280835812e-03
4.240095434548826758e-03
1.029451222994584407e-02
7.770381399615210530e-03
2.463644638387753327e-03
5.247403159469350578e-04
-2.270404147292949277e-03
-4.468562075919286190e-03
-2.937291069165244139e-03
-2.394105125003367137e-03
-5.000601621975192188e-03
-5.500979525325555217e-03
-2.672842706285467537e-03
-1.162166335381493044e-03
2.522296489181935400e-05
1.439482196886814318e-03
9.297505913291833398e-04
1.091321273173393542e-03
1.903202932009771331e-03
-1.028198934574848958e-04
-4.914491384108950808e-04
6.010468160104389529e-03
8.942314371039710927e-03
2.235406128731084931e-03
-4.586630778536011227e-03
-6.215130916102567203e-03
1.499676904825512393e-03
9.222641868731512246e-03
6.094835597598412431e-03
4.639547839282319799e-03
1.736580574028725316e-03
-6.269949894457064327e-03
-7.603528687899408466e-03
-6.802017905826490685e-03
-1.536135238211874593e-03
2.236209941449982929e-03
-5.648494438715984112e-03
-4.573564884490327782e-03
2.439458593082089333e-03
1.245914679802677351e-03
2.076925651262431002e-03
1.829685726239863334e-03
-1.109926928816281060e-03
-1.941746742736544414e-03
-3.663800226079275135e-03
-3.285823498851711891e-03
-4.340336702848606766e-03
-7.441675676199209499e-03
-2.661478612150467576e-03
2.858328447585081235e-03
-1.176019081615780042e-03
-6.541450992391352991e-03
-5.556779729503406873e-03
-5.574516769578471325e-04
5.421563508285980049e-03
8.123444292944526773e-03
4.820642895232477541e-03
2.386402258794189778e-03
5.478165197279667546e-03
6.729960743329268039e-03
3.835544302116431457e-03
2.913473425096356744e-03
1.575946948692582335e-03
-2.664909534062315666e-03
-5.016317434784318963e-03
-4.965198126771820999e-03
-4.096332523780712651e-03
-2.794993491772026269e-03
2.172792925922138654e-03
1.044510084047373805e-02
1.196307431009548811e-02
1.037979035080550776e-02
7.758006684952468458e-03
-9.056773790923674378e-03
-2.549132953142897035e-02
-1.858044675352089892e-02
9.340324162760099778e-05
1.178302603722846537e-02
1.230159343315900475e-02
6.858824017290990165e-03
5.079142048271060791e-03
7.098013697793718012e-03
3.032417195135085099e-03
-6.182194060611160419e-03
-1.277609274534897456e-02
-1.466615802436151139e-02
-6.676191776113951475e-03
4.557664120429520856e-03
7.212101736620068169e-03
5.017178620519564293e-03
-3.901409414579764829e-03
-7.637099462073718321e-03
5.064278927645921198e-03
8.951935854311763099e-03
5.906035263395547144e-03
7.450500312241300181e-03
-3.493220650619023072e-03
-1.432755356983856157e-02
-1.279939397625555995e-02
-1.166928146476899422e-02
-9.741814153482349775e-03
-3.646093590994533250e-03
6.858649969680801449e-03
1.439279711401536717e-02
9.010220589908813846e-03
2.084545992195432733e-03
6.002517466039778565e-03
1.483902275671591942e-02
1.136869931903045083e-02
-7.025047680443772917e-03
-1.980725054345483516e-02
-1.776767780725563989e-02
-8.236085915131157245e-03
-7.409163019951169483e-04
-1.032453788957196248e-03
-3.114203810945233991e-03
-1.485257069106307726e-04
6.995462818110208952e-03
1.089624084078521724e-02
6.876747020430187818e-03
5.306961821794195858e-03
1.475078904372306363e-02
2.148913498138588229e-02
7.917932642279058852e-03
-1.428223622531574546e-02
-2.256522959971066222e-02
-1.480834868754889351e-02
-5.322423805486766000e-04
5.477028025395843519e-03
3.226400553412284242e-03
4.426987919131811743e-03
3.981615115489032380e-03
2.173297021592716580e-03
2.571725947915067152e-03
3.992350328580435842e-03
8.257016775429303068e-03
5.549936406946082840e-03
-1.714580998704436587e-04
-6.002715181184403899e-03
-2.091258117411031250e-02
-2.312605433942258731e-02
-1.182811638071906354e-02
-8.195976624741963673e-03
-5.594435047083147310e-03
-3.856288036796148844e-03
5.447466880979293623e-04
9.998856973164493844e-03
1.217916589889011386e-02
1.242829113343853209e-02
1.211958572789369366e-02
1.179941924954587551e-02
9.190558530187260128e-03
-7.149379069326644229e-03
-1.394060344176592872e-02
-4.525718779457633609e-03
-1.465506361277676061e-03
1.795625751997695363e-03
4.913547159374727705e-03
5.037041814089093794e-03
7.701692044101384436e-03
2.350400700183702244e-04
-9.601437612756238971e-03
-4.728064254201557078e-03
4.114151322959284235e-03
1.925463408930174966e-03
-8.567989117782264658e-03
-9.366612329887254521e-03
-3.230482136316424472e-05
5.395610132954226958e-03
5.030742260395873640e-03
-4.838290645691818481e-05
-3.815315564765902560e-03
-5.726698824350274358e-03
-7.876119708944634770e-03
-2.720911877019086596e-03
1.906469850041662539e-03
1.708539539465200614e-03
2.851575866919169987e-03
3.278202579985631162e-03
6.363097384060116025e-03
8.060533968137006261e-03
7.515217817855529212e-03
8.419322762308034322e-03
4.829454422325455375e-03
4.508374872495298988e-03
-1.899450382926991558e-04
-9.833797308046034885e-03
-3.654077213883603469e-03
-7.156614597447804281e-03
-1.916675988360183255e-02
-7.880959397788095747e-03
8.834129099130401831e-04
-2.220500274568581230e-03
-1.599508136895228146e-03
2.672386920199397702e-03
1.211212348194905600e-02
1.124502563917397814e-02
3.712171309358912406e-03
4.762669038976629840e-03
2.369887827702484885e-03
-2.204185707760794523e-04
-3.367556612477028578e-04
-4.109574944456659967e-03
-4.172433024929491328e-03
-5.112452101514687250e-03
-8.050152303358936584e-03
-5.142758050957931329e-03
-2.665219948766846692e-03
-2.445493071367189474e-03
1.635687325691144011e-03
3.467224800303200533e-03
-1.807474620797209965e-03
-3.073611919201873002e-03
-1.853238346291628726e-03
-4.857852090257903759e-03
7.483149789323978495e-04
8.269085704471178244e-03
2.004822878314545948e-03
-4.282293055345863693e-03
-2.074290386830653782e-03
2.744995416102452915e-03
7.021354188883503940e-03
6.723058440777684823e-03
3.186869487447428068e-03
2.490937518781815175e-03
5.444172535072631762e-03
4.101072393131834255e-03
-6.057381493642996625e-04
3.564537149407864987e-03
1.053511747101582366e-02
9.641386211644257728e-03
3.920980056854879436e-03
-2.049152251977402750e-03
-1.484215449092641864e-03
-2.991810363378186177e-03
-1.784765520070658376e-02
-2.607465952102711038e-02
-1.581070376417039250e-02
-2.437544454068071593e-03
3.023866113855056947e-03
-1.371533940721357829e-04
-4.831553841595915937e-03
-6.386996091329344948e-03
-7.577385956289435509e-03
-6.450186904521090087e-03
-2.466864187557997815e-03
3.827437847007708919e-04
5.099888316003735669e-03
1.458055471373989435e-02
1.853114727338653692e-02
1.261217723032708772e-02
1.044738029480482035e-02
1.139244678334757829e-02
3.909029330979221957e-03
-5.352336697275656557e-03
-8.862407761031698694e-03
-3.894892418056392514e-03
6.113898552140052851e-03
7.860134430950528259e-03
6.779264757810638149e-03
9.186120230114124680e-03
3.180975648151786531e-03
-6.539057859998987851e-03
-7.032494545037370516e-03
-2.945760786926951078e-03
-5.986819437006830023e-03
-1.473497350973316036e-02
-1.472628385915161764e-02
-5.939167585476295454e-03
6.932687618590040830e-04
1.762507066024637109e-03
-1.644154302182343052e-03
-2.815629316593326256e-03
-1.307737543134491164e-03
-3.669835457037572807e-04
4.523438677312630746e-03
6.324083147640628330e-03
-2.694749765933459641e-03
-9.097298376537979805e-03
-2.180207053157695238e-03
7.165857204606929792e-03
8.845967288769587822e-03
7.333872953218377455e-03
3.186076273723633528e-03
-1.990166900050879123e-03
-4.447500001566581998e-03
-7.791971730651886183e-03
-5.145758153842509321e-03
2.067280271947235896e-03
2.742491628148810423e-03
2.601820756112622514e-03
-3.164387068337870253e-04
-3.990735481001784872e-03
9.440538968125231512e-04
3.130096748836986957e-03
1.469685989081098362e-03
2.663299523845761956e-03
3.110290919438779382e-03
3.882894306437351638e-03
5.505272849845609107e-03
7.630959050816500840e-03
7.222032299752925363e-03
6.005031669772997564e-03
4.065783449089454757e-03
-8.231798244894809533e-03
-1.223283549792491057e-02
