1.108386194386065671e-02
1.915935576200780352e-02
1.581923073139077443e-02
1.415226918606087014e-02
-2.142879581633041954e-03
-1.228983071472689211e-02
-1.254807229485059919e-02
-1.695718448807384884e-02
-1.496374203359477489e-02
-7.887867848804887283e-03
-5.130863798346699776e-03
-9.101566938028098075e-03
-1.215279714221753279e-02
-6.076675038651998401e-03
7.373712597413796749e-04
3.718472737669821938e-03
5.047342024534031725e-03
7.702838056400270784e-03
1.164975166340354203e-02
1.050143552179092811e-02
1.182753241656770912e-02
1.756424617968904700e-02
1.500174008914831325e-02
5.917222392647414342e-03
-5.178084974566415748e-03
-1.343954041948245033e-02
-1.037084227580219696e-02
-3.110516422783080048e-03
-2.151649034728727108e-03
-2.969890744568708975e-03
7.288483734585215253e-04
1.416021700774387358e-04
-7.619673873822965793e-03
-8.765440398054075155e-03
-4.422108618773358188e-03
-5.870270103428091310e-04
4.598093740310454577e-03
4.425634924043383815e-03
1.475426305745674172e-03
2.858666483751257092e-03
4.573538765843950145e-03
7.553161716372194280e-03
8.681689195459252328e-03
2.432752120638156847e-03
-2.797383219707170066e-03
-3.801927087203795484e-03
-6.078614683210090477e-03
-6.183320022578711432e-03
-1.268628082286413737e-03
2.703849306821928897e-03
2.459756190415750450e-03
-1.042943614812261166e-03
-3.640905157897016478e-03
-3.034831900396800942e-03
-3.968633636063057316e-03
-2.446124659449708857e-03
3.721029098565019257e-03
5.763233500044719591e-03
6.937659886089271068e-03
6.705565858810292115e-03
5.268056666320037034e-04
-2.238623441219431132e-03
-8.565363918596172914e-05
7.136205887461805931e-04
-4.114377525534110812e-03
-9.759443086452443752e-03
-7.736097290684978631e-03
-5.135016032122315284e-03
-8.133174526029216997e-05
8.399203882423968148e-03
7.173052634891258564e-03
1.904036247544380403e-03
-1.848595821135533019e-03
-3.159294487406434648e-03
1.540799127824180742e-03
3.099668938755567506e-03
6.100577704963908686e-04
-1.695652989637739779e-03
-1.793573928077362269e-03
1.131256838960910047e-03
-2.227559346686665970e-03
-4.758138549549656947e-03
1.369088606748827472e-03
2.292869601247390747e-03
-1.532284362374282134e-03
-1.306579674447084756e-03
-1.716515767045784582e-03
-2.177598623642575289e-03
3.573119845681460658e-03
8.286068671597254104e-03
6.772387383900841176e-03
4.922554294508920715e-03
1.340392221084887306e-03
-3.725796895137075977e-03
-7.159421939495889953e-03
-7.212960099632496729e-03
-1.732836156068693744e-03
3.135665075105782858e-03
6.250938039409451551e-03
6.085218907178903056e-03
1.660605933784978488e-03
1.400167488102543748e-03
2.509426766168530026e-03
3.399077925654775834e-03
-1.184498534473595998e-03
-9.504153188949983691e-03
-4.527581455077396913e-03
1.277859908298263755e-03
5.404205789783768366e-03
9.954479137754788931e-03
3.450104466618838465e-03
2.442100087790004433e-03
-1.067545264084920724e-02
-3.030525449793279244e-02
-1.037335778460541161e-02
5.051848619527406214e-03
-1.437364303201393249e-03
5.236100444051388150e-03
4.168459517383685600e-03
-2.315504801876307021e-03
-3.224169592207806051e-03
-4.081850364380382352e-03
4.930702205450406168e-03
5.520748346461970893e-03
-3.845376876390347188e-03
-9.003493459896915905e-04
2.895855541452212623e-03
1.372534019942457748e-03
5.173321768092233736e-03
9.492217935382156122e-03
8.977060207952780244e-03
9.611264224722484983e-03
6.811258346990953054e-03
-1.388510430661418337e-03
-3.872279829157833711e-03
-4.506654217514111452e-03
-2.814733668585612039e-03
3.365802379334067399e-03
7.433454954730997965e-04
-4.426279464338819108e-03
-3.273276679456673527e-03
-9.463218083098017637e-04
2.346040560084341944e-03
2.490898383688087882e-03
-4.280922226275292279e-03
-1.211023409713140805e-02
-1.196440320477022007e-02
-5.198168017049312889e-03
-1.111397727208531861e-05
4.242948044194830813e-03
7.624437962234396730e-03
6.468655878487443618e-03
8.257364986593410160e-04
-6.954082831617462278e-04
2.303328307031682950e-03
-1.422516573442338074e-03
-1.533016358560739369e-03
2.252827825445501662e-03
-1.121715596791071764e-03
1.132599997849147253e-03
2.458647629008148521e-03
-4.222347049082398078e-04
3.369791558732965295e-03
1.805999022787653681e-03
-1.931631391041392903e-03
-3.549242815368043678e-03
-5.921044845722279841e-03
-3.174571519325901457e-03
-2.670226038019969488e-03
1.279638414383712933e-03
8.181116956494831685e-03
5.630261221222918576e-03
3.193859648028935048e-03
-2.772960527647975863e-04
-4.891650978343452250e-03
-5.234459990831321838e-03
-3.839209348599135346e-03
1.883504253509911018e-03
2.429345870702553749e-03
2.482143577680208488e-04
9.202530109074194987e-04
-1.825217881126795730e-03
4.253812394963291284e-03
7.591660447596513747e-03
-2.092629986258301520e-03
-3.761176080729584665e-03
-3.193205300819936410e-03
-4.320333879113545834e-03
5.602971739424525291e-04
4.651261077997959938e-03
5.524574117461939458e-03
2.275949645968498945e-03
-1.154730676140757611e-03
-4.279679123919796942e-03
-7.729148174680302262e-03
-2.866245472433436893e-03
3.859284713783868101e-03
5.134739507234891386e-03
1.015040327705190714e-03
-5.518441370731503454e-03
-4.296398584653745439e-03
6.875039754834825177e-04
4.328693624471911458e-03
4.641269632682860913e-03
-2.745651946300445984e-03
-5.079986450067290604e-03
1.711796729200581178e-04
1.930416844277863886e-03
3.028596759351785163e-03
4.499550206950456502e-03
4.588850978441303893e-03
5.332353600113514183e-03
1.255858756263310760e-03
-5.936527249542040280e-03
-2.647805383129371581e-03
3.663340219067766270e-03
1.696506922086768454e-03
1.441758632259840852e-03
-5.580011939405718534e-04
-5.666325281451044596e-03
-5.491253770539496551e-03
-6.859392328434129465e-03
-2.783959888632488253e-03
5.360683799348691173e-03
2.200818019774949692e-03
-1.445366062690383062e-03
-2.983529673170749134e-03
-5.979478595092130831e-03
-3.244310647296249836e-03
3.223096096282742143e-03
1.053215351567501207e-02
1.054613230849329834e-02
3.274954677703978499e-04
-8.546828860055472391e-03
-8.066659290507708496e-03
-3.695747487715742670e-04
3.140160043389773024e-03
3.465796230587077364e-03
2.611456015712121121e-03
-2.310241611773006590e-03
-9.616845228378938324e-04
4.028634752307245592e-04
-1.010977313667992331e-03
3.475096247602991063e-03
1.755993847242432859e-03
-3.663434223991412358e-03
-5.132804080436178910e-03
-4.932183283836622315e-03
1.942390208292719446e-03
5.784079465871524647e-03
3.191926968999223620e-03
3.185386295984352165e-03
1.561893054637919151e-03
-3.101928573081001814e-03
-5.543214807856394928e-03
-1.452010900979404471e-03
5.341087816956838555e-03
7.972245065695795357e-03
6.084051684457615627e-03
1.872730410346814384e-04
-2.767272022351308178e-03
-1.019081804292294681e-03
1.125675136242841471e-03
4.407814501667727675e-03
2.599105795929696275e-03
-2.407819069651278079e-03
-2.978774254237034208e-03
-3.904961443171122391e-03
-3.582212450757051459e-03
2.034682485868079824e-04
1.578290949865143560e-03
-2.915884399485659277e-04
-4.737450302968427077e-03
-7.747379050904874484e-03
-2.753950990127753459e-03
2.737321298744372147e-03
1.522750931441116200e-04
-6.229274591248630272e-04
1.317469832583468680e-03
-3.494316691365468262e-03
-4.724388258859727428e-03
1.741008352346124768e-03
5.667733107856337028e-03
6.771180987202563527e-03
1.947366653306074891e-03
-5.979025898270192395e-03
-6.643271723071416182e-03
-6.198939615503564447e-03
-5.455397076037470441e-03
1.253153231551160747e-03
6.974761722951576537e-03
9.340737986679012797e-03
5.848248731289074770e-03
-1.276776907677774821e-03
-4.911416983925174888e-04
-9.093055789772658791e-04
-3.784780390954005456e-03
3.178520035161573089e-03
5.021328579011165652e-03
-5.997507030704254689e-04
1.010588758986951394e-03
4.753601728071943106e-04
-3.731417036965047236e-03
1.663882565671557113e-04
4.824699402019925164e-03
2.370862229513911838e-03
2.665092221670747712e-03
3.762735024528546419e-03
-3.106031594068690057e-04
3.680286005212310245e-03
8.428346095437121502e-03
5.699165381471830646e-03
5.518331237463202331e-03
-2.284446954241881999e-03
-8.708195072948770460e-03
-4.100588635364825485e-03
-1.695966893544660712e-03
3.593378070601098255e-03
-7.448854982273087934e-03
-2.804560895109885557e-02
-1.570823447629714209e-02
-1.441060093986688958e-03
-2.272832148190582439e-03
4.757189951993883240e-03
3.124195989736423210e-03
-3.897327818642659213e-03
-2.262001313620272576e-03
-1.072023423010422336e-03
1.318333346284268062e-03
5.975564580214792060e-03
8.547180951121372341e-03
8.801094433489755134e-03
7.311017123318949186e-03
2.972257531123673104e-03
8.000579473589188115e-04
4.370037241475971390e-03
2.234273805994733790e-03
-1.749713902195003780e-03
9.553710342410841956e-05
-2.626408121762324830e-05
4.706017032959787082e-04
8.653362588431016533e-05
-2.257037384350520960e-03
-1.747772582136060794e-04
9.404047550937540611e-04
-2.664156800933387853e-04
-3.893290642738817670e-03
-9.023963316890617342e-03
-6.421901960896868843e-03
1.051851015305254374e-03
3.448263818721728456e-03
1.464470039557446345e-03
2.917464153112931443e-03
3.535578557319491062e-03
-1.251110994410828360e-03
-9.086920691413116064e-04
1.543012529817305986e-03
1.871026893586195516e-03
4.771947313462828084e-03
2.437299373034004703e-03
-3.492912836710832056e-03
-4.521803240877245687e-03
-5.148774995747815641e-04
6.456773437844598972e-03
7.080819321229606632e-03
2.098427054935708257e-03
-4.017166567772881411e-04
-3.441364338823307226e-03
-4.595241014665773713e-03
-9.356018775403227320e-04
-9.388494508571624316e-04
-4.615069906539732460e-03
-4.741349630587313874e-03
-5.679522759005605978e-03
-7.285687348930721015e-03
-3.115263091045544861e-03
-2.805209837725562336e-05
1.455943366897087922e-03
4.393660986463734236e-03
2.398551878532071812e-03
-6.913287432037268105e-04
-1.554945467242171237e-03
1.916339291938952806e-03
8.403720932571898117e-03
3.763287779002665034e-03
-2.796372507202619841e-03
-2.113017474323203564e-03
-7.061330098154163827e-03
-5.748140408748882504e-03
6.165578538535528355e-03
9.662458985702226943e-03
8.781457093345237247e-03
5.079006633060107433e-03
-4.833322446439126258e-03
-6.221188312032961860e-03
-3.855603832034252242e-04
1.061785681091276246e-03
2.044298332571751337e-03
5.440376665253429840e-03
4.932321909332977768e-03
-4.091612346205462415e-03
-1.066560531912686023e-02
-5.000999150086235870e-03
2.288656081276083977e-03
5.566342424413713540e-03
4.273603773737803813e-03
-2.538020895646561463e-03
-3.892386528433423171e-03
-1.764896303167549614e-03
-1.721762371331685831e-03
3.493817776467966069e-03
6.288564363849633541e-03
6.022298807404532486e-04
-4.786260025196158174e-03
-5.910717884410542425e-03
-5.431848319505615946e-03
-5.290237502533906566e-03
1.739339961310922044e-03
7.360697864858059547e-03
-4.630466164926234961e-04
-1.916988338229410520e-03
3.713976420509061942e-03
3.493540559662988102e-03
4.830678087736765478e-03
2.765576892728371320e-04
-6.418311511033289798e-03
-4.612100802275511703e-03
-6.136853690641765405e-03
-4.773288591913064233e-03
1.467098403289824509e-03
2.999657100466429638e-03
8.044489937840838129e-03
1.071878181216999806e-02
3.945895043190093474e-03
-1.533533392971384067e-03
-1.964905397489838217e-03
5.249638824133371511e-05
3.547621745805535753e-04
-1.728802328245208561e-03
-4.394842462533109402e-03
-5.388734482636962572e-03
-2.491062950966157000e-03
-1.069229334551943323e-03
1.339217124660400243e-03
4.918977674457879028e-03
9.547826654694453307e-04
-2.502660744228008514e-03
-9.846792510005938134e-04
3.774302321010226968e-04
4.613381992313864274e-04
2.855480733533937235e-04
6.809542282545696934e-03
9.393564642291166514e-03
-1.469838743843340876e-03
-7.547021004111915780e-03
-2.953730019389534580e-03
3.489410734216549185e-03
4.674407762649138501e-03
-8.453994215260824188e-04
-4.392442099916526316e-03
-4.005683048037183940e-03
-1.745885883821467590e-03
1.093188195940661709e-04
1.401210052753451086e-03
3.241969635832861116e-03
-1.695084283515802329e-03
-6.554285522834583759e-03
-5.819560726879003699e-03
-5.896538135256942578e-03
7.891730603739031437e-04
6.595621376243975507e-03
5.904755480735881905e-03
8.630857694481883918e-03
2.957330445076172733e-03
-6.693837481247818730e-03
-5.624044784004956360e-03
-2.487472082141432665e-03
9.751976439027767681e-05
9.543317299435542713e-04
7.226159334033588561e-04
2.288341576645580404e-03
-2.127677537296571945e-03
-4.163891448646881224e-03
4.531785112553991281e-03
7.993759287376039219e-03
4.242838916069131654e-03
2.288098879364132421e-03
-3.884628506263198677e-03
-7.950981879296374621e-03
-6.745970463782960391e-04
3.856586397620511558e-03
3.622519337779682089e-03
3.626235575284945771e-03
-2.135251883182693114e-03
-6.936712781066357685e-03
-6.875113606148007192e-03
-4.409982362145394193e-03
4.211582467602635713e-04
1.604751055238764481e-03
6.078928186445490276e-04
7.863936440339303838e-04
2.100610472011573641e-03
3.159308314124350224e-03
3.486004273608451446e-03
6.686161094179426771e-03
2.736851876593129895e-03
-3.566316424560314786e-03
-4.065818504959359822e-05
-1.378829943382908936e-03
-1.644788272246338647e-03
4.655680207752183226e-03
4.583550365237235892e-03
2.934656139935221293e-03
-2.038997799315722410e-03
-5.257529921944558392e-03
-1.610533212875569099e-03
-9.739108954221937803e-04
2.968801167629761279e-03
5.636556738622478316e-03
2.926378101325656511e-03
1.530234759426560157e-03
-2.955142929422399731e-03
-6.697877837185809910e-03
-1.532490334551325252e-02
-2.119010219444897314e-02
-8.009014503464934737e-03
-8.510226509203390032e-04
-3.322636109903334169e-03
-6.116995646502382949e-04
1.304659602983739008e-03
6.664508475310883945e-03
1.180484731745531923e-02
1.024991280652123339e-02
4.565714138962774678e-03
-1.039121695907044285e-03
2.322544990274869655e-03
4.529238919626442372e-03
2.125582578182425974e-03
2.909396425192219398e-03
-1.918790327827852454e-04
-1.871265889369651270e-03
-1.672395611423942207e-03
-2.396295703918401975e-03
5.961208999975492993e-03
9.134450373621167546e-03
2.288412796214975981e-03
2.767500041548616105e-03
1.895894900608624100e-03
-5.969131855259934838e-03
-6.847757556676765771e-03
-2.772245502494595417e-03
-1.156410214575653329e-03
1.977696509284418598e-03
2.788504123215263756e-03
-3.272894146714165706e-03
-6.592150446597637957e-03
-5.448804331970765781e-03
-3.516300344684439826e-03
1.716031600915449368e-03
3.822231180015950650e-03
-4.401722026206734539e-04
-4.019531864522313779e-03
-4.825155998900503354e-03
1.342580610406337032e-04
8.169258355371807057e-03
6.739614919367116833e-03
-1.416204990545413822e-03
-4.006309347075466890e-03
-1.923339441706263184e-03
-1.298789329774515267e-03
-7.719585083471588527e-04
4.608128471841021513e-03
8.652704900561025703e-03
2.920178934892268905e-03
-1.317003725211240636e-03
-1.007654620752079701e-03
-7.053097954152594100e-03
-7.695400310416562056e-03
5.255778180742985695e-04
2.122584005781828200e-04
-3.209380918652921487e-03
-3.185915698523320017e-03
-5.664239541000555718e-03
-2.943051091676830971e-03
4.541140253388726601e-03
5.251636036230036830e-03
3.187702038248139622e-03
1.711722530967985231e-03
-2.576122364178255394e-03
-1.571838198850625083e-03
6.278693285504067557e-03
9.342272373224906265e-03
4.889947981203026338e-03
-2.877112470074318258e-03
-6.528033909592250404e-03
-2.816044126363133251e-03
-4.175249787778575463e-05
9.949150286841107211e-04
4.437418807826549842e-03
6.098481031009285631e-03
3.190147792737337094e-03
-1.442418402853626975e-03
-3.013366209162655907e-03
1.240450693433732565e-04
3.664282689974022837e-03
1.582087533601238315e-03
-4.846522713248229385e-03
-8.057741382837321081e-03
-8.649911059985450346e-03
-6.846943153995583078e-03
1.258496204226356970e-03
7.834418763573647998e-03
6.485886285309879623e-03
1.487286862339485833e-03
-1.591396527576684943e-03
-5.414968926964357958e-04
1.313975649610930202e-04
-2.157534762978245268e-03
-3.295354753204333010e-03
1.002939426125649090e-03
4.070619091863971438e-03
-3.325150148038271119e-03
-8.387725192021720094e-03
-2.617295937586705274e-03
2.333767272426124240e-03
3.423648792194827154e-03
1.617885858012928614e-03
-1.189990126853228370e-03
-2.187626136614324694e-03
-1.741948326569834867e-03
3.850266745128506831e-03
8.721781172312958672e-03
7.671999391972862681e-03
3.188203766470256318e-03
-5.205469738105562676e-03
-5.790185502963004355e-03
2.332724087168518926e-05
-6.598349039717963825e-04
1.190822130534971521e-03
2.209086456761313530e-03
-3.263547644894788501e-03
-3.301486482213157603e-03
-2.022225821115385645e-03
-7.303258677409637037e-04
4.667664710955629626e-03
2.905849335332139072e-03
-3.862868150343215078e-03
-4.995734059966820510e-03
-3.692088871335169869e-03
-2.390337733532064274e-03
2.292719466572848419e-03
8.419826889804535655e-03
7.664302949534254616e-03
1.482644033401901013e-03
-3.512954049418857451e-04
-6.807055584868336928e-04
-3.470166972528325889e-03
-2.024632931003115480e-03
2.888412884402540709e-03
4.062918124661965211e-03
1.339888105897837174e-03
-2.127954562233308998e-03
-4.708861824825851666e-03
-3.700433322704674548e-03
2.703925061920890542e-03
4.820219285300910220e-03
-4.028057529226548687e-03
-8.428744244361126986e-03
-2.962947305094102389e-03
4.924156817362027082e-04
3.943932899355221192e-03
8.318906697749902171e-03
6.748747413799311909e-03
1.908312503101091935e-03
-4.252411669944636437e-03
-9.432130810061677834e-03
-8.087045311849352935e-03
-5.065818248821823098e-03
-3.272871090010111457e-03
3.079804452245303928e-03
6.446473531066569500e-03
4.556849853963816080e-04
-1.461227250468017909e-03
4.101827814856184862e-03
8.083617375344449504e-03
7.268820646000938128e-03
1.004881692755584671e-03
-5.777548440147371213e-03
-9.292056764232198285e-03
-7.724116168697644884e-03
-1.020363851776415556e-04
5.896343447173157080e-03
8.127238357410018418e-03
4.453496863561269732e-03
-3.768469735829726996e-03
-3.755978485282455807e-03
-1.684301740762846056e-03
-3.295531226670254162e-03
-1.537176727330310307e-04
3.111255182155604673e-03
1.011756744697977486e-03
-4.229104063420400898e-03
-5.076695641447298048e-03
5.166234999604339911e-05
3.028626064651896224e-03
4.332790742865904633e-03
2.052645350225695473e-04
-7.017399506370623936e-03
-4.206995868084393263e-03
1.741946940924529990e-03
4.374687008778004732e-03
8.013056967895998764e-03
1.181153657172119564e-02
1.017979415444533742e-02
1.951591369077845404e-04
-7.601804324934343521e-03
-6.172689321806049990e-03
3.081072277494758095e-04
4.320566877927632145e-03
3.193359856240287654e-03
2.286082060992430769e-03
-2.921619851892482637e-03
-6.300186382043795191e-03
1.180500430411539163e-04
3.480784055444469550e-03
5.353019639398640464e-03
2.467803811844845440e-03
-7.218244755646480680e-03
-1.347794972725578112e-02
-2.427668889348628609e-02
-1.880857014918579928e-02
7.777985835909762696e-03
1.426201918083829304e-02
8.936639655040119062e-03
6.565790530877270263e-03
-2.168012007299450626e-04
-2.348493877682754274e-03
-2.838456882374782667e-03
-8.117095365873254389e-04
2.499416918442320858e-03
-2.184916994799488300e-03
-5.251502028125892146e-03
-6.484854252573400528e-03
-4.278097740430835370e-03
6.620046400070650310e-03
1.013906814657001242e-02
4.729031397709277697e-03
2.354651814384085048e-03
1.190176337190314987e-03
8.444631024225697155e-04
3.565926625169654404e-03
4.454454037383037690e-03
5.426898774098400276e-03
7.497257248756479184e-03
6.258609224909923415e-04
-6.183390557546209268e-03
-4.106934656699306498e-03
-4.489491858815594996e-03
-3.868819007547392302e-03
-1.803944346733497416e-03
-5.014661229739070768e-03
-4.923187367472398740e-03
-1.529099426374472964e-03
-4.963200835282264006e-04
8.932606130035963387e-04
6.484626322366596370e-03
9.724813347747487610e-03
8.681269326929644085e-04
-5.930769254784416453e-03
-5.725873162748655078e-04
6.166889210909110540e-03
8.307095765930746362e-03
4.479227920714972701e-03
8.514660618160707585e-04
-2.606730025097714950e-03
-8.900082254035322424e-03
-7.323136443603046712e-03
-1.267989115339794755e-03
2.732716277241089946e-03
3.911111606975818666e-03
-1.356112186491713811e-03
-3.099459402331214940e-03
-3.439839874843359630e-04
4.132379357816164979e-03
9.461429316508711967e-03
4.565753359339698274e-03
2.005108410307801427e-03
-2.365265631819843048e-03
-2.686703768153651112e-02
-3.439848214194354131e-02
-1.233848579900799318e-02
1.195595293096954077e-03
1.683501755401207089e-03
3.406710631478907653e-03
7.125023006683693823e-03
9.049020033264949456e-03
9.905135753891378819e-03
9.599410496131577722e-03
5.224169338865860580e-03
5.998172954991546311e-03
7.440324719978896710e-03
-2.007805343214490341e-03
-7.512801127354262927e-03
-3.365917625020818475e-03
1.957151697451307501e-03
5.485582208523217922e-03
5.192384607107256370e-03
4.476434320137684213e-03
2.126792108466027571e-03
-1.560076622793951260e-03
-4.696717445394919723e-05
5.147613386244424133e-03
9.285852260847115430e-03
5.635529990632652531e-03
-1.377689093030715160e-03
-1.182475029110924931e-03
-1.231563646922246864e-03
-5.416551833542418599e-03
-7.319159901252053450e-03
-5.329019025571538754e-03
-4.129157094397749653e-03
-7.445683807368265808e-03
-6.547775942786391960e-03
-1.725462607211275491e-03
-6.939949096339885991e-05
4.194689367412758781e-03
5.094154360681649521e-03
-2.428581519942250681e-03
-7.036234742610066907e-03
-6.737828177534868276e-03
-2.958096520351209506e-03
4.432527157471436406e-03
1.122170732480586366e-02
1.312424298698578254e-02
7.093514552057745420e-03
1.347399506973432628e-03
3.902553468012066179e-03
5.177071064064363293e-03
1.391276016872149178e-03
1.463597991351078343e-03
9.853202562515089771e-04
-5.123639421924678500e-03
-6.485672846525148208e-03
-4.337044431435605092e-03
-7.230626767546335931e-03
-1.096540820239653644e-02
-1.165248290440228617e-02
-9.374350536553690411e-03
-1.095465856678429217e-02
-1.846077932056485252e-02
-1.575755242561015929e-02
-2.766083404141733010e-03
7.409165553117563578e-03
1.528502154493028772e-02
1.680689695897475203e-02
1.250183577862510990e-02
1.351243133376101371e-02
1.358521271899878688e-02
7.669903005710887976e-03
7.792614889890964527e-03
1.120480569023018028e-02
6.991660122027508126e-03
3.234721303580922092e-04
-5.030579305532090380e-03
-6.080682204088556399e-03
-2.464820354219493959e-03
-8.244467624192928362e-03
-1.337329358356035940e-02
-2.408730634999382055e-03
3.968412344040397020e-03
2.345145044916312725e-03
6.903445363120732509e-03
1.218106103400347709e-02
1.512606899378660802e-02
1.084560072493136532e-02
-1.422420493194993720e-03
-6.869248877444950573e-03
-6.932181421459854796e-03
-1.077837792746972646e-02
-1.425256729829584706e-02
-1.587082907837635698e-02
-1.937653765585201776e-02
-2.154555611241915428e-02
-1.412944577184021416e-02
2.611022907865989152e-03
1.970963845441204773e-02
2.837171361674441228e-02
2.472368852651580726e-02
1.696140786659061650e-02
1.713564039032597353e-02
2.381666334766542950e-02
2.286838888870420389e-02
1.018032779123772061e-02
-1.419117877598774806e-03
-1.195041804500035845e-02
-2.776269848839749144e-02
-3.964494669909232605e-02
-4.328868943343259362e-02
-3.708129253313238033e-02
-2.102979874386115208e-02
-1.000905921867130920e-02
-5.589415592961018316e-03
4.461334679810514264e-03
1.783517380207585643e-02
2.931109806372575802e-02
3.955528647012306748e-02
4.520111661365260047e-02
4.001201874745224929e-02
2.636544974958784232e-02
1.424812441593306320e-02
4.542706546006837487e-03
-7.182619929890633574e-03
-2.075282230829312083e-02
-3.215175066410932980e-02
-3.835371663892266775e-02
-4.457635336289700323e-02
-4.434548267133431310e-02
-3.032379058584219744e-02
-1.510197577723089608e-02
9.714355825992873963e-03
4.528020674139295737e-02
6.294871353466438557e-02
6.270659938676532985e-02
5.022302304719088173e-02
2.695347738210181199e-02
-1.421823812379101933e-03
-3.901169758743638222e-02
-5.907407434393272677e-02
-5.719725667159459431e-02
-6.640968247789603984e-02
-7.198321769683606319e-02
-6.165779653687031292e-02
-4.939374637201673912e-02
-3.859799723266752608e-02
-3.176959640043803407e-02
-1.669968499640991574e-02
1.682341073496495740e-02
6.643780974281106311e-02
1.133276709861768816e-01
1.222025984535748261e-01
9.967898154165065472e-02
7.991303098556444551e-02
6.988741531966066733e-02
5.245276164488832382e-02
2.605099910941290411e-02
1.140511537864973869e-02
-1.155416937929977647e-03
-1.938936547827345425e-02
-3.001199939234739864e-02
-3.214126701940241138e-02
-1.688900061665078375e-02
-7.933943628049925376e-04
1.120024857660355429e-02
2.924387104283421648e-02
-1.064464809741460724e-02
-1.009577186147034705e-01
-1.440827960606324287e-01
-1.229677765439121107e-01
-7.049277089144284636e-02
-4.884352849764012766e-02
-7.182311133039308293e-02
-5.931056372602565296e-02
-2.483980190827339563e-02
-1.572383726364758039e-02
7.817551626480338800e-03
4.350095941788718890e-02
6.582810275193676230e-02
7.546638709033456904e-02
5.102567912044453369e-02
9.873347823651942856e-03
6.140028281459848332e-04
2.169990962626398498e-02
4.811874579671304719e-02
8.592418023329105592e-02
1.625191203984685251e-01
2.210857906220790869e-01
1.517720174545372780e-01
1.580654753121798692e-02
-4.356464727098686984e-02
-4.521509207426217120e-02
-5.560148618074935156e-02
-6.252249453375090249e-02
-6.855192235058911454e-02
-1.013065280912225780e-01
-1.272639172757604742e-01
-1.153196074450958952e-01
-1.155616152049536577e-01
-1.251429269166405289e-01
-1.166078453768327888e-01
-1.219659953332230262e-01
-6.186367491260777451e-02
9.533829051758667406e-02
1.825732845266060667e-01
1.594929546014379473e-01
1.083911266865971307e-01
5.092403300215692097e-02
2.192261682878617404e-02
4.688328086930575872e-02
9.711324444567975833e-02
9.765799395718673115e-02
2.439760733220946304e-02
-9.463958248695227352e-03
3.401974288543838792e-02
5.428144337496964428e-02
1.166513586666477996e-02
-6.019806570899963183e-02
-1.145435868438671456e-01
-1.225287043176021690e-01
-1.027461346441915641e-01
-6.487965643385039394e-02
6.134645196843897287e-03
7.846807968515721876e-02
8.959162405100568050e-02
3.338944633181540472e-02
-4.365844050978350682e-02
-8.436275991767921978e-02
-8.249240087229552099e-02
-1.055682248173057669e-01
-1.408671724292299698e-01
-9.913755518237131470e-02
-1.641827710681501365e-02
1.401867825324710527e-02
1.441247995377241582e-02
4.437239231533143813e-02
9.042520741859998157e-02
1.473195309433196210e-01
2.281762514827874733e-01
2.446203952906776946e-01
1.459192053469406947e-01
3.846299139093611874e-02
-1.777050117547694999e-02
-4.613810207168879407e-02
-4.620647562120368257e-02
-3.513805188982715294e-02
-4.061179579287175351e-02
-5.499169967320417796e-02
-7.079541495849378530e-02
-9.087072011788922821e-02
-9.681464313309055825e-02
-7.737505557291961267e-02
-5.936928630385822359e-02
-5.793188388171984643e-02
-6.090112718341929993e-02
-5.767272819728902489e-02
-3.311983395244950251e-02
2.455415171574712799e-02
8.388849865726598354e-02
8.826010778823242808e-02
4.559809728082665076e-02
9.484787102326804747e-03
-2.288410265312084205e-03
1.172748552883407826e-02
3.225093043845041890e-02
3.326884725732052323e-02
2.969859216359770418e-02
2.901113727627295524e-02
2.926264629619896099e-02
3.712938763697603423e-02
4.015076034192509302e-02
3.773435677892818252e-02
3.704305589444493313e-02
2.610188061918486402e-02
7.852000731866157560e-03
-4.287246515632852153e-03
-1.850028169543324261e-02
-3.682957656462021445e-02
-4.403222768413319471e-02
-4.959938294510608109e-02
-6.253549360871327178e-02
-6.617138836212348163e-02
-5.843585300443420588e-02
-4.440478330521029776e-02
-2.669628838642298940e-02
-1.078278643122174835e-02
2.586316398792773939e-03
1.008698193269412166e-02
1.778918080598556467e-02
2.722233257517469446e-02
3.086862628763738930e-02
3.583430595639963689e-02
3.657728939111355021e-02
2.721533672842911880e-02
2.209237778339543865e-02
1.933435925084604767e-02
1.274496280133800667e-02
1.004281386632472663e-02
6.940742555140340560e-03
-2.221894565438514452e-03
-6.637121059943267530e-03
-1.526440619681637863e-02
-3.909069648332445107e-02
-4.507485192058175577e-02
-2.444442581476104909e-02
-8.334887996269598961e-03
-2.728524039166080827e-05
4.978914833703608836e-03
5.019652568921216008e-03
4.177477068241903201e-03
6.339042496653991832e-03
1.598681115498280098e-02
2.127095700027801031e-02
1.548904656643752993e-02
8.708231479780172493e-03
2.373015615313819014e-03
1.116206718376960144e-03
1.312012924925986049e-03
-5.439146562696599123e-03
-8.773106052404855762e-03
-9.148344408818152168e-03
-1.173692715395662986e-02
-9.178772653058933292e-03
-4.141562207757158373e-03
-2.987963601220068686e-03
-7.863533007106523944e-04
4.145986542749809448e-03
2.217781056838231003e-03
-3.061977357863490158e-03
-6.740667748630631111e-04
9.367820727450073279e-04
6.525297394579869211e-04
4.652070128657793090e-03
3.340485446338920927e-03
-1.805428493107680971e-03
-3.712359205272385172e-03
-4.667306240714053263e-03
-3.363103479586123192e-04
5.767933951288153546e-03
3.836136070745054319e-03
1.410629595125306940e-04
-9.012798120315983230e-05
2.837277362414256836e-04
3.715476995479498421e-03
7.682878788722658989e-03
8.519724550786089701e-03
1.018109665170383732e-02
5.349067715826496053e-03
-4.615957358026709367e-03
-2.897649121628508668e-04
3.037532687873335455e-03
-1.434280443738412784e-02
-2.307695434366838910e-02
-1.069449441197955000e-02
-2.224014536050579211e-03
-1.970301830243916408e-03
-2.833768264115219242e-03
-1.054726641155882914e-03
7.118427419861020171e-03
7.072034578649922729e-03
-2.215654984291453092e-03
-2.327033877914913996e-03
-1.112984135126974953e-03
-1.300351323341029236e-03
5.680314010200099122e-03
8.041337858991384063e-03
7.488645161837430980e-03
6.439907162512226689e-03
-1.386456015737009238e-03
-8.697843936758385295e-04
4.728203849023271226e-03
1.626925880469900967e-03
6.913643898684147630e-05
5.315133268064587985e-04
-2.305870967292526687e-03
-5.061578829482432131e-03
-5.771783217303962099e-03
-3.614585227448560440e-03
5.196423698632274572e-04
4.860210958250953638e-03
5.015109028086291122e-04
-8.356141879248048590e-03
-5.406684360812578742e-03
-1.741235113101488022e-04
1.017110786210644003e-03
4.162802745736431109e-03
3.845095676376468919e-03
1.837504425593078578e-03
1.476010459796190961e-03
2.406981863684419867e-03
1.871842400508001627e-03
-3.506048680933539045e-03
-4.253033305823761094e-03
-1.118718733077223807e-03
-1.169793229528813896e-04
-3.471927158722840513e-04
-4.039565558704648687e-03
-4.014308719495200033e-04
6.997989028412858470e-03
1.720993950659059158e-03
-3.970076483019251666e-03
-2.986500431683024835e-03
-2.752619466112494508e-03
-4.270853750265328833e-03
-5.333620572096352784e-03
7.769414010235458192e-05
5.071601334410400647e-03
1.385390899081799911e-03
-1.743661526658794782e-03
-9.465672911840437203e-04
-1.097363001022094589e-03
2.424861738001671382e-04
3.837924812774241943e-03
1.433801906119182464e-03
-8.578262200516137675e-04
4.405564092965366142e-03
2.962163128048227699e-03
1.992355830137906728e-04
5.605107280534597954e-03
5.119407384758592472e-03
-3.486512355948788444e-04
-3.508726959741081085e-03
-2.832845230934039754e-03
9.777795356084267690e-04
1.131637126703420333e-03
1.702139716720794558e-03
3.749483486769933024e-03
1.932946039252363352e-03
-2.012740018782724783e-03
-4.321930040292592048e-03
-1.627323830031767024e-03
-6.993618418198471352e-04
6.017913853883136675e-04
4.506836390698524056e-03
-1.293961639329198245e-03
-5.083939419794201997e-03
-3.416549697207309742e-03
-4.982901316569918367e-03
2.150776147178449734e-04
1.727450329232208936e-03
-3.838569351469294216e-03
-6.141558291159148961e-03
-9.171136146967021757e-03
-4.338660711388291416e-03
3.655856171477522582e-03
6.023485471673611924e-03
9.510436397213670526e-03
5.424190421323726516e-03
-9.545514761993104417e-04
-8.873961671441838958e-05
-9.728405279199370303e-04
-5.091057959615570127e-04
1.650983739912370921e-03
8.987354769644626158e-04
1.353065775628892360e-03
1.077839645957265249e-03
-2.916100661980148786e-04
1.618139739481974128e-03
3.749103477907276410e-03
2.776593116065667437e-03
-5.082865820018066033e-05
-4.575628736346643369e-03
-6.837695387032808117e-03
-4.019401998894688022e-03
-1.677321189770799236e-04
4.639017548917359103e-03
6.484548461866290574e-03
6.224584515135774985e-05
-6.227455106605626033e-03
-4.846756824730843322e-03
-1.027075939127472960e-03
3.120539762124723655e-04
4.655515829423329324e-03
6.259611191144509937e-03
-2.549804711633771575e-03
-7.129697039169454083e-03
-6.643109377628261467e-03
-4.341435342662642444e-03
5.896796436572656654e-03
1.017302016105917084e-02
6.328712666694164511e-03
1.857972447089917874e-03
-4.193042164188723504e-03
-4.936242103411207088e-03
-1.783332748393567490e-03
3.739275491811373548e-03
8.312161028393926301e-03
5.137118170358263500e-03
1.307652985713478474e-04
-7.342927420231110287e-03
-1.024405062052502133e-02
-4.902866916089098324e-03
-4.300758922924534551e-03
-3.716908595576744277e-03
-3.499584861035166805e-03
-3.558187297157274897e-03
3.627781510510002388e-03
9.275749162795506042e-03
1.436817067754856021e-02
1.202781249992579578e-02
-3.097455640339588038e-03
-8.259603871123443256e-03
-4.480615882773377259e-03
-2.531610607263347357e-03
1.029742721470031661e-03
1.201003125744271949e-03
1.550618562158264952e-04
2.284473020129921574e-03
3.850272018347143319e-03
4.637607655228985840e-03
3.591634883848765242e-03
-1.039110662440402436e-03
-4.532452276356541132e-03
-3.337810743548372695e-03
-3.113765230872942401e-03
-4.853627925264516162e-03
-4.175464882569658240e-03
-8.036636574989431282e-04
5.928732989333963636e-03
7.461854444725449578e-03
-3.130873922424005831e-03
-1.285668665874210859e-02
-1.214958063120763487e-02
-4.961956422665214465e-03
4.079046880862277451e-03
1.032213588605695488e-02
8.507343888417938718e-03
2.951909570938634434e-03
1.083486419816042214e-03
-1.000561211536954041e-03
-2.902993357301773651e-03
-1.083300455857543268e-03
6.195072903835380056e-04
2.183118891835625266e-03
2.760736538427125547e-06
-5.853123907633735537e-03
-6.325672453814605752e-03
-2.127478600332174952e-03
2.625517100632481469e-03
3.005157679965113349e-03
-1.857012179789056805e-03
-4.102344984130643253e-03
-2.984433950023578780e-03
2.538517285303535254e-03
1.050219964639637418e-02
1.286812551968634193e-02
1.311186093877651608e-02
9.311178584335801783e-03
-1.646115883976517497e-03
-6.071333029399154924e-03
-3.305134263172502824e-03
-2.786552930167151935e-03
1.772681602076631733e-03
6.747511060867904774e-03
4.261806395423992522e-04
-5.432727870732492227e-03
-9.908622469056412377e-03
-1.884550537645577825e-02
-7.592527824478697944e-03
1.009905426935927067e-02
-1.181363262482618484e-03
-1.089058873962156677e-02
-3.356932782842702093e-03
-3.361179024783243763e-03
-1.550152307654022437e-03
6.205712149467187272e-03
6.182522082516969143e-03
1.635613091238339971e-03
-2.981942071199242261e-03
-2.583784245257568588e-03
5.708982480055219133e-03
1.239892931272052086e-02
5.881145346469425148e-03
-6.288697028771725664e-03
-3.815177789482890412e-03
2.268230804409629171e-03
-2.234277678042647861e-03
-1.763135401218969599e-03
3.427825610040556928e-03
2.535331887013719462e-03
-2.285546028992729069e-03
-6.388102020989144120e-03
-6.746395847977451794e-03
-4.604397481965694441e-03
4.939180968568627692e-03
1.408731835153061857e-02
7.191281817375238562e-03
-1.846765578520237136e-03
-6.552275452090478534e-03
-1.048709327957678995e-02
-5.021976628936625914e-03
5.463660759213488042e-04
4.659813201336373417e-04
2.962548380842209509e-03
4.302877523497659375e-03
1.232450980641040979e-03
-4.694567890646270461e-04
6.295358811732526712e-03
1.400236389178698311e-02
1.304002149144166921e-02
8.914072733508086183e-03
-1.593361867517850044e-03
-1.399052490645717045e-02
-1.165480272824497357e-02
-2.998536333465545538e-03
-1.002625879737926214e-03
-2.337441172738964623e-03
-1.775474021744547761e-03
-1.017026860926610252e-03
-3.141328912576742995e-03
-4.229785571091482059e-03
-5.128823492897659556e-03
-2.524811186715745798e-03
6.871248456410580276e-03
6.424391862346663477e-03
-1.856794858693180516e-03
-4.911906005656599059e-03
-6.848478288626953792e-03
-1.814410889854293574e-03
5.248207756989101136e-03
3.353603922211272331e-03
1.734138098804893823e-03
-2.498623794857878031e-03
-7.154223180251180654e-03
-1.357641409817854057e-03
3.939107590593816759e-03
6.125431082618486463e-03
7.750473475593580054e-03
2.376874845228676720e-03
-4.002712559675374038e-03
-6.072200779371136892e-03
-4.920767529793756111e-03
-1.053010619916422289e-03
1.369547673566420126e-03
1.861887806642568283e-03
2.190534219868370096e-03
1.684223603086714132e-03
1.116980071643330430e-03
3.876057476415520342e-03
6.897181576671690927e-03
2.659345165099124501e-03
-3.316355424907042274e-03
-5.719244179329497496e-03
-5.129808575450860164e-03
1.869402619160594583e-03
7.807954872417092324e-03
8.566169331965677383e-03
8.064065115227149472e-03
1.464195733157672326e-03
-4.593401061136597949e-03
-3.206814128305751979e-03
-2.058315383480135465e-03
-1.725749401234474628e-03
-4.215888395987649456e-04
-8.169443631337232900e-04
-4.878832379204269161e-03
-9.880200903718194469e-03
-9.137820569915543201e-03
-2.446462096581110673e-03
4.844005376795421439e-03
2.699531577136530646e-03
-6.703081624665693794e-03
-7.172162831711687524e-03
-4.376464522828762103e-03
-3.996983477730885193e-03
2.417515613952985962e-03
6.464538439780275272e-03
6.442573072567991596e-03
8.122004286182871180e-03
5.295846127364203272e-03
2.823912418241167430e-03
4.785491876872738706e-03
3.784658837126940456e-03
3.528351382801731386e-04
-1.699176567665022352e-03
-2.034315129279644363e-03
-2.318318049509552475e-03
-2.859854072939681420e-03
-1.772545574967779270e-03
1.174921271696619841e-03
3.851416981437497979e-03
1.085594158721296795e-03
-3.380292049779891166e-03
-2.038714683863893096e-03
-4.782803496640802778e-04
2.864008107067262743e-04
3.347114511241086783e-03
4.889162746755817621e-03
4.252475333089725425e-03
-1.429311575589000891e-03
-7.611544370560258295e-03
-6.439694312380948513e-03
-6.704407132077174619e-03
-5.965891762363158789e-03
-3.783134644754021720e-04
-1.339279193101866605e-03
-1.728465763720072690e-04
6.826593448492622972e-03
8.144982570316955384e-03
9.090809779209707217e-03
5.401159295908388065e-03
-4.953560839936018388e-03
-6.799372140482633914e-03
-5.283308313560877365e-03
-4.218796061613338914e-03
2.521290529978314956e-03
6.608551814098018867e-03
4.874648512594653010e-03
2.254893814270503673e-04
-4.797519878161863628e-03
-5.298527792284696974e-03
-3.479785522657830640e-03
4.628353313220930076e-04
5.137463695990164905e-03
4.823988268600873722e-03
3.015938198768454946e-03
-1.535470607220547974e-04
-5.068390693490995406e-03
-2.713505269452742407e-03
4.004318071780104196e-03
3.684600553321500712e-03
-2.617111978750685623e-03
-6.550244274420334752e-03
-5.923473507383467986e-03
-2.752536794653924132e-03
2.896604962924825919e-03
7.098793171311352200e-03
7.518858254789753323e-03
5.007704665129162659e-03
-3.018993813790310510e-03
-8.120655189536319860e-03
-3.630687731324012263e-03
-8.058044848112773037e-04
-7.857603531888715260e-04
7.907421089050883835e-04
-8.991295843946291817e-04
-2.804237325117025538e-03
-2.301289042081054118e-03
-2.612588356175921545e-03
-3.230218500930770367e-04
3.813732273906004881e-03
2.545248995098063800e-03
-4.714214968010620654e-04
5.290240207556961075e-04
1.179173280537004374e-03
2.556765281893542269e-03
8.030063422652932228e-03
9.964027435874458355e-03
3.513130599184319074e-03
-3.153201774006640472e-03
-1.358425830082411788e-03
-5.874045574405374441e-04
-6.025236725473781529e-03
-8.441010634889958408e-04
6.220197809712194222e-03
-3.436767334987857626e-03
-8.655672512147143810e-03
8.208565538790933225e-04
6.834142729167226246e-03
9.362481337803821996e-03
1.012461126835066325e-02
-5.856584784708913916e-03
-2.787141237980151828e-02
-2.443889969977817642e-02
-5.637691989728154697e-03
1.122647997038230677e-04
3.288325914910421657e-03
1.481609090063364803e-02
1.484268444679202360e-02
-2.288900513189261719e-04
-6.562226246720320386e-03
-3.640918760035526201e-03
-4.581882468639400519e-03
-1.756095703523384783e-03
2.635095451672192762e-03
2.725465070824689261e-03
3.663278873196280320e-03
2.073660105355625873e-03
5.523891830107997489e-03
1.318662124271418115e-02
7.150146678309984155e-03
-1.820170937677955975e-03
-3.968269257189942917e-03
-7.769281193378372620e-03
-6.930567823391801247e-03
1.250124918379194984e-03
6.351691225232188390e-03
7.379229689712637867e-03
5.437760505916090954e-03
-2.342126421155787258e-03
-5.717151520454563304e-03
-1.248429724599283471e-03
-1.569142299399060598e-03
-1.589604744519109662e-03
1.561679311290267063e-03
-2.054607883408605343e-03
-6.093279937753926651e-03
-6.977681495119143068e-03
-6.696708094035108694e-03
-1.747886858287698653e-03
2.324759681253714926e-03
2.762953457375637214e-03
2.622484416912540528e-03
-7.636339033466778411e-04
-2.446810759682651638e-03
4.645622246591828847e-03
9.964345487402301998e-03
6.122843618424386562e-03
-4.348160855841598006e-05
-5.428283752356414908e-03
-4.889272132392992465e-03
-1.241362847769916962e-03
-1.621425205404049795e-03
2.891591953147691629e-03
3.482267107135031143e-03
-5.272834371531484945e-03
-3.630062065862857575e-03
-3.689494075612986552e-04
-3.205382641385936225e-03
5.299165979406395607e-04
2.179613358526712175e-03
-2.163092139736682434e-03
-4.515825149386626554e-03
-3.951113466441872994e-03
1.132250726893155486e-03
6.150362271773574495e-03
7.627380949034769618e-03
1.102873059975698587e-02
1.097994022468118044e-02
-8.040943395121787768e-04
-8.469543586300693275e-03
-1.968467271429969433e-03
-4.594874330556497849e-04
-4.391878367744174623e-03
2.132082017170853323e-04
3.532924661254157554e-03
-8.252820678939576989e-04
-5.393598508807085322e-03
-4.714263919418475168e-03
1.245055130746020033e-03
2.355144294217336679e-03
-2.279491443435749300e-03
-1.693980946225858179e-03
-1.216873287287512182e-03
-5.383670065956963971e-03
-2.365332069440111151e-03
3.843034215718722345e-03
3.350112116608634349e-03
2.622549271926837879e-03
1.059588383533101308e-03
-3.241343879258397689e-03
-5.020928579681308186e-03
-4.277661442396717660e-03
2.458771148235003052e-03
8.883922050310511659e-03
4.109337901842974664e-03
-1.232660809521832603e-03
-2.807821742172695104e-03
-3.342536186303773308e-03
3.562106663559139273e-03
7.398401180645336125e-03
2.103319831638075441e-03
1.263111413376064637e-03
-4.957840663032394646e-04
-5.229029158455615438e-03
-4.217061986348645151e-04
3.387429294148573515e-03
2.615110472739464679e-03
4.881886404541846414e-03
8.412294891116980618e-04
-3.116956913735382216e-03
-2.201202727464927466e-03
-6.040456281294587920e-03
-3.232631038417521467e-03
3.261998801890855695e-03
-1.408794285073077229e-03
-3.856719577627531516e-03
-7.458538953897218284e-05
-8.094066812534246938e-04
-4.271766343680667342e-04
3.032549607910074111e-03
-5.766793494940100932e-04
-5.606399604691720065e-03
-4.310212643405609070e-03
-5.625339263388492474e-03
-5.007547566483148797e-03
4.131031907632628196e-03
9.081145531623863523e-03
5.731608498237846828e-03
-1.601857725901793253e-03
-5.914522321978185615e-03
-1.571505699636211980e-03
1.850725029856438832e-03
2.644815331684492819e-03
6.198024456535942625e-03
6.209623871286073724e-03
3.183261788457447065e-03
1.935786224114017379e-03
3.072009741825637596e-04
3.093291169360288997e-04
2.579546867140562749e-03
1.217939655255425137e-03
-4.372980126708034092e-03
-9.003433701558382490e-03
-7.347078629150240528e-03
-5.943865889556382981e-04
5.311850607276938710e-03
1.003357831013014165e-02
9.129891994507775832e-03
9.550730893552112407e-04
-3.274757690021000076e-03
-4.808567654378106092e-03
-6.911360405906988649e-03
-3.249564337329512338e-03
3.588686222460419446e-04
4.857627493421522820e-04
-1.515915978441519270e-03
-6.265030770902939999e-03
-4.683986835469754369e-03
2.952725276850878388e-03
6.658377904625646139e-03
4.107755585997978701e-03
-1.454619669114588050e-03
-4.578809982517959010e-03
-5.076517417267301449e-03
-1.651171727333800065e-03
3.500202707023080707e-03
3.549012953168569073e-03
4.065224914869462400e-03
2.012589294180181475e-03
-4.215330910591222856e-03
-1.006687473763956267e-03
3.006694105583763380e-03
3.602382675153909452e-04
-1.371082703578518447e-04
-1.657631760971005948e-03
-3.653134398799860912e-03
-5.228033026099860106e-03
-6.080966260747001396e-03
1.642031770606333044e-03
6.605269221236511300e-03
1.428761844151103582e-03
-1.183645436414200447e-03
-1.956361599344303565e-03
-2.481579714138335523e-03
2.664208151201627114e-03
9.319268893717791089e-03
1.106505714268654107e-02
4.434177663047443423e-03
-2.785967337753285280e-03
-2.250776279151773650e-03
-2.453112352297151435e-03
-3.829082799687640905e-03
-9.829460591850032024e-04
1.427144599090954561e-03
3.007302973525475837e-03
7.933667540037526566e-04
-3.282294317848982648e-03
2.222265118203828251e-04
3.665304778678572448e-03
3.005227718194637947e-03
1.021532528641468400e-03
-4.602919401251143877e-03
-3.964214177619294899e-03
2.675401954300815881e-03
5.936025590000636176e-03
3.577995091923052550e-03
-1.050481052937406526e-02
-1.555531875732705550e-02
4.175596193228782644e-04
3.521779749465533092e-03
-4.642000629782678557e-03
-1.316855181519153680e-03
2.422546353103858900e-03
1.365520428501975497e-03
-1.462138631275597747e-03
-3.627645750367825255e-03
-1.566316977589081406e-03
3.084013782392077806e-04
3.657684313421338818e-03
5.627351209836807706e-03
5.952352275741502278e-04
-3.381545114713011349e-03
-4.950421250348239523e-03
-5.275727046524745882e-03
2.105298003398299676e-03
1.059050045094839763e-02
8.277433795575597428e-03
3.883191590154904792e-03
3.926253687181260887e-03
4.597552464678366507e-04
-6.607954030448253161e-04
-3.033824297642037063e-04
-3.990482243236653966e-03
4.880171044737807956e-04
4.339792662159698035e-03
-1.246787388579313326e-03
-4.872449755512106052e-03
-6.260328558435432345e-03
-1.222271717283568079e-03
4.236251015621667060e-03
-9.634624140806718768e-04
-2.492871012150616686e-03
8.267955924625268612e-05
-2.003423621145404912e-03
-1.783392940012687444e-03
2.392628249028243281e-03
6.309709006099479579e-03
7.064874587631481302e-03
4.156192982130499716e-03
-1.244604110402428802e-03
-4.968830765831722292e-03
-4.916520266754920848e-03
-3.441211381149515171e-03
7.860507721059292654e-04
3.634245871500358781e-03
3.651324033779972805e-03
2.887715622009457404e-04
-5.450415361760166215e-03
1.037671021884290379e-03
5.727400244309270409e-03
-2.383424953479412484e-03
-6.317456448037834203e-03
-1.642906709375583502e-02
-2.002145494853197275e-02
-9.580646294383267716e-04
8.108698422453548826e-03
8.503110588615563764e-03
1.194353258947321653e-02
6.829627489138297147e-03
2.281893551432486594e-03
9.777547920263105884e-04
-1.812522078101549321e-03
-3.055805132202707095e-03
-2.239827837108202425e-03
2.399757765084786082e-03
5.637720681967889856e-03
3.047447922500517384e-03
-6.076607156068176106e-04
2.064181784890240044e-03
6.056150785351215211e-03
-7.839035934783867340e-04
-4.778405012543425825e-03
-2.974518660307659892e-04
-2.445609412716764040e-03
-2.098563977385218670e-03
4.115948373482424157e-03
4.925146899164132945e-03
4.422187180847698094e-03
-2.373809103086979490e-04
-1.067192734751439172e-02
-1.178089379427683242e-02
-5.016755100553620464e-03
-2.345988083374502854e-03
9.077077769916609001e-04
4.177217090516837511e-03
3.555068393139521141e-04
-2.320675673452781730e-03
-2.844933312643127760e-04
2.054827241965123241e-03
4.537919457900265081e-03
2.524991854216887630e-03
-5.614777216019549520e-04
1.580573110679688769e-03
6.945547295108494114e-04
-1.814895193000240752e-03
3.045076208605406246e-03
6.561007412694531971e-03
2.064685793262299729e-03
-2.171654099119602575e-03
-1.991252326489043045e-03
-3.068077287307476530e-04
-1.243716158585882236e-03
-2.631871521157276225e-03
1.957682713487341776e-03
3.550589993174860758e-03
-3.540868951650799797e-03
-6.697468501178922839e-03
-5.041485691341164067e-03
-2.332828558120715341e-03
3.661961827720461651e-03
3.485527520636631880e-03
-3.268734967823815150e-03
-2.264123181224361736e-03
8.683807834541417076e-04
-3.371936080653216601e-03
-2.085240098542903361e-03
5.586353495227158392e-03
7.198819819499316895e-03
5.885554443169392982e-03
2.203134237125508720e-03
-1.851982124797595716e-03
-2.437472754682508261e-04
-7.840404379824110351e-04
-1.347529595022929454e-03
2.635893532689486101e-03
2.409575294988545047e-03
-2.281431609012596860e-03
-6.634566792092466865e-03
-4.907829482365937829e-03
2.874041956827556778e-03
5.502224921522106023e-03
-1.156587799991955212e-03
-8.610521494151637464e-03
-4.389806218296998970e-03
4.785528194057206766e-03
5.589174662427171848e-03
5.477663617700685543e-03
4.477876867113468259e-03
1.009425999564621658e-04
3.041700169023277191e-04
4.849411586532324423e-04
-2.857443296642856855e-03
-4.660724020856858545e-03
3.738219301584812552e-05
6.054294171231785690e-03
1.047690196714560215e-03
-4.309449350251446688e-03
-3.222877166259659112e-03
-3.327537655864152254e-03
2.593660656135788299e-03
5.382982718541149889e-03
-3.287148771190134041e-03
-7.541278795108802800e-03
-7.990300598651529917e-03
-4.968489166837952720e-03
1.844007518985288059e-03
1.273273971647181663e-03
3.816687682357099674e-03
7.758859486256741364e-03
-1.704685493918335322e-03
-5.493105871059841307e-03
1.407987761563884738e-03
2.914565422823359696e-03
5.530076240520881078e-03
9.217400793382074173e-03
5.183465059560816296e-03
-1.246543523233503313e-03
-6.631236335724397489e-03
-7.383702605376645314e-03
-1.042466623040589718e-04
5.043517613110643817e-03
1.841603507062466701e-03
-2.736963926127199478e-03
-4.640272101115476208e-03
-3.715757896026413310e-03
-6.537318196117105924e-04
1.473621033334444625e-03
3.601682677479525752e-03
4.620051188225210610e-03
8.321369418030662287e-04
-2.305967386604789327e-03
-1.909449559109608566e-03
-1.140820787187025922e-03
6.588764703134985124e-04
3.186918985311614372e-03
3.981667919522453337e-03
5.864934381832148614e-04
-2.393335045715439641e-04
7.117971657544581131e-03
9.233927110199493041e-03
3.292514665429153477e-03
3.211578734148527866e-04
-2.776027774528204949e-04
-8.782451595368415739e-04
-3.006170774617662831e-03
-5.431833720796450798e-03
-2.071163403126127529e-03
2.962812849526643907e-03
1.487730158151371381e-03
-2.763091872372968640e-03
-6.759386751193917874e-03
-1.971313213301656431e-02
-2.899738326879939751e-02
-1.336969423736347404e-02
4.822156780816812434e-03
9.688243203239053219e-03
1.254017367736585606e-02
9.216675425971258828e-03
6.615962284161625191e-03
1.148920768272078917e-02
9.128967404698732843e-03
1.698687818957637322e-03
-2.356820490078112128e-03
-4.081073625858142387e-03
-4.995897892959923030e-03
-8.034735036105619677e-03
-7.641960523572337988e-03
-7.994767342145557175e-04
1.163600967263380380e-03
-6.110519266576540376e-03
-1.097204706696096495e-02
-7.305935666233533132e-03
-2.752405796057227818e-03
3.481434965970075027e-03
1.336238945093120266e-02
1.731924057686941992e-02
1.774162553213094393e-02
1.637614629159115862e-02
1.005936829891317282e-02
1.303213697718459685e-02
1.744726851090563566e-02
5.683118433894946905e-03
-3.716181516611128267e-03
-7.700637345631753013e-03
-1.201735653100723285e-02
-7.365391100657605293e-03
-9.520206370039557831e-03
-1.262661285225779098e-02
-4.244715810146014977e-03
-8.967290077749566490e-03
-8.623292105518435419e-03
