1.441544538968249703e-03
6.190323049295373952e-04
-6.025165651196643345e-03
-5.502664333534038055e-03
-2.638893431551408118e-03
-6.059807118079046061e-03
-6.437765739427472184e-03
-4.554224934310749373e-03
-2.659946552216512806e-03
9.011614179775997296e-04
3.522129817342089120e-03
6.894646323193176149e-03
7.218534069244288663e-03
4.339884663976820156e-03
7.061990143294769907e-03
1.153645153417453238e-02
9.927289623950338177e-03
6.720994440749283524e-03
6.724342110288622325e-03
4.687720218819943323e-03
9.550666803205671001e-04
-4.606130636187272189e-04
-1.699600313054229787e-03
5.218127742978068313e-04
-3.039321688587626148e-04
-8.556492246942297084e-03
-8.405256197850968086e-03
-4.690191576691814766e-03
-5.767018427806911048e-03
-3.733487865988639699e-04
3.616824286359201363e-03
-1.776516770274008000e-04
-1.932481922816848760e-03
-4.443054922140629581e-03
-6.228784877369918267e-03
-1.125297478163337847e-03
2.450738464921562235e-03
1.333331875241577447e-03
1.532081397373657875e-03
1.079120338519212047e-03
-3.143056274197623783e-03
-5.671775245640496219e-03
-2.035772355547986381e-03
2.644839631676941180e-03
2.823965654324332025e-03
8.577395969747921315e-04
-1.323702130020625701e-05
-1.031154342143344310e-03
-2.133057591211619426e-03
-3.436816184280484408e-04
1.305167826128160544e-03
-6.838186423475190248e-04
-3.197939713641091003e-03
-6.779750409320315675e-03
-6.562129965048899179e-03
2.445894457377052571e-03
8.200221288933806293e-03
7.488834657703328200e-03
4.991121601077724325e-03
6.262857147647809706e-04
1.718050255393426071e-03
5.294284396841670431e-03
3.381985054418054810e-03
3.827845979523456779e-04
1.291305378630390520e-04
2.627167875889160811e-03
2.269557795228002543e-03
-8.444702521023141192e-04
9.672643081325960589e-04
3.902320511744202056e-03
3.003646500858520897e-03
2.883511526409357571e-03
3.177020294281890540e-03
-3.493266476028806730e-03
-5.908202375927434566e-03
1.699312523480582798e-03
2.318512295491209629e-03
5.610648611919981897e-03
5.670751439658635804e-03
-9.810620999283993157e-03
-1.159778043719610942e-02
-2.073256122049964637e-02
-3.581550369443035203e-02
-1.044802915708097774e-02
8.048170777899084014e-03
3.507754786455867524e-03
9.104055030262127660e-03
3.694835824401920040e-03
3.809076933791714659e-05
7.795638703801945242e-03
7.298163738482211019e-03
5.699273183316733681e-03
1.763659253900907564e-03
-5.462228570117737920e-04
-4.921975910483260492e-04
-1.956962427159703467e-03
3.510134125436958821e-03
4.475268949554516741e-03
3.144889993842748654e-03
5.648633969208519123e-03
2.375208772793802655e-03
7.776316571542435472e-04
3.136087671725866304e-04
-1.364699887747656019e-03
-3.333866687388280627e-04
1.009063639265742269e-03
3.443491105871850696e-03
1.150053771457195707e-03
-2.167382540534017101e-03
-6.788080051929048456e-04
-1.535292404066012587e-03
-2.101255534256282233e-03
-2.319978013984494436e-03
-4.977670895724181470e-03
-6.036851952442887775e-03
-3.746880796153911636e-03
-8.209462122600012660e-04
6.064850756084684113e-04
4.175085345894648248e-03
2.220483863750851317e-03
-4.684882943809535322e-03
-4.401285158035911187e-03
-4.853311629681417161e-03
-1.637939181684001759e-03
5.563988309445390933e-03
3.062392904396110671e-03
4.052902056277189226e-03
7.330058150308041594e-03
2.957152653727760077e-03
4.357763462801463451e-04
1.403571924786279235e-04
6.902847255538361888e-04
-2.010408140520292437e-03
-7.975354325878014281e-03
-9.853585677245349853e-03
-1.012281311257003449e-02
-3.544660002984990985e-03
8.441910455095588336e-03
1.238024039303843582e-02
8.695810112318742846e-03
2.977131149795072228e-03
4.678548100811578308e-04
2.016410377651150533e-03
4.950024145238335165e-03
4.535780402861594451e-03
-3.246713030134318681e-03
-7.726805968280077430e-03
-8.179228187060830560e-03
-1.146040412835715519e-02
-9.544392316296224088e-03
-5.616506096810594539e-03
-1.916282844760209322e-03
4.652260969900527156e-03
2.940656120422368517e-03
-2.224483525398776433e-04
8.262275252914261930e-03
1.519400137185112666e-02
1.027483415926865908e-02
1.304315848151856591e-03
-4.081788260436618708e-03
-7.097950226962902037e-03
-9.652447107702619156e-03
-8.671348623654281593e-03
-2.385906180107633806e-03
4.024000360897769801e-03
3.254193360429053633e-03
1.323431052372335548e-03
4.660920171296286871e-03
3.106883717821815397e-03
5.692332075211736829e-04
6.108388060156004495e-03
5.082526312713185612e-03
-1.799895640107450909e-03
-3.433453632719698622e-03
-6.625690081710869893e-03
-6.292313394930489252e-03
-4.082393903748198914e-04
1.211850202556960564e-03
2.636585218158233115e-03
2.369550032439477643e-04
-4.201693121597109386e-03
-3.896358827607932754e-04
-4.036827496594296277e-04
-1.862531751164193733e-03
3.389574379079488952e-03
2.919701657859362278e-03
5.136231204243370046e-04
-4.483117024502416485e-04
-2.497059231000325463e-03
1.826688029799877332e-03
4.414360714943488945e-03
1.924627444502692401e-03
1.801487956423218888e-03
-1.774523697306417108e-03
-6.078720889660270930e-03
-4.302631059338928206e-03
-1.762313848165639012e-03
5.340546408449246048e-04
4.079360125562896643e-03
4.339158383706908338e-03
-9.218835116393867511e-04
-5.706218894148739305e-03
-4.906240364650767127e-03
-1.089139973697090657e-03
3.866220575602874032e-03
6.665588312786586631e-03
3.663068015965395031e-03
1.158573396707319753e-03
-4.068097095728185806e-04
-3.862335917367932647e-03
-1.196402976614838968e-03
2.799861146116553595e-03
-1.754204096984890535e-04
-4.182442656600738815e-03
-8.259040305385592293e-03
-8.470580389186008197e-03
-2.958691394563491527e-03
-2.776880542714179820e-04
1.664471921150138855e-03
2.710075629830065863e-03
4.254977253624489747e-04
-1.168807991361406817e-03
-2.046124218930267438e-03
2.948558711755262362e-03
8.183134869820207075e-03
4.688991427481215349e-03
4.103015280707097111e-03
4.061227895778263784e-03
-7.883056099441938889e-04
8.865055728208242995e-04
5.126997183353892290e-03
4.182734918915543935e-03
1.768299667399309840e-04
-2.633066354568533701e-03
-1.113435598605999046e-03
-8.121914658142286372e-04
-1.231982564403963408e-03
3.092496760744722992e-03
6.087932267337419455e-03
3.074484016565299203e-03
-2.255658680066639950e-03
-5.820126961159783827e-03
-5.437542832900389353e-03
-2.312111948069653540e-03
-1.417628725486907732e-03
-2.052532208715054929e-03
-1.311519396428043743e-03
-5.208079662419028491e-03
-1.030748757454610226e-02
-7.508662437999164864e-03
-4.197734654321611490e-03
-2.656783143160170151e-03
2.992038158550663733e-03
4.040162481149565422e-03
-3.259780800825015559e-03
-5.148957322449755278e-03
5.001964778067940148e-05
4.130281556798427213e-03
7.280688886580808337e-03
4.238915524586935740e-03
-2.243198095765945588e-03
-1.432044705002105027e-03
1.276992784246082911e-04
4.207941452812642182e-03
1.206221881352503682e-02
1.008097468632234220e-02
4.321433604437589782e-03
2.095354648047289235e-03
-1.338367300309892868e-03
-2.715707705304493558e-03
1.719986577973433607e-03
5.483414465944951716e-03
5.058202993044005240e-04
-3.631361440918881751e-03
-3.252462315225117077e-03
-4.778015263011062622e-03
2.414436359151160555e-05
3.963544720370147482e-03
1.436160910457665496e-04
-2.412520649091053505e-03
-3.812544295901203889e-03
-1.145933969474277137e-03
-1.326204007800834079e-03
-1.437385873170119116e-03
7.150557110900994861e-04
-1.876256709860667921e-02
-2.521987810615742773e-02
1.027427690745014383e-03
7.658653657623048540e-03
3.893792036610471251e-03
8.828028641472678711e-03
6.094029567011578254e-03
4.627212152472678051e-03
-8.671569870141046738e-04
-7.122656656450324433e-03
-2.055403879654819389e-03
6.185819132144338610e-04
4.317890783148752888e-03
7.801397880945489145e-03
2.205131849002344054e-03
-1.957555224499282157e-03
-1.867677476340986716e-03
-2.265794991069794602e-04
6.512262187061718544e-04
2.707234085069813809e-03
7.379656836368933374e-03
5.136495749833069370e-03
1.070051345550133027e-03
4.273181684358803053e-04
-3.047311480035547367e-03
-3.516857437581259391e-03
-2.378513474525178442e-04
1.391091654481693240e-04
-1.929349285886497326e-03
-5.196449567380139953e-03
-4.951726774777652669e-03
5.994081899883867354e-04
3.922141870192896555e-03
2.439767049088957963e-03
1.623543083295095292e-03
1.087083008143420373e-03
-2.546831708810268560e-03
-3.973732235693848772e-03
-1.121625911572648971e-03
1.020785806631150728e-03
2.149574041578591280e-03
1.523864047428084888e-03
-2.397173457709869844e-03
-4.532338849896180681e-03
-4.796745159719458624e-04
4.351219878404808880e-03
4.936296235281445108e-03
3.757948859137618357e-03
-9.109053922978050744e-04
-5.903851993984196925e-03
-3.645158981608912548e-03
-2.170684815322101481e-03
-2.409263783226159739e-03
2.105316108577111420e-04
-4.060885550071694113e-03
-6.606523253666609849e-03
5.006904822809377662e-04
8.946186149920114369e-04
3.609884735781424339e-04
6.340066674497680035e-03
4.147257745523410047e-03
-8.112130957843777983e-04
5.421842792855020854e-04
1.344674270322867519e-03
1.970026951739443054e-03
2.982047402565097833e-03
1.598319735227172285e-03
4.660702831878924218e-04
1.448083941794182862e-04
-2.709590149178747916e-03
-4.423363435734148016e-03
2.245352561184570540e-04
3.786899492985382372e-03
3.599411797867982030e-03
3.762488485368321086e-03
1.246779037401629046e-04
-3.492259986600290775e-03
-4.243259438150688567e-03
-4.337761747108684687e-03
2.322682995516393671e-03
4.449368701679453676e-03
-3.840065354299934154e-03
-3.535718325393431578e-03
-1.722552626152519290e-04
-1.749686415237554707e-03
2.855983060389172268e-03
5.127045882997311767e-03
1.213432029619589732e-03
1.801246003307867217e-04
-2.921680052384484621e-03
-5.486058754235184978e-03
-2.304078056888302865e-03
1.490897193712868154e-03
4.836511626518337145e-03
2.991693291521033138e-03
-2.680182644954899520e-03
-3.032541016033398276e-03
-4.319474111455340846e-03
-5.735926315352931834e-03
2.293280163520273682e-03
7.314718300813565464e-03
1.181261319384719483e-03
-1.555086006256375421e-03
1.842548301838785362e-03
6.881558305082223883e-04
-1.432415307034106940e-03
9.317025236187962897e-04
1.545829931763854741e-03
-1.150560812065734226e-03
-4.303451947233159769e-03
-3.888879834998730783e-03
7.533311524192911517e-04
1.173802353083694058e-03
2.752006960467307667e-03
8.172527220955190519e-03
1.711374540911581466e-03
-6.592774541314479382e-03
-2.452976912409576653e-03
1.615264823834286099e-03
2.397170823492901157e-03
1.876758459376241112e-03
-2.276128703917890540e-04
-1.420799459067173531e-04
-2.000004115678403593e-03
-1.991110547890345868e-03
2.733303031283278780e-03
2.212044089048831059e-03
5.470258091238185388e-04
1.073786647043602693e-03
-2.172261398548543110e-03
-4.020733134592088635e-03
-2.051199230348488625e-03
-4.442067590219295594e-04
8.481029850369773250e-04
2.062292554819876531e-03
2.083271098651073676e-03
-9.541091019492902326e-04
-4.829559050118057036e-03
-4.241634192788511920e-03
-7.845042866759759223e-04
1.797681025833104945e-03
2.475657484291659324e-03
6.353999178132380956e-04
-1.344106897770667129e-03
-1.259746526565990853e-03
5.492031914306450512e-04
2.232832612028535189e-03
8.920972592066089835e-04
-1.792648687023533317e-03
-3.282815904754815464e-03
-1.636458198622248563e-03
3.980977829658417615e-03
5.357991722309958689e-03
3.409917889498675827e-03
4.949164955741585520e-03
2.477489532941753048e-03
-2.403265875949337719e-03
-2.858644457119616494e-03
-2.137467056728364727e-03
8.580240539430422902e-04
3.457224327904210356e-03
3.247674384036047628e-03
3.050227943947450126e-03
-4.971451216773009911e-04
-2.905398214620939952e-03
-1.869325868942452304e-04
-5.489745403746823169e-04
-1.654994669206050727e-03
5.006292506592363621e-04
-2.598543379342326248e-03
-8.200727665658096022e-03
-7.687838185749164104e-03
-6.449269168591766077e-03
-5.559996346564254066e-03
-4.670528594633888315e-03
-7.613694428709904226e-03
-5.918020668178148626e-03
-3.793522062505995081e-04
1.928208487250254516e-03
4.859165938654787069e-03
5.725898171237871204e-03
6.763390431609111499e-03
8.600579159545495428e-03
6.218612200173507208e-03
7.407455652072055495e-03
7.924844711737911995e-03
4.144269878789962579e-03
4.708430437824664971e-03
3.247352250669271589e-03
-3.887260008621050509e-03
-7.571856586094161123e-03
-4.224471420210790360e-04
7.283408640607225148e-03
6.374263690161100816e-03
9.186835995876068209e-03
7.594861748100164775e-03
-2.340233476620608589e-03
-3.804630563784165004e-03
-6.246390533047174211e-03
-1.010871658369325195e-02
-4.767425367925602793e-03
2.980481899875141952e-03
3.802790731577035833e-03
-6.546847124859229462e-03
-1.179332174381954486e-02
-1.763212996205213226e-02
-3.271578167919001606e-02
-2.048290774011242779e-02
5.018713186966364433e-03
8.044182875759227705e-03
7.727077357226070503e-03
9.883963630250467217e-03
1.055246881571237673e-02
1.204005321904459865e-02
8.575911134281187162e-03
4.570454612118452983e-03
1.131423569315240024e-03
-2.252431898930267948e-03
-2.254427132359670786e-03
7.132123002593045765e-04
4.206590007197188660e-03
3.848593743753502775e-03
2.950707251794745106e-03
2.283439926845356061e-03
1.105756536861168208e-03
2.314863074690589120e-03
1.980647740201366223e-03
2.387472343250202425e-03
1.221790880111744276e-03
-4.067484266359174851e-03
-2.402889088249045291e-03
1.421356230941761296e-03
-3.144921719476144418e-04
-3.268765222209331529e-03
-5.241951691768370787e-03
-4.838194594456161034e-03
-6.091968881892619384e-03
-9.447951641657898261e-03
-7.540797625444335336e-03
1.921168405528980412e-03
8.750990143411352395e-03
4.512904566142846019e-03
3.586825594558687956e-03
7.701176411831815727e-03
4.103391168857546505e-03
2.804124619557140253e-03
5.037917573093979653e-03
2.741988490428123350e-03
-1.049696351497535858e-03
-8.703412242841311944e-03
-1.460641349682146456e-02
-9.100839147838249779e-03
7.694974195905251481e-04
5.970334465875391100e-03
7.676798919436121291e-03
6.355426824951784792e-03
1.174531740902619564e-03
-9.680353403006849945e-04
-4.128405581633742827e-03
-9.723098204558060925e-03
-3.527810296341740356e-03
1.847991645020820176e-03
-2.470617264641250359e-03
-1.919967716286874069e-03
-1.691338403809053816e-03
-3.183654774910672802e-04
4.898761542919132135e-03
1.029962941489707094e-03
-6.117316206548317759e-03
-1.143322068000686247e-02
-9.386488043173029511e-03
6.437878624967111225e-03
1.541500203229068805e-02
1.285348395004204045e-02
9.151956133314920888e-03
1.223398821941596489e-03
-3.452364364369711353e-03
-4.059648048150117476e-03
-6.339002028213944033e-03
-3.654802006095629174e-03
1.919605426258286815e-04
2.369514188817228428e-03
7.961457170263688474e-03
1.072604792199126703e-02
8.411694294175190226e-03
7.241705469322031082e-03
5.441286676871261337e-03
2.318079445331753586e-04
-4.669922930523939981e-03
-8.311594107637687232e-03
-8.116359629272436316e-03
-2.608900857366848024e-03
-3.847110014449455894e-03
-9.823018974752515883e-03
-5.798624106257106031e-03
1.788608017786685823e-04
-3.041182706369042490e-04
-6.112143747546401953e-03
-1.429676700720171161e-02
-7.979827424565596322e-03
8.413608604914057584e-03
1.068817877659824361e-02
4.694851065807922365e-03
3.158750708686696666e-03
7.217842642579995428e-04
-3.048008808109310425e-03
-1.323720184977278521e-03
4.334888534447664359e-03
7.175614794463972337e-03
4.679959222181136365e-03
-1.310888167301556793e-03
-1.380976253973437238e-03
3.622581439434497622e-03
2.269441877235124031e-03
2.917338331967405610e-03
4.506023968925450783e-03
-4.110382759856036697e-03
-7.239620508552152209e-03
-1.720314611073847470e-03
2.513479349860587003e-04
-1.643233134764632633e-03
-7.276688147502637614e-03
-7.003021340132382228e-03
3.290080641753291048e-04
4.117991860459260800e-03
5.872819983239259585e-03
1.975290239443668223e-03
-3.381608647403008296e-03
-1.110903885751143112e-03
-1.267003784919762269e-03
-3.418685251598749947e-03
-6.422014049190772310e-04
2.562879880354472159e-03
4.935180353776644213e-03
6.045108807659276690e-03
3.967346329809723869e-03
-3.988875683173413798e-04
-1.415682014886336876e-03
1.911721400083783500e-03
1.149079546149397741e-03
-1.300957710091095237e-03
1.555780748299441822e-03
4.957209571370617233e-03
2.907171666320293273e-03
-2.469437964740066153e-03
-2.500814759524848472e-03
1.464578954203170705e-03
8.433428281533951075e-04
-3.041634943714095676e-03
-8.605026365050852388e-03
-1.165933599797695959e-02
-8.935709273430771094e-03
-8.831984991897049928e-03
-6.868233573366357494e-03
2.112139820385997274e-03
6.400462877446164330e-03
8.957617756101848849e-03
1.231880236300710897e-02
8.877393844317925387e-03
7.957969255415092355e-03
9.634294314967730560e-03
4.821098248326262554e-03
-6.199212547029766488e-04
-7.337754725856762000e-03
-1.209367907052521368e-02
-9.250752088773553719e-03
-1.053656281281411568e-02
-1.211104627013119203e-02
-3.521510989913716801e-03
5.814676741634145982e-03
9.940965862827600558e-03
1.026525278504360206e-02
9.623071471561191539e-03
9.208600590097633029e-03
5.464585757660566333e-03
-3.890303535953256613e-04
-5.164385765815514805e-03
-8.048926702699497199e-03
-1.194669193660052343e-02
-1.467759987638622872e-02
-8.250040890181106062e-03
-2.212703698247674904e-04
1.827733897438676980e-03
1.285833242574887809e-03
3.320818241387612710e-04
4.099067293240665766e-03
8.749848511259544423e-03
9.818106562059466733e-03
1.063590653090123669e-02
4.680532814355578899e-03
-6.364383118327220784e-03
-1.028230111052841518e-02
-3.241084717765547064e-03
6.779785626804617736e-03
7.333577660214188852e-03
1.998560282694922079e-03
-3.613261058047699883e-03
-7.682914290045118888e-03
-3.288382362127785508e-03
3.443890254280110221e-03
5.664059304737404515e-03
2.784361700463537388e-03
-2.249277840378184623e-03
-4.136335167008676518e-03
-8.246327716263246108e-03
-5.163236106666322343e-03
6.692565058212588541e-03
8.481669751260812948e-03
9.069541863682207758e-03
6.412795702468890996e-03
-4.597289846141656804e-03
-8.260650104493665047e-03
-1.550243761808342211e-02
-1.548305306439016343e-02
3.513410418730905215e-03
7.777586426128546039e-03
1.514937861252873543e-03
1.221429754138482135e-03
4.051006975232976197e-04
4.417823372210925685e-03
6.305861777874823861e-03
4.051525608606080728e-03
2.997820409807365992e-03
-3.204664343199584500e-03
-6.015365503846306638e-03
-1.884030582931437575e-03
2.817001274929347050e-03
6.239285035643614592e-03
3.145387406160225600e-03
-1.465081343912885171e-03
-3.367892182701607683e-03
-3.888973188759566567e-03
-1.358754894068333469e-03
-7.869839761709200273e-04
-1.017404631870288262e-03
-3.049456232602013907e-03
-1.110273551073564895e-02
-1.081908043249429040e-02
-1.248031184363120613e-03
8.597892462680856943e-04
-1.774846538499710597e-03
1.061255842030453056e-03
6.201083042984945927e-03
5.684306709654737833e-03
2.220270098164450843e-03
3.088398839686840470e-03
4.179471812722266796e-03
3.474994018283199520e-03
4.456179068822401987e-03
1.661352543859505228e-03
-3.940080954019272753e-03
-1.381161412146225459e-03
6.512901652012441193e-03
9.496326006952233306e-03
8.702904951723749311e-03
6.807106959327766799e-03
2.302946628157342274e-03
-1.299630642686174864e-03
-3.298938951605139697e-03
-4.882066000838822944e-03
-1.188904780511100589e-03
1.746838875730034619e-03
-1.346771134045355841e-03
-6.039364080551191125e-04
-5.975736734597699449e-04
-7.028107574345079760e-03
-6.614077087420437533e-03
-6.192872089556184824e-04
-1.671611733510746864e-04
-4.147828547814661794e-03
-1.143223651286353303e-02
-1.657796221630795236e-02
-1.171826460454385675e-02
-5.239439475109608155e-03
-4.426158818439943771e-03
-2.726087407793793393e-03
-9.492321429674187684e-04
-1.493644326891237738e-03
2.633834361300424302e-03
6.911498167664036595e-03
3.590908458213834791e-03
-1.175670642999270335e-03
-3.460822613359656151e-03
-3.814436304345217906e-03
-5.272715243430883174e-04
5.652695334796124967e-03
1.335350162110906895e-02
2.065680870634192812e-02
2.235657128321879780e-02
1.635665157477813464e-02
9.067951256959149581e-03
7.919826918982922348e-03
1.024372144423032864e-02
8.137792240333528715e-03
4.106741674982973718e-03
2.567246246151468157e-03
-2.095091570043399083e-03
-6.798841007988251466e-03
-6.477581271698924260e-03
-6.230580132116997349e-03
-2.809498638743625817e-03
1.289005336036153299e-03
-1.427236666656998398e-03
-3.262434410967242696e-03
-4.595370093253768086e-03
-7.989109032683530676e-03
-8.216424854285879834e-03
-1.095743882181813081e-02
-1.886493191466917171e-02
-2.919231080177801460e-02
-3.896389058709606029e-02
-3.862481838305956150e-02
-3.036000807831611484e-02
-2.365503261701048035e-02
-1.238592744541053975e-02
9.052866359001982346e-03
2.625518789606497150e-02
2.738613501999612870e-02
2.195811518538585624e-02
1.982404732576863518e-02
1.930973181800372737e-02
1.692323708279157637e-02
1.507752898073014616e-02
1.728960335789809025e-02
1.768391260937227788e-02
1.624791820337201376e-02
1.860094148291103686e-02
1.840435254644625512e-02
1.492057928258412949e-02
1.125549345502257353e-02
5.050091024460763751e-03
3.051224499125748061e-03
6.010293191332402064e-03
5.945417398151411729e-03
5.382894426540854767e-03
3.401394812777362633e-03
-5.549649611048843717e-03
-1.420387785057501857e-02
-1.792449197707144531e-02
-2.001184859749917389e-02
-1.607884978575294457e-02
-1.020525674775753407e-02
-1.564262521583006244e-02
-2.766321014086326954e-02
-3.464634262947992316e-02
-3.506729337731820384e-02
-3.006423532568392940e-02
-1.943971491507701099e-02
-4.870955327818585374e-03
7.266081586618626693e-03
1.465838185868521132e-02
2.040622620013109526e-02
2.070599522878723356e-02
1.375091216174269618e-02
6.883691718852214675e-03
4.307974403950642905e-03
8.327697720228221037e-03
1.454312202049497932e-02
8.906135131123026419e-03
-1.122329288449315683e-03
4.409491762010729339e-04
2.523401379949426725e-03
-1.376817916434100279e-03
-3.688370721228711145e-03
-2.214818452223555386e-03
5.442349458672445482e-03
1.086147310496399926e-02
9.395699728767850298e-03
9.252086401131155713e-03
4.144766439502800721e-03
-5.519130380889234778e-03
-4.543205675625021020e-03
6.049914856934800016e-03
1.238689402274917827e-02
7.994365819201017589e-03
1.997279825401444050e-03
7.399951091726990034e-04
-3.069173954490671307e-04
-1.398079398072597009e-03
-1.591198308568738751e-03
-6.237264261218849679e-04
-1.100621822820062930e-05
1.559814446911289955e-04
1.875728949391738086e-03
-1.093063311079289952e-03
-5.432805578188545405e-03
-4.384125492362145847e-03
-4.022724207988594321e-03
-3.593601352398439943e-03
-3.599832069868229550e-03
-7.160409815156438401e-03
-8.827561170474774316e-03
-8.280295527934642200e-03
-5.984818567028172068e-03
-3.782489048218165128e-03
-8.109219272513132695e-03
-1.386888223604531775e-02
-1.285887317265044412e-02
-9.919006730361308935e-03
-1.028808701789740536e-02
-9.543103810386420124e-03
-6.024751747092315160e-03
-1.627141534881145803e-03
-3.313114868200251958e-04
-3.540381469724408672e-03
2.353781669398017154e-03
1.441260748810513879e-02
1.650452900960587208e-02
1.317831927276877542e-02
6.400369322215719754e-03
2.811702251726498278e-03
8.968505293871747996e-03
1.346095452902714741e-02
1.928613514807673082e-02
2.528930921345613064e-02
2.315522173984700324e-02
1.385172912591140990e-02
-1.641170416812435216e-03
-6.419039626778094351e-03
-2.520785562339088268e-03
-5.034158975934979047e-04
9.242939253117468321e-03
1.500419375910169717e-02
1.865292917295467701e-02
1.843825911589317551e-02
4.864059402368891248e-03
1.045031881891717550e-02
6.695571890945066842e-03
-3.046089294821018034e-02
-3.523560454375294221e-02
-2.071759616979557128e-02
-2.767693181144056241e-02
-3.069918662251453628e-02
-2.777703654019200719e-02
-2.122304721715246451e-02
-1.353558706435393534e-02
-1.674712513225363672e-02
-2.099880863510496937e-02
-2.196997568262505293e-02
-1.698024854420570121e-02
-7.805953468575856959e-03
4.773101860530484623e-03
3.105066885269434918e-02
4.788890720478706370e-02
4.006309956591060789e-02
2.903262839965488340e-02
1.815512911269774252e-02
4.899733682113466271e-03
-1.878371912585138958e-03
1.666301714196855976e-04
3.905702031595045635e-03
5.742172027476445846e-03
9.728453135188809553e-03
9.494349227871876767e-03
6.777427566573396636e-03
1.057625061054534923e-02
8.089551900996796649e-03
-5.827297715400731222e-03
-2.255393519114928108e-02
-3.495394548372010579e-02
-3.268236850489266571e-02
-2.268067365376660871e-02
-1.663805319402996558e-02
-8.708082329625367601e-03
3.109005768558997015e-03
1.507820065650428837e-02
2.378854271610904292e-02
2.450235431150417365e-02
2.178336173366406114e-02
1.919401198509647355e-02
1.237636398790852195e-02
6.215513979752796889e-03
2.751396342036313038e-03
-1.854324319848784904e-03
3.068746377870441334e-03
1.738908213109441672e-02
2.065110611952251582e-02
9.148582142951588655e-03
8.248677606090075963e-05
2.833933252269414844e-03
5.380035115199372636e-03
3.935054738967584502e-03
9.040238665803886770e-03
1.506700251596557356e-02
2.213053240558564977e-02
3.151994487892807728e-02
3.228502472593566819e-02
3.262586051265797121e-02
2.141922017953340474e-02
-1.476297577028352036e-02
-4.659434744475748208e-02
-7.044015007775153436e-02
-8.970309312249365175e-02
-9.545190743142460688e-02
-1.052694602237360666e-01
-1.045936977840322274e-01
-8.293586934796914889e-02
-7.251254668983907192e-02
-6.881611328484568690e-02
-5.033801646469480973e-02
-1.194451303898063635e-03
6.637118160306192116e-02
9.126288553682157523e-02
7.175110342345920877e-02
5.429000064430161004e-02
4.621703384178683233e-02
4.882427930952593087e-02
6.706502056214427854e-02
1.006182256339098330e-01
1.326097567420936596e-01
1.282523865294393772e-01
8.966645148071217264e-02
4.709895748117506886e-02
1.507287311938069509e-02
-8.958714820379808791e-03
-2.397915512956355286e-02
-2.039578762351678884e-02
-1.793378151403747164e-02
-2.635934171756511638e-02
-1.736805152021165047e-02
-7.293892488799665411e-03
-2.180781806058188291e-02
-3.542975232302702365e-02
-5.051557400320054458e-02
-8.835513550760157320e-02
-1.214083955374496426e-01
-1.398024315302524856e-01
-1.668120785601088230e-01
-1.786615417536932537e-01
-1.544270970363315898e-01
-1.159296509036670947e-01
-4.983375732027554156e-02
7.965625289175440327e-02
2.418630734535266447e-01
3.344986258570611382e-01
3.129126995422460422e-01
2.266354213958676200e-01
9.895206472816182874e-02
-2.400424256933455722e-02
-5.823205575658635391e-02
-4.422940330415960769e-02
-8.138244250616906428e-02
-1.378511322043819709e-01
-1.268322118780896846e-01
-1.058443479941384435e-01
-1.274050843776548536e-01
-1.070816181172844772e-01
-5.745389467715558696e-02
-1.635287241741912798e-02
2.896113082863061711e-02
1.540577056667190650e-02
-2.331890319635458036e-02
-3.782762937903642875e-02
-4.115605278253896271e-02
2.673580582602621408e-02
1.414083302842522594e-01
2.571459938825459979e-01
3.242196441473710333e-01
2.413525613660093549e-01
8.652124579421804906e-02
-3.419892108224727167e-02
-8.356992388244256775e-02
-5.622426703337164017e-02
-1.888245355730538977e-02
4.931940519434674375e-02
9.862812899406414591e-02
1.055994290572552369e-01
1.751641394674050556e-01
1.278400915359063084e-01
-9.819342464817262806e-02
-2.552718521196457591e-01
-3.120501743762049141e-01
-3.044971185769416722e-01
-2.586952115185769396e-01
-2.308545584235694725e-01
-1.761442499284136265e-01
-1.085851891992410390e-01
-6.930223267174429047e-02
-8.957994831931183344e-02
-1.561476479771721770e-01
-1.398057008001737933e-01
-2.993712893675294293e-02
1.244623948273127084e-01
2.798974562799411703e-01
3.132174899450410610e-01
2.500899751587176700e-01
1.758116085927652061e-01
8.971293356725439094e-02
5.000428247776508850e-02
5.714173528811533620e-02
5.416671180822210663e-02
7.901148860038466337e-02
1.352899680393087056e-01
1.503027709864070693e-01
1.047325948250590610e-01
5.094405822933446848e-02
3.635864297400559497e-02
2.592679846961085111e-02
-2.327660239541111398e-02
-5.870903660349476028e-02
-6.227281708635634683e-02
-8.148840088166264817e-02
-9.652284870944580208e-02
-9.073125113866878366e-02
-8.656251678618261114e-02
-7.976936249964060310e-02
-7.283713964682292374e-02
-6.396772273517084550e-02
-5.001647243729174380e-02
-4.387197870283705836e-02
-3.943248411812140530e-02
-3.270026374279998149e-02
-2.907591968806776117e-02
-2.638323933089099446e-02
-2.110568006179952549e-02
-1.844730679372369453e-02
-2.089516316824464176e-02
-1.543405250873161258e-02
-1.197773305203504550e-02
-1.205472915221368103e-02
3.410716332676017211e-03
2.158440704379541511e-02
3.888892339471166498e-02
4.128862371477098892e-02
2.137481953301574589e-02
3.179843672852125658e-02
6.601815921292827904e-02
7.918469193307349496e-02
5.517587041779741658e-02
-1.228479601350124933e-02
-4.885992441922579893e-02
-1.428685366999881724e-02
1.957526928772012481e-02
3.109743721183290052e-02
3.652322816447980264e-02
3.268804312790678235e-02
2.828418335736741437e-02
2.605310794113837800e-02
2.530421518336968198e-02
1.994926563292645505e-02
2.044021049918691175e-03
-2.046824428693925363e-02
-2.996921575048348482e-02
-1.797562978767036634e-02
-5.942274391438085064e-03
-3.515565338264075180e-03
4.843014358726432055e-05
-5.613268486000088785e-05
-7.765631720395275604e-04
-5.947868241541795064e-04
-3.066465520802940260e-03
-5.552825774998974666e-03
-1.325495543515508787e-02
-1.707289620389225437e-02
-1.467970423145980967e-02
-1.398343277822274022e-02
-8.558510937934830573e-03
-8.926763693783919956e-03
-1.602258983652137675e-02
-1.516993515321453205e-02
-1.197404329999740905e-02
-1.033904683220610542e-02
-7.599282259864387559e-03
-3.067980528348617994e-03
-4.127832341514956621e-03
-8.521680102484760488e-03
-3.299255503206758450e-03
1.354822532540872178e-03
5.156626354722188346e-03
9.527807384779549485e-03
5.706052576027340929e-03
6.664604809996257755e-03
8.241794593091690546e-03
6.301587522540257578e-03
6.871680319846511925e-03
8.278703901955952738e-03
1.685866374095405101e-02
1.179520568304981290e-03
-2.991185736746674456e-02
-1.661170000611290887e-02
4.737821642794008692e-03
3.514429543897111714e-03
7.531121153322911654e-03
6.400623481829843635e-03
5.002493562613964965e-04
-3.384748173875088187e-04
-2.239427638539273971e-03
-4.987504193996251597e-03
-8.258082830047541040e-03
-2.981428062572645359e-03
3.108913702192718943e-03
-1.039453033292499478e-03
-3.508054310594655063e-03
-3.698393686692177419e-03
-5.489311562624788745e-04
5.250586567295474280e-03
6.322353033448115112e-03
5.794032449006539590e-03
1.309297245753988839e-03
-2.715622859561098515e-03
-2.415341383358497827e-03
-3.503786975040925223e-03
-2.032510170937888369e-04
4.556147476825206898e-03
3.394191947970366663e-03
1.054443130852333920e-03
2.154558898027789712e-03
3.954539498807430227e-03
5.119033616427968395e-04
-5.372757435828266412e-04
1.345360221646890383e-03
-2.512503556611522196e-03
-4.890220594509184747e-03
-4.973655030805290179e-03
-1.719295727620091157e-03
4.401609468884130211e-03
3.265514366508394124e-03
2.969211874034877706e-03
2.991447383799512080e-03
-1.016655304117632976e-03
-9.451808425389829176e-04
-1.236664643694416728e-03
2.208117478718363454e-03
4.815438426882744441e-03
-2.957658329272772838e-03
-3.730748607525700197e-03
2.593265668841808090e-04
1.235394503727481287e-03
4.648845412549010118e-03
4.244688868339997062e-03
1.591306897196942622e-03
-1.243353949557603113e-03
-3.034827731986762360e-03
-2.593714277068600704e-03
-1.821584386973952238e-03
4.346336400404398129e-03
6.752151498451875768e-03
9.624919431428562155e-03
5.690461413422090789e-03
-2.897013966713923167e-02
-3.699832509387562807e-02
-5.943376698075056959e-04
1.179973447090698277e-02
9.452729977384178792e-03
1.168956396469656572e-02
5.775604078689828245e-03
4.863378698693326084e-03
1.764637245472982108e-03
-2.115952370737483185e-03
-1.478071130897547431e-03
-9.225331746719793446e-03
-1.110671422656760166e-02
-4.756352958368265105e-03
-2.613448659417424731e-03
-2.943901844030818668e-05
2.669382907622383158e-03
5.306989796044196510e-03
8.435657709727159906e-03
7.160105276778373599e-03
1.508034155969759571e-03
-3.775563730247568153e-03
-3.922239342260647882e-03
1.712425855591276271e-03
5.847947038683521705e-03
2.047362960706134490e-03
-2.463886942489675860e-05
1.690893333891562355e-03
-2.012247583613246699e-03
-1.384555166307510935e-03
4.206436922320700746e-03
4.588995063385423005e-03
3.288864473804176732e-03
-1.306936879770877321e-03
-5.769773330972246747e-03
-3.212921113829211341e-03
5.562435560039245353e-04
3.420742427566342194e-03
4.316103038663131677e-03
-1.725841094792883597e-04
-5.882677909064527866e-03
-6.924118036549901066e-03
-4.814646529969312042e-03
-1.503885415327689068e-03
1.696349581892541737e-03
4.620820403545587230e-04
4.288129078106455447e-04
1.712177006232096276e-03
-6.240100319666842203e-04
1.632157401267491856e-03
2.284676112504124314e-03
-1.601841145623218244e-03
-9.967154238513184234e-04
-3.960776744559468820e-03
-6.756407885000206663e-03
-1.761833667739618565e-03
5.043555540548728088e-03
9.577554020671919313e-03
7.763649077947535650e-03
5.035059797986532470e-03
1.142228917379895046e-03
-2.068691916892196063e-04
3.453855372179265304e-03
-1.433321815382762078e-02
-2.740149794350447976e-02
-1.989448794206935024e-03
1.251117002471850703e-02
5.342327947403597427e-03
6.673006836769521284e-03
6.122650513996687541e-03
4.916208102562708362e-03
6.877811901055018093e-03
1.862456856508247971e-03
-5.028075396194865015e-03
-1.077855609091737596e-02
-1.397011473059737996e-02
-1.077228225161948674e-02
-2.360565892734484226e-03
6.470409264600609535e-03
7.629862520086364876e-03
3.410508271041091510e-03
1.220185882452465200e-03
2.474329727692204176e-03
5.233008612472074723e-03
4.183458704695513022e-03
1.364271358933144941e-03
-1.495522511506938582e-03
-6.112720904345779992e-03
-4.900434264925928804e-03
9.567437799216976704e-04
2.703513846597419175e-03
1.350386984443265048e-03
-1.086937297368622841e-03
-3.739810009933148584e-03
-3.982267445825682199e-03
-9.583300792919014627e-04
1.504436901404398227e-03
2.468627888776013003e-03
4.597870356986251753e-03
2.558163984031237154e-03
-2.706004713968844684e-03
-3.112084043517117198e-03
-1.011369965854701366e-03
6.955086588242571487e-04
2.341394436001936925e-03
2.255689284357141524e-03
-1.118473429336164530e-03
-3.660373842327214241e-03
-1.531492361664274233e-03
-3.098681924116411263e-04
1.246312245675910675e-03
3.300489919983195727e-03
9.078624988856325961e-05
-1.835264382565731343e-03
-1.878197380656986687e-03
-3.214920606919842525e-03
-2.256102337088900043e-03
1.544229406370727911e-03
6.486411593431740466e-03
4.654744598112080418e-03
-1.661924775430501989e-04
-1.376396644875524941e-03
-6.070389452303105379e-04
6.228708683082338424e-03
6.118256539534226192e-03
4.911602723834696330e-03
7.891204951655857169e-03
-1.617168050617102948e-02
-2.791235396895849416e-02
1.022217190641904784e-03
9.978579867637858702e-03
2.977560782179968987e-03
5.071336002593896525e-03
-7.130704928731173209e-04
-3.593481718766457743e-03
-1.449574274242723063e-03
-1.995427612762668869e-03
-1.809171605070308136e-03
-2.217682697350683609e-03
-4.847644191660412279e-04
9.303943208904600064e-04
1.862220273702937853e-03
2.504118111579893818e-03
1.121335088717532449e-03
3.119698761213999996e-03
2.228384149609954987e-03
-8.906232018962729211e-04
5.985548712387039590e-04
-1.217093131986372390e-03
-2.802156025159490901e-03
-3.011245118589134890e-04
-1.606310307056192871e-03
-1.970181762475530299e-03
1.386478935097132338e-03
8.081206786057006661e-06
-3.119449873711461953e-04
6.444016918454113438e-03
8.218720581672301143e-03
3.035312193679135743e-03
-3.103163327113114735e-03
-7.830952985620127579e-03
-6.886356979193379753e-03
-6.629810573444389066e-03
-7.033585430899795196e-03
-2.309330937936356250e-03
4.114217257412571059e-04
1.664706083092495296e-03
4.211099009573645961e-03
5.724601244453350959e-03
5.947466735321936364e-03
5.902065499719519846e-03
7.609578330997146881e-03
4.955448064581046558e-03
6.921043267794824063e-04
-3.367653077505338701e-04
-2.869784637526932945e-03
-2.037163409630041405e-04
2.540620811819456221e-03
-7.589346283456792613e-04
-2.538073096027680664e-03
-6.354867179491715048e-03
-7.542589567872463180e-03
-4.782069869135775406e-03
-2.111507842120836052e-03
4.381764397971102051e-03
6.228119657692371761e-03
4.171607232675007652e-03
3.800784556032803761e-03
6.980251800749066697e-03
5.014387790458853245e-03
-1.968614901749664303e-02
-2.582373633777191799e-02
2.336361526574886899e-03
7.594771085116446170e-03
-1.276983864249064222e-03
2.079611730282499710e-03
2.181842513720644826e-03
4.629289855536434205e-03
6.398312041562030476e-03
2.357172306244051645e-03
9.552725391642473852e-04
-3.904484794135550454e-03
-9.241465298157202843e-03
-5.348949642311679950e-03
3.567515345896175687e-03
7.062134549664548545e-03
6.182045642369442956e-03
9.002142577577875587e-03
7.681451811069507293e-03
1.393793338087017091e-03
-1.218981406330287617e-03
-3.203590753157524278e-03
-5.449627978085368196e-03
-8.644059312336941844e-03
-1.010451598041352955e-02
-7.022540656879890618e-03
-2.701592697366263750e-03
7.192863356520461451e-03
1.190022153497611104e-02
2.405736921425353017e-03
-2.632977224651038978e-03
-2.522549046636263659e-03
-5.513799675592020479e-03
-3.572830616155558362e-03
1.872624063984750474e-03
4.379963470105055316e-03
3.218036032737678093e-03
4.969243875524446052e-04
9.265325696688220822e-04
3.870955607528909267e-03
4.965067624045518477e-03
4.576019781664300741e-03
3.050246455802456055e-03
-3.130030708391398284e-03
-7.310822664829134260e-03
-4.223888308790581941e-03
-2.911715726374465834e-03
8.113989234327208732e-04
7.300831891168922325e-03
3.291360489793173152e-03
-8.339335397800703856e-04
2.413077971824380752e-04
-2.672268889019195279e-03
-4.133793707594252478e-03
-3.120084056269488166e-03
-1.104484494260994524e-03
1.740053614416727000e-03
3.340973925855011701e-03
3.771876122941395740e-03
-6.356882296246446325e-04
1.241215855755150926e-03
1.272861509567947864e-03
-1.984201914125687666e-02
-2.289622541132665251e-02
-2.076630567921760716e-04
5.771167155247411071e-03
4.557185484142356469e-03
8.109158376973086418e-03
9.013864099187448090e-03
9.370279007932245594e-03
4.387103046867275521e-03
1.241454483732646946e-03
7.127347531283521323e-04
-1.773705629758517022e-03
1.198064746932324355e-03
-6.736844759894770234e-04
-4.896005599367296394e-03
-2.810008672810895554e-04
1.285273222707440351e-03
4.220525775618290550e-04
2.719705032170367928e-04
-3.669380085900743197e-04
4.762864183228351228e-03
5.312686715764174117e-03
-1.254847325411534865e-03
-2.135257486787013690e-03
-3.178156661322721643e-04
3.448186288919706088e-04
1.614709211637040771e-03
1.262875734693249489e-03
-2.016129178343586178e-03
-6.522760632615082557e-03
-7.877802556358110345e-03
-5.345183503162457758e-03
-6.284943886633679319e-04
1.758578372278785497e-03
-2.632039835278343967e-03
-3.287493752919677398e-03
1.442852026739958448e-03
-1.111300243546635105e-04
-1.235604122761900861e-03
1.708909918235351462e-03
1.326050502091078841e-03
-1.668049495598131009e-04
-1.690122790978813763e-03
-1.298754891041882477e-03
3.132533685089478916e-03
6.292665010952019043e-03
5.145984639096703658e-03
4.554243056527744211e-04
-1.931137541978973507e-03
-1.353472635602369877e-03
-2.950588829162529084e-03
-8.059795207241229626e-04
4.860594503681815205e-03
5.967839990496537177e-03
3.623621247349153359e-03
-2.067275164512938682e-04
-1.553372212205119058e-03
1.529997222076168607e-03
2.659623599340190173e-03
2.523444283916559654e-03
4.956748486542103017e-03
3.844730885133645394e-03
-3.315791441081273293e-03
-6.666485300891885832e-03
-4.588979054220686943e-03
-4.096155175153258846e-03
-2.237171566629806915e-03
-4.523098569506829635e-04
-2.997461190647928743e-03
-2.583858268610679781e-03
-7.228256845400400686e-04
-1.134506924764236511e-03
2.889638344696656130e-03
6.091684215677154943e-03
2.474194030622270651e-03
-1.385442280270635063e-04
-2.736325688773046366e-03
-7.726369457353463553e-03
-5.100185249728931246e-03
4.096809216018720140e-03
6.075949900680610583e-03
-3.049827555591432064e-05
-3.221337859434675668e-03
-2.072470244002270947e-03
-6.966376479475931000e-04
3.014546132039489044e-03
3.791234618199712438e-03
-1.126072194817085955e-03
-1.947959949267441320e-03
-1.356575179516045313e-03
-2.061628508464580581e-03
1.016361468804341181e-03
2.394177940653039339e-03
1.876656207179455650e-03
2.902001203949709091e-03
1.611370560145924643e-03
-3.286414787749910205e-04
-3.096502028621909449e-05
1.310535127389403105e-03
2.822261293745486222e-03
2.431529526581035269e-03
-2.295518686959974880e-03
-7.707213130306872148e-03
-6.747457558790044725e-03
1.385662664307486260e-04
6.332099649997388266e-03
7.639651014523029388e-03
6.493682929989393407e-03
3.090867676714439006e-03
-3.756104481907161004e-03
-5.774984418844895766e-03
-3.005251224544828494e-03
-2.887449579138121405e-04
3.046219405882235123e-03
9.255919796703076814e-04
-2.092534618887833837e-03
-2.552837072303554711e-03
-6.278874460796736966e-03
-4.273219257265589016e-03
1.510708751550687064e-03
1.485712019262745622e-03
2.181525173261862236e-04
-1.500179734360115500e-04
-4.775230550246050863e-04
-1.209391230624567168e-03
2.632552029730004725e-03
8.165543023479824788e-03
4.187892482479198437e-03
-1.939120306141637121e-03
-4.899331101018259554e-03
-5.204150765008803969e-03
-1.245759528836706560e-03
1.952795101874691850e-03
4.912503231509931373e-03
4.958379599654688490e-03
3.848641452000756136e-03
5.329708024472200149e-03
3.143948668052358366e-03
4.049281273810191595e-03
6.998589961132215855e-03
5.236810665332623793e-03
1.597837095595693426e-03
-3.770874450379595611e-03
-6.551041731440947376e-03
-1.724795357334561741e-02
-2.643041270968424575e-02
-7.451437790663195497e-03
8.443907037789827319e-03
3.853505574276122007e-03
5.662164969316658752e-04
-3.094575139143504027e-03
-3.049670771879509079e-03
2.580217264351051133e-03
4.656297262037330416e-03
3.809719002782553741e-03
-5.700938677063804123e-04
-2.191587356016841057e-03
4.816245536274276970e-04
2.200443727620332753e-03
4.671424376854900126e-03
4.315714157365898099e-03
7.694547950820236929e-04
-2.933252907207611025e-03
-4.180177865720216199e-03
1.037929580814765575e-03
6.606786850924025595e-03
8.610055615657804390e-03
7.229030823213349055e-03
4.483411259440660984e-04
-4.937530810197942460e-03
-4.707134121581168715e-03
-2.448385589523596143e-03
-1.589603744547286542e-04
7.330401233723098878e-04
1.273605975979965601e-03
1.328164971796673248e-03
-5.492005554921302810e-04
-1.351281171357400458e-03
1.372115922443467562e-04
2.011814974305946909e-03
1.698219250014157975e-03
-1.384775594254054583e-03
-3.931982334169296066e-03
-4.389525246278236544e-03
-1.644045549841156124e-03
1.031718089549204034e-03
3.004672287273390304e-03
8.879383959044612196e-03
7.063972453189524062e-03
-5.821166862911948073e-04
-2.339448280171229581e-03
-6.013380239432289560e-03
-1.357316519179752696e-03
4.271965675748502257e-03
-9.288021995650829398e-05
8.185736899515703990e-03
-5.445337112210072578e-03
-3.493023737499489217e-02
-1.236476550406070789e-02
1.269235633304831821e-02
5.758088030785859721e-03
7.401163152842121437e-03
4.565037727153742689e-03
1.910178974129454841e-03
5.986117223013670899e-03
-9.978815016394653684e-04
-2.978025468862390782e-03
-4.642727336101448027e-03
-9.828920457104289854e-03
-2.340857449547238851e-03
4.467666154231941800e-03
2.831448734467757744e-03
3.230711036824414871e-03
7.294424864189781241e-03
7.496107320744724301e-03
2.727544844308578062e-03
-1.147291475963783513e-03
-4.283486027499562067e-03
-2.456577030555788955e-03
2.778261174717729185e-03
2.529000425041031449e-03
-1.394186529460084232e-03
-4.419761967400355485e-03
-2.015431161552371127e-03
3.689845654283369536e-04
-6.679249670067785496e-04
3.441667824221088766e-03
5.140115846005223130e-03
1.108222967852906396e-03
-2.784034544024927764e-04
-2.549581439736735289e-03
-4.280335734924763103e-03
-5.832899746690420545e-04
3.259762850361182327e-03
2.097543554619501257e-03
7.344769552842012094e-04
2.420242444286981303e-03
9.493086436529300527e-04
-1.307672642605837206e-03
-8.519877385953611004e-04
-3.088751307821494462e-04
5.188277764075452684e-04
-1.272818463145097140e-03
-2.345441152625877840e-03
-2.367864382787421350e-04
-1.155100686205268656e-03
-2.293818741512470769e-03
-4.537354996248390377e-04
-7.603277697067322566e-04
-3.764185071427667787e-03
-1.259545868174642138e-03
2.537088823401420674e-03
1.428988960483135911e-03
4.771500772032447220e-03
4.059579942787150224e-03
3.263827673279776943e-03
6.758890458168542205e-03
-1.528176730696931100e-02
-2.566100414225648205e-02
2.757413938106563142e-03
1.053877521680196029e-02
4.619468317845949051e-03
7.881064996918639778e-03
-4.685206379455669713e-04
-2.753749150240725023e-03
1.657343173873097918e-03
1.030546849915815267e-03
3.462372786938272377e-03
9.436953223213579009e-04
-4.724635965551584466e-03
-7.727404537241537065e-03
-5.318227911091280569e-03
4.625646330932916238e-03
8.630265098171652910e-03
6.013877832060686782e-03
3.558138743011928645e-03
1.467154885423967896e-03
2.322247478526502217e-03
4.044234286539563628e-03
3.848148107625524832e-03
1.622897379806674490e-03
2.542718149149963015e-04
-2.010582246019595662e-03
-6.634109639359287748e-03
-6.565434651841154171e-03
-3.637838070021068380e-03
6.562051242283767002e-04
3.628140445458022650e-03
-1.861640588700933614e-03
-6.337234805676325751e-03
-4.831830473614355699e-03
-2.657424878254926494e-03
-4.625933916273307378e-05
1.935080406969109500e-03
1.361325602899702636e-03
-2.565824202971908347e-03
-5.105718949232690256e-03
-4.965485329918320478e-03
-3.612275722476084895e-03
6.203007001100669868e-04
4.009419076392775963e-03
6.941564362592756061e-03
6.267598994182244435e-03
1.862469660759919279e-03
2.445170975117055227e-03
2.303539554459138172e-03
3.007829413003689466e-03
6.487991711468027965e-03
3.558494930715729032e-03
-1.198262704690858252e-03
-3.290365107138783479e-03
-9.881597878767212854e-04
1.175442979442048149e-03
1.811139828304498796e-03
6.784152188039765073e-03
5.819391738305108169e-03
2.565808297497781335e-03
9.796416569235522932e-04
8.647547536714548025e-04
4.621041192776044471e-03
-1.400587999524605110e-02
-2.740544142617976076e-02
-5.818911818139682265e-03
5.795525090159683694e-04
-4.011360751461976251e-03
2.691310359652889211e-03
2.907800825848070366e-03
4.861522386919907637e-03
4.774998637738568467e-03
7.093241038688834384e-04
-5.971260241614539943e-04
-3.945482221792745783e-03
-5.912931896370577983e-04
-9.403189299879495967e-04
-5.431731047581284805e-03
1.874529375181786025e-03
5.507919196123057907e-03
2.624985573533017771e-03
2.999755685883521636e-03
2.975068595685744204e-03
1.677397440084748767e-03
9.107154650511477484e-04
1.150778105048990183e-04
-2.821102563498209276e-03
-7.751630330068020897e-04
4.260705294955369205e-03
3.720071055650372039e-03
4.673758981871831315e-03
3.194282430800708585e-03
-1.466153200934336865e-03
-1.906377235523450033e-03
-3.900023160670552241e-03
-2.765764616438758094e-03
2.796055833267007025e-03
3.088680474118728984e-03
-1.394206709165274295e-03
-5.102092558413172385e-03
-3.767207681814599852e-03
-2.422375080942999748e-03
-1.697084466863471672e-03
2.690231492575153368e-03
3.719618571450851972e-03
-2.679110282084346288e-04
-4.966167958351921756e-03
-4.962109681796258477e-03
-9.605941674902773969e-05
1.067403044226335239e-03
1.622081375717874391e-03
1.919644343059700737e-03
-1.143764817012274696e-03
-5.127559075969502240e-04
-6.942253111493138082e-04
-3.066442300445355613e-03
7.992671992009615966e-04
4.865109769662147657e-03
3.690344897925352911e-03
2.128221546562669708e-03
3.065229409777059117e-03
4.348698381331926772e-03
4.737400029129545248e-03
6.298992158487963858e-03
4.138809100127122109e-03
-2.179688186715176244e-03
-3.802708375938094153e-03
-6.160309580718184574e-03
-1.084899966861033009e-02
-4.604638192306316144e-03
5.437392277934348372e-03
5.482916495792819998e-03
-3.741821746778050740e-04
-5.856538037764307848e-03
-5.585104110097017897e-03
-2.523274479001475249e-04
1.968587101697675829e-03
1.212635163795509376e-03
8.276159476404029670e-04
-1.164509126937809643e-03
-3.530062254184813866e-03
3.825281022307382324e-04
6.144108078686949005e-03
3.084153664748506742e-03
-7.526547981451138644e-04
-9.635613781158218960e-04
-2.789142897570407419e-03
-2.890185932998300448e-04
1.677583541933029120e-03
-6.233417554104469984e-04
2.016867922549240438e-03
3.795789695588723707e-03
8.250412295727234521e-04
-9.885196157003125518e-04
-2.039051717506958853e-03
-2.045246616660774657e-03
1.022967900514079164e-03
4.703707773258236635e-03
2.375528460614075976e-03
-2.766896669802173820e-03
-3.097010862862849614e-03
-2.193410046799529334e-03
-6.464391447435828509e-04
1.631296930759332416e-03
3.344354039172013409e-04
-2.556960432071657147e-03
-3.997811395176785812e-03
-3.760988151029566288e-03
-2.824736115871644745e-03
1.144528362444643651e-03
6.864520023430478735e-03
5.943256780131249591e-03
1.276549874497936825e-03
-1.144416889169819250e-03
-2.360450640229042139e-03
-2.511717026495797534e-04
4.461198236664124482e-03
5.593394984967235174e-03
3.984789990039490359e-03
3.655371628373255913e-03
-1.061411169047363516e-03
-4.491133658334378782e-03
2.572180835705149479e-03
4.062265378499442525e-03
-6.918645887586400822e-04
-1.910251226588038876e-03
-3.646823944126918998e-03
-7.139802816781433935e-04
-2.649735262130776679e-04
-9.563926958581889150e-04
6.416637943616500250e-03
5.368221187445021587e-03
3.368921968549680110e-03
1.677384711171158501e-03
-8.093588554719168687e-03
-7.390458135815091735e-03
-1.477637912808443289e-02
-2.545123709156345629e-02
-6.589655165989217848e-03
7.532835285708455904e-03
5.318620467726691177e-03
8.110332580709016942e-03
8.010977441454906339e-03
6.443310058087312574e-03
2.917463183037882941e-03
-2.613160950146829926e-03
-2.947293208806557249e-03
-4.347239014905543084e-03
-3.794229747411763647e-03
2.638996419927164879e-03
6.922310756165894752e-03
4.792881080866579629e-03
3.768869383632080417e-04
1.063478800266792990e-04
1.261094308677671895e-03
1.398476090326156553e-03
2.397754303599326873e-03
4.142789131710664097e-03
5.019839661573000274e-03
6.219802923252676754e-04
-4.680277182114436427e-03
-3.712613309937210469e-03
-6.205492149223725126e-05
4.724452175702144427e-04
-1.876981495184106615e-03
-2.647391979667078170e-03
-3.067812579499156617e-03
-1.562631181909590996e-03
3.943033426019460462e-03
5.348492984905474715e-03
5.132984776084576969e-03
5.494045619540924123e-03
3.450066924373895684e-06
-4.583327816430848162e-03
-3.602453336509846282e-03
-3.031623339133994975e-03
-4.162294106788019810e-03
-3.541000087181449870e-03
-2.742659405121439589e-03
-3.596765188677643853e-03
-1.519646450335285920e-03
-3.630938458912342159e-04
-1.350626686808982903e-03
2.323678926881814384e-03
5.318843520205660848e-03
3.099521124758097129e-03
-1.348196573767492792e-03
-1.395478342818016505e-03
3.140814007365828886e-03
3.473195444826551563e-03
6.468507003856358017e-03
1.024555964940289735e-02
4.061578072282756753e-03
-7.820687073727952340e-04
-4.236265635681272720e-03
-8.820368329489238282e-03
-4.034937826843761587e-03
1.103887180800040748e-03
-2.790598790086717875e-03
-7.659214520948938627e-03
-8.175107607958143063e-03
-6.033151293444473200e-03
-1.270278098736182977e-03
3.665978029126747313e-03
5.475711286925126313e-03
8.382247435818793169e-03
5.825369472594731091e-03
