1.450667182817280730e-03
1.141098458490858066e-02
5.019796121097186078e-03
-4.608336843962391820e-04
1.337006409380105294e-03
4.429462021762106336e-03
3.365715421575050069e-03
-5.821935176472561695e-03
-8.361575229825859296e-03
-5.265203066689899680e-03
-7.375675449894338737e-03
-6.021102332160062874e-03
-9.953630559729081430e-04
4.140255185515447425e-04
-1.564603135483379854e-03
1.294741859249846265e-03
4.340075059338094864e-03
-4.713003023289389845e-03
-5.487299416879107793e-03
5.146502007143552090e-03
4.939232294410054493e-03
3.432204478402431282e-03
6.232883239199816898e-03
7.880302788436684483e-03
7.507562552591451506e-03
5.911082205401431877e-05
-3.777071796038201403e-03
6.359900836283990608e-06
1.450783469023565839e-03
1.065964495633333828e-03
-2.044834815433591892e-03
-5.325715162119722991e-03
-2.299198363121404166e-03
7.803732095035600122e-04
-9.753161830113656625e-04
4.665091053081064346e-05
4.127372629164922230e-03
6.749073718352433492e-03
8.478783182461648374e-03
2.180851187449617170e-03
1.564480532485159790e-04
7.253257681189550013e-03
-1.092057574280933842e-02
-2.854291828659261468e-02
-6.150997339292446631e-03
9.594132181146868346e-03
2.641989502796726532e-03
1.842645190644837117e-03
9.367119644219305645e-05
-3.174363014783225349e-03
-2.091586360595870317e-03
-5.177265459619440936e-03
-6.670338384887820014e-03
-3.084214181043439407e-03
-2.430084620478468408e-03
9.242732832774933462e-04
8.940049805027400903e-03
8.607052430508509502e-03
1.753471267196891718e-03
-1.627606477640077638e-03
-1.866475063610981752e-03
-1.256440246386415771e-03
-3.697000611702873558e-04
4.018569539521975862e-04
-5.903940977367487606e-04
1.623777406511383659e-03
5.089133391189785451e-03
4.391601363220479053e-04
1.880344323176292957e-04
4.235732796326361488e-03
-6.038337178919556158e-06
-1.172388615593795893e-03
4.741321698988118364e-05
-1.160314696317032209e-03
2.735004989962789559e-04
-8.743097764045823159e-04
4.411806246636916506e-04
5.617930379277651966e-03
4.572273237817814015e-03
1.221480021325661337e-03
-3.640098633770399365e-04
-2.664264617746571299e-03
-3.239736230879304395e-03
4.864123168084658858e-04
2.959010149250932559e-03
2.399285315553860952e-03
2.085575878327420012e-03
-1.879169996345254759e-03
-4.589949896839995783e-03
-6.047935114128859518e-04
1.747353330634729331e-03
-6.560166524129480356e-04
-1.935521427338228549e-03
1.518594223081733271e-03
-1.626154750676450569e-03
-1.102165034465870178e-02
-8.105562419790305131e-03
-8.728911682482129843e-04
8.444368332778285236e-04
8.714148393513095276e-04
-2.347669766443777079e-03
-1.304846080082110128e-03
1.323559146498275944e-03
-1.973447718240767777e-03
-4.291723371089364858e-03
-3.151304139419809202e-03
3.002263899961216034e-03
7.810407846057825475e-03
3.953452474678973740e-03
6.295763344246951485e-04
1.371166015702214320e-03
9.211417013838066065e-04
-6.036756542339167392e-04
1.558501209422239213e-03
4.665196635036525895e-03
3.631298071520539308e-03
3.803442509580875954e-03
3.695241305555936606e-03
1.151936210772067440e-03
5.601931854674371792e-05
-3.046235536541001734e-03
-4.057843948901725638e-03
8.611111528034647760e-04
3.972292304094026533e-03
2.091339287787133319e-03
-1.622059529078988434e-03
-1.163887416518471140e-03
6.800294755485865837e-04
-1.753514562195225123e-03
-1.909983097730385930e-03
-1.822376701614276126e-03
-5.320300337621730082e-03
-1.936698679357047332e-03
3.629303002349057103e-03
-8.723794481456240753e-06
-3.197178685451499552e-03
-1.882063327624995501e-03
-2.186919922622271393e-03
-2.869308283639722488e-03
-4.386937631760542793e-03
-2.116471700972380812e-03
2.524245822568589245e-03
8.505617175877346796e-04
1.965359325871548785e-03
1.709083190159975570e-03
-4.595761443668735721e-03
-2.403807150644582738e-05
4.962507661162909693e-03
9.514264290565032246e-04
7.110084204905989984e-04
1.755901023666666750e-03
3.488603910847785494e-03
5.607502380252983934e-03
2.632646773190895628e-03
1.824630833519253013e-04
1.562364284307332348e-03
2.024484120557366179e-03
-3.387220471268314768e-04
1.008228961002179212e-03
3.984738963168874340e-03
-4.238557102386869817e-04
-4.455584959491129191e-03
-4.345563211253827135e-03
-4.553377491865156189e-03
-2.704624409985862191e-03
-5.465427797527301710e-04
-3.673144393353090591e-04
-2.921839572473814307e-03
-3.057385092914334784e-03
2.989654118966669858e-03
3.164504157681840082e-03
-1.532998078102923477e-03
-2.781889437850992505e-03
-2.996069487312251825e-03
1.956451949607097927e-03
4.325818445354903501e-03
-2.717882712871680980e-03
-4.617795654706334345e-03
-4.028610720823819213e-03
-5.966840953146534086e-03
-1.565785280002323070e-03
1.755376502259321922e-03
1.664992156494018657e-04
1.349048667072368741e-03
3.136437674286794968e-03
3.254371022254922991e-03
2.016028010488417864e-03
4.139827239907097447e-04
-1.295076567114110595e-04
-1.976354378330810030e-04
2.233690857940011116e-03
5.107759141960088560e-03
5.617742921494119947e-03
5.156484749452351982e-03
2.956046874762128119e-03
5.028920812310738514e-04
1.768901088834631732e-03
5.529224809269099768e-03
1.733887545572725163e-03
-4.329466925790904572e-03
1.882538702882065925e-03
2.945574027321983500e-03
-5.766483253114081976e-03
-4.358527097137551536e-03
5.736444469617002885e-04
3.430908123173718061e-03
5.335315639856500446e-03
5.531197413609965571e-03
4.788042217855448365e-04
-2.193563474511926389e-02
-3.071374200212712013e-02
-8.670237073098312902e-03
2.158076090712157061e-03
-7.220712162152850616e-04
-9.124066930211992570e-05
1.725906627838437631e-03
5.823370644750409768e-03
3.433734152836960020e-03
7.538224419300489998e-04
3.377495619861931638e-03
3.330959187620098801e-04
-7.292261168488706679e-04
2.654721586676060674e-03
3.964459234385925637e-03
4.340941258088562744e-03
3.370999564925724213e-03
2.603299243738689279e-03
1.743510811961690573e-03
1.140499867334144072e-03
1.236719451246276295e-03
1.056396185106414816e-03
2.351041035810807773e-03
2.460717041367741550e-03
-5.194575960419965449e-05
-3.258402098886680615e-03
-1.660340895001658889e-03
4.447621140358281981e-03
4.006610708070636705e-03
-1.076277135390761586e-03
-6.207121500058378726e-03
-7.773187782860336431e-03
-2.087143946702571008e-03
-1.136566605543818959e-03
-2.144760454742092402e-03
1.622604702655940307e-03
2.389059606627893118e-03
2.928238590627396058e-03
8.015088973448967775e-04
-1.668917214459015447e-03
2.449420244687218733e-03
2.241833136347724711e-03
-4.184296152504247187e-04
4.456600499893693186e-04
1.076751646425697399e-03
1.394560514636541265e-03
-1.204210726502645849e-03
-1.265845288664667291e-03
3.224637668421427399e-03
2.945652918342922533e-03
-1.074587915242052830e-03
-4.848528177348918056e-03
-6.756548053563841971e-03
-5.510191186547590096e-03
-2.782380255387617834e-03
6.045119786831197476e-04
3.548893443262588106e-03
3.493592706006660911e-03
3.950130859564501221e-04
1.795330388450026848e-03
6.140196250126780074e-03
3.453299593554724420e-03
-4.960887730203799098e-04
-3.934157776323634476e-03
-9.309242556264460400e-03
-9.619095791371896215e-03
-5.390775341078885181e-03
2.360600512898592112e-03
6.728209500808232310e-03
3.318256215148790173e-03
3.758252966602335186e-03
1.467306297239762353e-03
-4.343712764922976095e-03
-5.151559315992295046e-04
2.414628180766696143e-03
9.746885200060118049e-04
8.422622496661587126e-04
2.312868837750898209e-03
5.800099629887094273e-03
1.878150068215013154e-03
-3.324774915814789414e-03
-2.161611614608350673e-03
-1.496981255489463879e-03
1.992032853142436822e-03
2.007538582563676236e-03
-1.520169582443056276e-03
2.209352546298529781e-03
4.052965643002249922e-03
2.719169510650016643e-03
2.316582696984235273e-03
-3.450303289095362391e-04
-2.099199303876582261e-03
-1.838830544055296973e-03
-4.382985281071070873e-04
-1.848858416269659032e-03
-5.238840544337147222e-03
-3.641191912938870553e-03
-7.523668418240341731e-04
-2.144776443801078391e-04
9.069762020401366399e-05
4.940919796901879118e-04
-2.143266267391220718e-03
-3.728191957746565706e-03
-6.370406893243216488e-04
-8.342092798699717428e-04
2.883200386243789382e-03
7.699069101715542464e-03
3.625552381941118691e-03
4.664935006187238484e-03
1.796853799728462655e-03
-2.898171854373126667e-03
1.603896080901674953e-03
-8.572928769597597514e-04
5.007340024075460257e-03
1.093630529497753752e-03
-2.605102618507084550e-02
-1.525772314432146531e-02
1.009635204218334130e-02
6.673746527235614907e-03
5.274359714792530018e-03
5.008895718249721171e-03
5.131602413092266855e-03
5.917204213620589660e-03
-2.668515914259588385e-03
-2.248599665020478353e-03
4.132995415759400742e-04
-2.311059176292288350e-03
-6.912405276279172438e-04
-3.608690805021163781e-03
-8.489121457502390652e-03
-5.114966206752866000e-03
3.116178666697496519e-03
3.638287292438402085e-03
-2.388600082609910937e-03
-4.721346517194123537e-04
4.963400600126514212e-03
6.937697278880734092e-03
2.349123634799529618e-03
-2.960832470332686473e-03
1.631686705763403479e-03
2.601092960615632339e-03
1.658828108453206697e-03
4.096404875781028097e-03
-1.390598789845114277e-03
-2.989271479854920498e-03
-1.416036344902246811e-03
-2.189318241211416719e-03
2.870357749559506507e-03
1.854837606756664032e-03
-2.055477138411051282e-03
9.474743555161997200e-04
2.586135806115793297e-03
1.665862128934380909e-03
-1.799318819549392597e-03
-4.324792126343615303e-03
-3.734310365895692017e-03
-2.876840207049036202e-03
4.202136119526160324e-04
1.959390749848705787e-03
6.660328766600221318e-04
-1.624592582656564171e-04
-1.032282835545372075e-03
-1.806724291068735741e-03
-4.475133608956924879e-03
-3.805379068197310439e-03
1.806805332717052997e-03
3.517390356010524893e-03
1.896907631089471890e-03
5.339433472985266821e-04
5.667861221654482939e-05
8.276214873013419205e-04
1.135546958438812771e-03
-2.027874207103429823e-04
-2.698482782239158308e-03
-3.520762710673882353e-03
-3.584161710727362909e-04
6.112310525020840310e-03
7.549224635908686164e-03
5.767849045545906262e-04
-4.085109595306264316e-03
-5.654543286595958493e-03
-4.625875125111284826e-03
2.485426576800146056e-03
5.718482647709239967e-03
3.429621576977008590e-03
8.568311536470137957e-04
-9.902286495158648186e-04
1.381901818438175571e-03
2.044334109750233289e-03
1.358895907097862202e-04
3.021521087506028134e-03
3.128959458418007714e-03
-2.120959088651035683e-03
-7.934350014562406139e-04
1.752861650170139170e-03
-4.494566066141631420e-03
-5.973741412247425726e-03
-4.445733032650216296e-04
1.847248255872931686e-03
4.263699587068702813e-03
3.330248330335410997e-03
1.638226871620702702e-03
3.478595041837416035e-03
2.530152094412155533e-03
1.808968976367299501e-03
-1.213060522813590517e-02
-2.886364075822073910e-02
-1.153245974828661161e-02
1.088798844550479920e-02
9.027413351717522919e-03
2.046935149185268466e-03
-6.970321967289423715e-04
3.331979156257439383e-03
5.204101379339911952e-03
-8.146479375549394407e-04
-3.058029140321986972e-03
-1.521763248720366980e-03
2.166053496510420701e-03
5.002801573734349389e-03
2.669360859692271760e-03
3.341354596250563835e-04
-1.890693955905662607e-04
2.006934357009568758e-03
3.914499539749470049e-03
1.921327402985651593e-03
2.049082440075234313e-03
5.674667026620141413e-03
4.282524143392732810e-03
-4.259397697163295679e-03
-6.066914632668057340e-03
1.254027650518398703e-03
2.838205167545284398e-03
-3.183323323708122862e-03
-7.316359958930209254e-03
-2.627984555077376300e-03
1.720409491501488815e-03
-1.728566227174567092e-03
-5.581151697296025298e-04
2.085100164223937288e-03
-3.220886594934575895e-05
3.316725182970861629e-04
-4.301026954779868560e-04
-2.956108952164963454e-03
-3.343163775420718211e-03
-6.490092270829457425e-04
3.574998593588750006e-03
8.874615822283925389e-04
-4.139955900456753282e-03
-1.036378459457635041e-03
6.095307733147104119e-03
7.152454142744769927e-03
-8.010100316704159675e-04
-6.941560969237680831e-03
-3.812136761208523988e-03
2.382985659181930185e-03
3.499079531503098903e-03
-4.087555611311525692e-04
-2.418347375578122800e-03
-4.108690439755070811e-03
-5.088162146667108386e-03
7.578941075449573735e-04
5.801770619902383262e-03
4.463496897267146823e-03
1.012606368066496865e-03
-2.411780093269479033e-03
-1.335928245071865261e-03
5.108400039410540723e-03
6.840268712329340521e-03
1.326688197278926180e-03
-1.238974886738815080e-05
4.436681677301218193e-05
-5.194693652980210061e-03
-4.613795975160807535e-03
4.886752792304490311e-04
-1.390708451699201420e-04
-2.075263912784444751e-03
4.957866777567490656e-04
5.401161523169891766e-03
3.526859179914387885e-03
-1.764821103963947445e-03
-5.222161435218574191e-05
-4.602787926980140545e-04
-3.654825957226768337e-03
-4.132584599059038939e-04
-3.927065650298014747e-04
-3.609461775173404205e-03
1.500107320562924385e-03
5.690411534909792929e-03
2.351044431830406553e-03
-4.519089211337723910e-04
-3.323324880559810294e-03
-4.043230840895150474e-03
-5.877114415059309744e-04
-6.330840232987782834e-04
-4.133078984432966125e-04
9.393161212184014631e-04
-6.278820361386639641e-04
-1.254483019757692420e-04
-2.570267323281639734e-04
-4.884148232221363769e-05
1.342419187785449160e-03
3.113360809343696141e-04
2.987868649056620810e-03
2.317618593644721944e-03
-1.552101016142324414e-03
6.958271712221627409e-04
-1.166700088155566513e-03
-1.993363840242671613e-03
5.379551820104181391e-04
-6.799952020270520672e-04
3.695111328116456803e-03
2.696904162687427300e-03
-4.295132829003877814e-03
-1.625483445276141312e-03
2.405506985956187100e-04
2.065150680230081436e-03
3.322888114701289235e-03
-7.244352084887837988e-04
3.632361244649677870e-03
4.691728343182681969e-03
-3.188140629233035366e-03
-1.973032016447327005e-03
4.127143883721203855e-04
-3.195732366327547029e-03
-5.158137934666223896e-03
-2.385207816563511118e-03
2.977719497914222638e-03
2.678079648208347117e-03
6.053324830065182289e-04
4.409970934971334765e-04
-3.457452840806676201e-03
-3.314401616489667281e-03
-1.062914457160423322e-03
-4.262809102732113831e-03
-1.409660717447537006e-03
4.736602235637456942e-03
2.997737817117165048e-03
-5.573858844745905499e-04
-2.062987577286311269e-03
3.126233094062564125e-04
3.794050677381910746e-03
-3.953060788764760965e-04
-2.554942454079362369e-03
2.706678568734102903e-03
3.438996731683149986e-03
9.727402512490209785e-04
-5.484832324280134136e-05
1.106410009629504388e-03
6.218276285559991463e-03
5.604542108685823913e-03
2.753520867974130907e-04
1.951524268982520339e-03
1.116195206074332893e-03
-5.282228914171501442e-03
-2.725433658720655041e-03
1.723004448393591339e-03
-2.103446981583374179e-03
-2.163489994927572831e-03
2.238447460354665158e-03
-5.182190732179030876e-04
-4.103407277391501150e-03
9.609492257542092764e-04
2.102129784543521184e-03
-5.746769123278072308e-03
-7.420451176814840330e-03
-6.028186831466384073e-03
-4.746661941069885322e-03
3.936517546499996786e-03
6.741422153706915638e-03
7.706601214416145202e-04
-9.164042840871353297e-04
-2.972487188813348422e-04
-1.202446634754883014e-03
1.358466193716248297e-05
5.481256481349794547e-03
5.719934752859307317e-03
7.214676911313096762e-05
-1.527507600722126336e-04
-7.840258481678551931e-05
-2.164557459210738992e-03
-4.717237341233041815e-03
-6.533163186138855015e-03
-3.078528726606717149e-03
-3.699668800691634663e-03
-4.963812658470191305e-03
-2.187459208057962565e-04
3.118702181496089531e-03
4.632522570331608358e-03
1.200928543385025105e-03
1.448370381987189965e-03
5.537322127643642955e-03
4.167082419668600990e-03
9.179540757994852571e-03
9.094001652586105808e-03
8.955934588020916711e-04
9.389292998955254546e-05
-1.129957627993860185e-04
3.797837571352464560e-03
5.138222344415585043e-03
1.486741238016110050e-03
4.905319055134287759e-03
4.315574299486126843e-03
1.357491685367807812e-03
-1.112586443565482348e-03
-3.795183634019197103e-03
-2.380088226716838267e-03
1.087557093531117810e-03
7.866615337629577487e-03
3.561262918611210471e-03
1.035933497466815087e-03
-1.677562791793997185e-03
-2.555544346196498770e-02
-2.294437389395869581e-02
-2.559197308056144690e-02
-5.451156920986552357e-02
-2.061277745059603844e-02
2.070413585220333766e-02
1.573099769845465526e-02
1.817134208203120826e-02
1.272907876352997840e-02
6.740018393754119985e-03
9.583327716177638886e-03
1.916347085993761259e-03
3.171970863168484256e-03
4.886616160033046587e-03
3.221348892807753255e-03
3.969544140702998929e-03
1.944427349126494082e-03
6.936370150382059965e-03
9.071599616732553550e-03
8.594623396641055957e-03
8.023200511169685870e-03
2.061520392182140775e-03
2.926486388476175118e-03
2.751301419386295924e-03
-4.691016269570025835e-05
-8.275646132986181963e-04
-3.621206953562548011e-03
-2.404083450394099188e-03
-3.986656354275388420e-03
-3.528294656214278624e-03
-8.173142968286468144e-04
-6.214183455762798888e-03
-4.613050251182786859e-03
-2.678139276751270725e-03
-6.198286082532475545e-03
-2.671439938178846955e-03
-6.136954758752090691e-04
-2.565504832366904703e-03
-5.231618849798562627e-03
-3.267561985560336890e-03
3.417789909487060820e-03
2.644472007419373417e-03
2.431170505288899122e-03
6.306368402704800626e-03
5.210359068278110073e-03
1.573566985810549062e-03
-7.729163780785720415e-04
-4.322782418533064491e-04
-1.685059864108537147e-03
-1.766086661141555610e-03
-3.832285229957780031e-05
-4.494417794678239562e-03
-5.140363687274197846e-03
-2.867106304393936180e-03
-5.166442263012387300e-03
-2.809863599840791738e-03
-2.187205443875505154e-03
-1.699751303326822423e-03
6.414781338546966111e-03
5.630138660234520510e-03
8.209109698312104563e-04
3.395722285601862362e-03
6.511400326889945538e-04
-5.415233952188409699e-04
4.320917372511424992e-03
1.192433851988021487e-03
-8.307665219124409257e-04
2.130297271355262225e-03
6.434866286772120397e-04
5.322743922968820789e-05
2.412622221385668812e-04
-8.334453916067460950e-05
3.210472940127509934e-03
5.709750064438964996e-03
3.145048714261275240e-03
-1.137793031858236326e-03
1.254313079162463433e-03
4.345925457632966726e-03
1.160945959633919236e-03
2.970084407377416962e-03
1.415708242207477929e-03
-8.293613388500709060e-03
-8.121375095137611452e-03
-4.307104830501329133e-03
-3.323147166713907689e-03
-5.887601582404849727e-04
-7.404377198446726246e-04
-8.043817942285587429e-04
1.170574757551177351e-03
3.714040584432119502e-03
2.791365989266045896e-03
-4.124758846818551983e-03
-5.096752410921849032e-03
-6.646931343073865560e-05
2.587606199492625651e-03
1.607797613131399820e-03
-1.907759255808540774e-03
1.849186087754478656e-04
3.655680011341177257e-03
1.383487803835482203e-03
-7.763000166269951952e-04
-1.198809576145132587e-03
1.608366638079660252e-03
1.512687212046991267e-03
-5.094303903627427771e-03
-4.975937960971250212e-03
1.025527965962980213e-03
4.200703626459950830e-03
3.649977644796699536e-03
-7.174057298412351430e-04
-2.925780677563399271e-03
-1.744748567653201530e-03
-2.077054209029208058e-03
-2.498450639285363078e-03
-1.996811749981323818e-03
-1.726305256671977373e-04
5.135076170306906301e-03
7.365724250283060479e-03
6.687500058964840040e-04
-4.063156560996553958e-03
-7.792434054859910227e-04
5.479830035323065424e-04
-1.923655007082357730e-03
-2.130251793100654701e-03
-6.397929374474228869e-04
5.955658529358332301e-04
3.573141321377815149e-03
6.060403740533516249e-03
3.863594531902926794e-03
1.529541417093528482e-03
1.973087120361568907e-03
3.264655016873722459e-03
3.660325266175713712e-03
1.023045824760841180e-04
-3.289322591942926439e-03
-2.636863074149983169e-03
-4.053730866012832698e-04
1.713253234789643758e-03
-6.694699111446376135e-04
-7.674247208088148635e-03
-1.054271191433576137e-02
-4.166889833699420273e-03
2.401871392455613447e-03
2.088180461441788236e-03
2.506884243809924528e-03
1.763021218456900822e-03
-1.575208334666001108e-03
1.146877327660995914e-03
3.925545430953967727e-03
2.530760021181914683e-03
4.203398757903616340e-05
-1.418476643691176211e-03
5.324804598998615721e-04
-9.283275553979359251e-04
-3.744392164247955981e-03
-1.562073063967702640e-03
6.832847759129489487e-05
-1.394529358578839836e-03
-7.006145170343873636e-03
-8.966656027282152164e-03
-9.041298828646073926e-05
4.876076079979173479e-03
2.052595967992868094e-03
1.616015830911511414e-03
1.753693505180051616e-03
1.935106540326726309e-03
4.275455206453024869e-03
6.401210855459247770e-03
7.868095826770570705e-03
6.204763982582089769e-03
2.784794567491715236e-03
1.040380990595343421e-03
-1.302654610683836494e-03
2.037506411275839845e-04
2.055412774376737164e-03
-2.315497612963106615e-03
-3.411875333932685734e-03
-4.512391653146521388e-03
-7.030585529462648857e-03
-4.689050124821051227e-03
-5.636289254688424920e-03
-3.338190296197749481e-03
2.062784912501454404e-03
-9.993696983185576619e-04
-9.907481526464660595e-04
4.203038056907984488e-03
6.208788034194589675e-03
3.095039166092753216e-03
-2.760442833631261347e-03
-6.641345706506642139e-03
-1.099097465582336494e-02
-9.289092371731904468e-03
-6.837133059345862872e-03
-1.033606169082040317e-02
-2.749575114699945484e-03
7.045645955220013017e-03
1.107711817364809455e-02
1.304170429817162746e-02
5.098150362703700485e-03
1.039417962286543580e-03
5.532502367798180706e-03
1.547600111374219239e-02
2.538340381699200413e-02
2.067722772084316929e-02
1.302221025376676042e-02
-8.912702238122061776e-03
-3.379354561841804716e-02
-1.602129413853394663e-02
4.672106369942630871e-03
2.167748714133184169e-03
4.040462929210942439e-03
3.002734863611117907e-03
9.776985961861917127e-04
1.191297678110865652e-03
-3.275229839705255143e-03
-8.880260891911004317e-03
-1.364494910802783317e-02
-9.894045449478900897e-03
-4.748051030308370057e-03
-1.188357408185627571e-03
5.481804223669539330e-03
4.151651713348331052e-03
1.846851094516981963e-03
3.927210656375358135e-03
-1.131522180285741454e-03
-1.772561651682068307e-02
-3.201305242432012088e-02
-2.602598186920743878e-02
-1.641680442204431281e-02
-6.558314507754079217e-03
1.296538612401674888e-02
2.509937610872227734e-02
3.892467208958460406e-02
4.988651905944798542e-02
3.641358563665222925e-02
1.355821025854167527e-02
-1.124601794598835934e-02
-2.345762092841280691e-02
-1.409505130600713710e-02
-7.297528155122204319e-03
-3.216650665796612005e-03
3.802869245867754929e-03
6.289659113888381760e-03
1.792862461132899328e-03
-8.617689771018247069e-03
-1.589031479492510057e-02
-2.083692144625072865e-02
-2.103098475654991209e-02
-5.718279087102868044e-03
1.554430055025308142e-02
2.550131090212521406e-02
1.755986659052322443e-02
5.983675068759027917e-03
7.602444100728421132e-03
1.597059879697885695e-02
1.242114547524441649e-02
-8.880302159841195475e-03
-2.406759655783001842e-02
-2.435798288283932272e-02
-2.580737954293772438e-02
-2.621993103632239142e-02
-2.519966170004381278e-02
-1.760694688751224604e-02
1.959834808264643725e-03
1.436457741117903864e-02
2.021142647087543348e-02
2.817191267875335942e-02
3.114458299657788323e-02
3.139324572679497855e-02
2.886363914670424941e-02
9.315957380666393950e-03
-2.964278363095290691e-02
-5.526635220141589561e-02
-4.871960718732450124e-02
-3.009179663578368316e-02
-1.193258690552264668e-02
2.337616811428008378e-03
2.893989159450476023e-02
6.702717967902088736e-02
7.406132040527396709e-02
6.103927580702138422e-02
5.593119807600375332e-02
5.053260716662901636e-02
2.870794024245322540e-02
-3.592656003487363497e-02
-9.969531790121699544e-02
-9.997587694221335419e-02
-5.832534454910779514e-02
-1.367373880853012778e-02
-4.685678256808657217e-03
-1.235449357278681909e-02
5.004472438564789780e-03
-3.603891657803716571e-03
-3.437816906637077702e-02
-2.508748817479435761e-02
1.189936297134618938e-02
5.071339452188519670e-02
6.057652516777140006e-02
2.838912911633220335e-02
-6.781796282454083218e-03
-3.171431029876115720e-02
-5.229823030516853044e-02
-5.908679942330613555e-02
-4.807013419909666324e-02
-2.364440751635736235e-02
4.932337338722357634e-03
3.049850471791305459e-02
4.701752156272777372e-02
4.875007944675456562e-02
3.853416208035442131e-02
2.832746532772824691e-02
2.844080924258770779e-02
3.482921074881915879e-02
3.569705976571500156e-02
3.066490677541317336e-02
2.615202313077141447e-02
1.298202171764521393e-02
-7.113219191345949988e-03
-2.283156727136392145e-02
-4.690849903562310103e-02
-5.673633637487507375e-02
-2.424274777546549242e-02
1.651535828078959378e-02
4.156961982887883572e-02
4.299023277814292832e-02
2.983030437411432478e-02
2.419444170421237994e-02
6.348386958183490150e-03
-1.712694442752609944e-02
-3.205877295195115606e-02
-4.868722750997329929e-02
-4.775570218315281640e-02
-5.827352952774068895e-02
-9.370885013014944309e-02
-9.263027465650187919e-02
-6.051100817623116662e-02
-2.216599639348912354e-02
1.194952398619363032e-02
1.114560748942212617e-02
2.021061236411978920e-02
6.829988971589723290e-02
9.234370838802900827e-02
7.861025485370222443e-02
5.371880654712071768e-02
2.436588925344121762e-02
2.947613579132070394e-03
-1.025255852241094105e-02
-5.778383375878093191e-03
2.099384668962029493e-02
2.308590426151258326e-02
-1.041533495617383460e-02
-3.524335985372486352e-02
-3.576923956460876380e-02
-2.275077838052349047e-02
-1.265580071841182486e-02
-5.990734162962144810e-03
2.194834444408882285e-02
6.676977155507793360e-02
8.774296642303944238e-02
6.654987133141168631e-02
2.849604082435348157e-02
-9.368780751238311305e-03
-4.871943756140780651e-02
-6.375094332477784786e-02
-5.037543121632294396e-02
-3.388729436477722762e-02
-7.478317827350522244e-03
1.509869835319847635e-02
2.887203078120746495e-03
-4.423103290505511764e-02
-9.960197193625613954e-02
-9.425354568733573801e-02
-3.135338518750106079e-02
-4.165815718086911777e-03
-2.451974985677200791e-02
-6.163680275963391575e-02
-7.792045615516930701e-02
-3.347356113347427914e-02
1.171149436525145519e-02
3.408097136753309581e-02
8.399579580701055370e-02
1.583028718242697752e-01
2.485826191022835474e-01
2.817960694705848312e-01
1.950894849908175188e-01
7.697617745620534413e-02
-3.339091180231367612e-02
-1.369609428961274245e-01
-1.662420087604956631e-01
-1.128448642532627749e-01
-2.505445527620362919e-02
4.113824696877305120e-02
5.441432638465243388e-02
3.148125569850949296e-02
-1.029409116745023077e-02
-1.706975118303797126e-02
5.690026261465133683e-02
1.172413048562215288e-01
2.519579826004142778e-02
-2.046401575452410360e-01
-4.322635429776588434e-01
-5.503221295256843781e-01
-5.432753369747538308e-01
-4.089059782487023953e-01
-8.060295136231013235e-02
3.383252359661227948e-01
5.205546465476335039e-01
4.223707766670791175e-01
3.012562965678146076e-01
2.404792768072637199e-01
1.662546083429843613e-01
9.410626684618507432e-02
8.183617565897360890e-02
7.861611113239938553e-02
4.840510035712223408e-02
3.255329136685793795e-02
-8.761838522303274507e-03
-7.747572804768984578e-02
-1.002887119134215771e-01
-8.138208715430836349e-02
-7.967560048344424217e-02
-1.352638477547032925e-01
-1.802353436503432715e-01
-1.652090257452009936e-01
-1.093510199899319496e-01
3.448431643703955135e-02
1.972888410071909349e-01
2.134904274112676970e-01
6.472344305466129488e-02
-1.092172190336895832e-01
-2.016393383584371146e-01
-2.729776840753368461e-01
-2.502845696122865671e-01
-6.446300793940858143e-02
1.047982492050109071e-01
2.798330991462402162e-01
4.616359228002222537e-01
4.391680167198760976e-01
2.876997332025941767e-01
1.607005414043103930e-01
1.888728808111457200e-02
-1.577718604822916093e-01
-2.410046010412648099e-01
-1.969858163061564971e-01
-1.825829214760875119e-01
-4.789183769763955684e-02
2.285603570176736599e-01
1.925205093180379357e-01
-1.040770246491548034e-01
-3.538119805077121760e-01
-5.607536450108390191e-01
-5.713517137887644814e-01
-3.189303111756490172e-01
3.925317566255446394e-02
3.388992331688081561e-01
3.323582272262317061e-01
6.691663968121679129e-02
-1.206295981914345117e-01
-7.253923544064619366e-02
1.347189231744476134e-01
2.553750218766031588e-01
1.799406685520357208e-01
7.388771565401761054e-02
3.690814904663317769e-02
5.217379140915678892e-02
6.433931107206196376e-02
-1.314377276780668083e-03
-8.145747895961945317e-02
-4.872345538262001785e-02
1.207707618790661019e-01
3.176169734742702588e-01
3.220356544019393752e-01
9.607497149027111050e-02
-9.726658156477357986e-02
-1.174766371552889987e-01
-9.736044715127041560e-02
-1.240316868311899107e-01
-1.271948453658667544e-01
-6.571511430925573716e-02
-1.974592110322093488e-02
-2.738598517815607133e-02
-3.298198779788426988e-02
-2.794832246946839585e-02
-1.823682928590852556e-02
2.866191716849202532e-03
7.997481916036212890e-03
4.264512465539437545e-03
5.598660998030664283e-03
-9.437336527745037937e-03
-3.381924042575050471e-02
-4.266412674656871323e-02
-3.397560252146609311e-02
-3.417235197761100268e-02
-6.051630544772137327e-02
-8.226131480912705907e-02
-6.503120883356412751e-02
-2.574303316051835058e-02
-9.065807027321726858e-03
-8.662001810074164768e-03
4.516906207620560720e-03
1.700817772562475058e-02
2.877865308036754374e-02
4.562159995218182523e-02
4.948277326221631883e-02
4.366351937621290591e-02
3.559700915500956658e-02
2.827399153983126134e-02
2.836874372396953892e-02
3.653358925486348968e-02
5.078017594918083494e-02
5.654554744694388624e-02
5.241928347159595381e-02
4.057796510143198837e-02
1.040658870027454629e-02
-1.550725831442459519e-02
-2.050615103529665820e-02
-1.693276459426815150e-02
-6.887949722447843717e-03
2.151022328088357527e-03
8.042946416301766099e-03
1.384770138162824855e-02
3.172955013019272165e-03
-2.064242845081450811e-02
-2.686391082518318346e-02
-2.596361194765283917e-02
-4.751632962308963148e-02
-5.962543412246854718e-02
-3.502528986221163654e-02
3.719983292542219672e-03
3.052023444205956282e-02
2.168796301278885438e-02
-5.813668232695121769e-04
-4.987926868252807490e-03
-7.276548349982156841e-03
-7.699340068730199313e-03
-3.490629836970847964e-03
5.486327628873330191e-04
3.147765127123911943e-03
-1.569573080288030236e-03
4.246218232083874208e-03
1.192527599062411306e-02
8.112173196484219820e-03
1.246283304275134021e-02
9.040498004943043481e-03
-4.877223644314062148e-03
-1.113927707230266684e-02
-1.382272568322973766e-02
-9.578552266414961866e-03
-7.312706938103093017e-03
-5.362431601028640887e-03
3.983427401345006054e-04
-6.281608778859653144e-03
-5.645897554164255698e-03
1.131359721663894105e-02
2.503384164256657746e-02
3.063822197739622319e-02
1.990359365385691373e-02
2.086933817172857122e-04
-1.544891895219960287e-02
-2.578659452644749620e-02
-2.195599467461371510e-02
-7.201827039912660038e-03
5.561158553616231924e-03
8.663258430088992268e-03
8.988504356768026171e-03
1.390612734410470036e-02
8.562160166286469920e-03
-4.837306858785378298e-03
-1.282286886148386110e-02
-1.895410406461639150e-02
-2.051678219147036464e-02
-1.738223486018834751e-02
-1.294261100057149394e-02
-1.207532194341758057e-03
1.496696173929224979e-02
1.841993074337798519e-02
6.861898123626157010e-03
1.911188945168522954e-03
3.498682124348699660e-03
1.128082606833478681e-04
5.248377778934496364e-04
4.285569694431966390e-04
-2.191999449821725472e-03
1.233314655991496695e-03
3.928098144097458451e-03
4.739196024591454080e-03
3.277234628382980595e-03
3.099495313476164152e-03
9.557405713194674912e-03
6.341251798747046808e-03
-2.540937360923201213e-04
2.512436746692509309e-03
-2.148951711143238553e-03
-6.556899019572441471e-03
-3.490986927704567747e-05
9.041977205510140676e-04
-1.051644692173726121e-03
4.537606373011671482e-03
8.579339209790023957e-03
6.014505737887124517e-03
4.669205621149252750e-03
2.325730744874693855e-03
-3.816404016810286907e-03
-1.871165074155522589e-03
1.156127587880387015e-03
-4.929428256769734402e-03
-4.126698619092493241e-03
1.887589756348625287e-03
1.830817013458137807e-03
2.649182223479041622e-03
6.325253236985120249e-05
-6.655727462887376170e-03
-5.252361710169366552e-03
-2.316786575162205122e-03
-2.422035103823003046e-03
-4.374507730540586059e-03
-2.038053255437468486e-02
-2.982970705689951679e-02
-8.691488466836781723e-03
6.541527022803786742e-03
3.403541644516852593e-03
6.532625681993542606e-03
6.208976520969603993e-03
3.460199410372312694e-03
6.818153238982107948e-03
3.280885081837661525e-03
1.858896060868003310e-04
3.851547304488635130e-03
5.342132706820127905e-03
4.934189005752025008e-03
5.113629340903897737e-03
4.165772868374058302e-03
-4.514152175381337608e-04
-7.196855920974862394e-04
3.458287581566069167e-03
3.451712227237138404e-03
4.759304329372501287e-03
2.334109027997299801e-03
-1.532714178077915603e-03
3.160334855904520755e-03
2.808295782318123192e-03
-2.757006608592643725e-04
-1.307222404337257714e-03
-5.068667633084240204e-03
-4.030570952712570106e-03
-4.015553028043078974e-03
-3.774491099559834813e-03
-3.089864975428594776e-04
-1.275144656813324189e-03
8.283039308416359362e-04
2.815150033079056300e-04
-3.448194814383322843e-03
-1.669233241215702579e-03
-2.432841297853508174e-03
1.412118175675395205e-03
5.353181391327903500e-03
5.812392025156268771e-04
-4.380513839242113354e-04
-1.734215336044545811e-03
1.526203937479183540e-03
7.042481985236398283e-03
-1.736150489668036477e-03
-4.902360354704073976e-03
-1.586811808070453470e-03
-6.549700907501663540e-03
-4.752078925136954748e-03
2.946819377460753236e-04
-6.234279818089666662e-04
-1.080474843805553773e-04
1.615117403948282274e-03
3.497469212460430337e-03
4.335824944124887920e-03
2.380674043321203553e-03
-9.475033435664512605e-04
-2.819536676020149239e-03
-1.192077947551562541e-03
-4.192117990642904926e-03
-9.776756161347479809e-03
-5.183448450657868016e-03
2.848450948176368350e-03
6.693190459915211721e-03
7.501555948593868414e-03
5.396294989017141885e-03
4.867330730781791424e-03
2.099326927953919317e-03
-2.988243644078244967e-03
-8.259778191865570045e-05
2.766605851060669093e-03
-7.615840989460145405e-05
4.023329190188714029e-04
1.869542877065719826e-03
1.032661875672208612e-03
5.071601478916400044e-04
-9.051427278568357311e-04
-3.296756973458878255e-03
-2.949591539195815706e-03
3.808538413379300501e-04
3.544808235028014940e-04
-2.076572624928968002e-03
-1.683096935856453558e-03
-2.278391656129601442e-03
-5.338510076378775136e-03
-4.915944159534319999e-03
9.772925783550956338e-04
2.899308021335712023e-03
-1.290803048065013430e-03
-4.761684699630583362e-04
7.650717200629855632e-04
-1.835412486397741986e-03
-7.868419798918560625e-04
5.224935089020118530e-04
1.153240300368415724e-03
1.110704871348010790e-03
-1.011691181747309532e-04
4.044291553720636388e-03
6.043217671162869238e-03
3.166993949876561196e-04
-2.276576976371633924e-03
1.791931512106115839e-03
5.568313043682188157e-03
3.914702207707857796e-03
2.220000485000168575e-04
-1.436533874931950495e-03
-2.281393734354659596e-03
-4.362708280833215053e-03
-5.715719114339525009e-03
-2.762418767478658742e-03
-1.851765946676595847e-03
-3.135297450038119615e-03
-2.780360162348143342e-04
1.663073292420209513e-03
2.414091882124274387e-03
9.198054200400741407e-05
-2.943957854207428400e-03
1.700621580400681759e-03
5.886159283524225114e-04
-3.648913426791686784e-03
6.036078841440959721e-04
4.182297618404472780e-04
9.389948956357795865e-04
4.569474956845787084e-03
-4.334337030444969092e-04
-2.845466259282484643e-04
5.451781075244951924e-03
1.352440215510251464e-03
-1.996066263901587114e-03
2.111067514480472005e-03
1.680574451096527970e-03
-1.690228073860143912e-03
-2.644792944766272461e-04
4.049333653402585414e-04
-1.236995897263495989e-03
-2.082572036229297322e-03
-4.020116893564656957e-03
-4.340315433502891541e-03
-1.684084393085038666e-03
6.995197790577088693e-04
2.855759711485171808e-03
3.887677622810880532e-03
1.593357067760079121e-03
-1.269433602337681618e-03
-1.459027656894879748e-03
-2.287483541937453558e-03
-2.591990144806339842e-03
6.798044627720354260e-04
1.011991126671897209e-03
-3.180200453081572312e-05
1.639244163838802105e-03
-2.091315784537152260e-04
-1.752474518002897262e-03
1.387274596526610849e-03
2.911695994517275125e-03
1.675069407670604039e-03
-7.036999925512024820e-05
-5.816016894667331129e-04
-4.392534402647887818e-04
-2.743470277879181494e-03
-3.829667816630087911e-03
-2.266111753109227231e-05
2.716035098010259954e-03
-2.216653030251383336e-05
-2.881105397728935848e-03
-1.694318576738570526e-03
7.124646850880640789e-04
2.981741272614988735e-04
-2.394822082517319376e-03
-7.248340142370825884e-04
1.174998397635156587e-03
-3.603936992401320268e-03
-2.485173601793474671e-03
2.652781071215430577e-03
-9.326431659268439147e-04
-8.679757059631308322e-04
3.097975764435227999e-03
1.451665794790317097e-03
2.567426954421620552e-03
2.045696892980793536e-03
-1.123088425260691412e-03
2.297627706997819666e-03
2.728285409049284460e-03
-3.475168077721718218e-04
2.102749979906804682e-03
4.504050171070176148e-03
1.695038933144209529e-03
-2.831754708005133816e-03
-2.179996709938296102e-03
1.003346225033975841e-03
-8.702576814463647628e-04
-2.194020141656620980e-03
2.004460865405848554e-03
2.997275747882390765e-03
-1.570665932171191968e-03
9.103824389673859313e-04
5.226403325526088849e-03
-1.355783028068163840e-03
-5.581795516214421542e-03
-1.831797101312861555e-03
2.958533936722218625e-03
4.489863835631689032e-03
1.692515369176830070e-03
2.359704147083799795e-03
-1.179811005798113259e-02
-3.334788928983416223e-02
-1.895722291163911069e-02
2.860666890949733684e-03
4.380418649140072930e-03
6.974405906764309833e-03
5.962706207594941146e-03
3.385371980049504959e-03
4.628562859011984935e-03
2.785285654761516464e-03
3.381252009146492980e-03
3.181533277382402047e-03
6.971138869925056674e-04
-4.300295000268447034e-04
1.087134053499670206e-03
5.159562907498773526e-03
3.811848797643077949e-03
2.886299018562988976e-03
6.510949330801642405e-03
5.341423519017501377e-03
3.228704156009046602e-04
-2.967332590113763886e-03
-2.440241908428530428e-03
-1.272388018946598144e-03
2.755323540904898840e-04
4.955791438794692177e-04
-4.161092264147698422e-03
-5.364593402831663825e-03
-3.673946732395112855e-03
-2.841345081723942179e-03
-3.312278475190527649e-03
-7.002306610497761527e-03
-4.059509015125912883e-03
2.082036222686217772e-03
3.397046479502216065e-03
1.690447492224036790e-03
-5.129294248247254955e-04
5.214271445698406490e-03
6.871053642254568335e-03
4.484184460137268890e-04
-4.856946260857809318e-04
-2.364501358682628493e-03
-1.226646679225451564e-03
3.936564463140831277e-03
3.591714502281615363e-03
1.613949810293816792e-03
7.759149720831709550e-04
1.113036476627834613e-03
-4.192096623982927150e-03
-3.538559526278445017e-03
5.628619479345029451e-03
4.811280896336322249e-03
8.656558277494084963e-03
-5.561438091833416017e-03
-3.379086846819352036e-02
-9.672023645258138666e-03
1.491105325815457461e-02
-3.031158613011071534e-03
-6.975426431593875071e-03
5.657731237135105922e-05
3.063235856044654957e-03
5.360486699244632926e-03
5.072327288641738071e-04
1.270611472901616570e-03
5.672815383376477588e-03
4.583263345456370721e-03
-1.211294979381237480e-03
-4.387440939779267690e-03
7.255406463575225133e-04
1.577265934998516332e-03
2.822125812874963827e-04
1.700709669324719031e-03
7.754597537720391877e-04
3.354421425938513852e-03
6.628084242753950854e-03
4.354725339913833454e-03
-3.547311306439400805e-03
-6.418169610050615537e-03
1.820937547490597899e-03
1.182788163202950441e-03
-4.588150365130604612e-03
-5.175751823482744370e-04
2.319464424402056389e-04
-2.362958608794272879e-03
-2.368813797696321319e-03
-5.037416474141702752e-03
-5.158034186355059565e-03
-2.124191958321703722e-04
2.148276282240173685e-03
1.717919706289550326e-03
1.022817104293444624e-03
-1.102739431896639262e-03
2.102630765119698581e-04
2.616144826128164076e-03
-6.221515965846136738e-04
-1.947571613491966801e-03
5.951227799856184230e-04
4.109782567020052631e-03
7.247735314827448774e-03
4.648521231741783825e-03
1.872374685277017857e-03
-2.811451349292235890e-05
-4.235207925250972574e-03
-2.302774976057430679e-03
5.238349822485515242e-04
-1.456297494596452179e-03
6.010495522526317384e-04
1.561593526600496941e-03
-2.225713419048101164e-03
-2.461713042574244833e-04
1.004908211064497146e-03
-4.635293711529333248e-03
-3.184039015330144325e-03
1.518418212580473518e-03
-1.205704392438282325e-03
-4.146138588251727444e-03
-5.456686667796693466e-03
-3.104790501236082221e-03
1.478692607140188152e-03
-1.995703321275698737e-04
-2.715026927475351019e-03
-1.315705251799805745e-03
2.955362767423770371e-03
4.869956717664917015e-03
-7.210010892138519405e-05
-7.401701698029248232e-04
2.273947633708231410e-03
2.209226137913568484e-03
2.259638175630661501e-03
-1.905457369284416355e-04
7.929083884077283350e-04
3.180651729165796370e-03
-7.854988120077709525e-04
1.856532297105548102e-04
1.335226125254553161e-03
-2.739380266373087677e-03
-1.898204275828895221e-03
1.228219091032719135e-03
5.124677445006785986e-03
5.789396197505681553e-03
7.854504545950361308e-04
-1.212361861980976088e-03
-3.463010679997613212e-03
-2.884271239944342057e-03
3.095137586622991911e-03
-1.282349477255987670e-03
-8.421374809934706676e-03
-2.718951222830440564e-03
3.041567756982900637e-03
2.421794214139797157e-03
3.567026064130777128e-03
2.538032664885776172e-03
-3.969489041855721128e-04
2.120176236777105393e-03
1.357713247903017534e-03
-5.940109157758123246e-03
-7.986191858317417264e-03
-3.286424643158707744e-03
2.788211478291325023e-03
4.049131166709523007e-03
-5.134643657466490471e-04
-1.872168079489087414e-03
3.956621413993933545e-04
1.871354595632149708e-03
3.301713415694833981e-04
-4.584228414530635599e-03
-3.881784219829972037e-03
6.363252646945077168e-04
1.645301110222781478e-03
3.398034997616113280e-03
3.227742148097271883e-03
3.755256518293045962e-04
-2.806086797144763888e-04
2.058190318260672425e-04
1.309134098887872058e-03
-1.642762188170862007e-03
-5.556546430435230742e-03
-3.556791392637546727e-03
-2.343937403825956112e-03
-1.564288700498907845e-03
9.180834878579983418e-04
1.322721057388853445e-03
1.176083058502788627e-03
4.470615852681387027e-05
-1.472503985531818270e-03
-1.280258576725882159e-03
2.659557326071336925e-03
6.232678281496708932e-03
2.435212935210162317e-03
2.171568968846814430e-03
4.436927684791331511e-03
3.945953250904868370e-04
1.352669899805656988e-03
1.806596299630227904e-03
-1.963335962633492963e-03
2.055205828543922976e-04
2.205900277465566370e-03
4.811019744471280342e-03
6.926707829263559560e-03
1.857872971738589764e-03
-2.581233933018922590e-03
-1.375678777806777289e-03
3.395584428452018324e-03
3.735776871360488652e-03
1.233311916035387907e-03
-5.939994920700332470e-03
-2.793836322899772781e-02
-2.843936000523418148e-02
-3.077767451987160506e-04
4.663669058346867763e-03
-2.622612664775839379e-04
7.851295539890014094e-03
5.119396560146866407e-03
-9.458787861808953812e-04
-8.154955387142630427e-04
-1.919844672235977365e-03
1.164536509138615686e-03
5.002746660388105934e-03
4.337501165575344785e-03
2.887722825845394359e-03
2.577839193778986952e-03
1.596530650961871297e-03
-5.761313455260995029e-04
9.835850938919744185e-04
2.165281772054625763e-03
7.929755084867789582e-04
2.285095949094038612e-03
9.510492165929147540e-04
-5.887242828384505735e-04
2.258670876454699564e-03
3.764683453136015261e-03
4.801629738213711480e-03
7.322678777665299127e-04
-4.077662408474382917e-03
1.842175879371758069e-04
1.319975629179331389e-03
-1.239045222201508095e-03
-9.023393893795760489e-04
-1.450894635777099251e-03
-2.513303526207189952e-03
-8.299861802847415676e-03
-1.074803506671905169e-02
-1.750669699129560938e-03
2.448162812858115274e-03
-4.337881312180315047e-04
9.147939691331737847e-04
4.157099975837783880e-03
1.170133384869956935e-03
-2.329132612103733402e-03
2.363280074435445809e-03
2.672907920078561924e-03
-1.961975938380309138e-03
-5.098781370940151355e-04
5.599376127856933521e-05
1.980301797548497851e-04
-8.011710291471873125e-05
-3.534154016213900303e-03
-1.995970864449318240e-03
1.800624515483113244e-03
2.717150596635029350e-03
1.233781234903622362e-03
6.811225484047698803e-04
2.607094010539181845e-03
1.613765804971350505e-03
2.420254096951902825e-03
2.518585975216472948e-03
-2.470338542174411144e-03
-1.043262615557968408e-03
9.897001281555840597e-04
-8.301550329091518131e-04
6.467821624798025500e-04
5.396591903125933258e-04
5.606539741380510812e-04
9.462536522309098874e-04
-3.322422160793807745e-03
-6.448603618750675497e-03
-5.401650779812772543e-03
-2.212752292789269513e-03
1.542724420694533338e-03
4.154123453755981590e-03
3.719602677003211108e-03
1.599264793886097141e-04
-1.733050721975077681e-03
-6.630455483863289872e-04
-1.263956227806666650e-03
-3.460985443052804270e-03
-1.681626433974164414e-03
4.068840326601900256e-04
1.492067978045071984e-04
4.048207535880276632e-03
2.667825302193108615e-03
-5.315876468834315749e-03
-2.779853870694348750e-03
3.194472826100861178e-03
2.933856137937485530e-03
2.581742374977479340e-03
1.914066716365183610e-03
3.720926908850989419e-04
5.941575610484553039e-04
3.431994072083197761e-03
4.387469342046845452e-03
2.082529910293256636e-03
2.263559168194205582e-03
8.149442321428395199e-04
-4.241557895401384948e-03
-5.039728644245936376e-03
-1.076430368822631472e-03
1.671993090193124977e-03
-1.613268186913119752e-04
-1.999295322612939293e-03
-1.069651319448919379e-03
-1.620123032636453008e-03
-4.081056607511372378e-03
-3.634195565588379737e-03
1.101866099586635553e-03
1.661598046268835142e-03
-2.213047068764623440e-03
-2.493913434483461308e-03
-1.254303419271588600e-03
1.888426625936377072e-03
3.889822983272040423e-03
-4.340662905662511959e-05
-2.308371586267371055e-03
-2.398710160498265364e-03
-2.614799041883102138e-03
-1.319302336740315598e-03
1.249746939105994071e-03
3.599352176714357664e-03
7.018435127086675770e-04
-1.147839058899496932e-03
1.477018603272115069e-03
1.268506303709669584e-03
3.713192137773825476e-03
6.627806408796893013e-03
1.941499617890057438e-03
-1.426495856032118734e-03
1.897298567768640866e-03
2.895935114496091083e-03
-1.969274162685912509e-03
-1.916967995925378298e-03
2.278602869426736186e-04
-3.546360249931671850e-03
-2.102805885253006442e-03
3.208108860210491260e-03
3.536679804317318949e-03
-3.507257737303431694e-04
-5.170631593685286881e-03
-3.509601387131841988e-03
-2.353371318325410237e-03
-2.990848264929770340e-03
1.888945315139625280e-03
2.419623444509029931e-03
1.901373622457932459e-03
2.241732398576828413e-03
-1.322449813837202771e-03
9.020126086590916567e-04
1.062951048813002165e-03
-3.963221802234549902e-03
-4.372891790120551729e-03
-4.020035061671324225e-03
-5.330933134086259829e-05
3.462394502732415308e-03
-4.838783918418837872e-04
-2.211818447095375856e-03
-2.096380335609740963e-04
2.049712435231982807e-03
3.188804999320202054e-03
1.223115527071134230e-03
-1.355843935543407522e-03
-5.856397224296792242e-04
2.736425328554989867e-03
1.500271561427836799e-03
-7.479368334384608129e-05
1.139547047889617705e-03
-2.298706712791959324e-03
-2.428000298991940618e-03
1.381198934689936925e-03
7.079474438221587153e-04
7.839154873212097986e-04
2.768887042263119586e-04
-1.747474073427285899e-03
-1.503875520660166894e-03
-6.561485619095933520e-04
1.503446004246027600e-04
-4.643477881868163693e-04
8.845671171810219960e-04
2.235060700566247893e-03
-1.679165117980690580e-03
-1.915602431174040455e-03
1.901813128878080978e-03
3.909802820437221181e-03
4.472766344210059308e-03
1.016861002713333011e-03
-7.184069360312944586e-04
2.146735605189898938e-03
1.875538485171656701e-03
-2.307686828158341040e-04
6.483835576310926574e-04
2.533016320489963474e-03
9.646306319957034499e-04
-2.532817923774828475e-03
-4.120050087540528747e-03
-4.360044219564574407e-03
-9.301934214311440539e-04
1.102698039045231938e-03
-3.772533158519628636e-03
-3.008664309654212297e-03
3.399649809065135447e-03
3.350890411764335768e-03
1.865379168074375290e-03
-2.809334065100334982e-03
-1.162370220341255901e-02
-9.134559990257723472e-03
-1.576132634373547670e-03
8.304048110269738507e-04
2.864276055724221479e-03
2.165577744561985544e-03
1.571751761378633889e-03
2.100306468874661020e-03
2.218168638281563850e-03
5.256623993612293336e-03
2.707860505224750358e-03
-1.047415093653226992e-03
2.619249009906707976e-03
3.127072005552082503e-03
7.049879851029502943e-04
2.426905434839559414e-04
-6.415685217704160653e-05
-1.386270731377890753e-03
-2.774252432878159588e-03
1.811558407371135907e-04
8.494391357118249259e-04
-3.425330108456859680e-03
-3.862664545846741099e-03
-2.429074753894517377e-03
-3.880284911904042632e-03
-4.717346576429989544e-03
2.384009023149790112e-03
7.643882814831149015e-03
1.703284106303532604e-03
8.400766915168295145e-04
3.265722010413530697e-03
7.856367495017478131e-04
1.226542130941184281e-03
-1.820081970950765296e-04
-1.053085351956682377e-03
3.193489486166020946e-03
4.043574264539022065e-03
2.499950832992776668e-04
-9.697466890299164108e-04
4.442620037848700291e-03
3.701835853471564363e-03
2.316817399359898870e-04
4.942214401216374689e-03
1.733938910032684381e-03
-2.398197593991207698e-03
-1.633883670040106768e-03
-1.981050508940566165e-03
8.923638701071696586e-03
1.978613772217345784e-03
-2.633630538539123711e-02
-1.885415141994552235e-02
5.552318711127423971e-03
1.565615202416100827e-03
1.703672556882133982e-03
1.110851445669762579e-02
-1.383382535599387772e-02
-3.140258932285715232e-02
-3.008964945882203548e-04
1.504436525073083071e-02
6.017197956508365739e-03
7.964252908355659577e-03
1.321551232337303495e-03
-1.830302534056997207e-03
5.106667662360658139e-03
6.895476160023350683e-04
-1.865113981986998718e-03
2.454838159855313000e-03
7.551919975405446336e-03
7.386254066478562322e-03
8.168892769813280693e-04
9.776735678759013344e-04
9.696776408732242329e-04
-1.375335883991718900e-03
1.097687290390688243e-03
4.645978949305049435e-04
-2.830827670146502262e-03
-2.572044276682950749e-03
1.158211278163145865e-03
-9.680913974488204894e-05
-2.890595285408315614e-03
2.583440634672553877e-03
3.808602268385340335e-03
2.332103014324673693e-03
3.376495736759215459e-03
-2.962032595204931208e-03
-9.137612705026557786e-03
-7.180626313388862453e-03
2.635756376915539094e-03
9.271659126083095157e-03
3.746889850712864511e-03
7.589728001677078194e-04
4.558708017608321342e-04
-2.583537697802077305e-03
-1.212975328175529104e-03
2.421677840062914748e-03
2.178318315927565193e-03
-2.490178233860924559e-03
-7.267089151910345645e-04
1.508159098005037698e-03
-3.189312953879028852e-03
-3.898625273465583367e-04
-3.672958657574082898e-03
-1.035060107092889564e-02
-3.243092202808508639e-03
-2.582251081909953030e-03
-8.237704893801051607e-04
2.990777394299130474e-04
-1.240623506462409410e-02
-5.222554611525142068e-03
9.257957735209182415e-03
5.660390636973718949e-03
5.845009830129831163e-03
4.193734335332811175e-03
-1.930761419618123691e-03
8.400057077566006189e-04
3.197150478674685992e-03
4.064925261155110173e-03
6.737530167384159739e-03
5.735132860613751694e-03
7.061679503966972714e-04
-2.305586532049198195e-03
-6.377340436178526462e-04
-1.978448640002227702e-03
-4.940857245779874639e-03
-4.389905071220868982e-03
-5.625201283633456811e-03
-5.888024844193447301e-03
-9.318952186587821287e-04
3.298908260071735550e-03
3.042506824329252804e-03
2.194713592278650215e-03
3.053454136451771474e-03
1.362160286951231937e-03
6.852695280706512949e-04
4.912261471983641638e-03
6.050186462950074041e-03
5.408477773282329738e-03
6.436157321620054883e-03
2.756151103525214530e-03
-8.200690814825703501e-04
2.593267624998443419e-04
-4.406498662210423661e-04
-2.246214072995980637e-03
-3.797261916045259738e-03
-6.714799000402634985e-03
-8.871304335084082004e-03
-7.472980648981017091e-03
-5.452279841015873459e-04
