-7.077309332361476392e-03
-1.464127800509136199e-02
-8.463821620610283494e-03
-2.140167373520813782e-03
4.935571847150872597e-03
6.075757803664501473e-03
4.202742672684539778e-03
5.687101528848386919e-03
7.289421348073208198e-03
9.926761932689452672e-03
8.868511877604502019e-03
3.878306803308070871e-03
2.011923932871494992e-03
3.527732101880159260e-03
2.292040533384030916e-03
-4.489123354713017017e-03
-7.889478488159660380e-03
-7.386194423907201448e-03
-7.447498531802092259e-03
-6.328699471334255609e-03
-8.397140954004338187e-03
-9.237182327963958106e-03
-3.667796462823345698e-03
8.517612920754789613e-04
8.580549396090660303e-04
-4.362123247726537069e-04
2.994862382569479613e-03
5.084418364469892038e-03
1.006389604396039188e-03
1.824906489704099157e-03
5.625928117363926395e-03
6.101933382218288626e-03
5.138459028714337934e-03
3.436906156818050721e-03
2.557925476346842135e-03
6.995183173289587844e-04
-1.041323760504925993e-03
-2.304487373948971209e-03
-3.337574795266771976e-03
-1.114489556455900863e-03
-2.162663587333934091e-03
-4.128434855702482233e-03
-1.113516447557731269e-03
5.467673202762440886e-04
5.636529767519763822e-04
-6.347489865583861744e-04
2.059548866630331971e-04
6.693949929682559271e-04
-4.380168860323298968e-03
-2.275688788757115064e-04
4.852637393244868015e-03
-6.414112124060841920e-04
3.435938319570409666e-04
-5.145880975748197113e-04
-4.378189049114339544e-03
2.794641418431124871e-03
3.574753685461552928e-03
-2.570455392455441544e-03
-1.139812369172919695e-03
1.265888256642078635e-03
6.000550440131934265e-04
-8.676019590664099104e-04
1.030193202176662342e-03
3.230911325011321181e-03
-6.746719083744015825e-04
-3.488659249029939756e-03
-2.285840467732990714e-03
-1.683766189020601369e-04
-5.179090214278021234e-04
-2.637869906353531441e-03
1.473599410497410502e-03
2.682946106637449160e-03
-1.731934525077644419e-03
1.200370125433570297e-03
4.821623065478381105e-03
5.778696975736153166e-03
4.306218343611288406e-03
-4.089786937505438501e-03
-5.917988566013085254e-03
-1.112740522494276227e-03
-2.503167566290646906e-03
-2.856364045393636458e-03
7.396765602667296951e-04
1.378305098341121946e-03
2.558789003437737623e-03
4.737083136736815019e-03
2.138175045377429216e-03
1.524198635630864612e-03
1.983251451555907794e-03
-5.083487065507364538e-03
-5.260779001536342384e-03
1.550667822402597722e-04
-5.079672848836506646e-03
-7.214801792881761835e-03
-1.308848629185805279e-03
2.968107585096240331e-04
-4.975299026491805795e-04
2.592442670632016857e-03
7.545992145473161793e-03
5.896511361647056165e-03
3.109885513102237948e-03
4.923936652652419373e-03
2.688359806674880080e-03
-8.731096143734185184e-04
-4.080571882049180941e-03
-5.684294754017992467e-03
-1.155279801300909031e-03
-1.289480861129572997e-03
-1.857003843438821255e-03
4.141100743099432671e-03
3.278623773407708143e-03
2.105820478588910690e-04
2.630777632708644533e-03
-5.788865604583423336e-05
-4.280671082673298544e-03
1.563540540170053742e-04
2.696528029070489624e-03
-2.163881405855946384e-03
-1.494677314510281995e-03
5.548720067249057709e-04
-4.547130254726821155e-03
-5.782240581885241502e-03
-1.513996648536293553e-03
2.006897142604933612e-03
2.884666385794510193e-03
1.406343198660652384e-03
2.938978914680115146e-03
3.029761994094686082e-03
-9.510936933812763009e-04
-2.274094747801942273e-03
-4.539001935069997100e-03
-6.245293045992521275e-03
-1.645128729144803821e-03
1.621946915501454572e-03
2.053212353162333856e-04
-6.426219735871153450e-04
-5.456101525687434214e-04
-9.508260727605822747e-04
5.088169396395186882e-04
3.200171329033672189e-03
2.051588384213924587e-03
-4.546946009971908776e-04
6.162762473525030833e-04
2.500517260465406032e-03
3.336202037471971190e-03
2.672239600837537574e-03
8.957898516692714818e-04
2.308222297838216728e-03
3.345510646493096794e-03
-2.022112691920160824e-04
1.986947115178806843e-04
3.044494900465389339e-03
-8.011319182172036172e-04
-1.512211737684962228e-03
3.020965370231418028e-03
5.129968760474153209e-04
-1.188157255803625476e-03
9.855450282053271772e-04
-3.581047770307950202e-03
-4.968832185456828997e-03
1.305852624832912982e-03
2.494743621252862309e-03
-7.215298278547384791e-04
1.007022080591051189e-03
6.575230034472263202e-03
5.996727053395547839e-03
2.875783600196011626e-03
-6.677573863496115772e-03
-3.350860177676840551e-02
-3.414819736092846586e-02
2.862529586110906712e-03
1.397421676658024310e-02
5.284612837773516522e-03
9.721360494925026380e-03
4.861329080846129441e-03
-1.035228594878910037e-03
4.817436563135902954e-03
4.722562126039909006e-03
1.718895826297962143e-03
-1.071375844508780460e-03
-4.367732073727257844e-03
-1.500217666782376795e-03
1.619264816427840731e-03
2.487762524291641918e-03
3.702319359400286364e-03
3.097037560638952764e-03
3.678697508536085941e-03
4.669393604112522141e-03
1.102143298291356982e-03
-2.444623525113996058e-03
1.048770808760070825e-04
3.148043686473127149e-03
6.610067581717980279e-04
-8.099510643763608480e-04
1.918107640012018701e-03
2.002339741040479529e-03
-2.540706743399994555e-03
-6.568853522393438768e-03
-4.888360085983112571e-03
-2.531963446855200767e-03
-3.834425689415794664e-03
-6.543494140829738889e-04
1.553489286388429810e-03
-4.640267056782595989e-03
-5.440996117611921097e-03
1.569398835742998087e-03
5.238570055202372740e-03
4.402896804944715810e-03
3.218977471057780492e-03
2.123649929426300702e-03
1.700061134341715593e-04
5.766438845106446878e-04
-4.561280186032858031e-05
-2.796969161310243219e-03
-1.847464109134941152e-03
-1.480954385893854886e-03
1.188475519298680264e-03
3.955052755860287254e-03
-2.406840633284873803e-04
2.038960672226101424e-03
2.260737402224620874e-03
-5.274717535091837974e-03
-1.692535273552081380e-03
-2.945205707497851539e-04
-3.740801364658583473e-03
2.326360252582041193e-03
4.007247428308491344e-03
6.403668335179744367e-04
-5.736697902305378655e-04
-2.104126815007297327e-03
-1.115619469676548074e-03
-2.306650786977125760e-03
-4.040527679847912695e-03
4.848055973858510231e-05
3.407909942086791155e-03
2.444177068177441191e-03
-8.889757888570432379e-04
-3.229489383289335484e-03
-1.102807722622431864e-03
2.154623710069808549e-03
3.207632354480479883e-03
2.786415961342974396e-03
-9.768872583742762520e-04
-3.735536789961249864e-03
1.801658806764933540e-03
5.063783518550601416e-03
-1.496691632121843881e-05
-1.547446509546852910e-03
-8.357539662937013645e-04
-3.682362084596559580e-03
-3.037819736416358211e-03
1.044113040241423200e-03
8.706493318151341037e-04
-1.195989151739635346e-03
8.244087771425100651e-04
3.453050307157016444e-03
4.370224344342742498e-03
3.790665976982410257e-03
-1.170960825416151414e-03
-3.587276124326933217e-03
-9.134644650637575858e-04
-2.130048865470412622e-03
-1.921073111887395537e-03
3.327523702189342895e-03
4.509921483157423860e-03
2.906083160478860946e-03
1.394413494350040883e-03
-5.058285917146832693e-04
-5.097308811167469613e-04
-1.141775061554538631e-03
-1.037737945697784787e-03
-1.252443158613959209e-03
-7.183638518469616201e-03
-6.765096426005841670e-03
1.008399844211850700e-03
2.749358402796483157e-03
3.933573794256242477e-03
2.568894401961585496e-03
-2.328487820863161042e-03
-8.304279673302438565e-05
-1.467533074135365196e-03
-3.584799811678136220e-03
4.217233875053980584e-03
4.926706340531376849e-03
-4.931061471232587711e-04
1.557635941295627195e-04
1.318095257106238619e-05
-3.596179313882305693e-03
-2.951225519163896364e-03
2.526469162113816665e-03
8.640461208761320618e-04
-3.177829079133192691e-03
5.225985844186515879e-04
-7.099906553114064782e-06
-3.088419923597441382e-03
-2.043293366884163520e-03
-1.453964353142052140e-03
2.085936106725921977e-03
3.987379702834818219e-03
3.369694921085855058e-03
4.024055827879728653e-03
-7.390563009772712971e-04
-3.022540364538447381e-03
-2.023753303908119036e-04
-1.314769963207865601e-03
-4.653978500064521497e-04
2.548648749312985937e-03
2.658891941437249804e-03
1.405043883751347844e-03
5.861578951759448372e-06
1.717111466340210486e-03
3.242111989088209550e-03
2.546158187147035904e-04
-1.262585973434932583e-03
2.761024551425664514e-04
-1.628458675031459928e-03
-3.991864271406540821e-03
1.312550928457223431e-03
4.815084941246015014e-03
-1.559865877306077734e-04
-2.606818163066101750e-03
-8.364524698183940484e-04
2.490647209345713854e-04
-7.305000648003709364e-04
-1.854801554964822250e-03
4.673498543517410871e-04
5.421833442620955113e-04
-1.583836689161146477e-03
-1.582037033626317339e-03
-2.723681842640422648e-03
-1.855321183976550410e-03
-1.481848927195948240e-04
2.075764984807951675e-04
2.286092004769828181e-03
1.587955004374655204e-03
2.962706237949457727e-03
5.495382571868346992e-03
2.131551696256465381e-04
-2.650033462570605940e-03
-5.175561939786666420e-03
-9.244348137604720475e-03
-3.921140551825318121e-03
-3.056116990658478642e-03
-5.643018526614898903e-03
1.504188052832827792e-03
3.904491401602159465e-03
8.565835527657712604e-04
3.253301582205847769e-04
1.250579268667157350e-04
1.781073843290870064e-03
2.171693151465843487e-03
3.171346593885553816e-03
4.377669755008968371e-03
2.574528841162715409e-03
1.546350895826354875e-03
-1.517774767593849756e-03
3.336739858527379204e-04
5.186752458463732458e-03
2.481182467163928814e-03
4.711154041572746497e-03
5.824121972603123719e-03
1.779139277951008674e-03
3.957776675321756504e-03
2.823894490635317934e-03
2.575107360270266835e-03
6.690926211720762701e-04
-7.869386177332961599e-03
-5.417747109669394760e-03
-1.938637158076473785e-03
-5.862527033269123865e-06
4.331852003728529389e-03
1.341105051380418571e-03
9.317129285769289041e-04
-1.324791026324052476e-02
-3.406636358783006469e-02
-1.907823083658899063e-02
3.371090007070867527e-03
8.293712530899794572e-03
9.302038302076999152e-03
4.414764423377597578e-03
3.376577781854865536e-03
4.549029315735975999e-03
7.394385493815295576e-04
1.721846079682406256e-03
4.160438633225312273e-03
5.488015213959859979e-03
2.204446046790901545e-03
-3.112952279089027056e-03
2.640042397833776335e-03
5.202136582816469131e-03
-3.353321958823166516e-03
-5.908521535068320292e-03
-5.936242349700602888e-04
4.332560843677402303e-03
2.359997305080870252e-03
-3.962778414427225310e-03
-2.328685723934123628e-03
4.397191833339283810e-03
5.534069908891894873e-03
2.858578076102888388e-03
-2.304856507380817574e-03
-8.707198419676572335e-03
-5.680648481593958236e-03
2.697578576813280254e-03
1.976533181744732914e-03
-4.211406646693783705e-04
1.922930800710659230e-03
9.730739475223338947e-04
-1.870480063471887788e-03
-2.152650195009714849e-03
3.489275055986927024e-04
2.570655305973518906e-03
2.076807760403486230e-03
3.454612431623832296e-03
3.149784172288177739e-03
1.562940288261431944e-03
5.233262292728969346e-03
1.990721182832604942e-03
-4.660206912512173533e-03
-1.575657549662793418e-03
-2.740663307990068298e-03
-6.742269132993833347e-03
-3.086621076646931753e-03
-2.362117489431511327e-03
-2.016856033092463262e-03
3.506977863482094518e-03
3.141925649998610331e-03
-3.184596679122497862e-03
-5.089644120966598656e-03
-2.480654045764411897e-03
4.930008301987251441e-04
2.954366894983579805e-03
1.128167198591290997e-03
-1.790548165115894794e-03
3.845762365653223431e-05
5.213234374761198603e-04
-6.995676154578527647e-04
-2.665019455380224656e-03
-4.685759680143820882e-03
1.833402888340581686e-03
5.617541127086425785e-03
8.047978426035698159e-04
1.146908685802505148e-03
2.064282905054984265e-03
3.002042714974925090e-03
6.794729950233478061e-03
2.933364710355703883e-03
-1.883745544611726414e-03
-1.879390853555287203e-04
1.553361736085693331e-03
2.173235759599214181e-03
1.533896236540909994e-03
4.265808102368948552e-04
-7.695847691189637444e-04
-3.592038817214247316e-03
-3.103302024302705738e-03
5.229050092961143835e-04
2.708280146515302904e-04
-6.372110965857653679e-04
1.019071099762624243e-03
-2.877539265256703893e-04
-2.587167890737466884e-03
-2.248495640608718944e-03
-2.285592925122212262e-03
-1.689754162777126539e-03
-6.384129349083403999e-04
-9.350854110496517775e-04
-1.208646433721217214e-03
-2.531365624939067773e-03
-2.607510544977762086e-03
4.816111777355802214e-04
9.297338754864637855e-04
-1.468687051055425066e-03
-5.305238163735123864e-04
2.352580347798197743e-03
3.602651472127990032e-03
4.884470066614889083e-03
3.600479635536768790e-03
-8.657947070219527280e-04
-2.125337954240752100e-03
-1.106946136373337247e-03
7.631564022492235908e-04
2.936952043273502455e-03
2.345564829050843236e-03
3.152518509959323454e-03
2.425692722159418762e-03
-1.193814311732752098e-03
2.259522790619297814e-03
3.536108797380482869e-03
-4.365556796635439510e-03
-6.261820767370626650e-03
-2.295132079718713476e-03
-2.385967637191482426e-03
-2.907855566284089487e-03
-1.282876310473222937e-03
-5.773877693188584617e-04
-2.221544745199674421e-04
1.231485174270404792e-03
2.685451504511356894e-03
2.259588258240717313e-03
8.584372979764375586e-04
1.956221652067896381e-03
6.918723550863615243e-04
-4.015821424285240769e-03
-1.105764530156366689e-03
2.668208163817071925e-03
-1.045412606686916754e-03
-1.243239606343410526e-03
-4.267655818790985181e-04
-3.242197339965101257e-03
-2.152882106454251723e-03
1.620092773850081731e-03
3.791259336086681003e-03
1.195627037975186035e-03
-3.219784327992905679e-03
-1.101520670096789185e-03
3.550067630932141668e-03
4.355960532319741972e-03
2.643002161710485479e-03
1.588807317852179279e-03
8.345824477881835400e-04
-2.712003491436420794e-03
-3.858585972888844452e-03
4.273560980953069891e-04
2.293750570867509296e-03
7.214926851206574822e-04
1.513710529727797576e-03
1.934421357559851923e-03
-1.915633188840749164e-03
-2.651313107203369639e-03
4.831447788896468115e-04
4.307898280487724519e-04
1.604080589896559033e-03
4.224955646120380146e-03
1.188494878938870696e-03
-4.115642561300684836e-03
-5.959792811703831968e-03
-3.541617564991186590e-03
-4.781111763936072168e-04
-9.211252326441773204e-04
-2.477687741589936279e-03
-2.438422307374979187e-03
-2.289329777533877230e-03
-1.810363257604128188e-04
5.112937146248621410e-03
3.403892848345548266e-03
-3.535405176266468146e-03
-9.341751488694522267e-04
1.770415283272882157e-03
-7.286443527989793466e-04
1.033957575968442490e-03
6.545856622951962871e-04
5.392749462543419865e-04
1.808650101215980447e-03
-1.213400380799216274e-03
5.133096295142121216e-04
6.522496041851612476e-04
-2.681098230893969123e-03
4.164554876050512622e-04
6.553388181749702579e-04
-9.694291577369647164e-04
-1.444385619037948847e-04
6.072817654664068284e-04
3.749078977855225918e-03
3.680154028839515562e-03
2.954252208185482835e-03
2.206272138036969449e-03
-9.163717087367413043e-04
2.326543196262914268e-03
5.078983265920886461e-03
3.803311310819128006e-03
8.781203446508337260e-04
-2.865399421381168918e-03
8.256693573242176445e-04
-4.297729069717060491e-04
-4.513347565653079950e-03
3.937021906276734831e-04
1.596450543800086142e-04
-1.038075071705129747e-03
-2.039538386985884338e-03
-3.237294658261570188e-03
2.547772146196823975e-03
-1.981948754731989340e-04
-1.313103880223047372e-03
3.699379926188037324e-03
4.119687389108627612e-03
5.141928436304523363e-03
-1.862894285343538042e-02
-3.753349954411627776e-02
-9.482269761890304086e-03
7.536127163802087449e-03
5.696575929198935406e-03
9.054079658619809332e-03
-1.257018944772851036e-03
-2.072961377057411670e-03
6.525759861904408855e-03
2.417140896791941836e-03
2.801599345777864344e-03
3.956175919394048016e-03
1.971347825801030452e-03
3.949912903058506314e-03
2.047147078303378567e-03
2.635319385421232047e-04
2.458950956729405446e-03
5.744881416139541522e-03
8.964016896468038689e-03
9.116470266967144354e-03
7.489231092571701012e-03
3.776470245055508525e-03
-2.286772130073741124e-03
-8.109004007010782097e-03
-9.972896587045315328e-03
-5.493824534752929020e-03
-1.750903160506144505e-04
3.330240969958093381e-03
1.524263652540328506e-03
-5.345955429901770757e-03
-2.879679349061197054e-03
2.958943635077962344e-03
-1.867215927233950947e-04
-3.710380385482253424e-04
7.090199317536362376e-05
-7.851807387271368330e-03
-1.047744865683157035e-02
-3.007656297819448835e-03
3.204063399985157459e-03
4.751264614320710455e-03
5.775737037083065323e-03
3.426544233166774634e-03
-3.727111584361474973e-03
-3.657549624666226254e-03
1.018057363792705325e-03
-2.487170701711718165e-03
-5.519628052706064721e-03
-1.265796570363437925e-03
3.551748947605867443e-03
3.036991798913719637e-03
3.815445124489216127e-05
3.821994633149995539e-03
4.738821146607925285e-03
-4.546157375863092709e-03
-8.788959299758151295e-03
-7.139032796951168269e-03
-4.720059526906391321e-03
2.960511852842451479e-03
9.696979600090055440e-03
6.966638058040871412e-03
1.155285190804061606e-03
2.685931827869235313e-03
5.704991377814383480e-03
2.966822916823811350e-03
2.011940219807280706e-03
3.323288387755788179e-03
1.898781343238295418e-03
2.505346044597702793e-04
3.894672049266250432e-04
-2.120536755301448677e-04
-2.853313630561855451e-03
-2.142599049189850349e-03
2.183012206011069575e-05
-4.292337415158026248e-03
-7.775579470402649469e-03
-2.957208877691149592e-03
3.322554341333407634e-04
-1.714551163179557679e-03
1.548080994113321465e-03
4.253778776341102241e-03
-1.311631208914135725e-03
-4.088481730676519653e-04
5.233561108597738730e-03
4.512886973093527439e-03
2.927478485921101818e-03
1.966127779882068018e-03
3.305270943908221893e-03
3.461998548731993423e-03
-2.844894905265818626e-03
-5.210606593110308701e-03
-5.023578104959620753e-03
-7.110571229522039821e-03
-5.309938619083918836e-03
-5.013793835185370411e-03
-7.594546768362043024e-03
-4.776159579349310152e-03
-2.471674530186201892e-03
-6.794390369727980848e-03
-5.219313285765960972e-03
3.580804683605563581e-03
5.037205726991974761e-03
4.496670482696663376e-03
7.257674253199178187e-03
7.172023088378580956e-03
6.037223255536470871e-03
3.050551882474873862e-03
2.935787638099373719e-03
4.495895926323243558e-03
-6.616303534024168881e-04
8.795430292351700489e-04
6.737694945710604247e-03
6.027879631172217666e-03
1.073752075607533989e-02
1.474843358979405390e-02
9.626343484921345145e-03
4.640695336843940998e-03
3.083796653653594986e-03
6.316985839000570195e-03
2.342693194404803746e-03
-1.947411021948021806e-02
-3.504886654287842074e-02
-2.477304121872140469e-02
-6.494682038474873347e-03
-4.295104088139629602e-04
-4.198213746266182649e-03
-9.370674901660294015e-03
-8.714857771337087416e-03
-1.850633407542999096e-03
-1.422972857973019666e-03
-6.739614309841162818e-03
-5.822884071036850406e-03
-1.503274523527079517e-03
5.787889355914875317e-04
-7.525014416642784301e-04
7.229823901900028641e-04
1.583153336953116788e-02
3.228271239124821945e-02
3.562277411522577625e-02
3.411390196114775369e-02
2.182780950919421120e-02
-6.998267540031667677e-03
-2.504276451543682377e-02
-2.243062328548774131e-02
-1.713137590514324238e-02
-1.108686547684029251e-02
-1.793863474463195436e-03
3.759421823981238479e-03
4.876090867158253649e-03
2.309887925102410092e-03
-8.332331650883236093e-04
5.006439672397972052e-03
9.876835541702034399e-03
1.281321764685491556e-03
-4.480282391348297880e-03
-3.247160917937170956e-03
-5.119598847684620792e-03
-5.005203222958967864e-03
-6.076620931393196534e-03
-8.558752231986193476e-03
-5.173829100492442074e-03
-5.085743179149787227e-03
-4.547988171361138157e-03
5.845740603747476803e-03
1.152374892117199665e-02
6.037711068488634328e-03
-2.997492912384438005e-03
-9.676678146182046691e-03
-5.734256645241832262e-03
1.504676025351247290e-03
1.338784869742371637e-03
1.122410351573999631e-03
-5.897777742472407438e-04
-2.591675906735802209e-03
3.308416911826341433e-04
-1.174383142326135233e-03
1.777019213407628933e-03
7.114363311183507198e-03
3.805376870885672676e-04
-3.543564350792462918e-05
2.889191821326801864e-03
-6.445504556435416961e-04
1.421986182594069722e-03
2.834270731240321178e-03
6.450703760559366694e-03
1.189556278693640334e-02
1.074982618212656782e-02
1.167110145416510800e-02
1.057475257315127447e-02
8.735543949107757791e-03
6.815072956167216728e-03
-1.065928473081538845e-03
-5.062644739054033942e-03
-7.717026083272245963e-03
-8.460213221689417973e-03
-9.201089918439387880e-03
-9.026178183556870377e-03
-1.239410636061478478e-03
-1.988702231750215030e-02
-4.005412724230100058e-02
-1.377769623726519607e-02
6.301939406759132778e-03
5.132387154044217026e-03
9.590603991791941604e-03
4.702458224646112982e-03
-2.062516539101041067e-03
7.832803138032642118e-04
5.106882578425595703e-03
3.724566178398754437e-03
5.095951706669940486e-04
3.032912408643259009e-03
-1.275781616029282410e-04
-4.172848242299561326e-03
-1.459372711529348908e-03
-1.751946981578370879e-04
4.577282355172302385e-03
7.439634788432055411e-03
5.379167234077463812e-03
6.627838087459008397e-03
9.255034967466024484e-03
1.177087906827689948e-02
1.063445618606462945e-02
9.508468944116421281e-03
9.051409289841511746e-03
2.711065878420249107e-04
-1.296570440291884910e-02
-2.251095703890050592e-02
-2.093829204144355069e-02
-1.751098412636683740e-02
-2.102855331830374985e-02
-1.577818548480503652e-02
-2.224659013771809139e-03
9.647977460541804634e-03
1.407219288347205666e-02
1.222491713987079037e-02
1.529959002281363646e-02
1.469650369653299933e-02
1.239430936130913631e-02
1.702875857133059889e-02
2.079149474894897293e-02
2.471074469993204958e-02
1.305770869680233925e-02
-1.618108113079277585e-02
-3.194387314939720751e-02
-2.655378925732074583e-02
-1.341995046890048955e-02
-8.936381606839783470e-03
-5.862815525871535940e-03
3.235730463130481478e-03
6.415317086559291226e-03
1.449422778390532102e-02
1.646888944241510153e-02
8.166815174376576558e-03
1.298775197489482856e-02
-2.905485017763466665e-04
-2.606686052279557145e-02
-2.434671999330461495e-02
-2.328296087846377233e-02
-2.741406530759952012e-02
-1.590921043883063504e-02
4.827950606577765570e-03
2.781101247632930887e-02
3.285340520348327409e-02
1.815382664895823228e-02
3.149467278159939938e-03
-8.120362897556927112e-03
-9.612468695539121838e-03
-8.115297023712747526e-03
-1.205734334873069177e-02
-1.154944895641985686e-02
-1.243925009516389131e-02
-1.616762638874447156e-02
-8.054939495904323357e-03
3.609688027871318754e-03
6.958398481408836593e-03
1.096579631893977377e-02
1.825949736018548514e-02
2.205300390915452061e-02
2.216308398545405872e-02
2.224092644655645615e-02
2.329488384170187026e-02
1.981482158837728422e-02
8.636991353494903600e-03
-9.444744614400840677e-03
-2.737517476662383598e-02
-2.717246466884315481e-02
-1.907222288845139210e-02
-2.503642261475600220e-02
-2.558228123192381187e-02
-8.201396027797649285e-03
9.793279232203083370e-03
1.860564023064039188e-02
1.897294493010624056e-02
1.823600004648582434e-02
1.655447640777798698e-02
9.536565532374308152e-03
9.307909653527735461e-04
-7.402307763071819605e-03
-1.063726515941454745e-02
-8.172923734657494901e-03
-7.443297343089065599e-03
-5.200974212202907074e-04
2.239185857318453168e-02
3.848282831789801711e-02
2.380378093694694025e-02
-2.088788882334159517e-04
-1.278861415833120428e-02
-1.715186581839224858e-02
-1.341856243054979220e-02
-8.274215588274890301e-03
1.941249972313161334e-03
1.289188001600230331e-02
1.510523703046047148e-02
3.128530528716944731e-02
3.328647134444152889e-02
-1.784149218514753665e-02
-8.473686655250663169e-02
-1.288185056608459889e-01
-1.242935045182937404e-01
-8.229387680356843593e-02
-2.596173466449988934e-02
5.351104439923633910e-02
1.030078762507537216e-01
1.060789400425299345e-01
9.902942293210210967e-02
4.080665941473242408e-02
-3.808875067490190280e-02
-5.991331374643922569e-02
-3.191302567466153262e-02
1.888404718289892273e-02
4.769510781760188250e-02
6.216107859123374407e-02
8.979355271774618064e-02
7.296739259472696804e-02
8.324007538130482470e-03
-4.012712654657630412e-02
-4.295870174286897658e-02
-1.404371585419491274e-02
9.837785401645425185e-03
2.645192211430204970e-02
2.715265132589455080e-02
1.975170377036708329e-04
-2.695779746401866586e-02
-5.435769331115116593e-02
-5.893091957482132770e-02
-2.016198940450103505e-02
5.480138620534646954e-03
1.115485201608538285e-02
1.622711176939384964e-02
-5.948993570293477882e-03
-5.414863750832173833e-02
-1.009024195325790019e-01
-1.122946854122259946e-01
-9.054493362546439661e-02
-6.942588697858391444e-02
-3.138315005615383707e-02
1.905797030672171793e-02
3.934195994891658693e-02
3.491163037254986501e-02
1.794453103988068177e-02
1.341512336585205800e-02
4.656501105232084547e-02
8.231382231804751370e-02
1.099261195869350033e-01
1.419326293202579359e-01
1.355632376510484960e-01
7.539017106553747016e-02
1.895836737103976516e-02
-7.337066019279798838e-03
-3.180232749814678600e-02
-6.694476259669268625e-02
-1.040092513630921367e-01
-1.011343473215011862e-01
-3.289040648338277528e-02
2.545369536240468106e-02
2.614934329227495968e-02
-4.572283096007150917e-03
-5.117279532299081474e-02
-9.200874879992462785e-02
-1.244201203942821021e-01
-9.649583685208858175e-02
5.179750815071264280e-02
1.845568800886327188e-01
1.711682992539147741e-01
8.965403851738250329e-02
5.221074740176770423e-02
1.901803692654761499e-02
-1.252420651642218719e-01
-2.724906248914432116e-01
-2.434835352432791478e-01
-1.204908382998335636e-01
-3.080867889962795453e-02
4.245996934417369667e-02
2.001856499371284792e-01
4.271772433160442861e-01
4.899335210159153631e-01
3.547906716634301461e-01
2.061380074231316528e-01
3.572545551221983223e-02
-1.602839164329134813e-01
-2.694852373807465340e-01
-2.991053945853284768e-01
-3.192581907540518182e-01
-3.752442454222195134e-01
-4.007713061941986510e-01
-2.757638861400492636e-01
-1.104382601536910563e-01
-2.636378396176467485e-03
1.708078746797358771e-01
3.471062198099477136e-01
3.398784875594633159e-01
2.292275255008954515e-01
1.617902246466560723e-01
5.823391385441541862e-02
-1.438445348408245450e-01
-2.593310271203060902e-01
-2.311562143140270809e-01
-2.454557698914887343e-01
-2.843382619092951202e-01
-1.566552389082657426e-01
1.263749697138552008e-01
3.321401005568289100e-01
3.583631749344722839e-01
3.287602088272508216e-01
2.684443238619272920e-01
1.813403925400526862e-01
1.141714176679590464e-01
9.022068089189351492e-03
-8.600065034232581840e-02
-1.124767157402553203e-01
-1.134906400957333139e-01
-6.769676448596950724e-02
-4.907547820195193831e-03
2.803614021311926635e-02
3.836050801586819020e-02
3.499513331031499364e-02
1.925751941441944046e-02
-3.888086235694839660e-02
-9.365611579599029957e-02
-1.157147780866090298e-01
-9.132495786223505940e-02
3.937467043078520662e-02
1.296828820290741591e-01
3.920295863302093037e-02
-1.414785947509292485e-01
-2.576203841988846110e-01
-2.357218562446624366e-01
-1.709031230271582935e-01
-4.768365141256551698e-02
1.135047330189794951e-01
1.055355862185184956e-01
3.610679326179624948e-02
3.523375968140080028e-02
-4.393716341266108022e-03
-7.886696132896964251e-02
-1.037475931873467899e-01
-1.236626380053248812e-02
4.171195295867002883e-02
-7.439488941172353598e-02
-1.125572028598599283e-01
5.101414971973482898e-02
2.470178255560664116e-01
3.031456880449474589e-01
2.148391601988386690e-01
1.281980510716936861e-01
6.242383692838980591e-02
1.160101237353559737e-02
-1.342438301854460489e-02
-5.547244544630307306e-02
-6.472478145368147640e-02
-4.798071738419820709e-02
-2.202838903574149201e-02
1.895516997985882343e-02
4.309154580716032489e-03
-2.816259020212353442e-02
-5.684500893360451557e-02
-6.939542336381443466e-02
-1.934024868669308173e-02
-8.200356312212843043e-03
-7.076865836819499871e-03
5.637337656504844141e-02
7.809070789902808341e-02
7.725668036080250711e-02
7.493467024332119142e-02
5.222709318173400679e-03
-6.825833731428955498e-02
-1.091856164682214192e-01
-1.647173558118629200e-01
-2.003794197559519707e-01
-1.513106584681868927e-01
-2.588934477826302163e-02
8.439834885560155986e-02
8.792449399209054106e-02
5.047041982349175643e-02
9.146106687389884971e-02
1.453558945357893151e-01
1.013185442367819933e-01
1.340923763691402072e-02
-1.043772250025496763e-02
-2.151690425910455368e-02
-1.377596826675799024e-01
-2.685055184867658484e-01
-2.480925740742248864e-01
-4.786011052910503494e-02
1.986474836658513043e-01
2.557321135746941088e-01
1.467426537234095274e-01
6.733751991508403478e-02
1.151141577070410350e-02
-2.822285986293489660e-02
-2.250042353014281363e-02
-8.229185357047306623e-03
1.278251969545976356e-02
2.373618479955373964e-02
2.685965046848026033e-02
3.617827702629878434e-02
1.972481596493608907e-02
-1.293843556191261353e-02
-4.422458160895707119e-02
-5.547377691247742937e-02
-3.196010344649825863e-02
-1.743128869907897491e-02
-2.627700496981560593e-02
-2.192984155146356778e-02
1.088641488692932563e-02
3.339548373994349201e-02
1.216978157728346166e-02
-1.642033724235083744e-02
-2.756139292190168052e-02
-2.734816136860695329e-02
-1.949461907941357069e-02
-1.817895374100086600e-02
-1.608227197453065277e-02
-4.848344108447361425e-03
8.883968559657267478e-03
2.095673171018809511e-02
2.242444662724671703e-02
1.868066585383267725e-02
1.497977313970494558e-02
1.022909158414287562e-02
9.340544024034502790e-03
7.943202074984778704e-03
4.980400458727299480e-03
1.860435184386549558e-03
1.575903939946924357e-03
6.992457550198651929e-03
5.223716275190990431e-03
-5.855859277986970833e-03
-1.459775242321499286e-02
-1.383946744254231122e-02
-8.389975007683885683e-03
-7.217777626748149780e-03
-1.738072984096315950e-03
1.923603505515710096e-03
-4.453302060058983089e-03
-1.397835042973310724e-03
4.279564348473926388e-03
4.629051839401271060e-03
1.178924789178389075e-02
1.435203348770022758e-02
8.662290708631665073e-03
5.086453118072415888e-03
4.011493103512637354e-03
3.898588763931573088e-03
-2.420445961097329615e-04
-6.416079476264656932e-03
-9.837854057273661551e-03
-9.791800815605267161e-03
-5.751601679749027314e-03
-5.107965054001205318e-03
-4.332805650710425983e-03
3.628117566613280965e-04
2.304664405167192870e-03
5.517741197912205339e-03
4.582625403174855373e-03
-1.120211943774250454e-03
1.284736669912496813e-04
-4.211598739619060974e-04
-3.474106305216211922e-03
-2.650228507950472181e-03
-3.742602807346948664e-03
-2.049579073635702294e-03
1.405735250441581940e-03
-6.014750388690047727e-04
-1.825625595110128702e-04
2.242822063052090677e-03
-1.276860988671364933e-04
-7.033613135256833919e-04
6.676514516594718755e-04
1.615805576454097236e-03
5.286908152012739955e-03
2.607779180543002163e-03
-1.005981053234077062e-03
4.833989459860263058e-03
3.455035241999964736e-03
-1.896047881615189369e-03
-1.245548233817217183e-05
-1.184608279812043950e-03
-2.270584692066407624e-03
8.528899635880431368e-04
4.586927544469240718e-03
6.440290465701315609e-03
3.909849588272571244e-03
1.611414919895031491e-03
-1.113883770148128133e-04
1.937363678095977912e-03
3.945887423209910178e-03
-2.442757923749963068e-03
-7.964869155366075329e-03
-1.863907174469955214e-02
-2.558185569328631434e-02
-6.618565984833220915e-03
9.810195239758186248e-03
8.730367464756394122e-03
6.426023589247050784e-03
3.851656768837844261e-03
3.474403398262407034e-03
9.690573487678807345e-04
-2.782900329077522654e-03
-2.297943145395184707e-04
-3.657934142115174610e-04
-4.318848266260452294e-04
2.053282682706723209e-03
9.625381933224024444e-04
3.381465002303931083e-03
4.364498887481198415e-03
-3.244979944840935791e-03
-6.932497333966940178e-03
-3.628858664388907602e-03
-4.927773136959688475e-04
3.167445844970397974e-03
5.363837373822221213e-03
2.652133659846490910e-03
6.130911742663848127e-04
1.219104972055193000e-03
1.196618327601032226e-03
2.904098369495312633e-04
-2.643427200430305875e-03
-4.044795041765276468e-03
-4.033456333358179753e-04
2.073675611804705506e-03
2.454480202519429381e-03
2.663638678287736164e-03
-1.123325618964754555e-03
-3.006236253282860201e-03
1.482377478729908580e-03
1.148952761758979205e-03
-3.517830727058701441e-03
3.925522238847520512e-05
6.017352326002638196e-03
3.083626141792306964e-03
-7.323763020370516966e-04
1.696504972305630694e-03
1.309555988136036977e-03
-3.546676884496125122e-03
-5.042595978079232599e-03
-1.552043149261264285e-03
3.116503056418171852e-03
2.363761148592441984e-03
-7.179434974435653369e-05
2.680493299710429156e-03
3.154631312317940361e-03
1.010312005151136434e-03
4.994347151326362032e-05
-3.258218070796185112e-03
-5.253791391061224912e-03
-4.945405579605137263e-03
-4.120888584030073069e-03
-2.739248144031220661e-03
-4.157672122567984685e-03
-5.165029563585752520e-03
-4.389488518992243696e-03
-3.062240503558935796e-03
1.865638536380130824e-03
4.832562849743254375e-03
3.724895087361993276e-03
3.808673281478845273e-03
2.738902496934282008e-03
-2.821196072736690684e-04
-1.798866816514684518e-03
-1.351001346981703681e-03
6.391909389705229547e-04
1.870411462987875461e-03
2.727587138396003925e-03
4.949581270394960535e-03
3.017095021649015933e-03
4.035264935734860360e-04
3.402750857895603040e-03
2.069986193629778232e-03
-1.661464965851446214e-03
4.260069314785654366e-04
2.384553008862245766e-03
3.680581520642455407e-03
2.289260741413428907e-03
-1.326950888437077080e-03
-9.369026795203946878e-04
-1.084095328760853807e-03
-6.782438962298233511e-04
-1.795895879163705204e-03
-7.497732372992363566e-03
-5.981789863745226761e-03
-1.571079234741351539e-03
-4.036464057748852816e-04
2.241361187470580166e-03
1.605736633350784981e-03
9.679173559431594374e-05
-6.697915942603588964e-04
-3.217515083138138086e-03
-7.979165614875815497e-04
2.483170281078679251e-03
-3.786784938760434367e-04
-2.788182721756149365e-03
-1.058362793551935509e-03
1.449852519699508535e-04
-6.007535961686663942e-04
-5.644880467141199110e-04
4.805511629841175900e-04
2.200875159262879067e-03
6.626926878243118201e-04
-4.011993038839302590e-03
-2.157182045184156006e-03
3.279878822608563258e-03
5.878385245605051782e-03
6.261860007918752628e-03
4.688094703460048097e-04
-2.955283679322916451e-03
2.640959575218914616e-03
2.811681926114542162e-03
-3.471235770307658404e-03
-5.068130198689247898e-03
-3.146137256344830151e-03
-7.277357342900141798e-04
2.188227034447751129e-03
3.661856011618857577e-03
2.851554094109139820e-03
8.047201916151832269e-04
-1.521201439031427769e-03
-3.124050951467790584e-03
-3.094511097795241399e-03
-4.240279475128058001e-03
-5.823040831512258167e-03
-1.181834435206001189e-04
6.020777780706866068e-03
3.165430761760656617e-03
1.106805627142038806e-03
1.028840449379824797e-04
-3.606766800950448291e-03
-1.484060764647903308e-03
4.798923573111681128e-04
-2.393487502271641077e-03
-2.204442816847851979e-03
-1.148216967227050703e-03
1.606601806654812969e-04
3.049244399157599768e-03
2.929991139752684097e-03
2.621286845470835285e-03
4.649130717999451143e-03
3.629320236595129454e-03
-7.646245477331498140e-05
7.963405035064683802e-04
3.259910663615427345e-03
1.993151206723327881e-04
-2.311709178009321592e-03
-1.356908362689100743e-04
1.177581357250432822e-03
-9.700389191856867649e-04
-3.459472096632657066e-03
-1.092849863635336326e-03
1.780599423517748546e-03
-1.334181775956018445e-03
-2.286408060725730190e-03
7.189101766350838515e-04
-3.991521390625994920e-04
-1.910642276758367031e-03
-3.295491846660436857e-03
-6.442907235349064343e-03
-3.562985838564822899e-03
-1.751739846866365215e-03
-4.959545590431104281e-03
-7.940446701469393949e-04
2.839583254534322563e-03
-1.194822566394406317e-03
-2.694210130355887810e-03
-4.773006860266112246e-04
1.428995251935929111e-03
6.923141168946262206e-04
1.924992695451195699e-04
1.031553665970535332e-04
-3.547333597485585483e-03
-3.729239246994699945e-03
-3.899229569933795186e-04
7.889013907222080070e-04
1.329972872176198029e-03
2.309487322100753880e-03
5.233138531044189551e-03
6.430659398755159996e-03
5.679851759652829006e-03
4.007927038388289613e-03
1.427381132757510199e-03
4.406970724983484342e-03
4.999246771966367291e-03
2.532820489596264869e-03
1.336953320754162480e-03
-4.437585791204999054e-03
-1.229399479318182527e-03
3.802964434437148839e-03
-1.445704728853438887e-03
-2.016713770965784542e-03
-2.088521097747272383e-03
2.274900608603104817e-03
7.203837984947767704e-03
8.355596290552709136e-04
4.772341685858063308e-04
-4.811612629379932553e-03
-1.010569292458724476e-02
-4.796146124219895050e-03
-2.098148818122178710e-02
-2.743113091003910112e-02
-2.641964642853775105e-03
6.901081573473966113e-03
4.626379680318850642e-03
3.869909448585283004e-03
5.310735408301334604e-04
3.763644308788964034e-03
3.724082600912994798e-03
-1.819685534066135205e-03
-2.573183802813167661e-03
-5.739846055807393483e-04
2.417673376201192985e-03
2.206506090885080717e-03
1.520957126777365814e-03
8.035411356237913416e-03
1.088334514621939683e-02
5.740087097157500415e-03
5.166224501864278076e-03
5.766127793878863921e-03
3.156259663347555939e-03
3.348812053845994560e-03
4.049010482956659062e-04
-5.587401838723558140e-03
-5.660879072489305094e-03
-6.194324879411395885e-04
3.496963446041346721e-03
-4.926004399945142049e-05
-5.150612415678505231e-03
-4.599269752159130566e-03
-4.283186839944023647e-03
-5.077958669771718593e-03
-7.147425047860294506e-03
-7.421489206636423114e-03
-1.685590427258452624e-03
1.397953931876610989e-03
5.175175874950028402e-04
4.484364906663020501e-04
9.580434285580186103e-04
2.217898750804345610e-03
9.020342903822240344e-04
-1.362843733867308369e-03
-3.019264309901870027e-04
3.007852405576297793e-04
1.561923448577550106e-03
4.463087354053256461e-03
2.006840117321357676e-03
1.074354715613432465e-03
4.871881856311268202e-03
-6.111270946399637721e-04
-4.649699168135123205e-03
-2.552977112262847675e-04
-2.677954402484567561e-03
-3.351317234077521613e-03
-2.617728140503921153e-03
-6.632720662750568770e-03
-1.473002485029792103e-03
4.704565351626922853e-03
6.184659366232149978e-03
6.949977067820014773e-03
8.080767072874250456e-04
-2.421761844389174606e-03
-1.710038684717096920e-03
-3.150557982777413280e-03
1.952677744520356221e-04
5.731761362548101930e-03
7.745662511625651080e-03
3.795416211186830851e-03
3.511198971503224535e-04
9.655506939743359199e-04
-3.624150046632153028e-03
-4.928168553698363333e-03
-5.102905978628248344e-04
-2.413324340718448792e-03
-4.629196438390915068e-03
-3.158013191138874139e-03
-1.331792704225722270e-04
7.243057702605845477e-04
-2.325268647044696595e-03
-6.758376741569918286e-04
-2.474109723385083115e-04
-3.131366580625512958e-03
-4.601486768659441933e-05
2.578193588675446821e-04
-7.804104235960026116e-04
1.382831905818065902e-03
-3.013510094516148874e-03
-3.970727314481350967e-03
2.251527501772578477e-03
1.837986213293405294e-03
-8.225485767963683576e-04
2.253484528769212107e-05
1.096508407418017019e-03
3.532413747148653799e-04
-1.311507818526307231e-03
2.480050355029843334e-03
7.407798916119557112e-03
5.362289190885818554e-03
2.160765040467078294e-03
1.117906208499467582e-03
-6.417515167223628166e-05
-9.799419039049010033e-05
-5.213699353271250385e-04
-4.988264039581273221e-03
-5.258683781881677566e-03
1.463500177531829472e-03
1.889737617520034297e-05
-2.920311194979571638e-03
1.935593478859868200e-03
1.089762999566185010e-03
-7.078465944456766956e-05
6.581232716911372942e-04
-4.053735353266469180e-03
-3.002748097984266062e-03
2.187033780146325590e-04
-1.419171340762607255e-03
-1.230816481041922253e-03
1.195797024590845165e-03
3.207059488418619736e-03
1.976269318574408289e-04
-2.268245055279121455e-03
-5.864372114707937667e-04
-1.239127057395185633e-03
3.757805056412334027e-04
1.442724193188287245e-03
-2.150402085902354717e-04
1.307705729219636433e-03
4.948564909281952381e-04
-1.220528916518655261e-03
-8.680225974500763685e-04
-1.686158485140435738e-03
-2.652278189299276008e-03
-1.180343015969950336e-03
4.490126994660757070e-03
4.382382174968161258e-03
-2.072126631738375677e-03
-1.814149495931718361e-03
2.018141280826807218e-04
-1.023058768304628552e-03
-1.699945978098307223e-03
-1.303253932927577515e-03
3.278623574049285144e-04
1.900908729903091508e-03
3.932472619382273993e-03
4.112923023543804159e-03
2.188716339359523394e-03
1.767719656196092099e-03
1.278872186764163721e-03
6.370301047019539392e-04
-1.835701083149818974e-03
-4.504188459549452427e-03
-3.138570289687296535e-03
-2.541482188646016632e-03
-3.266371214379401068e-03
-3.033603657465293747e-03
-1.699719479189677881e-03
7.096058089494985672e-05
-1.766102938412508587e-03
-3.326935397281849394e-03
-8.249970426335908062e-05
3.699658192076430048e-03
2.799154338938072799e-03
-1.970333164067166322e-04
1.195093214219182260e-04
4.718319577583652001e-05
2.413544160143109383e-03
6.167634517217207395e-03
1.369389650688198354e-03
-6.239189375912596210e-04
1.534458109575710097e-03
-2.440026915225545177e-03
-3.170480260695331468e-03
-1.260060186349740239e-03
-2.171413247981175167e-03
-2.765205443124710283e-03
-4.082512473642006638e-03
-1.647079752479964701e-03
3.877309905652287763e-03
3.723526196253390281e-03
3.203737574883584868e-04
-9.211899578906758423e-04
-1.601640327465455021e-03
-1.555943557527046618e-03
1.004763240137971020e-03
3.078558129006485084e-03
4.635064235851888738e-03
5.874461173503413118e-03
2.558408690162145612e-03
-1.173159081325457877e-03
-6.443320621823061351e-04
-8.009178737904164899e-04
-2.594387002663125445e-03
-2.621779978664375314e-04
3.036016012681465141e-03
1.505903424259499770e-03
7.103663399317349230e-04
1.200708549995254835e-03
-3.709648894225138775e-04
-8.235093620803379810e-04
1.252928040113938588e-03
5.688944448275190004e-03
6.526064697292650527e-03
2.896826740381653904e-03
-1.019230323583791495e-02
-3.476267493265476627e-02
-2.890029193043300651e-02
3.745783516355006854e-03
1.109443630941055366e-02
1.122687694531363141e-02
1.345018667209499884e-02
1.781347386890687421e-03
1.216501412789312646e-04
2.193861247359459379e-03
-7.050393132531458315e-04
1.473279440465791526e-03
-2.743904846533152305e-03
-2.602444646268156810e-03
4.210875591650553411e-03
1.996320265858596635e-03
2.442927328099141291e-03
3.874271558837845669e-03
-9.327183108146215682e-04
-1.396490415718830034e-03
-7.641476224921432952e-04
-3.530814099125684832e-03
-3.036872095251592560e-03
7.697797525367059681e-04
2.436625226894942060e-03
1.674698258117774405e-03
1.925451333134809134e-03
1.786497848934523978e-03
-1.255403982058309227e-03
-3.896684098947228534e-03
-3.956082086850404994e-03
-2.921475035531935233e-03
-7.368104472944883012e-04
1.100242962217609383e-03
4.591746812109473701e-04
3.544238003776192477e-04
3.433461731297493980e-03
5.860157177531031061e-03
2.730967298425471777e-03
5.483963938716920829e-06
3.245369168480037765e-03
2.875895752888650136e-03
-1.500562373901007584e-03
-1.316341827348710544e-03
5.246419404348081868e-05
8.556210198823565975e-04
1.863924503173700769e-04
-4.396860465162525516e-03
-7.083383844609292615e-03
-5.505481612707766904e-03
-2.442943400936634091e-03
1.415634580903083481e-03
2.578795850824798681e-03
-2.589612147797808531e-03
-3.863838655819359404e-03
3.154653228198342485e-03
-7.361463835257407837e-05
-5.592355929612988392e-03
4.119754121529714888e-03
6.803941644638682694e-03
-8.245396957833515082e-04
-2.197042972992237306e-03
-1.563819036005045663e-03
1.735671855708287260e-03
3.559687259964867956e-03
7.697086388946470636e-04
1.927139326042530887e-03
1.556479422223151559e-03
2.016293193615822541e-04
1.386071759637567046e-03
-1.341904869191629579e-03
-3.092542317779123102e-03
-5.544639873348980235e-04
2.277354637546857418e-03
7.187342913695172249e-04
-5.129411009407326867e-03
-5.241167734997300570e-03
-9.894876788040516454e-04
1.368654288450480263e-03
8.566555853665158964e-04
-3.243326862604279173e-03
-2.625906690672839133e-03
1.674912446649084877e-03
3.046908469956581544e-03
4.584497549060251136e-03
2.656746084969080143e-03
-3.768752339024898103e-05
2.075555740589559058e-03
1.716530767933189877e-03
-7.655155981844533920e-04
-1.024546653927485172e-03
1.385103033891670201e-05
9.014939416092489428e-05
-1.257407891126647399e-03
7.749560925309925642e-04
2.073891718774618833e-03
-1.404449688353439458e-03
-2.028300733583681889e-03
1.156973385378366531e-03
3.754025865699309791e-03
2.206175011471466895e-03
-1.351466851799131398e-03
-1.438171693935073273e-03
-1.809011023035923772e-03
-1.115166428549321147e-03
1.012769922975687584e-03
-2.801599993212458561e-03
-6.008195715456019111e-03
-3.791708362995491709e-03
3.157829722606683167e-04
2.710654274807668216e-03
-5.387177274252102086e-04
-3.124586069181797712e-05
2.916966845521062023e-03
-1.285156048214021506e-03
-1.441868774277553543e-03
1.126289796104079730e-03
3.006607488276422666e-04
1.860598825828848864e-03
3.461580248388501624e-04
-5.483403935824428125e-05
3.478756861331701224e-03
3.040460406278362011e-04
-2.848468902287001892e-03
-3.006808373719035618e-06
4.281016771366390368e-03
3.256802154064080551e-03
-4.998229744159535075e-03
-4.445859205774498925e-03
2.507334841376889119e-03
-2.753768592558373000e-04
-3.087714124417248289e-03
-5.156186269948187170e-04
1.269941377107056645e-03
2.502838021119750331e-03
5.046663316891694803e-04
-1.782342499542166657e-03
1.916712395371329095e-03
4.333651703109877608e-03
-1.137543852044016425e-04
-2.615109399968448128e-03
-2.126122605381788845e-04
-9.813972084578351501e-04
-3.249233538117183000e-03
-3.998203591797018812e-05
4.206725359280202511e-03
3.969373074861045313e-03
1.291070727343061929e-03
-2.301655177011722661e-03
-3.901261549538808174e-03
-1.965134764406547933e-03
-1.119747832323478298e-03
5.743389019218760267e-04
2.128003720619675750e-03
-7.591874088753892014e-04
-1.425908709482006818e-03
-6.482658717925759290e-04
2.948992598522792849e-04
3.500417149290650180e-03
5.925925737441795202e-04
-3.831816803054887820e-03
-2.357446255206368645e-03
1.021875764069395207e-03
5.530267562209386853e-03
5.259405020036244348e-03
6.237921441699241206e-04
-6.911502753320065105e-04
-1.262077277842553556e-03
-1.854413205854169933e-03
8.191795512452737776e-04
4.093473539294983921e-03
8.834732626867841795e-04
-4.194505522671453275e-03
-3.589300511008081465e-03
-5.515444144439165045e-03
-7.969108133396433577e-03
-3.432443542372953706e-03
5.577901672235818082e-05
-1.753070335353999146e-03
-4.339303099380862130e-03
-1.673238733086483731e-03
2.810376073615346304e-03
2.402185494395052065e-03
2.672861785019670262e-03
4.053954223752607826e-03
4.263213307097059659e-03
4.892645204701085229e-03
2.118590484017256019e-03
-3.212169710177648204e-04
2.063404582912828703e-03
2.611247027563572652e-03
-1.865682766928759883e-04
-7.605246989974054741e-04
8.734965075884957306e-04
2.494230318488035482e-03
4.692944147589274244e-03
5.707831540272581897e-03
3.942399956383545352e-03
1.068325742893172720e-03
2.564883609759694132e-04
-2.834757635223779100e-04
-2.129038300717336647e-03
1.823512495427857382e-03
3.726885822343158072e-03
5.023757292742538332e-04
6.489242112637001606e-04
-1.597615256431922023e-02
-3.519472964341349708e-02
-2.017805117648928739e-02
7.309989364633856339e-04
7.128571995117114792e-03
9.766778220730120211e-03
5.617589735600021089e-03
2.868914117452527491e-03
3.688913183360993751e-03
1.706806894780842467e-03
2.014292825084284307e-03
3.912119224727750658e-03
2.142448780502827655e-03
-3.324767270440448855e-03
-4.108109758193492778e-03
-2.090032167838559263e-04
-3.100159553439252444e-04
9.050144570150378933e-04
5.355491470963942742e-03
6.561147173318867751e-03
5.263647269017536316e-03
4.463010515174346653e-03
3.056235783783591443e-03
-1.278532498609882308e-03
-3.245224296094821083e-03
-2.221432228348058958e-03
-3.954724581250180539e-03
-3.177475181848726966e-03
1.422179201107237178e-03
1.080338158422478609e-03
-3.676287931817971612e-03
-3.023205458175258747e-03
2.104995107020698857e-03
7.978682849073078951e-04
-3.810089634515458415e-03
-4.176381326539384785e-03
-2.250023851329049657e-03
3.000994975016935129e-03
7.216084528458050103e-03
3.850712814427339863e-03
3.070678268326082136e-03
5.503832507609431220e-03
-1.423857517754753728e-03
-6.985765668561157507e-03
-3.692045279732603970e-03
-1.099306462480380796e-03
2.326437621680378827e-03
1.751009954370285910e-03
4.689478065250658571e-04
7.107850185927228233e-03
3.397963013592004197e-03
-5.676190089077196368e-03
-4.802714010014619804e-03
-3.168031806049546092e-03
6.098540863508569720e-04
-1.147296308155750823e-03
-8.841433198285730821e-03
-3.031842244509969000e-03
4.879367689970856396e-03
6.711136150353048078e-03
6.413960295104083331e-03
-4.048244799145420299e-03
-1.017428933141715716e-02
-3.628031751310339774e-03
-9.769551336239370564e-04
-5.052439610352822252e-04
9.576462222623133031e-04
-1.167789881300114723e-03
9.778497923181807185e-04
2.256469513731760353e-03
-1.640060797381482499e-03
2.398976059393500681e-03
6.083659384348230267e-03
2.988883989765443120e-03
1.586359865833856728e-03
-5.174625251134111687e-05
2.287732630803140845e-03
3.456060142871165367e-03
-9.520204493148240986e-04
5.358504808922803569e-04
4.120289828928745321e-05
-2.435920735397340952e-03
-9.886041055418035104e-04
-1.784789984321363734e-03
1.261482319184202691e-03
5.504840186564337757e-04
-4.698136188080502020e-03
-3.535205391765093921e-04
1.578529982476029525e-03
-1.286592163845490591e-03
-1.175503757872720361e-03
-6.208948056334239948e-04
1.765076035737404327e-03
1.581512671582702189e-03
-1.397029395787083598e-03
-3.277608957859980132e-03
-2.681090147082963986e-03
1.459886959679576124e-03
2.297305958990798205e-04
-3.218056464075123337e-03
1.778924216646601353e-03
6.979637893093568191e-03
3.945882559902454643e-03
-3.858650802071170367e-04
2.359514824314654135e-04
-6.725152919748629554e-04
-5.395950549562830408e-04
2.934845989666313472e-03
-5.637722225924797899e-05
-3.529651476078712446e-04
2.665714620468321704e-03
-1.514868614284409741e-03
-3.076084571446588596e-03
-2.179540238355673950e-03
-2.236937273797914068e-03
-3.752653756096946663e-03
-7.831848628267272169e-03
-1.319849960278674395e-03
7.682242943844241195e-03
5.685278602256301460e-03
1.545490604645433389e-03
-1.583972355517467793e-03
-7.591252449773536496e-04
1.817575092332765225e-03
1.076459756079975200e-03
-6.385136615517258930e-04
-5.562330339333797918e-03
-5.939128599274418399e-03
4.054352088497632724e-04
3.500937779109905036e-03
4.700991430027918506e-03
1.968594045687963555e-03
-3.068489127805615248e-03
-3.212633888852880083e-03
-1.942579242511343089e-03
-2.339866619024310018e-03
-3.087829792073453102e-03
4.235296642629954832e-04
4.734698743922468624e-03
3.832106456437527151e-03
3.022963842506228016e-03
1.809308262131820080e-03
-1.098972030510418120e-03
-5.071926562479613272e-03
-7.171704262671525255e-03
-3.719292304890793295e-04
4.069511136631450560e-03
2.897872224736746261e-03
5.486938437805208117e-03
5.821760310953816124e-03
4.954013906220637760e-03
3.397538826490566384e-03
-4.247597227369986428e-04
-6.936486183645243497e-04
-3.297178303873176623e-03
-5.059705058470612311e-03
-1.288318411184782939e-03
5.557886119189348875e-05
1.120130613642474939e-03
1.660675077235454272e-03
5.862543607899032986e-04
-1.292323174873755186e-03
-4.222054447029900334e-03
-3.285014018977024325e-04
3.397626485269456507e-03
2.009419473991282123e-03
4.672638475524550083e-03
4.800253876411806828e-03
8.995034009412067322e-04
-2.000786767264747888e-03
-4.834577567218981478e-03
-3.562422027361756074e-03
-2.276528817689982883e-03
-4.767857149397936208e-03
-9.276926925640577651e-03
-1.301642834046449516e-02
-8.018273011771728798e-03
-3.180101200855355199e-03
-4.061339536097540240e-03
1.227318304524262389e-03
5.568602817635537154e-03
3.204008330482028405e-03
2.621346480712878450e-03
3.844472721512943395e-03
6.854900160358553401e-03
8.262141788464192130e-03
5.989683383613502062e-03
5.208371451449246743e-03
1.359730766625338698e-03
