-2.335233390115058413e-02
-2.922760132502568928e-02
-1.555947294853636531e-02
-1.676604724215732811e-02
-6.494597724755679473e-03
-2.594753865071789366e-03
1.262940531331088658e-03
1.220181780112391569e-02
1.173543491538728625e-02
1.286851794388096937e-02
1.456524797852219895e-02
1.414217081861847934e-02
1.273807632461853093e-02
7.961927321706228217e-03
7.273574706135059811e-03
2.461814095055088036e-03
-1.106034752872528957e-03
-1.310413619942038099e-03
-9.360418376551176214e-03
-1.326167315401695183e-02
-1.352586284182465820e-02
-1.207181814139000713e-02
-7.510581407225300037e-03
-8.939092180061896861e-03
-8.580274994495287050e-03
-5.687634078835929544e-03
-1.972347006178418617e-03
5.332015076235024215e-03
7.407634989196469275e-03
7.870357750203017463e-03
1.003781282855726112e-02
9.411757073066117155e-03
5.810225305727036160e-03
1.369153873478114181e-03
2.041157201374587619e-03
3.560310563951264717e-03
1.642156823629179483e-03
-1.064652890971031027e-03
-4.402829144064241904e-03
-5.918675941682296354e-03
-6.876549078732312366e-03
-4.146345996370575521e-03
1.421238611856166009e-03
9.660812786632501717e-04
1.210473822811929155e-03
3.748044023084096121e-03
3.150265430908898157e-03
2.692381988194021171e-03
2.401269557704771400e-03
2.268211846630737317e-03
8.924401947969677141e-04
-1.616944677644006380e-03
-2.689717459798578875e-03
-3.145186997219185602e-03
-2.137423013895127510e-03
-2.561032083111763977e-03
-8.636362918210716303e-04
5.382897472219480735e-03
3.104277276498749582e-03
-4.628844848289255694e-03
-7.032802469419569512e-03
-4.957277133655365806e-03
1.630346407773681974e-03
4.528661315689039811e-03
-4.601439858850173842e-04
-3.096025558013079833e-03
-8.431918509214156570e-04
2.816865582658264512e-03
3.644999754258280728e-03
9.481152991009096469e-04
3.983209175599570725e-04
-1.749748143911326621e-03
-7.872453053345367796e-03
-9.822118893382480315e-03
-7.248417624234896467e-03
-2.202937849307184340e-03
5.060689558915463550e-03
7.027020153938723888e-03
2.825422897399988264e-03
1.209124787638731478e-04
-2.411012064724504973e-03
-2.600052575541595985e-03
5.695114303004637259e-03
9.320161803059417993e-03
3.398796803039933964e-03
2.359046140650635295e-03
3.358714608463699621e-03
1.414668775660573750e-03
7.330025614213334269e-04
1.503209697558010845e-03
6.031983435303971998e-03
4.776655501667160381e-03
-3.269836512819451757e-03
-1.974549544453399388e-03
3.616182431897433194e-04
-4.781839196556772129e-04
2.661269955009167194e-03
2.388645524694264603e-03
2.840927392801729547e-03
3.288490810238747439e-03
-4.875640821587862508e-03
-9.745206144156380590e-03
-2.799513924970995632e-03
5.547525932010579156e-03
2.657975182975348769e-03
-1.733989658934967371e-03
-4.409821676319581468e-03
-2.190014946080634864e-02
-2.758058709664731184e-02
-3.615391684699419475e-03
1.126398880483536584e-02
7.258995900951331626e-03
1.296414420648959748e-03
-2.814540127864648914e-03
-2.366060053079660150e-03
1.039715285079384445e-03
4.762993443578257546e-03
6.069563765525685418e-03
5.234891816119721479e-03
3.238198265469118334e-03
-1.497229848141781944e-03
-3.425288743374862391e-04
5.148800359340580113e-03
5.733814003572294642e-03
5.766874481595234136e-03
3.514301096856107393e-03
-1.377434367591328550e-03
-1.091904544828690071e-03
8.820216317631494754e-04
5.223319645359966561e-04
1.019953290924356963e-03
1.194462805704405188e-03
-1.677471502426908928e-03
-5.930282114466749709e-03
-8.091154216452907388e-03
-3.854185674195135906e-03
2.739563232974868544e-03
3.621670736441895758e-03
3.042304807845637622e-03
5.396774753641646067e-04
-4.491723315509987477e-03
-2.337253052512532157e-03
1.027548775647185459e-03
1.114544714392274368e-03
5.653114432208997423e-04
-4.820047947162813505e-03
-4.746128088854170181e-03
2.268039236080515719e-03
4.676214974132520026e-03
7.239183249541889485e-03
7.396422913109808837e-03
6.196353681039041281e-04
-3.408550117731631943e-03
-3.843492113664553900e-03
-4.416364412710103819e-03
-3.340836718415754643e-03
-8.364374968737456947e-04
2.359591164010768367e-03
4.730807542937315834e-03
2.083893704686595391e-03
-3.987091768640121069e-03
-5.467405336426683221e-03
-4.546677787032237720e-04
2.085276108896290913e-03
-3.561157502504392388e-03
-4.755337342574509664e-03
1.844391032685185634e-03
1.919909089278734821e-03
1.661190737453582247e-03
2.625361707347055595e-03
-3.977988567886160849e-03
-5.164596473746393274e-03
-3.913996944001661010e-03
-5.302593274975350192e-03
5.621508387452156183e-04
2.267684787295721951e-03
2.410258224191939077e-03
8.356314688422548237e-03
4.178070429410064672e-03
-2.856064731634249017e-03
-1.300493598717745091e-03
1.085755939372514550e-03
3.557809048529258621e-03
6.260282815008099029e-03
6.135377069473401876e-03
2.717593280603874256e-03
-8.173013037005173037e-04
-1.817614886324206468e-03
-2.144029565758053674e-03
-2.417822522097669378e-03
-1.930211221326305192e-03
1.261093193203521780e-03
1.493086128697170565e-03
-4.349273786860634664e-03
-5.408984928955739950e-03
-4.511153045963080081e-03
-3.598361126768757391e-03
1.926237365085463078e-03
1.925194925926772835e-03
4.315734741543408816e-04
-3.790749328294397468e-04
-4.690235999233466867e-03
6.297101713306800172e-04
5.490397055208581789e-03
6.424951424333916672e-04
1.351089684241475633e-05
2.256037836960613353e-04
2.264758936188551990e-04
1.104750432734395347e-04
-3.256195256115792993e-03
8.571648174156194528e-04
5.146385309500757337e-03
4.146774529826008251e-04
-2.549662087139030649e-03
-2.211510428361113806e-03
-1.327340441866714212e-03
1.472881504812309462e-03
5.258086782175400327e-03
5.208772856153263270e-03
-2.735936406030022115e-04
-2.884986489941581203e-03
-2.117280302465278981e-03
-2.643903653146286153e-03
-2.404390161114185968e-03
-2.186642235528960844e-03
-3.333008545963624721e-03
-3.808144390636643110e-03
-1.026897991809130406e-03
2.812436376867474483e-03
4.257629797294570397e-03
5.169822554957450786e-03
3.662367503575675656e-03
2.866035511580183881e-04
-2.138243021382443300e-03
-4.563342128503431600e-03
-2.328592119678042204e-03
2.511607332362051411e-03
4.298480642826930063e-03
2.479927134581703246e-03
-4.364637618728710831e-03
-6.788051946388586229e-03
-1.448329687946325710e-03
2.577994460746228615e-03
5.003075949576599700e-03
3.854067300621041164e-03
-1.136363170576302258e-03
-4.139552806521801936e-03
-3.155575135682854148e-03
1.349782509550116619e-03
3.158900361688915873e-03
2.403307349383524208e-03
1.102696202809802604e-03
-4.536708328794142493e-03
-5.671894754273668071e-03
-1.084146479493311617e-03
-1.101813914652614054e-04
6.143434190570137496e-04
2.443501112640264136e-03
3.412925821447779836e-03
3.391003885638455007e-03
1.929248351241279495e-03
1.541399000127291995e-03
2.222827341888505490e-03
3.795938507987791592e-03
3.539409855520262143e-03
-1.014052753816441438e-03
-4.103579779962301770e-03
-4.296751628492774880e-03
-1.764886499253250519e-03
1.058162405599723591e-03
-2.786792685483127033e-06
8.289816910494280863e-04
-7.973137830692046549e-04
-6.359487627239076256e-03
-3.686137435831211319e-03
-6.909877420987506173e-04
-1.109547774071591988e-03
2.316040815237572440e-03
1.060207494626500858e-03
-2.639386128947683770e-03
-2.504573195522144004e-03
-3.587231411739567975e-03
-1.751327740511112504e-03
2.770677736670866705e-03
1.630035447239379159e-03
-1.568042850160570158e-03
-2.644553485802115449e-04
6.170916127674644326e-04
-1.422588257461055751e-03
4.328238287233952862e-05
1.041918841659260700e-03
-2.211192491330180433e-04
1.533613261752223705e-03
-2.102332602595453513e-04
-2.637433874729753699e-03
-1.048722417013954651e-05
2.768921702430159320e-03
6.512818663648260557e-03
6.275236712812300513e-03
3.217141783854957256e-03
2.764528285536956096e-03
9.327312107249762169e-05
2.969421786629059066e-03
8.056350286254777143e-03
4.361809568224584918e-03
-9.514851898938916962e-04
-5.525297801629054130e-03
-3.360329058675901384e-03
2.843446628354958251e-03
1.193660468828985216e-03
1.494100323096615051e-04
-1.073571272265047907e-03
-5.185996639372133371e-03
-5.722558064121513639e-03
-1.189834897223873613e-03
3.275812035431769839e-03
-1.292158639128712649e-02
-2.731431055349218401e-02
-8.653237410363036342e-03
5.325800039607355048e-03
2.516069493649478617e-03
3.659276175132387694e-03
5.602645162025580300e-03
8.554720076556379324e-03
6.708649432964047983e-03
1.618133369409551024e-03
-1.197518424471848792e-03
-5.750590185882111655e-03
-2.190761283661787039e-03
4.266598576625358491e-03
5.145834078405855765e-03
5.584916477929689413e-03
9.596677163730066903e-04
-4.994370365248917629e-03
-4.563222711581160773e-03
1.394612632666943726e-03
4.259327150777647564e-03
1.348315089651885195e-03
3.165163574282369406e-03
3.734720598120835379e-03
1.894617691338044236e-03
3.132230872095832785e-03
1.251513023678550544e-03
2.303651117541826408e-03
7.850028801299565760e-04
-5.660355635425432484e-03
-3.006423360673952765e-03
-6.585877949897387274e-04
-1.421181656245404899e-03
1.815259689649921428e-03
5.655923844110630552e-03
6.416781621412372821e-03
2.162857446222091955e-04
-4.488738104360888784e-03
-4.161111821112202860e-03
-2.329768560188222488e-03
1.458598803190025526e-03
4.066488307901012242e-04
-1.226427063486438315e-03
2.372948992128586150e-04
1.047094142920137029e-03
-3.873736989720858240e-04
-1.140718208167453744e-03
7.385107041582759935e-03
-2.725684823911253378e-03
-2.905515873693264792e-02
-1.898097042860525177e-02
1.844484261301311719e-03
3.161625715808614144e-03
6.129339027718256651e-03
4.585701379017394046e-03
2.110005948339629348e-03
2.127010018573341141e-03
-3.239778447688081067e-03
-3.021325760158743729e-03
-6.554393342279480630e-05
3.694493360447830086e-03
7.522563454267652480e-03
5.530960405142296143e-03
4.314770678590451082e-03
1.994095690543876403e-03
2.376388228262951187e-03
7.552292847200397022e-03
5.431338822804492907e-03
1.836676635446973446e-03
1.542989966715148722e-03
6.261103498072935177e-04
-1.555364581762558318e-03
-4.874770278977768462e-03
-2.538085717235358599e-03
1.565885919684615723e-03
-2.836862739456031887e-05
-2.582604281431831027e-03
-5.368550927567278773e-03
-7.762721085905981318e-03
-4.955867095886843689e-03
7.521333131578307116e-04
3.255401589476422317e-03
3.051714861565558989e-03
1.426952111953739676e-03
-3.256942389773417185e-03
-6.286427520920995389e-03
-2.449263406153225336e-03
6.182172287300771382e-03
9.331495583634970628e-03
2.377146548185516631e-03
-1.907333179218587225e-03
-1.541655932277933086e-03
-2.807256529727691127e-03
1.179958207353750050e-04
3.981961340525506238e-03
2.904312198061800073e-03
1.017533366173812995e-03
-3.388780909747612403e-03
-8.541112109774902719e-03
-4.331111340144113732e-03
8.228860518172955666e-04
-4.594459072732676175e-03
-3.268810892734943293e-03
6.369714156246630496e-03
3.999605072099687159e-03
-2.389174873787927903e-04
1.282500576659500536e-03
-1.685285140950262004e-03
-2.956616093278414525e-03
7.370555526844276527e-04
2.340131897713678636e-03
1.102611698274335141e-03
2.550749594232746501e-03
4.163056829998118893e-03
1.249794055522077856e-03
2.426528020871311468e-03
1.609558750012988213e-03
-6.075907746699025710e-03
-4.570528645839716693e-03
1.485266429050624462e-04
9.963075497835664242e-04
3.155518627973549848e-03
6.263662577695523932e-04
-2.343016179684734388e-03
-2.189118500926884054e-03
-2.804028143172265352e-03
-1.385949886264576953e-03
1.369224162316841006e-03
4.802685737824771012e-03
4.436785538278283439e-03
-4.840880625967736075e-04
-2.176570257075746608e-03
-1.238071768248084816e-03
1.593688587139643550e-03
3.085424902693428926e-03
1.450748848136350182e-03
-7.890077363218335731e-04
-6.275357391023079871e-03
-5.323252370691761680e-03
1.790007496449975239e-03
2.682738459402222043e-03
4.383980136782589590e-03
5.220339233920232198e-03
1.203126568024855776e-03
-1.765019219153659679e-03
-6.425534163635278177e-03
-5.626694631085444112e-03
2.601019051748535999e-03
3.693938299316425287e-03
-1.542321238366647527e-03
-2.700726395262237518e-03
4.407174503346535490e-04
1.427473712114229196e-03
9.020855588451868762e-05
3.017784965641152894e-04
2.025742867553888184e-03
2.804391179756354595e-03
-1.012424071931782412e-03
-3.202186803753244611e-03
5.353313253378029230e-04
2.806819907585897823e-03
3.246091509365118654e-03
1.964760862307258008e-03
-6.181390843144180490e-04
-2.014785540550034695e-03
-3.959935309919600764e-03
-2.247435055558228909e-03
3.714137512642279814e-04
-1.430220809504887660e-03
-1.613202217561757450e-03
-5.941757047493264514e-04
-1.159863519126541143e-03
-2.276878347412501953e-03
-2.019340990447539199e-03
1.340968286518664804e-03
3.356930576957578658e-03
7.258791853804746636e-04
-3.089930796719856168e-03
-1.805743063944983918e-03
-2.633565828418773179e-04
-1.852943286099512478e-03
3.873480451527071267e-03
6.904946817870420174e-03
1.232965691441578185e-03
4.457046996905364130e-04
-1.242726717571366029e-03
-1.286235996944257122e-03
4.831645496647696790e-03
3.895421259178135590e-03
-8.526339130532552832e-04
-2.793185705034979295e-03
-5.009502985165944795e-04
1.908459952666335295e-03
-1.508383719347576157e-03
-4.050058586046798156e-04
8.719777142682104583e-04
-3.226429614361155974e-03
-2.297856835661101545e-03
-1.365986028269691082e-03
6.210642015531410952e-04
2.489730074950805439e-03
-4.352820922137705037e-03
-3.147180947026761121e-03
5.549168400577134119e-03
3.508528899923154133e-03
-8.214613314315395492e-05
3.290094825448533229e-03
7.532337915513726521e-03
6.600384578546273327e-03
7.022847563066737147e-05
-3.150155179239533774e-03
-8.327708871248941987e-04
6.286867989203245811e-04
-3.019737649569252322e-03
-4.985746805562140532e-03
6.668748013705814645e-03
6.368759798542050071e-03
-2.201963911829065909e-02
-2.793941184363404884e-02
-3.294924181808738927e-03
6.432883140397905458e-03
5.978918096459468617e-03
7.384562907528612920e-03
4.067803804671409409e-03
1.809823258545582847e-03
4.626611709032877316e-05
1.154441984435217563e-03
2.200996603056027626e-03
-2.800570103146209945e-03
-2.174639849906128894e-03
-7.084159005349155176e-04
-4.005881700590651663e-03
-1.256624388960849012e-03
3.751725160985806308e-03
7.459949452892220695e-03
1.000130498651784564e-02
5.722191446049192977e-03
-1.603313972170187325e-03
-4.248050233074833482e-03
-2.562357164550030635e-03
-5.391227869001863479e-05
3.389350367216949298e-03
2.953883014664883486e-03
-2.851962392784152846e-03
-4.044639024449859718e-03
-2.403501270315528803e-03
-4.422797839660056775e-04
3.728040646257026799e-03
2.353116346717437028e-03
-5.125919590152087837e-04
-5.667681631093559290e-04
-3.033192261501284261e-03
-2.789077997616297346e-03
-1.888830203836148677e-04
7.803377663592741967e-04
2.621899773119933542e-03
9.056653425975053203e-04
-4.173653715426005155e-03
-4.785300702373805962e-03
-2.577668918384666899e-03
-1.068359280130829186e-03
2.647821555503567046e-03
5.814559185718770618e-03
3.339351049984533391e-03
-1.211723940500936516e-03
-3.882884785191719444e-03
-2.006481357655168565e-03
2.965416023029059361e-03
2.797477388519071552e-03
7.333129576121205021e-05
-1.248855460750782846e-04
-2.122268522598725216e-03
-2.705506143805810025e-03
1.357409736643571622e-03
4.117746985156274520e-03
4.055881675261970368e-03
5.274819441859726794e-04
-6.757263627679738378e-03
-9.918064345525209879e-03
-6.432026215017526763e-03
-1.663935932713260643e-03
2.350839894851539189e-03
4.092157406166966292e-03
4.613323867159898478e-03
3.865295353838603312e-03
-1.612193941823321852e-03
-2.529105078528452212e-03
4.178389917061867652e-03
4.582964083437673572e-03
1.901991463013321705e-03
1.941785954958967497e-03
-2.714039289796534114e-03
-4.094927456881847401e-03
2.630584934026978204e-03
4.442933895125820293e-03
1.993524312452516108e-03
1.491160928447259233e-03
-3.818524161705340314e-04
-1.649198758682219202e-03
-1.055446871195627172e-03
-7.167645943347635299e-04
1.922369747389013036e-03
1.811254913280392707e-03
-5.004975612069603383e-03
-7.148995808262741461e-03
-2.829169147420263798e-03
-7.839646286511962620e-04
1.737423289569957514e-03
3.789872931126384882e-03
-4.203956368737757788e-04
-3.666703049017856937e-03
-3.156504924591403520e-03
-2.870207564649539418e-03
1.517650059049624131e-04
2.456205779159495537e-03
2.743068200467628590e-03
5.648004464164333577e-03
2.781469260074735574e-03
-4.719779302848062068e-03
-5.654912063919659282e-03
-3.672131545105973734e-03
1.035393594403660880e-04
5.056147789299852459e-03
5.878835326904312437e-03
5.669429619788836708e-03
3.363030803517066177e-03
1.379711950351011310e-04
1.478990385480145973e-03
6.938264724235994069e-04
-2.754966680637291072e-03
-1.901737409725009044e-03
-1.346458423867794626e-03
-3.526066203058430756e-03
-1.425650966615582809e-03
2.033098614376673344e-03
2.422546061275730397e-03
5.092677429636480353e-03
1.441710928930947481e-03
-7.715978353698689333e-03
-3.562952363650815062e-03
-1.438410183369962219e-03
-8.767516576486637445e-03
-1.212628829998204597e-03
9.419675052169861063e-03
5.087731659914832699e-03
-1.169766178157988831e-03
-1.450807393554778531e-03
1.662236125187567005e-03
1.841024648127796573e-03
-1.709431330229218508e-03
-2.506266066625367599e-03
-2.681851407185085415e-03
-2.860203308925687946e-03
1.133318084769448589e-04
2.406727477288071477e-03
4.640461992764615545e-03
4.856605996212362553e-03
-4.163152127674365696e-03
-1.015573347439089127e-02
-3.710674819603336332e-03
5.775498704006620364e-04
2.010961138859225028e-04
3.496377995422269951e-03
6.082768296156283207e-03
4.644605613264282673e-03
1.299303519289611228e-03
-2.413170853606937539e-04
2.402813303016758557e-03
3.033933276453224838e-03
-7.247714504911021349e-04
-1.058163446616282571e-03
2.356015995460434068e-03
9.836147124517369885e-04
-2.889329176730058915e-03
-1.086348313126329120e-03
1.313572336533133655e-03
-1.958255430058353404e-03
-6.250525031950712740e-03
-8.350059918986877869e-03
-9.240938466134041712e-03
-7.631703790190549376e-03
-2.250207695456811659e-03
4.416782756813589401e-03
6.134642950885961163e-03
2.207986032892147229e-03
4.338941318101460125e-04
2.849347528463460071e-04
4.411517095884544878e-04
5.769067934480976226e-03
7.339534591698397732e-03
3.422778004218568221e-03
3.066645097236262666e-03
1.382024572699497994e-03
1.431650729796819788e-03
5.500288725929038114e-03
5.622599819261030370e-03
4.075506736177867372e-03
-1.765864724903181337e-03
-8.299464874680414356e-03
-4.917598392230320727e-03
-4.563817264470138783e-04
-2.559416817887520093e-04
3.805388108861464374e-03
1.027451695833354189e-02
5.849063369141318039e-03
-1.519517433229917395e-03
-1.897222084115493925e-03
-1.859984685573738347e-02
-3.042198590079473602e-02
-7.263508879473469862e-03
6.807979523926578798e-03
4.341230499551630706e-03
9.211380027340416304e-03
6.883946087803013286e-03
2.854302134047125798e-03
3.561807448133883468e-03
1.253267016486646866e-03
-2.402705389600597648e-03
-6.489662069974484748e-03
-4.685965820759979347e-03
-2.991451097984670730e-03
-2.414313249109189836e-03
3.822872377425185018e-03
2.596412458321836845e-03
5.422680964583915597e-04
1.642984666855244096e-03
-3.015423715152261343e-03
2.184394565409281987e-03
8.953921367840589687e-03
2.712788709078920845e-03
-1.523628038821184510e-03
-2.908867762212384231e-03
-4.852836430582409266e-03
-2.591653953487946336e-03
9.191233530951557502e-04
9.054137519157312705e-04
-1.798940089108245046e-03
-1.144416264602305441e-03
-3.689647843431657741e-04
-2.109782729452168090e-03
-7.850325350012661227e-04
3.422152609571816988e-03
8.489592472115586874e-03
8.140253766675624100e-03
2.461994610501915415e-03
-5.329020832149146750e-03
-1.594201104520344414e-02
-1.115427604239054883e-02
5.994698612453833002e-03
1.101083316839557812e-02
1.231515076531758401e-02
1.715233024042136026e-02
1.955912447712884403e-02
1.745683884690924642e-02
1.050711576083602355e-02
8.417827021055779638e-03
7.393639708789535338e-03
1.429228877194009973e-03
-3.485221331855045982e-04
-1.562405607957536528e-03
-1.030788985753054894e-02
-2.314058816345378189e-02
-2.622033380613839407e-02
-1.739162527282237317e-02
-1.289805421981966155e-02
-1.448624977896773719e-02
-1.700709928508556054e-02
-1.779603070045661026e-02
-1.574332425925450973e-02
-1.697540616354344112e-02
-1.814251472121548858e-02
-1.421233933122596771e-02
-6.395467985617343983e-03
-2.252389477947020976e-03
-3.970231454962156771e-03
3.587152475171969074e-04
3.298972707219229202e-03
1.531603532891633685e-03
2.172836958133714767e-03
2.014072777745024630e-03
1.302854289545470577e-02
2.747263807149752379e-02
3.638108102979043662e-02
4.713407684830572819e-02
4.754632631802341303e-02
5.203807498137646981e-02
5.977337440798383833e-02
5.286863198258870411e-02
4.281061455491542295e-02
7.089859023096085162e-04
-5.217023397813070479e-02
-5.091490699771748785e-02
-3.620705149190519417e-02
-3.565053145202668611e-02
-2.293869332528483684e-02
-5.330947887520540510e-03
1.046376922585465219e-02
1.525347164146491179e-02
-1.082164666239326988e-03
-2.755239188559974531e-02
-4.855635124640002992e-02
-5.253304088684184608e-02
-3.937487220756035605e-02
-1.706584335886079593e-02
-2.552421627432324876e-03
-1.874239234056681788e-03
-2.041746468137177993e-03
-2.804727115514177131e-03
-3.976268860546852343e-03
-1.048943135266060603e-03
4.040374054032230301e-03
9.388844164070174469e-03
9.371976707619328328e-03
8.632345181274305931e-03
1.223960629714414619e-02
1.681183517897938753e-02
2.309482587732225242e-02
2.551721257431801074e-02
2.541287956708131873e-02
2.585141477204717583e-02
2.390254093442895425e-02
2.496740661755038684e-02
2.136258194868230834e-02
1.079645277514152714e-02
-1.410124306502391405e-04
-1.813874492477993497e-02
-2.925950924127460398e-02
-2.528114523629852381e-02
-1.929287531473098186e-02
-1.163297045317358142e-02
-7.292075106091900315e-03
-5.613798295261583117e-03
-1.003467428515820992e-02
-2.411584592665908314e-02
-1.583886020829170654e-02
5.316513229052748264e-03
7.110044947777451399e-03
1.161091722647077107e-03
-1.824816435234105638e-02
-2.866554384326609056e-02
2.117149737460464684e-03
1.978567526162539406e-02
3.571627701434272172e-03
-1.234207872140708449e-02
-2.899268972720522516e-02
-3.191840026983418926e-02
-3.967638935058349220e-03
3.774704820124244464e-02
7.398724227178145318e-02
8.172809127671216978e-02
6.000055686865397170e-02
4.026272140688210571e-02
3.029201628269878252e-02
9.360757703341236746e-03
-2.068852365934487417e-02
-3.499231270888574635e-02
-2.919800034671257358e-02
-2.191087094569420246e-02
-3.292248959003686581e-02
-4.441629867708763585e-02
-1.542028252140500467e-02
2.132370630740041198e-02
9.864555127144236657e-03
-2.426736818260781178e-02
-3.894241108627246456e-02
-3.029933108022799665e-02
-1.729563217388166430e-02
-1.354998856209567622e-02
-8.702882660437491480e-03
-6.396387665658413713e-03
-7.652139803539627708e-03
5.585034749567308618e-04
-2.254066782636416494e-03
-1.867894990083092399e-02
-1.853807633116260137e-02
-6.781336727262462713e-03
1.923930061406894237e-04
2.198556114160216384e-03
1.928676643868443199e-03
6.345115341911788942e-03
1.589072982080360491e-02
2.419665464243538414e-02
3.006944994819919781e-02
3.674439755985725586e-02
4.083965489262750270e-02
3.291486137264197642e-02
2.197199173499195593e-02
2.248249126678745005e-02
3.293787514315918430e-02
5.462343286837278988e-02
7.367485711809483584e-02
6.839528362987230825e-02
4.146109335710334437e-02
-1.760693029691899961e-02
-8.225801468982080200e-02
-8.329966717720330149e-02
-5.223732877065454666e-02
-4.143499242594310406e-02
-2.727155112913011784e-02
-9.135810256563877199e-03
1.049005874604815730e-02
2.252607071135453998e-02
6.136641582933937203e-03
5.021854116230030883e-03
3.197183929399251973e-02
4.441719738019091201e-02
1.287479858558861386e-02
-8.434474626610675985e-02
-1.836554429327087734e-01
-2.042219798510966633e-01
-1.759797184975116224e-01
-1.279525690356912160e-01
-5.305309956842722829e-02
2.679046906863777333e-02
9.942150371498359451e-02
1.520125851375431214e-01
1.462014232579856299e-01
1.090873443484374622e-01
1.056991193809692503e-01
1.055219357847711203e-01
7.770623676029619897e-02
5.138268213959464037e-02
2.871606138563203951e-03
-6.244383026790008284e-02
-8.242286221629296916e-02
-7.278900057657308742e-02
-6.029302105196641948e-02
-1.697834827933560400e-02
5.450208883611808858e-02
1.087314299873807094e-01
1.175314422106805839e-01
1.053681496945951535e-01
1.068546743963461609e-01
1.181639196290739102e-01
1.349929709012936407e-01
1.106976843464635152e-01
-3.893672248005021486e-02
-2.324426609575302172e-01
-3.091132879931302035e-01
-2.763123922963473533e-01
-2.069773894686120774e-01
-1.257241229594024123e-01
-3.302224568961453083e-02
5.806495129449217724e-02
9.619507578636646294e-02
7.975726602255962805e-02
4.635539385138617852e-02
2.201808271922666219e-02
8.765345908490403473e-03
-4.268329882556969740e-02
-8.891858528024766672e-02
-8.377532627479546135e-02
-9.987013899531139993e-02
-7.890341511202401958e-02
1.913292332246326749e-02
5.975491188285934202e-02
5.188522269164481948e-02
8.842780657153952173e-02
1.318948152207512770e-01
1.292581756634879619e-01
1.060219062179617311e-01
1.072796584049355573e-01
1.253087094977891058e-01
1.234118368761682599e-01
7.279266439105304409e-02
5.187201530564577306e-03
-5.866797328994390742e-03
9.421547399073221252e-03
-1.087251552682431260e-02
-4.864649976788342628e-02
-6.251213815847864175e-02
-1.978193815291352450e-02
1.535565345821012471e-02
-3.733673770680651788e-02
-8.428126679461428461e-02
-6.420997588092712538e-02
-8.268008912172160330e-02
-1.383884253863822689e-01
-1.035264698196219635e-01
-1.452692688965227970e-02
-3.962659591258787389e-02
-1.622657862508380400e-01
-1.999945662401435842e-01
-1.264087703591451062e-01
-2.727940600154098866e-02
1.035334448162689852e-01
1.918235449942004012e-01
1.313559515455716975e-01
4.281645155408387443e-02
2.179104849943700253e-02
3.218999636911063118e-03
5.040846958723099042e-03
5.998469372975059194e-02
9.698429409678638313e-02
7.789989243863590374e-02
5.255681021836309391e-02
5.707240060847590390e-02
7.147990875656613785e-02
8.106792311660936112e-02
8.376933493522634167e-02
7.157700174104041080e-02
3.541606227927823758e-02
-2.147536675386335636e-02
-5.861243792788835283e-02
-6.469514657916826395e-02
-7.919029311510253355e-02
-9.869694518381817716e-02
-8.186256146930555311e-02
-3.119537026780302980e-02
-7.973650668838459105e-03
-3.701611270575941304e-02
-6.980494669738683544e-02
-7.503255900949759583e-02
-5.400709002182955965e-02
-2.437116008889246219e-02
-5.965931975036816749e-03
1.333308627728839804e-02
2.875461254934981795e-02
1.799257235055342491e-02
-3.993217904664350670e-03
-7.808922252407615901e-03
1.317474188074586015e-02
3.623782880854176797e-02
4.190731444036819436e-02
3.674965081861307492e-02
3.334954999945714815e-02
3.598402171484847006e-02
3.640206451186144693e-02
2.973972969737306848e-02
1.809492433354015217e-02
3.627214319163229832e-03
-6.673409424981848262e-03
-2.048038433445494716e-02
-3.768778562517563491e-02
-3.530363077307104719e-02
-1.436114536060272701e-02
1.623074098205137816e-02
4.271996792178271024e-02
2.610853415446884665e-02
-2.120671865669218614e-02
-3.786114092670340991e-02
-2.142062145138413573e-02
-8.676799485304640888e-03
-3.852107030005516315e-03
-2.757938109290801378e-03
-5.104718106137760315e-03
-3.777935718895834849e-03
-4.974823478726997893e-03
-7.687395013916003411e-03
5.980357065304208602e-03
2.819692075240843102e-02
3.571114900850823337e-02
2.584373147279672364e-02
8.603690889735652117e-03
-4.859210051007865558e-03
-9.220670007121414824e-03
-7.398702126510520866e-03
-4.696790397470501123e-03
-8.315667764488797464e-03
-1.426862003874197760e-02
-1.383419364858068899e-02
-1.282498697631114654e-02
-1.044324457745111207e-02
-5.723256492913541280e-04
7.406575158125571975e-03
8.464125936304625272e-03
4.818665690828006533e-03
-1.631344940527838403e-03
-1.944191070864618488e-03
2.653810651726784889e-03
2.978771031898444239e-03
1.863366712324063213e-03
6.458236477222483547e-04
-7.055916278380003261e-04
2.515763598125457870e-03
4.123473364319920481e-03
1.052003734277663118e-03
1.828237548228502443e-03
1.526319642573176249e-03
-3.742254967533093120e-03
-4.546962336932685624e-03
-2.739656581825008347e-03
-5.631493600713128114e-04
4.083009831870552768e-03
4.634396890086352541e-03
1.239741521878782744e-03
-1.687436735490743019e-03
-3.758116308566080387e-03
-3.457528511930041404e-03
7.155656040452309727e-04
5.857255276561882350e-03
3.892535627502331265e-03
-1.062315954759883224e-03
-1.375581520266556034e-03
1.034977364294719900e-03
5.853595827615528692e-03
5.461992950994808659e-03
7.766043022340007049e-04
-1.124406549241224219e-03
-5.267842967840122292e-03
-2.710130093667621233e-03
4.982560710903124156e-03
4.207531034661508504e-03
3.007900639330142629e-03
2.581081115502790319e-03
1.497849446133543184e-03
1.252392074612597959e-03
-1.903138359531652245e-03
-1.962158963253636448e-03
4.429756573196200328e-04
9.641130015675502922e-04
-1.625287337208747469e-03
-6.074313912928574338e-03
-5.395993495316067645e-03
-3.493941020976864317e-03
7.136635875744462522e-04
4.358202576367589329e-03
-2.663283398067249098e-03
-8.143917463699126488e-03
-8.288959887869701629e-03
-5.979752872932502829e-03
-9.753182200998298298e-04
-2.711118893233776216e-04
3.190704970245572623e-03
5.765413566524069458e-03
2.133942933261267529e-03
2.604027639451877811e-03
3.000658023658972582e-03
4.494553382951882968e-03
6.475765638508186074e-03
2.956472633728020501e-03
1.705778414548464591e-03
1.375521103298196161e-03
1.478617553897600091e-03
1.564534546575311724e-03
-8.710169771437348057e-04
1.191966549772336629e-03
2.518212382970440658e-03
1.390499810432963695e-03
4.858826071186543756e-04
-2.296017971786684566e-03
-5.359850170401640919e-04
1.425906001600428671e-04
4.993593301551914896e-06
6.031009900807268558e-03
5.898636403982760942e-03
2.485744538709488711e-03
4.732428581598207423e-03
-1.044244530443634057e-03
-2.025843871535096263e-02
-2.504150762573718533e-02
-4.191714995550689660e-03
3.203926960342716544e-03
-6.095776326537034190e-03
-2.007692729254522811e-03
3.469729764077662208e-03
3.786288626907966578e-03
5.391568693443227547e-03
1.574902007339208437e-03
-3.313966449671025896e-03
-4.985287570809417666e-03
-1.514764923938643733e-03
4.338142924309656284e-03
7.114079427409278691e-03
1.003545465324748830e-02
5.982356820905865291e-03
-2.231231949465584032e-03
-3.603216258114808404e-03
-3.903527717020678460e-03
-6.677597256103886972e-04
4.474300919143032150e-03
3.525976179379880417e-03
3.308673042578535572e-03
3.299445671608808306e-03
-6.250878923235033639e-04
-3.344695795033401919e-03
1.051171275931898148e-05
6.434489344398888581e-03
6.098460394410600525e-03
6.309117137116118960e-04
-3.882274838523969672e-03
-7.179182828850099764e-03
-5.907917377644497647e-03
-2.752383608145986434e-03
-1.136442245030270257e-03
1.569036641928186386e-03
1.126681223481767200e-03
-2.351613636659647105e-03
-2.801026540499665938e-04
3.282883655467959752e-03
1.868477363859713091e-03
2.732204096911174736e-04
-1.699588940740582145e-03
-2.203241302649886369e-03
3.177454956357890145e-03
6.066567678958659400e-03
3.572625760378353010e-03
-8.197829889321341188e-04
-3.728687915444001155e-04
2.194651511080733444e-03
-1.550451691662413888e-02
-2.837277550734247991e-02
-5.844888494299226023e-03
1.020824293030590628e-02
7.211518560318421096e-03
8.226886159086552186e-03
4.885575415319974232e-03
8.439850092702280357e-04
1.080723626427324089e-03
1.488112962509572030e-03
5.474825670661548870e-03
3.527251271244113452e-03
-3.701083821609447554e-03
-5.013599266486527817e-03
-1.784424392575540818e-03
8.811536813786209231e-04
-6.428008159305676969e-04
4.372982508697239473e-04
2.755103323129896604e-03
-4.156409311961938718e-03
-8.772410416712620590e-03
-3.416876100176440174e-03
2.294319528526513313e-03
5.137345739443605931e-03
4.381162492235535395e-03
1.314452577592654502e-03
-2.145425785231677869e-04
-3.502486405886651947e-03
-7.272139716046405709e-03
-7.287538135893581633e-04
9.713211370792116869e-03
6.336591962820377170e-03
-2.544661448095112376e-03
-2.571649313961803240e-03
-8.768790604225707060e-04
-1.927305917107945718e-04
2.289866489695354355e-03
1.871932555775583521e-03
1.742182987746905803e-04
-8.421497419072146353e-04
-1.572911585186795910e-03
1.979088186951637705e-03
4.639674474525149958e-03
3.070661012479874476e-03
3.976264077295342189e-03
3.934940587981708079e-03
-1.165373159593567241e-03
-4.196482277204674656e-03
-1.094266859333682543e-03
3.219538483626253281e-03
4.958872844592791991e-03
3.875037656706623555e-03
-2.415894356183328519e-03
-8.523504044677691557e-03
-7.226623827953308071e-03
-2.054128384501327162e-03
3.135186041764763398e-03
3.730122767214237231e-03
-1.000898583552743736e-04
-3.781365610863109301e-03
-6.737736964471182852e-03
-5.922868544680742753e-03
-4.678340170125645792e-03
-2.614973520797158040e-03
1.031518636576867539e-03
-2.638922121676725262e-03
-3.157123735513356778e-03
-2.121158027813390638e-03
-1.005943638167481301e-02
-8.470988093785233528e-03
-1.245059866750233401e-03
2.166576533600268165e-04
3.806621555057321336e-03
2.364839960671561055e-03
-1.115887368937093418e-03
2.203921720929730155e-03
5.261222329605584440e-03
6.379083248867161056e-03
4.511973031048454458e-03
-1.210184824877015434e-03
-6.405951334784827471e-03
-7.098940475713582873e-03
-4.152808545667006392e-03
-4.566588877671997910e-04
5.144221536520696830e-03
6.062033216437078854e-03
2.021813416595728743e-03
2.355514095933567472e-03
3.019722157904232082e-03
4.542107553859508692e-03
6.946701241436529194e-03
2.930859653988810657e-03
-7.488269640560437247e-04
-8.054641281748824762e-04
-1.763911156032066667e-04
1.407678484634926471e-03
1.624158761680668086e-03
3.386876043840769158e-03
4.288217567098619350e-03
-1.924750853976450564e-03
-7.023756126251824890e-03
-4.566810588018648670e-03
-5.437892432257366779e-04
1.017365322017569620e-03
3.039591706399235455e-03
5.693866207107228621e-03
5.268225428813261453e-03
1.309983608084168112e-03
-3.079197864244688932e-03
-2.278540453672599393e-03
2.621958301707690703e-03
4.524669273345358761e-03
2.283039135274805842e-03
-3.090505681393411648e-03
-6.356031442982943563e-03
-4.694806217494744589e-03
-4.796024243230768286e-03
-6.994679857206101414e-03
-1.028824742971229216e-02
-1.265078068964053948e-02
-8.025070690930157305e-03
-1.580392541503620497e-03
-8.704681178424044556e-04
-6.853457894946799259e-03
-7.260098800887194656e-03
2.527949073334381791e-03
4.349733584540705278e-04
-5.649963082291585906e-03
1.304087669261574760e-03
7.461965921901319264e-03
1.217461834981997844e-02
5.624342584954775213e-04
-2.540879289566262342e-02
-1.839441622972157186e-02
5.395954480201901361e-03
1.234974216978820295e-02
1.599791584059322841e-02
1.499450707945031332e-02
1.182448188986202214e-02
9.859954832217996540e-03
4.095148227533739957e-03
5.511588991981709006e-03
8.555943535829607996e-03
7.479044134948168755e-03
6.598775488806726298e-03
3.156157678301200076e-03
4.601360291496567854e-03
4.460156455903545661e-03
-3.649055988850490647e-03
-3.565149763810210055e-03
-8.969403481604698971e-04
-4.972929841827412531e-03
-5.002908315995416820e-03
-2.840586649255869098e-03
-5.787148834206769406e-03
-7.586257219755005755e-03
-4.192254442332727163e-03
-1.349935022026112945e-03
-1.933617800098424468e-03
-5.013956745116362676e-03
-9.042898942661135517e-03
-1.052758420287801429e-02
-9.700006282105124583e-03
-6.154093305892740194e-03
-9.003433910993904584e-04
9.863450605072409446e-04
2.089744691987804014e-03
2.186242176877718768e-03
2.429789923977923106e-04
3.675003289819810115e-03
5.981554787694102690e-03
1.147815373345320317e-03
5.195627996580051743e-04
3.311868519868417342e-03
1.665084537872169165e-03
-1.086960536048036568e-03
-1.524596241953802070e-03
1.302944329625242573e-03
3.536278496923793684e-03
4.821545460006543488e-04
-2.061583066313225389e-03
-6.018521743515579817e-04
9.153291742630810610e-04
1.254875627890372422e-03
-2.004506384692514472e-05
-1.174513041212811235e-03
1.340181478874268766e-03
3.923540041763963482e-03
2.309626939850736253e-03
2.686370920910209625e-03
6.986209832144228693e-03
6.370937489824327928e-03
3.147661932957257405e-03
1.943899314050210117e-03
-1.448212728220804341e-03
-2.013200170073252068e-03
6.884473947588319771e-04
4.013819151923483084e-04
7.035650024996424915e-04
-1.456389969975490327e-03
-7.714563230857872551e-03
-7.215408585202367012e-03
-1.264964025635704212e-03
5.327214988033240547e-04
-4.116516773073665707e-04
-7.294928289758720926e-04
-2.260864646967230673e-03
-4.390093644107712773e-03
-7.400179043290036271e-03
-9.084872232929329383e-03
-2.674035800739508941e-03
1.937811397057243642e-03
-1.658024761447398970e-03
-7.791342637336013755e-04
8.615318328025087192e-04
-3.674689387858957271e-04
2.032187238908586893e-03
1.306201270633804970e-03
1.254099052540674775e-03
3.978128950053501194e-03
-3.887140428736129364e-04
-3.453553126128198428e-03
-2.073398453158029064e-03
1.725979613359534702e-03
9.511316365165643077e-03
8.349931919288431509e-03
4.441283170119728063e-03
4.948801541012169160e-03
-2.042097611309004381e-03
-2.121936144325769699e-03
6.351365391383614195e-03
5.148822646956491798e-03
2.852965733707403268e-03
-1.496276909569012282e-04
-5.180348817459220524e-03
-2.945784682135041063e-03
-2.195472387477352249e-03
-2.365582183400884077e-03
3.075461362545418961e-04
-3.802460479826435657e-03
-8.572053640941346489e-03
-7.102428148232147083e-03
-4.771492519905023988e-03
-2.658013224609672310e-03
-1.321466170858232275e-05
1.292156397204423249e-03
-1.047449066291415275e-03
-4.358393046998646631e-03
-4.526175711660812215e-03
-4.298441865026180093e-03
-3.240593437749154579e-03
1.430168647371002615e-03
2.375681556018624085e-03
-2.257664882394112144e-03
-3.267426847616003785e-03
-1.096368808740786271e-03
1.233982662187815219e-03
3.992172358166408419e-03
3.056390577082891864e-03
8.663173518117802492e-04
-1.272578285840309225e-03
-4.832799101105597454e-03
-2.617759255563649121e-03
2.759968803539750160e-03
5.712056629665840379e-03
8.137835921622033411e-03
6.178168470365535091e-03
2.201109817793178366e-03
1.138019941187584129e-04
-1.974204203130918572e-03
9.126665911005942184e-05
4.044717020306086430e-03
3.989949715190766431e-03
2.652001282112694067e-03
1.514113022679508319e-03
2.348931217136397253e-05
-6.337052691385649823e-04
1.381942186632830220e-03
2.687034764660283480e-03
-1.350933614913712305e-03
-6.185992595243980374e-03
-6.892119458845103776e-03
-2.690188710273402201e-03
1.310207211226458498e-03
5.149403059827583088e-04
2.086167376477618927e-03
2.492849506003846569e-03
-4.537145895549016261e-03
-6.932669971982738030e-03
-3.243806776465605040e-03
-7.245966219448677715e-04
6.177964627254007397e-05
-2.616545654754137262e-03
-3.717494464305783064e-03
-8.684330726246885417e-04
1.722128306111512510e-03
4.149324551080552093e-03
2.407241944007901865e-03
-1.478978966041047654e-03
-1.764159637599927886e-03
-4.979965495677735228e-03
-8.951884485260125715e-03
-5.812185712892598347e-03
-1.199669717817815166e-03
2.559881570781636327e-03
6.648425778615327068e-03
5.825376970327237128e-03
3.058350596571357462e-03
4.010280173731753557e-03
5.408910419311589203e-03
6.635265714117200703e-03
6.314152894045503388e-03
1.641033682501866946e-03
-9.784948189564429168e-04
1.505632027718962346e-03
3.657688679932783338e-03
2.534264624422470809e-03
2.259754301919392801e-03
5.121205196232277157e-03
2.362280990540998639e-03
-3.943808039429825760e-03
-3.912285786847822730e-03
-4.014720205358776259e-03
-3.872414306444195778e-03
2.554211316882206914e-03
5.718313577637988698e-03
3.172977624517024902e-03
2.982825897716355826e-03
-2.802756653245361881e-03
-2.220840765732768132e-02
-3.022834767185588259e-02
-1.354744656418416932e-02
1.770452052946029338e-03
7.928111179253927512e-03
8.213958947355385481e-03
1.441013767173892658e-03
5.775110151007128425e-04
1.491617776322030084e-03
1.067947352614828692e-03
5.216458471837821624e-03
2.812116172405640466e-03
-5.671164496443331562e-04
4.635482556826999345e-04
1.625560161909711402e-03
7.845799301880725801e-03
7.777642513789762881e-03
4.581382089542843788e-03
7.748446057965865594e-03
2.845887269077103984e-03
-1.262335029893417448e-03
2.885102488287833843e-03
3.338145926014963322e-03
2.785968824380843315e-03
1.053828233116070861e-03
-1.009552241829410595e-03
-1.061019997366907230e-03
-3.541885539802030157e-03
-2.723867667307613288e-03
4.538631805187125961e-04
-1.723145375843991491e-03
-6.883692580737681317e-03
-9.076633596364113224e-03
-5.700590030153120623e-03
-2.353253597282409758e-03
1.563976005411786378e-03
6.324106452112494489e-03
3.731529205207717494e-03
3.207727766073592427e-04
-3.725253653418451709e-04
-1.421970531449028333e-04
6.242739119574003230e-03
7.928465291456967060e-03
1.612983791130355145e-03
-1.440395253884308238e-03
-2.813354292508146726e-03
-1.289073792837254571e-03
1.956219205232601673e-03
1.122303477241637110e-03
8.914840131339985593e-04
-3.807321066045612243e-04
-5.132230334411083672e-03
-7.337799795082203085e-03
-5.206396848835071964e-03
-1.012143695708700789e-03
2.661834783375934942e-03
5.881468649593731175e-03
5.553236529282442983e-03
-1.744294249952056414e-03
-7.847483673366286924e-03
-6.129022811369299467e-03
1.300157118219375180e-03
6.997261777388933020e-03
3.401472847717370695e-03
-2.557255517911787707e-03
-1.682881473153674447e-03
1.507937070393041866e-03
1.586560718706241319e-03
1.458198959305273849e-03
5.295997094104077166e-03
7.192295690427412749e-03
-9.314136035439291028e-04
-8.895524112419539095e-03
-4.914903817068909907e-03
1.823162650063348336e-03
4.492333023935948105e-03
5.763328485331553445e-03
3.692358736894716439e-03
2.435865661895791380e-03
8.635714384712367929e-04
-4.802816145435196554e-03
-5.133180879794605432e-04
6.723893621326353098e-03
-1.220941452294728707e-04
-4.599199245989017346e-03
-1.465118627669629659e-03
-2.335512780296819437e-03
-1.569439023647795257e-03
2.120176375348278592e-03
2.116818995191691987e-03
-2.465633892938028700e-03
-7.069263690099174963e-03
-4.844698107255786430e-03
-1.533861624689418978e-03
-3.041831836369679725e-03
3.538902116364978112e-05
5.841852295061106433e-03
4.143777535900862279e-03
1.972628484756879744e-03
2.346479576458729115e-03
-7.606545241831947192e-04
-1.541338620100223076e-03
1.132232134664521014e-03
2.003476330502567716e-03
2.742080556154791529e-03
1.376807079782173347e-03
-1.511979010873836871e-03
-2.317407671304541096e-03
-2.353864802180491086e-03
2.099870583167464722e-04
2.492234480515824902e-03
9.757049836261709463e-04
7.983981910392096745e-05
-5.016430688403231662e-04
9.114144340564000199e-04
5.135389556134337119e-03
4.674400032010102464e-03
6.809833120078011282e-04
-3.051224308389558198e-03
-6.272071152293828313e-03
-3.825742305441704946e-03
2.201352728688546305e-03
3.684065123220094107e-03
1.515771481990704252e-03
-1.179520284257272922e-04
-1.140443909655256167e-03
-2.161388469270235715e-03
-1.500223749796623192e-03
9.581012921214065396e-04
3.260523421161590392e-03
4.306120798530790189e-03
-6.574665420691199478e-04
-8.314916750073954657e-03
-6.893408890755392364e-03
-2.757625446599425503e-03
-2.373849656904274824e-03
1.123290852976868920e-03
2.941758927152119014e-03
1.396977355312541309e-03
8.861181493789367127e-04
-1.289805481347655516e-03
8.143251208354205205e-04
7.012566287080535150e-03
8.029478702914778082e-03
5.424971308716108019e-03
1.109779380162167995e-03
-1.068047077869910093e-03
3.860682921156669868e-04
-1.173298937098911409e-04
2.012519892071041542e-03
4.204627448125690913e-03
-3.249717868497065554e-03
-8.514010816477932814e-03
-3.335638044560516012e-03
-1.176086572974848572e-03
-2.812752974771209457e-03
1.985182571283927548e-03
4.365664610339528920e-03
-3.392598147057724212e-04
-1.577915769112602645e-03
-1.837481003709512265e-03
-1.424113172223439357e-03
3.379969604784603503e-03
2.638237916172041318e-03
-1.399422894000556302e-03
-1.654038450658592077e-03
-2.555039587565142208e-03
-8.665051216043113090e-04
2.755576255821664666e-03
2.311886893379442014e-03
1.508286448593825456e-03
-5.902250973061446901e-04
-5.775930252022049363e-03
-6.884000814315219784e-03
-2.542292555827337531e-03
1.851661305020061181e-03
3.548500984049731896e-03
1.961586316726956266e-03
-6.493772174999371417e-04
-1.241923817465639696e-03
-1.693696223798080071e-03
-1.861730240305156225e-03
2.202683565153682518e-03
5.291614956155826430e-03
1.609366371659112002e-03
-6.009498691090378120e-04
2.411714876728633401e-03
2.831154852453170341e-03
1.557291004610060307e-03
3.079759706937092688e-03
4.534635254294545892e-03
3.625922754224965208e-03
-3.649223230129974805e-04
-2.452054691099073754e-03
1.904707013812231798e-03
4.189809237179342206e-03
2.461918209113263169e-03
2.903574496769119242e-03
1.338570066070436746e-03
-5.428826217390048114e-03
-9.262374930051464963e-03
-1.698492422562847357e-03
6.488593273849789164e-03
4.437319072087524650e-03
1.757419760218567216e-03
-8.279769856728687316e-03
-2.534875960406356155e-02
-2.021849579217157439e-02
-1.599843927743584745e-03
5.785668937907274302e-03
8.049028672005818785e-03
6.158002436993948066e-03
-7.141177939704070055e-04
-3.194067401197766502e-03
-6.530706678204296596e-04
1.785480333218794667e-03
4.740069501671292582e-03
8.901592869496587415e-03
5.801933400569969125e-03
-1.276530789977465717e-03
4.829588363507685000e-06
5.011479852167464305e-03
9.392737948402561307e-03
9.937011039897832368e-03
2.478450168953908687e-03
-2.736862808230939702e-03
-4.321146394912935354e-03
-5.888654571465948458e-03
-5.083964796090175830e-04
4.959859963344234735e-03
2.066250916428816892e-03
-1.870216243699041048e-03
-5.258032432429341624e-03
-9.211994617303825503e-03
-7.243100874885359183e-03
-1.550374840151233285e-03
-1.191661283381319279e-04
-1.931074323488842556e-03
-2.788456878125654143e-03
-1.571449632465827693e-03
-9.295477041739223746e-04
-1.209383339706639627e-04
3.085688284195149244e-03
2.502167226516282313e-03
-4.241815701884332356e-04
8.677427434309834551e-04
3.247609318852867112e-03
4.147106713963020878e-03
2.872237818884755284e-03
2.133207149884443210e-03
1.903030638979343178e-03
-6.540617275270819249e-04
3.480368705694842583e-04
2.045342510286208540e-04
-3.206462086780177429e-03
7.144679785689744302e-04
5.488391587783822932e-03
3.617454323035698867e-03
-2.214344479136238098e-03
-5.003381510509609734e-03
-7.013583606105191093e-04
1.069459265317360347e-03
2.611169440322848052e-03
3.470064667016325988e-03
-3.901976950630092148e-03
-4.717493182447317357e-03
-5.587868737287491000e-05
-2.339437697522389387e-04
1.212377588012103794e-03
1.527097119149938443e-03
5.874020527053091904e-04
-1.600768645296144453e-03
-6.706064590828392583e-03
-5.020065904081146523e-03
-1.423198903929299552e-03
-2.287359288994556244e-03
-1.486704978652510852e-04
2.956610919206092026e-03
1.399789278032602174e-03
-1.569015745780212969e-03
-9.212668738232841423e-04
2.217685929612932261e-03
6.156128070842008769e-03
7.763341776845573104e-03
2.562390584173505469e-03
-1.735367633974920333e-03
-2.281118985283417302e-03
-3.623007641281937845e-03
-2.095072299481425242e-03
1.374412329498654259e-03
4.287913884558546170e-03
3.148578060484573914e-03
-2.872865153382005068e-03
-3.825084510889957372e-03
-7.774890422483971865e-04
2.164757189116058543e-03
5.630658017556000247e-03
4.114679480695519406e-03
-5.594039243711258508e-04
-4.085150786678479369e-03
-3.555171092502696240e-03
1.598699429762046129e-03
2.590275149945493044e-03
-1.308601108593516235e-04
-1.533467783678182190e-03
-2.385997219968322581e-03
-1.034021193547201255e-03
5.799641455732183889e-04
5.843510907749723806e-04
9.937670775827895861e-04
1.871487519339698870e-03
-5.205306352932307333e-04
-6.908953497823087236e-03
-7.346485697590459177e-03
-1.218999916741281969e-03
2.237832963660314235e-03
4.384656116319435651e-03
5.169644733743978052e-03
2.687178735157924690e-03
-1.262756992868414949e-03
-5.512301736765196428e-03
-3.097215767344271842e-03
4.388638742730927370e-03
5.837116139137610120e-03
1.920386603268263090e-03
-1.523804215836201906e-03
-1.928467840910664133e-03
-1.024299199485660629e-03
-1.315939962799419962e-03
-7.276631762124904836e-04
6.519322577769523768e-04
2.047554189914162995e-03
1.047789983820260644e-03
-3.312327968112698841e-03
-3.078991483697490154e-03
3.870984365284334087e-04
1.271345892937943535e-03
1.597455265724453738e-03
-4.188148577553070951e-05
4.313979308052335931e-04
2.808412661652518079e-03
1.420160558564227595e-03
4.114359033342258366e-03
5.346757954584131084e-03
-1.398655422673061649e-03
-4.184217960328138683e-03
-4.457485512912320869e-03
-1.432539720114772968e-03
5.571859627238694330e-03
3.752741052396023260e-03
-6.260788774841273161e-04
-1.971787359523837803e-03
-4.455063926386565974e-03
-4.719471384802138327e-03
-4.857098967446646029e-03
-1.456824177190756651e-03
3.789365498791168792e-03
2.025265868440520936e-03
2.097579637343759389e-03
3.822402726636527776e-03
-3.588258782832490874e-05
-2.913394995598251117e-03
-1.749592135175712538e-03
7.760674586721425525e-04
-2.931147815851901630e-05
-2.548017413832375129e-03
-2.154475115474504404e-03
-1.814160712596039676e-03
7.083674520421466645e-04
4.674380740204265618e-03
4.872618159199402360e-03
2.940263894843249664e-03
4.534364600400287359e-04
-3.852155473503825244e-04
-3.450183850129497944e-04
1.052888716074675988e-03
3.674551622725904555e-03
6.687835066989010957e-04
-1.667630950579104170e-03
-1.449373090364562515e-03
-5.051933022930234739e-03
-5.056478551009856333e-03
-1.617408548593062120e-03
1.949168522305538484e-03
4.609010941681657321e-03
5.897504857101509151e-04
-3.257419086916510560e-03
-2.224662845876343442e-03
2.547923136874962217e-04
3.056174197119688237e-03
3.401408375749700314e-03
2.355325005066764409e-03
-6.012547988305295705e-04
-4.331813159916500511e-03
-3.451705230506443151e-03
-7.275658212575089427e-04
1.061844568841160529e-03
2.602293647183496778e-03
2.624065069915560398e-03
4.734704696148360915e-04
-2.686185010426840169e-03
-5.578626066292139904e-03
-3.487134373623084101e-03
2.520496253631286654e-03
-2.933061075085228227e-04
-4.504104088579467639e-03
-8.423792145432610658e-04
-6.131282950226689486e-04
2.527031032602134863e-03
5.263447479289446763e-03
-3.111761903218475921e-03
-3.627466762601688592e-03
3.746848656264909708e-03
6.054577021115391776e-03
4.948449178018595254e-03
3.524337874397248833e-03
6.878949714575341261e-03
6.038299000275071209e-03
-1.150819957092704109e-03
-3.599888250325488943e-03
-5.705562905551552107e-03
-8.251680203035589162e-03
-6.189499734141895929e-03
-2.498997328431406401e-03
-3.271176709824445087e-03
-2.205307175134535447e-03
4.225410828530396824e-03
1.395674381831543773e-03
1.684528607802918479e-03
1.057057660668421668e-02
1.228603905653197388e-02
1.649293095507379722e-02
4.730011826088387043e-03
-1.857668401057994620e-02
-7.040582188864313168e-03
9.392298321126823363e-03
4.794894467787997640e-03
3.086305084234323200e-03
-3.170458034554616243e-04
-5.965088747497141776e-03
-1.017741333856858436e-02
-1.554460614546686499e-02
-1.464347072706699213e-02
-1.176268240305083056e-02
-9.890109373343737229e-03
-7.928647803715365566e-03
-8.731388704350683330e-03
-5.713855152186825964e-03
2.784250503161449838e-03
8.990918682968963155e-03
1.376522101651747078e-02
1.622955377121997403e-02
1.093796481887066366e-02
7.318368826799468742e-03
3.481622820061696690e-03
