4.481902784384728458e-03
1.578591274536308292e-02
1.591957542546608081e-02
1.529059376848849149e-02
1.487118785086384565e-02
1.158877146219645764e-02
9.954578118796866826e-03
5.701709027330059340e-03
-2.903646883839316149e-03
-7.274705283411571355e-03
-6.004990800621153556e-03
-9.533075977489523581e-03
-2.020173951473281521e-02
-2.356930718089002980e-02
-2.170949739496889214e-02
-1.877938373866377963e-02
-1.198199316619811411e-02
-1.224218206613827790e-02
-3.004886755470766255e-03
1.448501302038934617e-02
1.427899776795688372e-02
1.538510593576176283e-02
1.226058449206264903e-02
7.645771238628260372e-03
1.235253265355325258e-02
-1.973867696102716424e-02
-3.902821453468773016e-02
-6.786300740655139751e-04
1.282767070167878040e-02
4.066312156332748708e-03
8.085404504547467203e-03
1.055713079491359466e-03
-3.472094306253492406e-03
-1.573061104060559379e-03
-3.949986667631895029e-03
-4.262160941516798633e-03
-3.264716404924067339e-03
-1.406176513988508469e-05
2.608729125801291862e-03
4.703900130346255933e-03
6.142272532922910498e-03
6.499376699815866999e-03
1.122444796417794086e-02
9.521074387325101709e-03
3.705706449992881950e-03
7.156321501757204571e-03
8.156084310390455602e-03
1.664299385240790383e-03
-1.373051408810283501e-03
3.564151029913863698e-04
-1.278985674838110150e-03
-5.344979689982534352e-03
-5.415802120465111787e-03
-5.926728398195065493e-03
-6.504954212742483644e-03
-4.830480407259145521e-03
-5.090394519942139512e-03
-3.455900711084529831e-03
5.064700007983776071e-04
1.145419362711286738e-03
7.882699316369100578e-04
3.567244172431469074e-03
3.761822006479723177e-03
-3.380978781943625930e-03
-6.338491477989945284e-03
-2.338941451561671065e-03
-2.988955011035814794e-03
-5.030003460322185656e-03
-2.118807179278514672e-03
2.834752430757282119e-03
8.415110399436542821e-03
8.865147447506214681e-03
3.955856846852863658e-03
3.736890216700547787e-03
2.876773698396904982e-03
-5.542647598261793559e-04
7.057512502329368149e-04
-5.594985601161715262e-03
-1.019363010211528191e-02
7.275338375042300718e-04
1.155922723952652800e-05
-8.423756169936442648e-03
-3.652301603134002535e-03
2.141703125850953854e-04
1.251972923260468579e-03
1.449032243484654802e-03
-7.048269988983103980e-04
3.560400227638739912e-03
5.822093691631824268e-03
1.697363855952524047e-03
1.377433358523695280e-03
1.680077923311974059e-03
-9.159641890077541235e-04
-3.940854375783702044e-04
-9.422642725183194914e-04
-6.437798325451124168e-03
-3.894018454722456262e-03
4.950220320006466605e-03
6.347343660813941843e-03
5.176838633130948289e-03
4.279598106100328953e-03
1.520721239348493117e-03
-7.273463148601848251e-04
-2.256085083800569036e-03
-1.168930386859734234e-03
-1.665911900557116247e-03
-4.786795996298994632e-03
-3.861915836739989415e-03
-9.852275080779288822e-04
1.500942417117583213e-03
2.401222745034142184e-03
5.849023927033923653e-04
-2.240097228128153008e-03
-4.479095861997079396e-03
-1.637870744974445180e-04
4.446794073744110218e-03
-1.202285079033617744e-03
-4.194016986260177757e-03
3.570758274943388200e-03
8.306333112840749711e-03
4.468243344903197363e-03
5.829057051680390771e-04
-8.398858525131097609e-04
-1.722654957990739583e-03
-3.444789499590174969e-03
-7.411543336856746093e-03
-4.074277574343115015e-03
5.617913870517778074e-03
5.853879703064970158e-03
2.582900297417814722e-03
2.677607547767225926e-03
-3.274215253400162206e-04
-2.878540782087715081e-03
-2.912775475098866758e-03
-1.559794829554358130e-03
5.923136550339561318e-04
3.388304928337158742e-04
5.551279765214999331e-04
9.025893769248196719e-04
-6.909627030690477937e-04
-1.116673481401122192e-03
-2.221380485343993523e-03
-4.194000538853476408e-03
-2.977349995269977338e-03
-1.352817383563665937e-03
-9.461324305117647200e-04
1.568182441218289331e-03
3.008391932599704076e-03
1.482075678403656184e-03
1.682514298944799225e-03
3.391475692408932405e-03
4.123040034317165987e-03
2.169578411410676925e-03
-1.032961821736445591e-07
2.173720490786883435e-03
2.497762228072725795e-03
-1.387284994594354271e-03
-3.129371125764184806e-03
-7.831809655429549082e-04
5.366288196958039595e-03
7.000160203867137644e-03
1.740956666133263396e-04
-5.056701773802270775e-03
-6.356065037213727044e-03
-6.314298726256162286e-03
-3.879017366715014920e-03
-9.237669056792421245e-04
-1.453998100348680503e-03
-1.884824947603575690e-03
4.070869106255320044e-03
5.273065608977579692e-03
-1.764325604241689417e-03
-1.814756682974049112e-03
1.689347873478197004e-03
1.139574515137574059e-03
1.751743684151111898e-04
-1.675695394290341745e-03
-2.351486945315990271e-03
1.221188128649106997e-03
5.668346871634635450e-03
5.587410508915340544e-03
2.788015962090226087e-03
-1.780569087537235999e-03
-8.012955269535899233e-03
-3.879057932994036621e-03
2.522721886255311664e-03
-5.781051416560976410e-04
8.260282333221547011e-04
2.000378520837047674e-03
7.098058765836233810e-04
4.502499342776111399e-03
-2.254376036619747266e-04
-4.303256636925857637e-03
2.022350947377785611e-03
2.205940498856397581e-03
-1.083666056944778810e-03
-1.212623747005676196e-03
-5.602669927191441038e-04
2.244719142273427035e-03
4.313456163263925183e-03
3.265620090508240987e-03
-7.543517037024900524e-04
-4.860562755961695715e-03
-6.295293991306846922e-03
-5.438231138610916983e-03
-1.029589936052535855e-03
1.185120433628084405e-03
-2.707464821780383680e-04
2.700019609507875278e-03
3.512179162158411520e-03
-4.172017328993252324e-04
1.210745245695073061e-03
2.039186670245054893e-03
-1.299637613149387354e-03
-2.405995041010399414e-04
6.587322700356131001e-04
-2.272824383825488865e-03
-4.566173372017303875e-03
-2.614273732337527283e-03
3.366744447401928079e-03
5.697640165452363958e-03
3.089245861889250086e-03
-4.714228044108572475e-04
-2.110399372259718492e-03
-2.136272776449557251e-03
-5.363538562669497092e-03
-2.811558959471909501e-03
1.104837677947559209e-03
-7.216304327393706537e-03
-5.595121304357200676e-03
8.018053622322950796e-03
9.133635719007503900e-03
3.791370509279695308e-03
1.149731878068277133e-03
1.060682656869466013e-03
2.627363771510167131e-03
1.244712559864259802e-03
-7.185113939590120251e-04
5.619342638946676644e-04
5.445550957801238885e-03
7.829208007496193597e-03
4.028789997253388877e-03
9.550517373315356180e-04
-1.054924779328988548e-03
-5.807942744982786364e-03
-6.575968449029860781e-03
5.421621819501644662e-04
1.639579112460536059e-03
-1.794734900287072842e-03
1.867103177192653294e-03
3.059088305230523754e-03
9.014841357931693833e-03
3.945006875409792432e-03
-3.232654143838590427e-02
-3.380804448029441772e-02
1.126821532308554729e-03
5.735631141995971120e-03
3.563423379465528902e-03
7.187405982093435231e-03
2.710268716575582777e-03
4.811422801825165387e-03
3.919064615872163912e-03
1.112763755358814463e-03
-9.690510729111514706e-04
-5.016121581425283908e-03
4.090300656690459445e-04
1.289534793369588074e-04
-3.308531794543946667e-03
3.739141354958838009e-03
5.976906727864775976e-03
5.602035317429640733e-03
6.808281046464414142e-03
3.511768727641051326e-03
-1.984749620786028547e-03
-3.922131631948071705e-03
2.822201815942557103e-04
6.262946681126195948e-04
-8.561264861055615334e-05
3.179678971922857752e-03
3.653512635294386360e-03
5.717946402757327282e-03
3.752946471180198650e-03
-1.572045114470101580e-03
-2.314493985458420961e-03
-6.862219833299150300e-03
-6.574260205741298303e-03
8.893561405062754520e-04
3.420095727006688090e-03
2.227142601589988426e-03
-1.402958717608222567e-03
5.446951859178689789e-04
5.181602445819667203e-03
3.339597676997880203e-03
1.179583424859216492e-03
-1.148532633023526678e-03
-5.432434948902255907e-04
-2.337276641202391207e-03
-5.008779233119163392e-03
4.671213289745042643e-03
6.435967293798192275e-03
7.000055707291642608e-03
5.173464833582888493e-03
-3.256183404848809332e-02
-4.538288482779610777e-02
-9.311983140257572289e-03
3.379930745321375971e-03
3.149175269554162562e-03
1.116555881163847422e-02
8.188148897307082064e-03
5.577951715726631003e-03
5.433596616397441507e-03
5.182438544886785146e-03
3.584478147670921815e-03
8.094578573839286912e-04
6.238330700320199665e-03
6.476578837943705071e-03
1.811620004548731948e-03
2.895415517941192247e-03
1.833015343096781793e-03
3.784494183290755195e-03
7.267260288390316181e-03
4.552728363816478489e-03
5.975125858661950971e-04
-1.737888312420935409e-03
-9.901753413570073704e-04
-3.518060670955099143e-03
-8.639078672142705764e-03
-5.804214706558085725e-03
-5.722003777664697206e-04
-1.033063295503948648e-03
-3.216098912344697754e-03
-4.028701018724214654e-04
3.011519725238690978e-03
2.033967930503339117e-03
2.488323030266079323e-03
2.213161414952559240e-03
-4.140569676970720994e-03
-9.813997124496036395e-03
-3.692292460222461065e-03
5.723369734582066035e-03
4.806360951750568086e-03
5.144937361817619736e-03
4.541440191450516785e-03
-1.157490026961869971e-03
-1.570726892730755359e-04
-1.190854585436105064e-03
6.533684241649537943e-04
4.607799739574488553e-03
4.903865903633304775e-04
3.589210779535522301e-03
2.056637045030185358e-03
3.295579166641156039e-03
8.137098986745252074e-03
-2.464999050950629142e-02
-4.033618312081176799e-02
-7.378005065775041643e-03
6.631551627523430206e-03
4.349818038861835712e-03
5.681861722310184611e-03
4.232888395128781012e-03
7.958660702386526759e-03
8.421704934800494299e-03
5.092433952466799384e-03
3.372035071200974918e-05
-4.137885227726533811e-03
-2.735313197529670639e-03
-4.230672827424756741e-03
-5.815740739847541536e-04
4.658744427473227208e-03
3.270520364603740713e-03
6.553606951348140038e-03
6.730867329218953934e-03
2.936810568868287747e-03
2.623729988277903082e-03
3.096143289987799817e-03
5.170599334723090072e-03
1.293948087400758457e-04
-7.046889556147673678e-03
-3.409626528159098290e-03
1.239173018695055204e-04
-7.341684133515902558e-04
2.272626579167049419e-04
-1.040827088843030400e-03
-4.897399668662815418e-03
-5.738900793872812878e-03
-6.715462785400339550e-03
-4.418019486657025034e-03
2.869182815646045132e-03
7.458578725770552593e-04
-1.241791203151771565e-03
5.783938392031351579e-03
7.293544755367284242e-03
6.295642584340805509e-03
3.540649801957242680e-03
-1.795962486120003532e-03
-1.964878089397964923e-03
-2.297242812364997874e-03
-3.015979632866630424e-03
-5.363606438221861505e-04
4.378928209772168199e-03
4.434610116816430948e-03
-2.514248978649137600e-03
-2.154897309843717759e-03
-9.833191769746559268e-04
-3.680823741492162977e-03
-5.261428200278918735e-03
-1.235102027268060627e-02
-9.445465588400227958e-03
-4.889057996638191935e-04
-2.277472768776157754e-03
8.535681497450213658e-04
4.242048083535448523e-03
2.676308427850804771e-03
4.266696871308183966e-03
3.823081863046810542e-03
5.509233090293772124e-03
5.359045704628534988e-03
-5.091253307575443207e-04
-1.680157158165666810e-03
1.939128957613791464e-03
7.158622133334974907e-03
7.026631025980264143e-03
1.247320866418833059e-03
1.137806313652843385e-05
1.828481562078526916e-05
-1.202015594127460625e-03
4.646654092069827627e-04
1.629521992048103482e-03
-1.348394329992323552e-03
-3.552156102081161990e-03
1.121904320700554611e-03
5.870719103189576613e-03
-3.740872081503897719e-04
-1.106728304770071211e-02
-9.055763600075959069e-03
-9.924358017513914675e-04
-2.952011326925368766e-03
-4.264013750950269507e-03
-7.990447822514118144e-04
1.460954034531223786e-03
5.552442694701654156e-03
3.068477984901730928e-03
-1.079633712626985181e-03
2.331630445714671235e-03
1.416451133591781729e-03
-2.234354843035821301e-03
-3.674724291513630815e-03
-2.220244705551192247e-03
2.418405176874383836e-03
1.458946196956069970e-03
8.584817393618871667e-04
2.884528920978087115e-03
1.941601767714198901e-03
2.937808387117988359e-03
6.973221244074671865e-04
-1.300503791645191837e-03
1.239555321667296138e-03
-8.428912398283544593e-04
-1.143376031674943252e-03
1.331089916594856365e-03
3.628848247722433334e-03
5.165023159209597252e-03
-6.398596377147162126e-04
-2.185991017504520812e-03
-5.149224632890439697e-03
-1.560958503846218183e-02
-7.689612502452083595e-03
3.232145050489147221e-03
1.154169452553667962e-03
4.640846847154768764e-03
2.961599894222346433e-03
-1.023186171679658918e-03
3.856918568008783649e-03
2.015964499876384940e-03
1.452954933716267723e-03
5.151242598047017611e-03
1.788220787937199732e-03
-4.787064902074978246e-04
-1.779462585968868580e-03
-5.101278239197335222e-04
5.392650523372596698e-03
2.155832241908398148e-03
-4.096250645800497345e-03
-2.309669703450045481e-03
-1.333930134723718608e-03
-4.607708619841481383e-03
-5.921828001110677163e-03
-8.878149233616729370e-04
4.282485142900163862e-03
2.910867493192466175e-03
3.266409950075386485e-03
4.415674438315667256e-03
-9.621649289428510802e-04
-2.163800318347167649e-03
1.908417238688345924e-03
3.729626980534204712e-04
-3.636003636606612108e-03
-5.584596513027418122e-03
-4.639041124638225086e-03
-9.854227237857912962e-05
4.503926162667279062e-03
5.446930614474379366e-03
3.031507323422060092e-03
2.235732126002200251e-03
5.053996126123899788e-04
-5.372186750533030838e-03
-6.487931309485709362e-03
-3.670848604465107301e-03
-2.993936342772294482e-03
-2.473958853493647561e-04
4.295503951825735411e-03
6.184856595398634770e-03
5.397373708456594185e-03
4.828889673639745819e-03
3.053352437163873740e-03
-2.306406512894327264e-03
-5.251838751420831800e-03
-3.876730362664745130e-03
-1.209861846704376109e-03
2.396156412038726036e-03
3.925104329403271593e-03
1.882000937563406678e-03
-1.666411274771626696e-03
-1.692020214217463021e-03
-3.957314609680694572e-04
-5.318803016248364185e-03
-5.831258687568737810e-03
1.305740988894104303e-03
1.515085891357151717e-03
-4.860776270267478131e-04
1.417515841311146885e-03
9.199554406387100598e-04
1.564928976470739922e-03
2.743267570727645453e-03
-4.001523013710003938e-04
-1.300706488659258021e-03
-2.418589615777662111e-04
-2.408349024543253881e-03
-1.892947974468275679e-03
2.520320643361993827e-03
5.638878608539842595e-03
6.094090834953839499e-03
2.178267168559009422e-03
-1.444817846327591275e-03
-2.186987489422026823e-03
-5.360220533951383717e-03
-6.081760223497348523e-03
-2.969501664187623128e-03
-2.017072580178342830e-03
8.926991552821370826e-05
2.000224540527260203e-03
5.059303175775772213e-04
1.140920648376371384e-03
4.518710084320337605e-03
5.219478187774389405e-03
2.182450291183164227e-03
-8.446205723475218351e-04
-3.231920439474662496e-03
-4.843469180641006913e-03
-2.732831440283147850e-03
8.115162327200043735e-04
3.695217414717601612e-03
5.036340867365804441e-03
2.188804243759410583e-03
2.612661997648125633e-04
1.514797446054198479e-04
-2.136601186995648258e-03
-1.168226303734518513e-03
1.983471781786466724e-04
-1.274718143005116417e-03
1.934518270830690211e-03
2.923009543028310103e-03
-1.228607384563388995e-03
-7.951414262126223469e-04
-1.618117653944309807e-03
-5.395818255878229337e-03
-3.519565244580728607e-03
-2.082454399160459698e-04
-1.122134842134059210e-03
-1.103963991202850173e-03
4.201445519778562038e-03
5.698395314670288286e-03
3.853483135599673087e-04
-1.343794000475834367e-03
-1.637368594901347741e-03
-2.988623640240070309e-03
-2.233352563864344619e-03
-6.815564850753105851e-04
3.209040468196562926e-03
3.507174236544067375e-03
2.591705129842770787e-03
5.241623999351258806e-03
1.127746286512448532e-03
-2.072831404508499419e-03
-3.359612629699168019e-04
-1.976481817151685277e-03
-1.556086517626417785e-03
-2.386918371977660071e-03
-2.641453633661231763e-03
4.149365115997158404e-03
6.370652410915186512e-03
2.258857113792765541e-03
-3.100220846907242355e-04
-1.523546654972669388e-03
-3.358476891782480322e-03
-3.480472182552068160e-03
-3.248748594175794591e-03
-5.278880141378827599e-03
-2.799931353683927059e-03
-8.159364608023307163e-04
-2.948878974489495004e-03
3.222138204606618799e-04
2.419812660959929935e-03
1.296005908424561516e-03
1.831124865308785075e-03
-1.189920298787860791e-04
-2.633446854696424103e-03
-3.950187660743821605e-03
-1.904602176489869191e-03
1.314579922355665767e-03
1.852102716414083658e-03
5.949403075437115565e-03
8.477076018098678861e-03
4.007955220375440664e-03
3.204554884223896984e-04
3.744731314579046247e-04
9.297589786653097464e-04
-4.411337382934387200e-04
-8.712271248503366920e-04
5.514798011414573289e-05
2.183675580803917486e-03
5.471113769971936575e-03
4.034144663906878182e-03
4.629628618871219244e-04
7.174594526538181178e-04
4.110516040720797216e-03
3.717524395123842328e-03
-2.565953642323831867e-03
-6.020571233653580594e-03
-5.329245092497597938e-03
-5.797272465530125315e-05
-2.229236191472899764e-04
-2.078030084114865488e-03
1.172086183940021162e-02
-5.248929560597240772e-03
-4.222836584071015809e-02
-2.344822590286804037e-02
3.761552144999923998e-03
3.201759373446483575e-03
9.672214672170749775e-03
7.744687069746642588e-03
3.931389637968875188e-03
8.205122551024603139e-03
3.252814877938870614e-03
2.668249050132352838e-03
6.555617953327238893e-03
2.866624078976381766e-03
-3.555467564342401458e-03
-3.415108961685701591e-03
4.060603060616384610e-03
6.360584077429035262e-03
6.106032828817270844e-03
5.861354586655633837e-03
3.572712442569157343e-04
-3.190688519717033850e-03
-4.353260307112713154e-03
-4.359742880815658909e-03
-1.940398816135983093e-03
-1.138630744879390658e-03
-1.984148435843983115e-03
-1.161713617309503626e-03
1.001936156155266164e-03
-1.463955910519849912e-03
-3.606456460550374818e-03
-7.999116376339223799e-04
-4.565355975817662892e-04
-2.793336592987832011e-04
-2.016044861044714517e-03
-6.598612616425043181e-03
-2.822663777464785254e-03
5.742692979593984684e-03
8.815066644948832061e-03
5.861330780224192211e-03
2.142937695289796798e-03
-1.086295037562953975e-03
-3.700445786904307029e-03
-6.386130860177586773e-04
1.437054845203999346e-03
1.370390733605601156e-03
4.423020755971511682e-03
9.751538598901884382e-04
-1.395771979731821790e-03
4.156829008236537226e-03
1.295511762692679470e-03
-3.502191809227474077e-03
-5.017294618516836540e-04
-1.545922677007141675e-03
-4.943094724562582983e-03
-4.397237693675122572e-03
-2.005001444280867266e-04
7.277892848633503095e-03
6.293091136350809772e-03
1.380750115338150955e-03
1.156010487517306756e-03
-1.121647557014720381e-02
-1.821558662350964558e-02
-2.446017193137986490e-03
4.054829827755679350e-03
2.098637080109504085e-03
2.599262469003113443e-03
-3.557860904615764604e-03
-2.289868647656906429e-03
3.042644821717987655e-03
1.495694014827979226e-03
2.102844806319674204e-03
2.912473059637842032e-03
2.488809296752601905e-03
-1.256862600875908304e-04
-3.839383766253228001e-03
-6.930023183972489585e-04
3.023051636835276477e-03
3.111287777467467049e-03
3.083112230114930848e-03
2.021397476696190632e-03
-2.886700020755766753e-04
-3.067607670978253400e-03
-3.450281631996360981e-03
-1.770299972553703938e-03
1.753344515801284710e-03
5.290866693905493801e-03
2.055401979971864176e-03
1.204698726061405312e-04
2.913700056939994790e-03
-8.048303799185912467e-05
-1.616534802439807076e-03
1.647543255964728590e-03
-6.775172844399696094e-04
-3.033615728401690883e-03
-2.995357367274085417e-04
1.169849712319810491e-03
1.721115677862664929e-03
3.211941061078609893e-03
4.824409334857857577e-03
5.339576605424282280e-03
1.620963537326566058e-03
-2.380347724779007315e-03
-3.811890580876809830e-03
-5.903582848611386123e-03
-4.361542579478512420e-03
-1.098242633154778748e-03
-3.050128952269903597e-03
-3.559803229503421314e-03
-7.636179922970528665e-04
-1.010878586730549773e-03
-1.471609583915112034e-03
2.928411375036777255e-04
-4.592857891418877184e-04
-2.709516457077573194e-03
-2.179340234688901222e-03
-1.208638607202700119e-04
3.485910142896689323e-03
6.121431594204967443e-03
5.292712804046097695e-03
3.634877835360417458e-03
-3.132410834756871234e-03
-9.505387009367621820e-03
-5.787333957491695713e-03
-1.720090204094099117e-03
-2.013935547554499689e-03
-4.948008881793582864e-03
-6.850091132839277765e-03
-2.464233634420186659e-03
-8.038452535459410502e-04
-2.332627129941319463e-04
5.063721656403450885e-03
5.901967664729552802e-03
3.623653612540556155e-03
1.173000372770006050e-03
-7.011861763006160516e-04
1.687487246042533888e-03
5.494344705399892975e-03
1.156313150796461561e-02
1.523855168864590368e-02
1.122720221730641281e-02
6.015443493390504326e-03
7.717492848006149084e-04
-3.298839441145830394e-03
-3.300487153949775623e-03
1.389518825941321156e-04
3.197403617623344532e-03
6.669631958756003709e-04
1.488972734101932753e-03
7.458707589028061753e-03
7.803930673932763483e-03
4.435453789430386304e-03
-1.628718266986900606e-03
-7.460342528522439370e-03
-8.957621560368642794e-03
-1.116744692527490458e-02
-1.428104264072781009e-02
-1.650219647570514217e-02
-1.338298008149264341e-02
-9.776426099435674491e-03
-1.980244719340511564e-02
-2.855982317701522694e-02
-2.172256399276169606e-02
-1.129194164216294066e-02
6.050242354068815880e-03
3.080099802321715000e-02
3.793456162693057548e-02
2.620165771521437703e-02
1.601014205111572775e-02
8.035172757616932879e-03
1.654616962850946355e-03
1.099951562617954666e-03
4.958550410723920306e-04
-3.724519484266048731e-04
-4.629466715991723750e-04
-4.281999235195187853e-03
-8.509037188733067913e-03
-4.295922700638900825e-03
4.928861769002565278e-03
5.260280675604302528e-03
8.986727501161557042e-04
-1.232987271952405532e-03
-4.725921661540507385e-03
-3.530725677461452570e-03
-6.241677246979816535e-04
8.253542771908360795e-04
4.502782520300055089e-03
5.886249168191437856e-03
1.041397933953573489e-02
1.166219141828767070e-02
4.332699663645304261e-03
4.454075578437608623e-03
5.005708686599384324e-03
5.760859183475192298e-05
-3.274691615991208275e-03
-9.098676752849567395e-03
-1.458631181280677092e-02
-1.243400771588057223e-02
-4.115567464777537300e-03
-3.315946711165413188e-03
-8.585260448993613930e-03
-6.759037740642989504e-03
-6.950694979091663096e-03
-8.176346364484731594e-03
-6.574570129929365511e-04
1.408226357992498762e-02
1.379754059593882830e-02
-1.858651078621948588e-02
-2.436088480919951227e-02
9.947490629653721328e-03
1.531978059426789864e-02
5.233344442612360842e-03
7.441503663568992642e-03
3.998697567285761610e-03
-9.568287829228355659e-04
-5.766679696320319362e-03
-4.123507283372884399e-03
2.567779832217508950e-03
1.612111310488529041e-03
1.484856015304731984e-03
2.364075776716937933e-03
5.029708024696933656e-03
9.920284477068634296e-03
1.293822261373436984e-02
1.488986495515204865e-02
8.808724372202552180e-04
-2.042387614774186441e-02
-3.374618968345472619e-02
-4.457721955580232209e-02
-3.666181245582847414e-02
-1.077977574821811259e-02
1.930210827108998911e-02
5.207930062513385638e-02
6.277519566364211934e-02
4.623222783244140127e-02
2.641661988068244940e-02
1.208705742074493543e-02
7.357462482416750153e-03
1.296746485294409008e-02
1.893580172219426136e-02
1.726033415843327562e-02
1.010605237056313999e-02
3.798781387505023067e-03
-8.899146121231409166e-04
-7.123460779072430561e-03
-2.036991492982858851e-02
-5.222595823798704961e-02
-9.881827643257073968e-02
-1.238940611852323015e-01
-1.167776587340802752e-01
-9.391406473131697075e-02
-4.376712002799155316e-02
1.607335002406384133e-02
4.886817760789495535e-02
6.239737742179675417e-02
6.091941181940795091e-02
5.660116104038574736e-02
6.655159302003070543e-02
7.102295769720172458e-02
6.333535607415619051e-02
4.035191405143727372e-02
-1.623866645841829737e-04
-2.680826575998646738e-02
-2.957950940891176939e-02
-1.840215085486022334e-02
7.423687259851431165e-03
4.371016448873474292e-02
7.550774501871590494e-02
7.328442274020932623e-02
3.615599299244352804e-02
9.901533970301770911e-04
-1.116122231530935517e-02
-2.943077823059882941e-03
1.397640108185957061e-03
-1.218336513414096552e-02
-2.851038819899884974e-02
-4.229455545723413007e-02
-4.844395064813413615e-02
-5.565398812603795931e-02
-8.180687641632648777e-02
-9.773418051835182363e-02
-8.578500369342140219e-02
-5.705861989370090287e-02
-4.824069248095880051e-03
4.540777692979346136e-02
6.364749258817938016e-02
8.053644471241273861e-02
1.083700476030773630e-01
1.065501005365104004e-01
6.232482406515502810e-02
-1.020533211372712853e-03
-6.177548350479640515e-02
-1.016546964487116816e-01
-1.107339761697162389e-01
-7.833400171057879058e-02
-1.836205633408332857e-02
4.426832345929287288e-03
-2.619653117609108128e-02
-4.943753247552343244e-02
-5.198626148618790827e-02
-5.671535730902001193e-02
-3.547979459726544743e-02
2.933399055779272596e-02
1.107178763904884677e-01
1.575038485176965541e-01
1.032214027355288083e-01
-2.669634726268175096e-04
-4.155772214619257721e-02
-3.523085767004260210e-02
-3.108423623655296592e-03
2.730375845598943807e-02
9.025146373860209667e-03
1.349607374349452021e-02
5.882795724204055443e-02
1.140808429471853319e-01
1.719717299213886497e-01
1.386783627829289711e-01
7.134421919739883378e-02
6.449877542471892100e-02
2.395116112653278284e-02
-4.786545166358505132e-02
-1.241140801316204106e-01
-1.856628230208987318e-01
-1.475399498437321988e-01
-6.965030849421113834e-02
1.915492317461324479e-02
8.494388871905103611e-02
1.138666811609079059e-02
-8.832233706579503685e-02
-1.509359602624241736e-01
-2.053187171944595990e-01
-1.467898341561719999e-01
-5.701145743257551163e-02
2.381200298132528630e-03
9.459703603238828196e-02
7.799451302309819145e-02
-6.027745431852438163e-02
-1.254821170125269003e-01
-6.518316703008192325e-02
-1.576879324599137280e-02
-7.892039040195461541e-02
-4.616634690508818195e-02
1.397147820289018072e-01
2.012179173223371809e-01
1.737701562230832553e-01
1.822841951127499582e-01
1.690259956683922427e-01
1.545934541971600296e-01
1.102130521265732854e-01
5.395561010349399222e-02
-5.897238829665310371e-03
-1.479114019437421379e-01
-1.848877164297662024e-01
-4.101284119789565252e-02
4.660595871920394928e-02
3.506679307487246822e-02
6.225952758570740819e-02
1.518616871794856715e-01
1.345318002200762142e-01
1.048379039239917196e-02
1.694573705976865075e-02
6.431614156324506892e-02
-3.945877355872287606e-02
-2.016765253056103102e-01
-3.193950013599505811e-01
-3.563160721771835293e-01
-2.689582902914356421e-01
-5.740219659122399419e-03
2.581671831997173205e-01
2.034208332369325523e-01
-7.749987010487528229e-03
-3.969372180050708548e-02
3.401566063301866838e-02
3.276602923498980746e-02
-7.569333881505868611e-02
-1.805301011109894938e-01
-1.862072295905902175e-01
-8.890840022866346171e-02
1.120289790601128460e-01
2.343770290164642889e-01
1.107064807671038625e-01
-8.570196949262268160e-02
-1.243483023168564516e-01
9.673633248648888863e-03
1.083221086489374457e-01
7.201541386491056018e-02
5.305844489433347161e-02
5.436292999822804617e-02
3.120390428823560658e-02
6.727456239737837629e-02
1.193111452557643337e-01
1.226363537853464997e-01
8.831510845486438555e-02
2.620455361246541715e-02
-1.705740144301507930e-02
-2.256596184476135358e-02
-3.412194724629990898e-03
2.949693572396525770e-02
5.673027624116706857e-02
5.466482516475287823e-02
-2.263401183173027915e-03
-6.584464562150961486e-02
-8.007019115878202808e-02
-5.519956555625181449e-02
-6.566663940850615659e-03
1.140195870593960735e-03
-7.227824890776578248e-02
-1.630717395683926318e-01
-2.074046272542882374e-01
-1.727524366601945471e-01
-6.904291304595568113e-02
4.513950243496002435e-02
9.614175655394401054e-02
8.130534934341762665e-02
5.175875125926261699e-02
-2.143105410701715008e-02
-1.126652921508553562e-01
-1.490785829195866996e-01
-1.352658686578589453e-01
-1.430936556615700073e-02
1.425020120772713672e-01
1.632087532161385357e-01
1.484941804781096664e-01
1.730262983914844233e-01
1.261766289876877223e-01
2.284083849155705420e-02
-4.734493014918415149e-02
-5.430240429354162707e-02
-1.193327966341607704e-02
5.373688936470333993e-02
9.967569473588594464e-02
6.655461794159711619e-02
2.961999886031652009e-03
-3.705381064841074996e-03
1.247928684766419147e-02
5.800998910759736643e-03
-8.764685237792304434e-03
-1.823239865427838877e-02
-2.116394941809625688e-02
-2.469229134163377498e-02
-3.696412400662617975e-02
-4.878732113374640439e-02
-4.721590418311898824e-02
-4.206669581978322164e-02
-4.123575859058026261e-02
-3.073122465266810155e-02
-2.816990664296311828e-02
-4.873694045469153385e-02
-4.238031210517834158e-02
-1.407987256616651407e-03
1.623512994170345919e-02
1.062508015272595890e-02
1.673371424957631817e-02
2.442452103433950111e-02
2.287051770646538786e-03
-3.868884507040538934e-02
-4.108398077710336688e-02
7.196524728940557371e-03
4.828599248472458666e-02
4.723352460841847428e-02
3.142775070107550750e-02
2.797730688078686051e-02
2.609022685067774461e-02
1.857130848515316235e-02
5.027052967296378148e-03
-9.497011142533999875e-03
-1.773275256463645397e-03
1.673222464510278756e-02
2.017626483094487472e-02
1.211144461121160289e-02
-8.813001816499743679e-04
-7.995708556984880769e-03
-5.636792508545429570e-03
2.246500717641663342e-03
4.431080002881900015e-03
-6.515499580049967376e-03
-1.391547858336123628e-02
-2.410824149549809989e-02
-2.105417537854304896e-02
6.799127698355826154e-04
-1.238272808258625984e-02
-1.269006842843505532e-02
2.643229383828124210e-02
2.650441036570681461e-02
-8.926459235140797328e-04
-3.195243707960453844e-02
-4.389058970591281500e-02
-7.814811824995540265e-03
9.045547361554637927e-03
1.000156167363282830e-03
6.272786982784792596e-03
4.173009649527586323e-03
2.624800542873399496e-03
4.008351896842885821e-03
4.470917497742752864e-03
5.868731745488155009e-03
-5.499701244154591578e-03
-8.190836135661128115e-03
3.586695397223910002e-03
1.067395200775244149e-02
1.297753052254608033e-02
6.445389831141310442e-03
1.255547495800113508e-03
2.834602021664236245e-03
7.914708723925239532e-04
2.436157499554878793e-03
8.117091714962098095e-03
1.001228293956599874e-02
8.323110945164375468e-03
5.910024903601201508e-03
7.795095917749133782e-03
1.000014677266553888e-02
6.157692184871962557e-03
-9.624627904846375743e-04
-5.509025174210330916e-03
-4.366520828378329944e-03
5.577400642133438806e-04
4.481485638814027180e-03
4.805503282131634926e-03
3.078654063628991945e-03
-4.200128642900304195e-03
-1.342725813245474950e-02
-1.411183562253908071e-02
-1.210738977618832334e-02
-1.037940117539016757e-02
-7.529676354239750284e-03
-4.910823903102575286e-03
9.251557875922385935e-04
2.003021124047941852e-03
8.240277187022203124e-04
6.530207351361553246e-03
7.449940272330668814e-03
4.052093950941094633e-03
2.693723713649180847e-03
-2.798224427463459250e-04
-1.526821270568028957e-03
-7.999000606638371081e-04
-1.486168046906166402e-03
-2.550112751395023237e-03
-1.314381947033768780e-03
-4.937725979967516870e-04
-3.722900367360972712e-03
-6.596452837173566626e-03
-7.981362123495193764e-03
-5.199626790468820335e-03
2.118906857064643909e-03
5.076073848848672299e-03
6.076826161479358980e-03
8.185151121024662399e-03
8.221122835397970396e-03
9.347510595345253845e-03
1.099380190066117334e-02
7.744864338417031986e-03
3.322845321021174973e-03
5.626354564653262592e-03
9.672052638451304404e-03
1.027468308205516448e-02
8.177978752809195867e-03
4.832046681990677904e-03
9.363863094700122791e-03
1.195625774336866488e-02
4.441619087701977574e-03
1.371016132850571981e-03
-1.324846504533017761e-03
-7.569621108768954682e-04
2.459111088187222651e-03
-2.846153049412513281e-03
-2.544974341780384570e-03
-6.680673804413620603e-03
-8.580544758948495040e-03
-8.014769670847819065e-04
-2.707967538849947661e-02
-4.308962942769123394e-02
-1.247200678644924503e-02
-2.202455133370201466e-03
-6.765968512427653937e-03
-1.889152663133965987e-03
-3.804460212649809180e-03
-3.163354576384982009e-03
-3.019565477850676659e-03
-1.653384226453736335e-03
-1.867621703290387814e-04
-6.722982451302752724e-03
-3.497497233281854790e-03
2.560059957761818151e-03
4.821598810455710211e-03
1.005750788134485325e-02
8.091557019386614799e-03
8.863208776457720192e-03
1.460500855382385055e-02
1.402380849324324184e-02
1.244134035547785240e-02
9.181983027318268639e-03
9.837048681747312395e-03
1.310511085715453626e-02
5.739123503956162879e-03
1.073530665359071282e-03
4.520826553530942794e-03
5.232717475495028345e-03
9.397663705123487921e-03
1.304329129658352189e-02
5.038139019006624038e-03
-4.921460019890283762e-03
-9.139686273368540642e-03
-1.054249651206876255e-02
-9.605881861005688763e-03
-6.646551937583871326e-03
-2.671139039741100927e-03
1.192080251982825974e-03
7.254810672214198793e-03
1.456538639320432982e-02
1.172100994197711535e-02
2.206855066698410004e-03
-1.362449185430036945e-03
-6.772391366754865194e-03
-1.641958233490442565e-02
-1.613965764210416667e-02
-8.054208807130477238e-03
-6.351220546062498473e-03
-8.577762123630240654e-03
-4.041052464441785216e-03
8.028962323625449954e-04
-3.948931516055899545e-03
-9.055079100762680050e-03
-8.104870366183011127e-03
-9.566182826421005744e-03
-1.197137818588738314e-02
-1.233534310789566497e-02
-1.766390217400991974e-02
-2.014389412613286010e-02
-1.368373832071102629e-02
-9.577682916259185400e-03
-5.966211853539959108e-03
2.834983378371132724e-03
1.054989159216674494e-02
1.414116406180710057e-02
1.733480447107810241e-02
2.375266890786096111e-02
2.585800982275289830e-02
2.058635257781056549e-02
1.519617927148657170e-02
1.004461014840543794e-02
1.227996401007170474e-02
2.122905794852902178e-02
1.897733139494499691e-02
9.202605586971800145e-03
4.506069426673119278e-03
1.812913784654970103e-03
-9.822163323308223150e-04
1.264187050488065772e-04
1.948423370297342827e-03
-2.204720409295372191e-03
-4.515377703176991567e-03
-4.685014365090487722e-03
-7.801895320003648243e-03
-3.273074441539330654e-03
-8.132647311883985444e-03
-2.670879547761058695e-02
-2.004669816020103121e-02
-6.090316255282474112e-03
-1.398189558380898492e-02
-1.723053022966532927e-02
-1.508462918149399389e-02
-1.494738389890894192e-02
-1.044939884152823462e-02
-1.381444736452246136e-02
-1.414477110262104230e-02
-2.179214403390189372e-03
6.235709024996207231e-03
1.493391683402855302e-02
2.039616801547743802e-02
1.471147418186003614e-02
1.221869823766991332e-02
1.260345082635566487e-02
8.530014312845708366e-03
3.386836749275725939e-03
-2.302191640341895267e-03
-9.762691061628203833e-04
1.243602107674749400e-02
2.022841826353784581e-02
1.122962465921605382e-02
4.170306091146174302e-03
6.674477341757526633e-03
3.996391971496360100e-03
7.308015939820557052e-05
6.737109947499417056e-04
-1.453362131106997798e-03
-2.849797401842220357e-03
-2.469299303520409213e-03
-1.648019732458818340e-03
1.467914107355979209e-03
1.394846986973856742e-03
-1.967876794205826452e-04
-9.400179262662041683e-04
-4.643148347162667257e-03
-9.006500382890190656e-03
-1.329259567101678981e-02
-1.594922818307961676e-02
-1.340512509367765628e-02
-7.796773622693391539e-03
-5.469783639247227831e-03
-6.668813693975959161e-03
1.757013695714635185e-03
1.249436607374749576e-02
5.314318523145552219e-03
-3.579240510262813799e-03
-6.376237372348146767e-04
1.373197472509209485e-04
-3.943771954137782233e-03
-5.224356162698534645e-03
-7.860965478581627159e-04
1.951421041577767112e-03
-1.608544118147024716e-04
2.332560578977171777e-03
6.229578853147168735e-03
5.670254803250137851e-03
3.900764390966981153e-03
1.542145084237517109e-03
9.583707476386102561e-04
2.829690629429231115e-03
4.010033334518577422e-03
1.708249344437585667e-04
-4.143284116499315953e-03
-6.796632873426553673e-05
1.095602947903975138e-03
-1.333822535369246680e-03
3.878282214801327590e-03
4.810300854036795269e-03
1.719347848522676577e-03
2.124259113047831382e-03
3.092871189497804134e-04
3.589247128274833951e-04
-6.523051322829655566e-04
-4.074619834808643030e-03
-3.735723308566222742e-03
-5.113524552249979621e-03
-4.618277258701731537e-03
-2.725147214103996497e-03
-4.218960787459805593e-03
-3.254943768132940660e-04
2.560434831876370193e-03
1.254380486324286107e-04
-1.016872291477858604e-04
-2.816998880187849934e-03
-5.305390349899321428e-03
-1.889955072995438490e-03
1.177290731899411410e-03
1.311650136749426812e-03
1.001073617282401086e-03
6.909517876315591275e-04
-9.476587615894927364e-04
-6.290419119870506535e-04
1.683253922195248557e-03
1.377578840736402551e-03
2.023039003036275789e-04
-3.203271689363144416e-03
-5.193541038064413036e-03
-1.104647166971938930e-03
-3.929346509389048314e-04
-4.245446995211373648e-04
1.659480731842958266e-03
-1.301334330182556120e-03
-3.607888084831306543e-03
-5.664798347054660586e-03
-9.518258842439231149e-03
-9.648493268347326304e-03
-6.797623267624263929e-03
-1.685593954025902102e-03
-1.719493170282751764e-03
-4.809099367719334855e-03
-1.184757465802200834e-04
2.060510594789402832e-03
-1.537036821555246447e-03
-2.536085819884931203e-03
2.475125595042440942e-05
3.571754972744226649e-03
2.535875953082842183e-03
2.992997789656551798e-03
6.830844758243358704e-03
8.711656898444618963e-03
1.252252513713915556e-02
1.000435448639953352e-02
1.439151587733439883e-03
-1.795791623764610417e-03
-4.949539836666350112e-03
-6.340396738866218955e-03
-3.749226648672712801e-03
-3.518925194929175670e-03
-4.056926015439787231e-03
-2.073938641973652186e-03
2.501352311192088246e-03
3.488419298821611534e-03
-1.057502245785584363e-04
-2.089814301194157023e-03
-2.846518140165222449e-03
-2.806711629107825658e-03
-3.148793868397607720e-03
-3.221981498948138945e-03
-1.149316620228244901e-03
8.702629792600121740e-04
1.778222654275572832e-03
-1.068703252929559949e-03
-1.562251806916829105e-03
1.491869303309881385e-03
-2.772401685287970326e-03
-6.778842567714647195e-03
-4.559749204132729043e-03
-1.914691463501950412e-03
-9.848662059494354970e-04
-2.566873132818147003e-03
-5.490346365182640969e-04
1.628708317110908474e-03
2.164088731658870798e-04
2.067277622749582114e-03
2.506110285928596967e-03
1.752830250842138437e-03
-9.365875963226516412e-04
-8.780151235093515763e-03
-7.964770560337569236e-03
-4.388131332955903059e-04
3.219487769547275122e-04
-2.345110630121680605e-03
-3.420476184853682693e-03
-3.146513062450594263e-03
-2.625151728048768021e-03
-7.458205553059418661e-06
2.394572810754874888e-03
1.535369661707025515e-03
2.044095913920267703e-03
-3.073101975357751554e-04
-2.993048311646998461e-03
3.297517042049120505e-03
7.775554264847196750e-03
7.148476062302478243e-03
5.613249975393582586e-03
1.113676920332294608e-03
-4.082327834549961541e-04
-1.705062795652678318e-03
-9.480073817732803665e-04
5.811656139375131341e-03
2.369381135769213411e-03
-4.227163232276494841e-03
-2.986574317685750189e-03
-6.036739290570998853e-03
-8.488963931572671845e-03
-8.120392875925041415e-03
-8.784340047357173595e-03
-3.937125208803452479e-03
1.314798887246902519e-03
1.111532309309148535e-03
-9.984902442133232730e-04
1.296571149771986748e-03
4.238835484021859744e-03
1.625464986597317373e-03
7.089258922013202090e-04
-1.005718007182052108e-06
1.013383473069747950e-03
2.653495594004244302e-03
-2.759750248438937008e-03
-3.853620302129195018e-04
3.423573108711623538e-03
1.220863948157679523e-03
5.165647295547449135e-03
4.187254216440239492e-03
6.301722391963121951e-04
-3.000769616675624547e-03
-5.147618189007879298e-03
1.272064280092780400e-03
-2.252268903372090653e-03
-1.300737733278744960e-03
3.704517460337892858e-03
1.248113870207737813e-03
1.090354751531940995e-02
-1.263262044048280540e-02
-4.220982918640681092e-02
-8.539558691701946633e-03
9.740864095003926720e-03
-3.605279422283799804e-03
9.840424634229138351e-04
7.159646903701598342e-05
-4.234589549251135216e-04
3.744584794346257628e-03
5.111466529509267435e-03
7.194718588706269617e-03
-2.454617393850305751e-03
-5.787440478531453644e-03
8.006936011219587413e-04
1.529995577008129567e-03
3.125961814724588592e-03
1.998969696217454527e-03
3.171506637723313544e-03
7.845313292530051857e-03
3.979956189616774311e-03
-5.358114736200293412e-04
3.213305688713191796e-04
2.395249942033200047e-03
4.809603118380514236e-04
-1.830141140926783237e-03
5.918686381442739199e-04
-7.633985591555383704e-04
-3.858806281060287238e-03
-4.591257784625302728e-03
-5.483234657124940424e-03
-4.961264568149968864e-03
-7.589619598555180820e-03
-7.266556709939630924e-03
1.281877372303414503e-03
4.586672624100982670e-03
2.705991284433325022e-03
1.705844205404925254e-03
-3.954679792746377664e-04
9.331106969690154489e-05
2.098004240404956026e-03
7.808638950272064503e-04
-3.128377560045299743e-04
1.265508958976534941e-03
2.045515312421114073e-03
6.588275787376665811e-04
-9.653530977282529651e-04
-1.913957630345421677e-03
6.396245913208487184e-04
6.096505748251185297e-03
4.874608408393620897e-03
-1.845004065840217308e-03
-4.064954127970380783e-03
-4.300997182918393953e-03
-5.045528526732116770e-03
-2.724919240294676210e-03
5.456585016396077546e-04
-7.256403466295387097e-04
-6.992323259187489121e-03
-7.408735518094553864e-03
1.186095733187251221e-03
5.575666828495776280e-03
3.521348597332940589e-03
1.188996661978476265e-03
-1.891602186867804474e-03
-4.272880453621801314e-03
-3.079691582202471415e-03
6.978269292752646178e-04
3.648868333978486783e-03
5.924600576795169271e-03
6.632065670933937236e-03
2.081905838843037346e-03
-4.102542592852217659e-03
-7.275694550055067551e-03
-5.520285220884690522e-03
-7.801377976444229256e-04
1.604718958605156828e-04
-1.357582130585114634e-04
2.170970809779023715e-03
2.203495215112239846e-03
1.941009889978660696e-03
5.511144454095858944e-03
6.035023234819218360e-03
1.389554080763649117e-03
-1.267541334595732698e-03
-2.893250073748993879e-03
-3.488227455614462385e-03
4.462387243908337814e-04
4.007180173549995499e-03
5.591477445795596697e-03
3.349955132915343609e-03
-1.568664972125322511e-03
-6.693755803595985345e-04
-1.841302435387905806e-03
-7.488644499733535832e-03
-6.948781541972517441e-03
-3.878412148327166440e-03
-1.132632901367554117e-03
-9.089552607171970996e-04
-1.861150298633766804e-03
3.031423240280894243e-03
2.278511806985379119e-03
-3.126779854255240867e-03
1.767347094865891948e-04
2.030168417728037220e-03
-1.480057237745289718e-03
-2.366649004772046223e-03
1.063198955498608411e-03
5.582649051811528450e-03
4.501440254253918916e-03
1.235060009279354692e-03
-1.755075218462101311e-03
-5.207312605148918354e-03
-3.166335091746569266e-03
-1.191947189842062918e-03
-1.825833616562267184e-03
-8.006951265848595957e-04
-8.902847762746567270e-04
7.905104554395499163e-04
2.379236975850917285e-03
2.439604893272592778e-03
3.176432497082465767e-03
-1.504083707474639662e-05
4.822344025401319287e-05
1.652823281345667562e-03
-3.235622213053187569e-03
-2.349714307304876567e-03
2.799294283466096864e-03
3.448357697432293326e-03
2.069987580386993802e-03
-3.829214038238947220e-04
1.430372767235028831e-04
-6.182923839208261151e-04
-3.570385448760662016e-03
-2.299038797455763526e-03
-2.189669659164263527e-03
-1.603865225527825473e-03
-4.259173842986348473e-04
-7.522124625058471386e-04
4.746067650895709374e-03
7.832468420758242900e-03
3.639952124657600766e-03
2.119021837128012755e-03
3.275262331652617834e-03
5.757624896523426059e-04
-5.346756692716263942e-03
-4.320191164317544949e-03
-1.559837504408147690e-04
6.940827657821171883e-05
2.027847350038877814e-03
-1.944364118896058221e-03
-6.382718248208865686e-03
-2.486460368831180782e-04
-1.092099859743260112e-03
-8.592242680009517380e-03
-8.418915222010997165e-03
-3.302774621371430078e-03
8.121747331367903510e-04
1.299155084590111579e-03
2.525808540548893453e-03
3.174494723268784634e-03
1.439516967920860925e-03
1.782942900057405376e-03
1.792092413239732701e-03
3.392358044258236231e-03
2.128651096184595946e-03
-2.817730379241149396e-03
2.936151756658548443e-03
8.979938856686252996e-03
4.882544736633937822e-03
2.389249591395400073e-03
1.902014000223323578e-03
-2.383987146240307362e-03
-6.501117152402079505e-03
-3.448819896899978435e-03
-2.908534810911531229e-04
1.118055762244107637e-03
7.529325287960290068e-03
7.941833041862127185e-03
7.414756261557377097e-03
8.157826563304486356e-03
2.042291168866680520e-03
5.037550141423089399e-03
-9.114353905678423268e-03
-4.217877421936541693e-02
-3.236757772908657738e-02
-3.232560375979049317e-03
4.104558272626851988e-03
8.545167746550659180e-03
1.038279626529336336e-02
7.802517638140733097e-03
3.200456995308258515e-03
-1.170047927052463672e-03
-6.181790188849082364e-04
-2.107239913803183630e-03
5.826583483641513319e-04
3.860683250726604145e-03
1.127173819410164047e-03
4.193082385573171367e-03
5.820051327789295403e-03
1.995599147519358085e-03
6.062793791285670149e-04
5.661708350918925100e-04
6.798969012890196915e-04
-1.487691528941802004e-03
-3.409644576491980758e-03
-4.109012259333444037e-03
-4.429585808262413368e-03
-1.150593353464408886e-03
1.637222608829539110e-03
1.463289470065838030e-03
-4.123612761372831017e-04
-2.795854356654047836e-03
-5.715365971081928440e-03
-5.872510324792157635e-03
1.205064555135971745e-03
4.991930407022327626e-03
4.223482701844482462e-03
4.137108116160042107e-03
2.831903596670326193e-03
4.966444225390812331e-03
4.762446543629841704e-03
4.094963331057582465e-03
5.885573574200454391e-03
1.305085443964294030e-03
1.018835797109630525e-03
1.686289290714367180e-03
-1.051895302521670648e-03
2.985907863813208780e-03
3.669850020363108010e-03
-3.810232701074469080e-04
-2.832813959232425693e-03
1.333691074321056600e-03
2.033200966618868046e-03
-6.105968636514808555e-03
3.020964626152372254e-03
-1.210673153815161954e-02
-5.579788709592364837e-02
-3.611535888447268278e-02
7.093200894696566859e-03
9.594490732499244209e-03
1.009094701806682176e-02
9.358642444774561281e-03
5.512140387935096815e-03
7.990590920655085694e-03
5.013446280838483940e-03
4.913427455064392144e-03
7.127312540656981221e-03
6.662078276313606641e-03
4.668603825530795969e-03
1.161516024880906387e-03
2.480259128250856832e-03
9.069034410083584401e-04
-3.911157090652556817e-03
-2.037615046315322236e-03
2.757485998430359714e-03
5.278833129113256681e-03
4.093355624638641936e-03
4.089567105089552193e-03
3.839834764607802722e-03
-6.831840179611529474e-04
-2.400389900308213132e-03
-1.302593410400650856e-03
4.781995091330132081e-04
-1.565307794257252898e-05
-5.149022282159540151e-03
-6.036738146612925619e-03
-2.076465999775594772e-03
1.417019759343291635e-03
1.828531001356207024e-03
-9.640440204172189692e-04
-1.352725583144027358e-03
-4.422098568363949829e-03
-1.310254298828659493e-02
-1.195237826642367440e-02
1.871369222677735523e-03
9.895821703469469266e-03
5.915036353957960416e-03
2.195573592657264553e-03
2.294026602113069264e-03
1.896421298305555735e-03
1.700679998945237806e-03
1.822160727838196366e-03
1.252188980400490174e-03
-7.937137700298005924e-04
-3.954490929784153924e-03
-5.292325944587981251e-03
-1.747250678947849002e-03
3.229376370058518065e-03
4.176494468563303822e-03
3.975631727459207759e-03
6.923311576660943958e-04
-3.603727574736836393e-03
-2.010200747176391686e-03
-4.610155354830802223e-03
-5.848805762030681067e-03
1.692879375465577464e-03
1.399578651745098492e-03
-5.739743714088022496e-04
3.033593344020256519e-03
3.630818215539289608e-03
3.840136573025840824e-03
6.869128752590102603e-04
-3.531822877172786663e-03
-2.866184298097861419e-03
-3.007042565920356719e-03
-2.153236141946347250e-03
4.898498294169817023e-04
4.903818511298878129e-03
9.256247127942136485e-03
5.995573432057382628e-03
2.513815739137186759e-03
4.673949464655881313e-04
-4.812236174677025566e-03
-7.065967408562058572e-03
-5.303067947497701676e-03
-1.110069258630266929e-03
1.776141030546297440e-03
2.446477130047643514e-03
3.410213609735732003e-03
1.608648683894739083e-03
7.306264268445491344e-04
2.785044545580040321e-03
4.515461157587519550e-03
-4.793859299690361644e-04
-1.182131956663344877e-02
-1.027728625605922250e-02
-1.667883097449731440e-03
-5.959584903273283836e-04
1.224331728446494908e-03
-1.779603974366533140e-04
-1.902877348929472422e-03
1.376470993662318957e-03
-1.369278243814488053e-04
-2.250884046246856909e-03
-2.696753935926117073e-03
-2.804331325230907061e-03
2.892370016553542618e-04
1.163337446343858106e-03
1.157295929364489796e-04
3.475459251354659496e-03
7.121660403557278016e-03
3.213317112767278411e-03
1.766540338790777587e-03
5.109560791940563444e-03
1.542453877767344756e-03
6.910737022650109565e-04
3.377424425280627085e-03
4.791404541818216137e-03
7.231454475486343014e-03
2.680466821221966570e-03
4.337406733903419187e-04
9.944711357351228211e-04
-1.022259566213687019e-03
-1.812438771445268543e-03
-9.451220789373463924e-03
-6.889450718794066890e-03
-1.049180694033318480e-03
-8.967774688457200508e-03
-2.515291522330963866e-03
6.421303688804267697e-03
6.580067257837605640e-03
5.468409892529529047e-03
7.868361431742338210e-04
7.430909276879923801e-03
-1.251639295535687812e-02
-4.403017763775238236e-02
-1.752332144260285510e-02
9.339991614991789010e-03
6.705127128030599973e-03
1.052856292685532512e-02
5.872405383601768218e-03
3.025724302762121398e-03
4.090238792587562802e-03
-2.084121809041927179e-03
1.081806572539809226e-03
2.036064326034120030e-03
-2.419274485741895395e-03
1.155500469268611009e-03
4.864470937056743043e-03
3.640077846998625993e-03
3.863747030615272311e-03
8.266907956451241546e-03
6.105671587360435477e-03
-7.866387626312144584e-04
-6.884521250174877776e-04
-1.017685959443206576e-04
-1.852385415486215107e-03
-1.314044262669426463e-03
1.673941865226017105e-03
3.213746733545787878e-03
7.364352689381135518e-04
-2.807990722925545173e-03
-7.549541451342890036e-03
-8.292974762743637179e-03
-5.526954108596647888e-03
-5.385451345428819529e-03
-2.456829909456847288e-03
-3.177022530979500977e-04
2.784243180555949146e-03
8.462236939838940764e-03
4.367488175378617110e-03
6.008249965508172556e-04
2.046934790244000265e-03
1.129439405468031206e-03
2.238653036267198183e-03
-1.467093077331733291e-04
-2.681783682580020801e-03
9.885097854321046006e-04
2.721975797843203572e-03
4.530685171239902040e-03
5.264120026596585782e-03
6.307991631982470468e-04
-5.175391931886435745e-03
-6.253024245589987838e-03
-9.207180114320000436e-04
7.603077115474858594e-04
-1.280408886560128068e-03
-6.418662989532164000e-03
-1.737318826255946844e-02
-1.321539205347252791e-02
1.527342606344149045e-03
2.207861061230093676e-03
3.516819831425791842e-04
3.502649025206452417e-03
3.031347355552073668e-03
-1.690327502627367068e-04
-1.215351309411537338e-03
3.188558471780379277e-03
5.506444153642994256e-03
3.123688471304207365e-03
4.667685539564814245e-03
4.874540062348268164e-03
1.436838297410900338e-03
1.801470051519644131e-03
3.146198570518397505e-03
4.737051026786344779e-03
8.255055735290202715e-03
6.439083568666245996e-03
2.166398081182099606e-03
4.012395922923127009e-03
2.031793657586620193e-03
-6.215808049971991572e-03
-7.989775419533240788e-03
-7.493199735213689275e-03
-9.603804437963631147e-03
-9.583837027692580432e-03
-8.201247839710821760e-03
-4.286367591449482400e-03
4.237058961660040046e-04
2.947927093920397860e-03
4.147561513797599214e-03
2.697236939069928147e-03
3.791033308485323734e-03
7.456952275063175560e-03
7.293701836076566143e-03
7.139624630794416497e-03
6.368228028580068083e-03
3.707786003565089871e-03
4.104728781378299933e-03
3.007963679052076938e-03
-4.032990228826753738e-03
-1.291496080996280826e-02
-1.793590891741951923e-02
-1.811465505830897951e-02
-1.822534471399963468e-02
-1.765351631024988585e-02
-1.238239718592225660e-02
-3.079736618285009581e-03
5.461879658494516072e-03
8.918851137858495662e-03
1.022860639512955180e-02
1.170004134322609989e-02
1.262172789233181533e-02
1.241683362187329456e-02
1.137891352389364466e-02
1.420763298019058971e-02
1.397480662149130567e-02
7.901078831163423424e-03
6.424662350682706219e-03
-9.144768528999112911e-05
-7.789485204138675220e-03
-8.259916958769625284e-03
-1.782190923458773155e-02
-1.179842007884391621e-02
