-2.199269528845131799e-02
-5.909998451846470990e-02
-5.457203348547597782e-02
-6.043820549549135807e-02
-5.199274804737959166e-02
-4.711515374288080538e-02
-4.277506350275035729e-02
-1.206527572270582951e-02
1.263420256237399002e-02
3.157441755808139405e-02
5.823250531503944977e-02
5.749467259163766608e-02
5.447129820828679886e-02
8.864123162011446067e-02
9.865884359762128186e-02
6.896879581713417917e-02
4.551972322841942031e-02
1.934820067959025156e-02
-4.511589028789736965e-03
-2.118542500262485598e-02
-3.601651919510799604e-02
-3.417063654049644350e-02
-3.710930388727237683e-02
-3.950480721129132067e-02
-2.968330243513343097e-02
-3.479248613189390993e-02
-3.598900777818714314e-02
-2.547439012043991105e-02
-1.581651913449334812e-02
3.423286871183251617e-03
2.055408362236369260e-02
3.307579180611108782e-02
4.288594976243138845e-02
4.037406328930633753e-02
3.138219875313732338e-02
1.733233676102800824e-02
1.894486434768506700e-03
-1.001105752192699844e-02
-1.906509070092110222e-02
-2.180552207265932727e-02
-1.881091133242229416e-02
-1.380950764199834202e-02
-1.300088815836113014e-02
-1.002807702180276428e-02
-4.544235775101203474e-03
-1.246692882616062814e-02
-2.049901804713562606e-02
-1.826539667431778882e-02
-1.475908396722671809e-02
-4.030157385956146740e-03
9.083792391830297630e-03
1.486349993337498891e-02
1.950331988967093227e-02
2.410808553556414296e-02
2.099774664339428693e-02
9.473888496598199815e-03
-2.500369506208863571e-03
-8.955243618494750091e-03
-6.286482780637586178e-03
-3.477141675644777538e-03
-5.198845989513836002e-03
2.421556846180597869e-03
1.078657338260498658e-02
1.293249947687157876e-02
1.723699427765584130e-02
1.162238613422758582e-02
-1.993400529056944294e-03
-9.053850966140305351e-03
-1.016835376723710868e-02
-8.579266559648180551e-03
-9.750823684252294191e-03
-7.087759837776141762e-03
1.824648026765337888e-03
4.993829303021107315e-03
5.400684259956703079e-03
6.282951945308568780e-04
-9.674477084669879517e-03
-1.077737531742077766e-02
-6.895319927090822962e-03
-3.644207888346770279e-03
-6.314874792231093496e-04
2.183580502963691598e-03
1.113173798727272630e-02
1.571324742773838948e-02
1.166509946497751131e-02
1.002966425207964772e-02
3.479559874956641985e-03
-7.996177229360947047e-03
-1.207297078780161098e-02
-8.655830770680349173e-03
-2.756554224663909473e-03
-4.471182757194356022e-04
2.046904403939928813e-03
9.059303647721062003e-03
8.895419038566745179e-03
-1.028002275280430044e-03
-1.049178217885621094e-02
-1.374094770640362818e-02
-1.077162644088425734e-02
-6.591036208664369407e-03
-9.845477329194548405e-04
8.207384557880635645e-03
1.537241055821231446e-02
1.761572687498025314e-02
1.540118384089673824e-02
8.576605765818255331e-03
-6.004946163358382966e-04
-6.739740097162679085e-03
-8.669071137637101784e-03
-1.112932360064959082e-02
-8.281535444669623630e-03
1.531034902408918118e-03
7.160352270522328533e-03
1.056213241373900671e-02
8.788119044594750254e-03
-3.200581874594798145e-03
-1.093873881929148181e-02
-1.399501945839282634e-02
-1.566481625323446966e-02
-8.097086299089895078e-03
2.612293484938084387e-04
5.236399811054343566e-03
1.167225319153947748e-02
1.407926392325001101e-02
1.148086843640284439e-02
6.501119309711510426e-03
-1.450403170998171417e-03
-1.023675111006433838e-02
-1.552718118749411499e-02
-1.404831618739497100e-02
-6.215107589481223480e-03
2.127075230851587818e-03
5.741203888549590087e-03
9.497756618388385197e-03
1.125322708964278384e-02
2.364328889083010515e-03
-5.927639228854366185e-03
-8.630293040567683580e-03
-1.075234643973753748e-02
-4.785084579556391805e-03
3.262788071618989358e-03
6.051472171688129439e-03
1.151967481472225899e-02
1.646197313971540718e-02
1.504304338112298113e-02
8.992607217259154795e-03
-1.332790683817397872e-04
-9.032227623828983573e-03
-1.339800631952112013e-02
-1.224597143528190039e-02
-7.974923350048485071e-03
4.228735148851714334e-04
8.416162778744662107e-03
8.310500472122601609e-03
4.597122069182920170e-03
-2.614816738859343775e-03
-1.208476549314862342e-02
-1.370095478555688646e-02
-9.712017032936887465e-03
-4.816000348216132113e-03
1.580726280696104127e-04
4.462796457438788014e-03
1.047236999832375226e-02
1.601536166499091182e-02
1.826094656375872038e-02
1.368921260899946118e-02
2.374244784597703828e-03
-5.926726376310851620e-03
-1.035683395435780217e-02
-1.339502653089049214e-02
-9.894890026772658678e-03
-1.115693174188213399e-03
7.274888073302708709e-03
9.426200798771914094e-03
4.485080101518369895e-03
-2.307351282439946884e-03
-9.589463502297189412e-03
-1.419551403165245258e-02
-1.344384023149701457e-02
-8.517425490190853529e-03
-1.032052184529396854e-03
4.688026969818997330e-03
9.857674695000116782e-03
1.429092644823956419e-02
1.398186398030529069e-02
9.885472011190679642e-03
2.404389267250064033e-04
-9.514765962699458027e-03
-1.293352557413641676e-02
-1.413357143581673442e-02
-8.518164360274237470e-03
2.882398786787566513e-03
8.073593674881029969e-03
8.109562700859827486e-03
7.257544107141823513e-03
5.120517497820057089e-05
-1.245236956120924186e-02
-1.418528358122435502e-02
-7.236276532878032318e-03
-4.836803525696461818e-03
1.505415796948851928e-03
1.025831921658400259e-02
1.422074962098589419e-02
1.806812430370590555e-02
2.013739444805123097e-02
1.923403539346613469e-02
8.534946018809887527e-03
-4.103909074550806703e-03
-6.161856207844931647e-03
-1.285764110586527960e-02
-1.344362504845198793e-02
4.727941756222285791e-04
7.925359584714962088e-03
1.199269977578985152e-02
1.228002692406282570e-02
2.424970603810817568e-03
-1.293794125384850266e-02
-1.721801656482754850e-02
-1.959641839656447917e-03
-8.698517821045146162e-03
-3.351944577568786304e-02
-2.267218868636253215e-02
1.352405613071755788e-02
3.039811972224702730e-02
3.257143794758751536e-04
-2.938202813921571288e-02
-8.464531951407934171e-03
5.473527637885113387e-03
-4.918833603616399111e-03
-6.020754500644332971e-03
-2.701224264547149277e-03
6.971324901686884977e-03
8.570481091955779382e-03
6.435112636565077336e-03
1.268348927928600843e-02
3.958945114498676338e-03
-2.084006425186836486e-03
-1.603332040544922302e-03
-7.365971066731308650e-03
-1.234377836426609224e-03
4.993566100885342245e-03
9.391605536670755497e-03
1.356429768443172257e-02
9.699580193961486810e-03
1.495641794852367590e-02
1.474937067880788613e-02
6.332672659809114157e-04
-9.261274582287154153e-03
-1.591186067205772880e-02
-1.639206374491277568e-02
-1.148150798033143079e-02
-3.175495394756837862e-03
3.897093443536527729e-03
7.892871310166162807e-03
1.357325351011698725e-02
4.825012421505631664e-03
-6.415176245566192245e-03
-8.453217678780107491e-03
-1.340292441069362156e-02
-5.766206947260686839e-03
3.514977686698418473e-03
4.991513470261691940e-03
9.128148288318987599e-03
8.956953568829247730e-03
1.340038816408064409e-02
1.070935706176292732e-02
2.107863141695664935e-03
1.956598021449027923e-04
-1.044506266846973418e-02
-8.735127584480629342e-03
-5.091698116021602452e-03
-1.092973246367606992e-03
1.312122180994843880e-02
-1.586021159448925202e-02
-2.141431003300534042e-02
8.906387330603194111e-03
-3.124637261141021555e-02
-4.627762533280350976e-02
-2.335106045945314814e-03
1.109476469565670500e-03
3.803054689931130612e-03
1.383585278220088657e-02
1.121988733165428173e-02
2.042914918948054298e-02
2.066703148723731884e-02
1.691721973631489864e-02
1.212940973826664645e-02
-1.935819122344539529e-03
-5.511870064819047142e-03
-6.225716470158575329e-03
-5.810838076379589746e-03
-5.343180452208700065e-04
3.965946596446308717e-03
1.165833924461971011e-02
1.198336425356744117e-02
4.582634146098761921e-03
-1.947457515697261464e-03
-9.054306788252915877e-03
-1.209735323654144781e-02
-1.050408955947968945e-02
-5.594603242564429556e-03
2.356694223954744830e-03
9.525591089883241394e-03
1.228680420727429334e-02
1.029263977051569565e-02
6.563842778405203429e-03
-7.106207901986718190e-04
-9.546105126756510711e-03
-1.542314480839909741e-02
-1.603712254301521353e-02
-8.819613376553714010e-03
-1.744129908918205752e-03
4.402880479386778179e-03
1.236676472160627357e-02
1.208555984155556921e-02
4.721667837993664615e-03
-4.203032993111382835e-03
-1.218992167177394836e-02
-1.274311599731831578e-02
-8.443415221582865893e-03
-4.279833721246103020e-03
2.035092005411596149e-03
1.041753791038774538e-02
1.412760774901497540e-02
1.436096070356871097e-02
1.350466422265118524e-02
4.456111515185239534e-03
-4.541219903636397465e-03
-9.283724045604957453e-03
-1.913196766953494110e-02
-1.970802037772688420e-02
-3.768254872292916245e-03
1.081171656888099686e-02
1.392704135324835182e-02
8.821398133270296968e-03
3.679657233665318238e-03
-6.174719887587731132e-03
-1.789485808574458811e-02
-1.368718879873282585e-02
-6.508959385853485373e-03
-5.843732883779479206e-03
3.352191969768650824e-03
1.039082130323865268e-02
1.086705945055598324e-02
1.794379607559234632e-02
1.763547031083550695e-02
6.127997981648035906e-03
-1.396319283669070254e-03
-8.467498337377315706e-03
-1.332781020764632098e-02
-9.670238304608471530e-03
-5.307879016735161590e-03
1.816555239029115807e-03
1.250874741907288638e-02
1.263060892647233611e-02
4.412005855793219369e-03
-2.700716422844977923e-03
-1.328030839417130085e-02
-1.905627412002339205e-02
-9.607965218407558960e-03
-4.983936391449441880e-04
2.684209803784605615e-03
9.456470127580610813e-03
1.376831473111577060e-02
1.427257097838448979e-02
1.402611916869285144e-02
4.853252315494735111e-03
-5.890574659242360338e-03
-6.567958628212096535e-03
-8.065473890526432196e-03
-1.265702405786105905e-02
-8.847120621317228553e-03
-3.796613972157751333e-04
5.855462521691584543e-03
9.998961649285556530e-03
6.247869647040241343e-03
-5.630665731591931109e-03
-1.223714992834104738e-02
-1.021544342175337988e-02
-8.017956077124733377e-03
-6.143238521699350904e-03
-6.418705152537283612e-04
6.788590479339729963e-03
1.021455950908296655e-02
1.024304638799767436e-02
1.226191810050411210e-02
9.012367982618122580e-03
-2.241337779562634427e-03
-9.195224514151383033e-03
-1.094553376259062988e-02
-1.278596723128546525e-02
-1.079586505733051011e-02
-1.499855566467553445e-03
8.907874371824716503e-03
1.175504750767433076e-02
7.274817881127104702e-03
-3.073015569916261007e-03
-1.307782112379364016e-02
-1.185179331464657031e-02
-5.097453284133850182e-03
-6.277520300054395151e-04
4.937836779807861648e-03
1.190921189813223466e-02
1.647530841684517050e-02
1.775778136520233391e-02
1.724338038449670096e-02
9.332484410968877250e-03
-3.972226380558429963e-03
-1.001571669240434830e-02
-1.096433907845297331e-02
-9.616964156011143655e-03
-6.075634875979764316e-03
-1.963693244969345886e-03
8.036678170031624421e-03
1.467701059683960280e-02
8.161280586378407559e-03
-5.829633055665664650e-03
-1.531555474293552072e-02
-1.049352239435167276e-02
-3.126248609335934448e-03
3.801929470253239893e-03
3.575380385841272525e-03
-2.207856966579388111e-02
-2.926829827988447486e-02
4.897328590640099601e-03
2.404264883253708421e-02
1.405915344196612647e-02
1.824302453256728459e-03
-4.837010437557081807e-03
-7.499301864649693741e-03
-7.352550139984908445e-03
-1.873181148969615094e-03
2.768066873853621858e-03
5.978840209199986350e-03
8.701142139990720656e-03
2.196265969663852447e-03
-2.967256940059331740e-03
-5.262827096297589130e-03
-1.125603540647611769e-02
-7.557485878081841683e-03
8.289769992201751750e-04
5.431439485931815331e-03
9.341370278554184808e-03
1.052498741586555507e-02
1.692282974762626679e-02
1.951231501956503592e-02
5.742069380989549623e-03
-4.316219537398260919e-03
-8.141585276093625187e-03
-1.400411003719283579e-02
-1.099601436984373737e-02
-4.240631791841633844e-03
-1.424973222211853904e-04
6.016656073651580929e-03
7.919640430508063586e-03
3.362047178419114504e-03
-3.558427522489375407e-03
-9.703861328383672075e-03
-1.299211506452976547e-02
-1.227034440627593377e-02
-4.200739243216795871e-03
1.344527396396272018e-03
4.030426560141113328e-03
1.407851669932632353e-02
1.645037579899475549e-02
1.079661900457278695e-02
6.483526654319246227e-03
-1.381064551083878173e-03
-3.646882858391485224e-03
-6.413758261341356848e-03
-1.258199734805624283e-02
-8.404695681158617579e-03
-3.685900309801930837e-03
3.346669206273688701e-03
9.102144818993197425e-03
-5.232465445191758404e-04
-7.935317140070789060e-03
-1.024615033648396296e-02
-1.252562436156827788e-02
-8.727909877104473094e-03
-3.801834946803595624e-03
2.884087778029620353e-03
6.500383705919961577e-03
9.580024683151106349e-03
1.883880673763339494e-02
1.865076996076480906e-02
1.049411181380113800e-02
2.596913667921214603e-06
-1.270248570356310308e-02
-1.444458676488573172e-02
-8.114748958049530086e-03
-1.315645762295859951e-04
5.376349893932392404e-03
5.028620200213660026e-03
8.848323066086046310e-03
8.600783923985578019e-03
-2.007598599226511921e-03
-8.960609343261023360e-03
-1.202122814339326787e-02
-1.091253692137001026e-02
-6.040376950603412905e-03
-3.820351266322590325e-03
3.076147960244253465e-03
1.292288267440400325e-02
1.584128494236435036e-02
1.431577769807080951e-02
5.914697192311452363e-03
-6.776539137244586182e-03
-1.016640520682369347e-02
-8.747765400584868456e-03
-9.173175764760309325e-03
-4.269968542833585227e-03
1.884361976915606982e-03
5.592130517232367024e-03
1.113377158796367838e-02
9.026050141818486514e-03
-3.350228136455229294e-03
-1.274227056230029485e-02
-1.581558973859619258e-02
-1.386103310317820213e-02
-6.297264664522685476e-03
1.044508020495161973e-03
6.166699854390477950e-03
1.340252248606695062e-02
2.051729191987523501e-02
2.081850042799596873e-02
1.144327537232962128e-02
-3.655833736789329460e-03
-1.524094866376648691e-02
-1.851862854631270219e-02
-1.474578092741350190e-02
-7.621689920752095296e-03
-4.106181593809148968e-04
6.350373802416807781e-03
1.090588976520854431e-02
1.262053538707381441e-02
6.362215400235671052e-03
-7.819811821413681294e-03
-1.149168393894806420e-02
-7.988569755983538842e-03
-1.162046169602497236e-02
-9.416872903679717605e-03
7.988647742854578394e-04
1.088943104967667400e-02
1.848859391382032605e-02
1.683276148587786736e-02
1.249768453686212095e-02
5.767880088611148336e-03
-6.845175122145721706e-03
-1.169670158406831140e-02
-1.166708816449744598e-02
-1.000608103687726166e-02
-1.980505054535745303e-03
3.040035844254673075e-03
6.698051095232873675e-03
8.603804893347870991e-03
1.472398775761550680e-03
-5.977205472873329227e-03
-1.138469297458862863e-02
-1.303537309541492710e-02
-6.188902360056939590e-03
-2.013310187516716056e-03
-9.856076321508419787e-04
8.077071777746792219e-03
1.889022057356793891e-02
1.954682558111486834e-02
1.009563322064953306e-02
-1.993237149865585353e-03
-8.886370207461384216e-03
-1.004274222212288813e-02
-1.126889581102114880e-02
-9.908720222445177930e-03
-1.903944911477236431e-03
6.532793404403442437e-03
1.093902460582873298e-02
8.754172718104353060e-03
2.357060544287579648e-03
-4.857652666152748912e-03
-1.479325309344216993e-02
-1.484845154458276813e-02
-4.637308029923891198e-03
-5.353532441501281970e-04
3.631952300514536356e-03
8.528814668583245204e-03
1.182529536445639691e-02
1.722293416311064876e-02
1.039572094924235725e-02
-2.122663977303339711e-03
-5.371566714088128400e-03
-7.501332449095899670e-03
-9.283189493471575085e-03
-8.433295672641514043e-03
-2.284489183999415321e-03
5.980354748585025790e-03
7.532728266225198824e-03
7.441136528653231538e-03
1.719710652449641134e-03
-8.069848628597997564e-03
-1.178948858014339587e-02
-1.296879861127267324e-02
-5.521570577695187644e-03
3.346632992600461452e-03
5.041304425609778248e-03
1.001065649273368864e-02
1.100346339576880814e-02
1.193283942912245696e-02
1.466316468160783898e-02
3.584072242817779117e-03
-7.573743323691235242e-03
-1.343559200455522913e-02
-1.858044925712967754e-02
-1.239661390354172485e-02
-2.685639225163806952e-03
3.947504304535158492e-03
6.628232794585647673e-03
3.163743857819418907e-03
3.718460047502010393e-03
-7.112391535536064738e-04
-1.458115562691601232e-02
-1.451672831791015437e-02
-4.978314213775111505e-03
-1.280486678934136075e-03
4.079400311289915239e-03
1.178226220979128672e-02
1.809990863258620353e-02
1.854083332503781226e-02
7.114735225265736256e-03
-3.417061112658388577e-03
-6.086530596476767002e-03
-1.011867322800435141e-02
-1.165040114021815773e-02
-5.968949000137967198e-03
3.541223187990389341e-04
6.546877689165182812e-03
1.329026772103628420e-02
1.459594549803045274e-02
8.711444811152151135e-03
-4.311270526652378685e-03
-1.785294615460842477e-02
-1.528927158136241145e-02
-5.346578298008700450e-03
-1.386135510506936348e-03
5.216508667235290365e-03
8.605695583058774883e-03
1.054738271777111436e-02
1.419052783566897118e-02
6.711141181498230836e-03
2.992070840912260717e-04
-6.087407931241416853e-03
-1.561710714686048718e-02
-1.183005187042473344e-02
-4.684932049289483244e-03
6.816929696803961103e-03
1.454881601649589754e-02
1.104423956934641286e-02
1.528973803249044153e-02
-1.169652145102501040e-02
-5.218032444281371640e-02
-3.427408252141601885e-02
-8.617712744958110418e-03
-4.572970131512517009e-03
7.792958705637263034e-03
1.096041492123907800e-02
1.325537874386824647e-02
1.965914098688025663e-02
1.654631393546817861e-02
1.557737089608538655e-02
8.282506339577302285e-03
-5.559154602027939832e-03
-1.066397306402761327e-02
-1.089600680518011677e-02
-6.975935994391965420e-03
-6.590916234993470912e-04
5.360180533835899076e-03
9.832703405686619644e-03
8.795590592040476371e-03
5.098013767003200733e-03
-3.001573113282485824e-03
-1.030779421026074144e-02
-9.158780101678422672e-03
-9.194033088084526545e-03
-4.700755985381946216e-03
6.950881264820453660e-03
6.904414876347446210e-03
6.815581363290519439e-03
1.656011776269242577e-02
1.419628624880040456e-02
2.838659181766032668e-03
-6.008121773351015119e-03
-1.457044210799365511e-02
-1.465002685915729047e-02
-8.246053866422908829e-03
-2.360786376459299632e-03
5.250025192941522312e-03
1.072176075189620534e-02
1.139868601144464373e-02
3.181435630751708928e-03
-1.132738486770946788e-02
-1.578584669904538676e-02
-1.147964742109161378e-02
-7.130757167801265659e-03
-9.019604036973740769e-04
2.633172678962108788e-03
3.420317295771595559e-03
9.203525583970605106e-03
1.513099300533695887e-02
1.295138593026781519e-02
2.558520328813785553e-03
-8.705592076623346401e-03
-1.317473409218236809e-02
-1.754872003590733989e-02
-1.821073058698653366e-02
-2.914215984981633097e-03
9.186946731968976404e-03
1.038451884590382152e-02
1.290695780486984974e-02
5.801853944019014046e-03
-5.682119968791712883e-03
-8.403687294474901023e-03
-1.024351534848782878e-02
-9.565736769186468022e-03
-6.634458397990329256e-03
6.203956649423801682e-04
1.391888581594062299e-02
1.966063182976271820e-02
2.134223637866879131e-02
1.931030709429765527e-02
7.122727447375472309e-03
-2.540789665340306615e-03
-8.539675865048926631e-03
-1.207708513332566604e-02
-6.708348730947676780e-03
1.101024882539079720e-03
6.671642771226064979e-03
8.520535024582769068e-03
5.544374632711336799e-03
1.364703784303206678e-03
-6.143413991229382774e-03
-1.483211242589920452e-02
-1.399143998598608926e-02
-7.981809116439739227e-03
-6.686328091056364768e-03
-2.619623612795781743e-03
4.612704513746052233e-03
7.268170855303037609e-03
1.176496307623562873e-02
1.278985586344328490e-02
1.650000418382251361e-03
-9.149022495530234611e-03
-1.329096301306987964e-02
-1.522432718295955827e-02
-1.351944776383057732e-02
-4.906684954827048722e-03
2.912533577329595724e-03
5.050741573493436852e-03
9.648758112518435875e-03
8.103142688858380738e-03
-3.850742794229518404e-03
-1.316016167000024287e-02
-1.984251883248731516e-02
-1.444828772387499356e-02
4.952870905409019302e-03
1.889683869344967529e-02
2.490564479043340732e-02
2.610979948774115253e-02
2.698138781592528471e-02
1.858818279556799513e-02
-9.006250231216027594e-03
-2.572168623438456786e-02
-2.564291577202529662e-02
-2.332711188734115995e-02
-6.222174088586967210e-03
1.556017877004623601e-02
2.495994160723460226e-02
2.072557484203573636e-02
8.564374998287542506e-03
4.060820002218921802e-03
-7.875464925216414322e-03
-3.067706920018840183e-02
-2.726554857054293290e-02
-5.536755619890126184e-03
2.474602392253439156e-03
2.872153154740790613e-03
6.948737559774796797e-03
9.013411796528272846e-03
6.088334166305673159e-03
2.226396542489357967e-03
9.305574954940172777e-04
5.352909551671935010e-03
6.526773640449597472e-03
6.110596386947177248e-04
3.280423411633085016e-04
-1.366980185709416222e-03
-4.160834388876019467e-03
1.600420589650403558e-03
1.739906838615224403e-03
1.939264199839017952e-04
-2.642929949530058338e-03
-1.546564650114102581e-02
-2.059977138175960246e-02
-1.946247922591448631e-02
-1.360682612593887460e-02
-1.752030922775273201e-03
1.843733956958401804e-03
1.255842374851407275e-02
2.384453759825765073e-02
1.582956844671314089e-02
6.300537002455125664e-03
-5.536531138141348105e-03
-1.404914024313716134e-02
-6.342780716627547354e-03
2.767152437295856797e-03
1.238662930060522790e-02
1.852555298728643038e-02
1.772436645811091560e-02
1.971003144518999883e-02
1.386300206175267689e-02
-1.298494952376374675e-03
-1.190941391386980859e-02
-1.560672849343523738e-02
-1.420796112150413300e-02
-1.056535545764608966e-02
-7.314350240479461709e-03
-1.645178247349846079e-03
8.825959354569243298e-03
1.377891741163476610e-02
1.124779621328836875e-02
8.134913456093646050e-03
-3.505662641994390367e-04
-8.248856483343497761e-03
-1.504621224911752847e-02
-1.914783422877719063e-02
-1.532930408843986500e-02
-3.073717888461103415e-02
-4.457535066433877119e-02
-2.052611042995447152e-02
-2.363752650961406521e-03
-4.505295004587803534e-03
9.239946316019434112e-04
1.328329548607105372e-02
2.718133508685187036e-02
3.890408760529731613e-02
4.852508351933233072e-02
4.114716764298136098e-02
1.646586452435322076e-02
1.246366337228114671e-02
1.920939497893690492e-02
8.515288021285580267e-03
-9.400932602972599667e-03
-2.332727464678653953e-02
-2.231436619593393095e-02
-1.539286531355456289e-02
-1.369729054213335469e-02
-3.541236229545118280e-03
4.590800819856872411e-03
1.123266560484222337e-03
-5.613213369845094364e-03
-2.238324044539262425e-02
-3.565515653388636602e-02
-2.689638078463667259e-02
-1.354440288598084650e-02
-7.534246610868520350e-03
1.029785695275380747e-06
1.082764814106434818e-02
1.573485973406299823e-02
1.554808200716823081e-02
1.863241670174252060e-02
1.657443163616995063e-02
4.263643904924392485e-03
-6.491887839266415050e-03
-8.044414148100757084e-03
-1.917089780728837341e-03
6.170129619272432704e-03
1.574150670334217156e-02
2.230162383745734611e-02
2.728661612678594250e-02
3.653649988751796196e-02
2.399949768549598447e-02
-6.545153589412965218e-03
-1.991556819319490607e-02
-1.980619987228901882e-02
-1.764219677600863123e-02
-3.103482335860726152e-02
-3.803426265983348570e-02
-6.566362814626712507e-03
5.279280230273045551e-04
-1.682536020549376884e-02
-4.736084196843768496e-03
4.824734824091474325e-04
-1.583314217986490219e-02
-3.974300849455682932e-02
-5.387472995735317211e-02
-2.679362670699241347e-02
1.728308131054417940e-02
4.040395155696785423e-02
4.173871947192915599e-02
4.385078183337519364e-02
3.616618681854264633e-02
1.366522251773557846e-04
-1.424552949956695014e-02
3.591169511259894621e-03
1.498985603184524798e-02
1.823128918981677116e-02
1.964882968573132549e-02
1.256252499815918924e-02
-1.427657750130889927e-02
-1.620007136773889481e-02
1.509321340174970237e-02
3.040773202625835295e-02
6.105337089757859048e-02
5.298294189595256082e-02
-2.229824838122661593e-02
-1.970515899554568101e-02
1.581888218042586808e-02
-1.576832902387918789e-02
-2.913757127650292919e-02
-1.751648225709421386e-02
-3.456615730713549772e-02
-5.752958666242664887e-02
-5.503029143042233173e-02
-4.127147373056367502e-02
-3.774101596520592489e-02
-1.375561357430832472e-02
1.641344794853766623e-02
4.449810757259690941e-03
-5.817747283364977165e-03
1.730667500174567705e-02
3.203219089489792171e-02
2.541591454640235517e-02
8.219636032124633465e-03
-7.532968361558284309e-03
4.390705111889242618e-03
1.185232816725460825e-02
-1.233499625576691371e-02
-1.344309722898328133e-02
2.251532462327794984e-02
8.164054482032330473e-02
8.664147751653783480e-02
-3.201563136056202741e-02
-8.177374982332828723e-02
-3.923449137503975080e-03
7.265524453202612358e-03
-7.985851748418119553e-03
-7.964116399788286060e-03
-4.656543480353643460e-02
-4.449126416796336803e-02
-2.752751478753767342e-02
-2.314879157941171495e-02
1.751701532302172085e-02
2.024914063969563555e-02
5.384231634570115811e-03
4.793464042869919478e-02
4.564271036890697048e-02
-2.845972844278198133e-02
-3.252031233796029430e-02
4.459260143549311634e-02
7.803706414307354233e-02
4.220941574582998818e-02
-1.875828391106766635e-02
-3.922570190855305394e-02
2.620578470850478889e-02
8.913071742006359321e-02
9.288161287162503832e-02
5.994567330691465135e-02
1.222002950160356628e-02
4.486723320785644328e-03
-4.103630825577070373e-02
-1.468809585182361266e-01
-1.290268210940491989e-01
-5.209667809910886044e-02
-7.246908147953770585e-02
-8.676563101626845464e-02
-4.892539655454934688e-02
-3.604145643678799416e-02
-5.414394721596902521e-02
-5.019750191223912306e-02
-6.414018274944907616e-03
2.538934189155851034e-02
2.254955527696346149e-02
-3.932350138608747998e-03
-2.192268112972675653e-02
6.825778587224437706e-03
3.698164672519714535e-02
5.365500327919966311e-02
6.956263911452836846e-02
7.003565561627539404e-02
1.257972094731655277e-01
1.769393770836019120e-01
1.006937766771827808e-01
7.360236286589599830e-02
1.599326877623453713e-01
1.148665523153546419e-01
-4.082327604289948814e-02
-9.108600520532268707e-02
-9.117484297912165081e-02
-1.268782781869169374e-01
-1.067374851247178402e-01
-4.573554662068821108e-02
-3.050951721108194695e-02
-5.013217229757737509e-02
-8.101079436476057993e-02
-8.080772476498303269e-02
-5.399124865775747212e-02
-4.910940933069220943e-02
-1.849940024044732442e-02
1.434633432894590749e-02
-2.367058517603799241e-04
-1.424150838923296612e-03
-9.548066585371184703e-03
2.481938932427554811e-03
7.470713214714487516e-02
4.226061333158734334e-02
-8.439736966959671127e-02
-1.098846164617022364e-01
-4.586794658829488475e-02
3.157272378431889154e-02
1.402734039807668198e-01
2.351868927469101533e-01
1.810258514255191353e-01
4.081646509095897962e-02
-9.489917008529118875e-06
-3.041856370043772087e-02
-9.271221498021714469e-02
-5.828733052290800687e-02
-1.209076934638985378e-02
-5.300795575959675859e-04
2.656035695403307847e-02
5.307030095375416673e-03
-3.178752046394063557e-02
-2.802350526539022779e-02
-1.742243544597579102e-02
-6.576235980775603680e-03
5.307414876291815468e-04
8.303569536819313188e-03
1.362001043540202530e-02
-3.160429061894071221e-03
-1.808500001522462403e-02
-1.634706947005398064e-02
-2.775453817152925481e-02
-5.075635672747293159e-02
-4.589816421192902118e-02
-2.196003154028979693e-02
2.031944460610047784e-02
6.884720416393115550e-02
3.456159929800090014e-02
-3.618765109026723936e-02
-4.684830983038711788e-02
-3.348414860615091249e-02
-9.123320953603741845e-03
8.851389405511474531e-03
1.796187150664435572e-02
4.859544168758856558e-02
5.704512877617467365e-02
4.847586320701074980e-02
2.369194034155410258e-02
-2.239669401662884585e-02
-2.340133134643952381e-02
-1.897827824044473824e-02
-3.098161022324199057e-02
-2.576409351476202300e-02
-3.099592914125971765e-02
1.461166028807678752e-03
6.131484265367640601e-02
7.528685555688451048e-02
8.968817543865859054e-02
7.350716584231758999e-02
-3.546623638209289719e-02
-9.708013559700466588e-02
-2.296327587095345346e-02
3.024387614653233428e-02
1.288116320386665722e-02
2.975858219860507206e-02
1.127537980823473118e-02
-6.441546337774137210e-02
-7.191754238466099847e-02
-4.356108198235374152e-02
-3.121133796053547280e-02
-1.799564835249628861e-02
-1.976303445884285484e-02
-1.635266087654561190e-02
2.106062254971756507e-03
2.032418219685566338e-02
3.181032436554448450e-02
2.456205263159845498e-02
4.312338868482315339e-03
-1.718566350878426852e-02
-1.950864232864589140e-02
-8.881021707198514387e-03
-7.426788571444366792e-03
-5.647637739341358591e-03
-7.439038236154215354e-03
-5.533091177384138375e-04
1.450219942303186335e-02
1.281215193330737141e-02
2.216892795668199551e-02
3.888060600864051003e-02
4.363836333802376816e-02
4.850533366683584813e-02
3.832655697305368397e-02
1.762981747610172303e-02
-8.554603284208730368e-03
-2.921797094718661322e-02
-1.188610862302165103e-02
3.886227510154716992e-03
-1.060262438210956941e-02
-2.230524925371875702e-02
-2.335140416573618094e-02
-1.576573753935348390e-02
-6.557087380343393571e-03
-1.139252295496056763e-02
-1.463361974886875742e-02
-2.271903938135480354e-03
2.278032392378687414e-03
-2.783178562887520316e-03
-1.007082298611881171e-03
-2.029795340024312129e-03
1.008433274669495033e-03
-1.453720061047610902e-03
-2.251005992509382686e-02
-1.721511728584712922e-02
-4.527550883808581852e-05
-9.306038016120064468e-03
-9.540688081991037517e-03
2.200447968817995786e-03
9.986950194054006885e-03
1.869045797227764094e-02
2.094757904201312651e-02
1.841632102563493800e-02
9.902383435678566853e-03
-5.639007156564543365e-04
-7.416069766178172082e-03
-1.206278179231363296e-02
-4.639879009465130467e-03
2.254794275366392084e-03
2.530750340938262011e-03
5.960931622652275268e-03
2.866041236675553449e-03
-2.393562593642845071e-03
-7.893235709360908736e-03
-1.538665773338167286e-02
-1.303606146849461273e-02
-9.016074244182797903e-03
-6.945476505870967418e-03
5.012546972528780700e-04
1.059499310993658981e-02
2.168975531432126153e-02
2.517756724660499823e-02
1.929053834186965702e-02
1.276489526402591924e-02
2.452317941807826904e-03
-9.784050690561679753e-03
-1.352558257564497393e-02
-1.168095432162191520e-02
-8.301706533576466707e-03
-4.173048722404678560e-04
5.077247887390021718e-03
5.088619650980933176e-03
3.350989541037126089e-03
-6.666518904866700415e-03
-1.656657055653167065e-02
-1.513616147077267646e-02
-1.465443309572969817e-02
-1.304100522663352059e-02
-2.829535998834524849e-03
7.583100266442212647e-03
1.705096122558283703e-02
2.169164918684153218e-02
1.963035690082267498e-02
1.532748046268104722e-02
2.920424403173374484e-03
-1.004061203847114205e-02
-1.305414591388543571e-02
-1.078117422010080491e-02
-1.250314259157034357e-03
7.439146405520339310e-03
6.991598270278873845e-03
9.001228792495669789e-03
9.277503201531561716e-03
-1.286731918179879726e-03
-1.159450698046309881e-02
-1.379233907601217293e-02
-1.005579963404643062e-02
-3.001197966615762412e-03
3.795355224456739909e-03
8.074509419944532820e-03
1.404204291192948963e-02
1.907917971113408731e-02
1.372778788550628806e-02
3.490563333448104110e-03
-7.925387933748959113e-03
-1.968860149348018729e-02
-1.862592629725993987e-02
-8.539887552500118051e-03
-1.941167705484380919e-03
1.668890534389339767e-04
-1.424170116400180503e-03
1.654996623269852554e-03
9.010578283046435238e-03
1.025259504281730155e-02
1.268147516540594219e-03
-1.691931033898796607e-02
-2.195548587437094398e-02
-6.735734685812729688e-03
2.517426864865958923e-03
8.703636336237902810e-03
1.937621867123488426e-02
2.031576642487603612e-02
1.754608807770079507e-02
1.260523247692910999e-02
-1.430353265370737847e-03
-1.031533930325792894e-02
-1.151104871992116030e-02
-1.277904542749734584e-02
-7.692988908818225967e-03
9.941019460856697146e-04
2.905624667043148895e-03
1.411942325430691958e-03
2.092032011282916621e-03
-1.099072052138907974e-03
-1.083061026327848154e-02
-1.358937629727058685e-02
-5.481261373074069326e-03
-7.240995762645768222e-05
2.931543461658308800e-03
8.898554517908621730e-03
1.140312867999854554e-02
1.330507204660959578e-02
1.727878748047928167e-02
1.131721313976073728e-02
-1.592137222447618681e-03
-6.406685377849083256e-03
-7.906841527953924892e-03
-1.091648297950945611e-02
-6.893219785892982544e-03
1.281198897235109012e-03
9.283634767126071677e-03
1.573177676181417711e-02
1.187625279555924555e-02
3.612981288656261138e-03
-3.257725546742282902e-03
-1.527285677243375370e-02
-1.638990226258798047e-02
-2.076482585593503096e-03
-8.868583612430185753e-03
-3.144031990390495912e-02
-1.808924115698724855e-02
1.777236818888367278e-02
2.457469108413305042e-02
1.329503890637735893e-02
6.988080476237256908e-03
-2.587387125015721753e-03
-1.020780082254955402e-02
-8.595745437049990070e-03
-2.927758139512615359e-03
4.097514729904295876e-03
8.847973203931693009e-03
9.327893598010793957e-03
5.587211312170529791e-03
-4.584870292734719282e-04
-6.332999338020138536e-03
-1.166075277558962370e-02
-1.116651191956075095e-02
-3.314636011289625629e-03
4.062129012117153028e-03
5.794122485276618009e-03
8.120361597601389800e-03
1.613756025033259017e-02
1.709063375933493958e-02
7.350010747492665558e-03
-1.217295881559434358e-03
-9.241558134990866119e-03
-1.634723430783332002e-02
-1.669146185373809876e-02
-1.036211332849771086e-02
5.658318882574282609e-05
8.395176450387018333e-03
1.276170753807723962e-02
1.112467911888397748e-02
2.091589024026321766e-03
-5.489448540715423028e-03
-9.600183483367946344e-03
-9.799150788282721611e-03
-3.664434498211082466e-03
1.347666502533555535e-03
4.962929323549287661e-03
1.018376690277611289e-02
1.630242193038164422e-02
1.993747430126759784e-02
9.838967474767860988e-03
-2.722175957546577041e-03
-5.132965133306920807e-03
-1.260301501499500043e-02
-1.842602492503064501e-02
-1.257644724228362647e-02
-5.867049030558183637e-03
4.846111410337441278e-03
9.446342613005139638e-03
-2.168340778603095997e-03
-1.082709737385886134e-02
-1.432078157129371837e-02
-1.531140703057534865e-02
-9.425820354978541038e-03
-4.855757676220499343e-03
2.324995758492391564e-03
1.105660367053166136e-02
1.084415252772984867e-02
1.296616134626307239e-02
1.884696202150664551e-02
1.302889914319582329e-02
1.271765306960724042e-04
-4.074587321719133279e-03
-2.765557230754932608e-03
-6.995072637497294285e-03
-6.326758498179874991e-03
3.416816297312399997e-03
5.814914900410113677e-03
5.608743295933770780e-03
9.987313591080231034e-03
3.211304965341411303e-03
-1.046620808460914029e-02
-1.219255086568877926e-02
-8.852308720460513869e-03
-7.594659693159851697e-03
-2.043038696327089798e-03
3.489924047948517270e-03
8.885810421834505757e-03
1.651910033596029961e-02
1.726693780990365065e-02
1.192122294314475715e-02
1.766286996112033728e-03
-9.795939012151652983e-03
-1.238666037521982816e-02
-1.427967165155789343e-02
-1.439212941431996379e-02
-3.413254397895327044e-03
7.691847438886073238e-03
1.310200737238096519e-02
1.009099501254936450e-02
-2.161656896497639064e-04
-9.943588720932197353e-03
-1.759169413510527913e-02
-1.445544553431111698e-02
-5.497792935577004367e-03
-3.973487833976514089e-03
2.226621106273009298e-04
1.025323499896759957e-02
1.681728857180162309e-02
1.565461944997194321e-02
8.437711550591798365e-03
2.508500247606529452e-04
-8.286739366189463732e-03
-1.135958864636827867e-02
-8.289332006813896619e-03
-5.665187295592505681e-03
7.350522440541648259e-04
9.073505830921271831e-03
1.206322549844797767e-02
8.426710268315006080e-03
1.452768615025045330e-03
-4.897928290996134484e-03
-1.300571232539858048e-02
-1.514127950205875622e-02
-6.559337510030169294e-03
1.846999261784114561e-03
9.166471161134838799e-03
1.317778700080765412e-02
1.299187005768444141e-02
1.478974077603064687e-02
1.192313056971334648e-02
2.131290849409952625e-03
-8.227965972407260895e-03
-1.457860120369494118e-02
-1.567486480264119325e-02
-1.455651952430333379e-02
-6.833929186595988532e-03
4.142821671904367738e-03
9.374630078193205499e-03
1.177164232713034941e-02
6.924929817380867658e-03
-5.713904883832241453e-03
-1.367039862854790497e-02
-1.447812973086713868e-02
-1.119364716621071287e-02
-3.535165983237578864e-03
6.465721783934043343e-03
1.351579709182355871e-02
1.756359647845478697e-02
1.811020388350729343e-02
1.182488127294681508e-02
4.049294640674863145e-03
-4.791719952873730280e-03
-1.203476873043438783e-02
-1.023342892372763532e-02
-7.661716068794176791e-03
-2.083689246891314798e-03
7.603632610613088663e-03
7.827052211113350033e-03
6.862477828543792242e-03
3.669513070383250558e-03
-9.340964070761639815e-03
-1.501605065748666881e-02
-1.202870738858980749e-02
-7.197199140584767396e-03
-2.047905870308495448e-03
1.001611112282348691e-03
9.520961837295793123e-03
1.493767973238923318e-02
1.186577874813357636e-02
1.178672254197751790e-02
5.224127803418181226e-03
-8.198411426102012248e-03
-1.253520473722104581e-02
-1.317664732246311490e-02
-1.322040116495221476e-02
-3.300315533718890977e-03
7.995049278283946834e-03
8.146981864956374941e-03
5.681396220569933861e-03
2.703813204307973540e-03
-6.529192250875143211e-03
-1.279846332029162433e-02
-1.372486405705458656e-02
-1.129854480381735186e-02
-3.703493084829883979e-03
3.066740258575067265e-03
8.580648351878376878e-03
1.385333530832819592e-02
1.833068144479377271e-02
1.911198906122284213e-02
8.481060343702316942e-03
-3.089238406997417766e-03
-6.078699094039487043e-03
-7.899370792580729522e-03
-7.760227857261564437e-03
-9.872902722328829803e-04
8.168440412493063046e-03
1.105609155449044541e-02
8.476796015823167413e-03
1.673077452585289369e-03
-9.850096016347372266e-03
-1.343207103468519424e-02
-1.092282849502965690e-02
-8.110870077621536861e-03
6.269269351696103503e-04
8.917807685601849416e-03
1.471016860175053398e-02
1.592631101525762011e-02
1.731605858405508083e-02
1.529680338542149451e-02
-1.970914312743370436e-02
-4.756859480206998558e-02
-2.480542370818611050e-02
-4.113948652087666066e-03
-2.982175468132597894e-03
2.322088279842238721e-03
7.585948091273492580e-03
1.345631199685483684e-02
1.254864247518417200e-02
2.320999284288710433e-03
-5.853715981932371137e-03
-1.306930450082864105e-02
-1.564198986201606814e-02
-1.076289407061561607e-02
-3.801216203674758105e-03
4.634629296501362877e-03
1.295440590903897994e-02
1.760931965537262250e-02
1.876109517436254023e-02
1.628491315633332284e-02
6.871493377811580851e-03
-3.843541868707829861e-03
-7.294623401492363740e-03
-7.070125840237860212e-03
-5.746747155281796068e-03
-7.580525648387718366e-04
4.732284530888824017e-03
5.524979213656922190e-03
5.976680920240235416e-03
5.100628531604076144e-03
-6.680578155525217221e-03
-1.586045453812336831e-02
-1.219306228055088391e-02
-7.552262325055937586e-03
-3.947642015777028460e-03
-1.171734715240536949e-03
3.918013791933149838e-03
1.394495214310017758e-02
1.869785890861477839e-02
1.403792195733627284e-02
9.058198415621678077e-04
-9.919024002050714009e-03
-1.111041385498569810e-02
-1.180899722083077717e-02
-8.054202577243018898e-03
6.741124951821575798e-04
6.750921195469695123e-03
1.016525966679373422e-02
7.215011220179403696e-03
9.722517279764746057e-04
-4.635537729981513942e-03
-8.029729599830497111e-03
-1.182113888661579133e-02
-1.775067905224227832e-02
-8.853672048407937312e-03
4.222622789498226871e-03
5.092726775163626540e-03
1.328473166778289076e-02
2.254032800117206081e-02
1.710513947886475872e-02
4.875481048735754233e-03
-5.106748863518703954e-03
-7.515054998807293128e-03
-9.805009033981505057e-03
-9.651977537810465385e-03
-4.895644520850173098e-03
-3.119072049965322321e-03
6.508507840191972600e-03
1.467750453106943763e-02
6.722646540233817407e-03
-5.042710109553457179e-03
-1.664711908186113434e-02
-1.806306400104531334e-02
-7.465447126163936992e-03
-1.985433886158172005e-03
3.626161510136646608e-03
9.438944818633592665e-03
9.423314130169323580e-03
1.326312939311992921e-02
1.431634628111499476e-02
5.958985184541671851e-03
-1.877924777782412260e-03
-6.779023637344369461e-03
-7.594249927251463077e-03
-5.377358774641483388e-03
-5.952595169058363424e-03
-2.375147753917130310e-03
6.593028839621382746e-03
9.533702004175118386e-03
6.689527023240307048e-03
-2.043242759442220717e-03
-1.430717660930313877e-02
-1.594569966332378200e-02
-7.857177156685317410e-03
1.289531636025180450e-04
3.322475643971207170e-03
5.431921542265292710e-03
1.549926956875115856e-02
2.172109671267782871e-02
1.413030926364726783e-02
3.681055392227585397e-03
-4.859478601721078754e-03
-1.106087904805833425e-02
-1.616046692005362884e-02
-1.667349051599567242e-02
-6.820444200024823253e-03
1.785747574390317933e-03
5.245989534487189264e-03
9.075406331355520551e-03
6.416706435809546756e-03
-3.531918256082542534e-03
-9.908946969047992964e-03
-8.464025756568457209e-03
-7.862359435719000131e-03
-7.433005678622864841e-03
8.559730070399490260e-04
6.778296300113151839e-03
9.848021234798684173e-03
1.872773727241273944e-02
1.888182394158806343e-02
7.097033143562835218e-03
-8.854109036947105296e-04
-6.418820324289924335e-03
-1.253269126891221226e-02
-9.814531222541939340e-03
-2.072478631501614883e-03
1.448959281419575675e-03
5.262579367322346019e-03
8.855276438809182166e-03
7.109220635731839863e-03
-8.913741018891081606e-04
-1.184480615133271138e-02
-1.602912121687196517e-02
-1.535175865352374908e-02
-1.034273634924462448e-02
1.996577517508471220e-03
7.957762003044771201e-03
1.048541281695181127e-02
1.613805160760999405e-02
1.362842971164508060e-02
5.961435810162950787e-03
-3.715394561455823141e-03
-1.108842598511985099e-02
-8.969639034836829339e-03
-8.721517892653159534e-03
-7.072938379433289444e-03
5.250144725384957821e-03
1.413956471377986017e-02
1.247358891416232123e-02
5.513731606167700250e-03
-3.062064809885116194e-03
-9.996757829730629902e-03
-1.394523684562406010e-02
-1.194638584896967615e-02
-4.764586925732593355e-03
-3.878217892650471978e-04
3.319692980708195164e-03
1.137929677598790296e-02
1.587023037866067826e-02
1.436873587011919771e-02
7.838345448756762687e-03
-2.868132193714930181e-03
-7.056755255991810707e-03
-9.175105161631306669e-03
-1.403688608101250589e-02
-1.000033225428005948e-02
-1.308895686091028632e-03
6.064501274860393046e-03
1.099498809881875420e-02
7.104189660296512249e-03
-8.311229230859133732e-04
-8.630317220243407042e-03
-1.394879684525025809e-02
-1.170309439636945704e-02
-5.902714704116211394e-03
-7.517543649884417993e-04
3.560606254590665837e-03
8.720785515073018954e-03
1.268172364481167519e-02
1.206225841091694909e-02
9.335552934889664381e-03
1.495829766834770114e-03
-7.563973257177736449e-03
-8.816805844850511206e-03
-7.317120288115766362e-03
-4.714726235924320691e-03
6.380035391697744165e-04
7.300540232784822996e-03
1.215407694419371951e-02
8.912874775349809847e-03
1.582481807059152312e-03
-6.576761653973517245e-03
-1.248937341313414127e-02
-7.755059380121197450e-03
-1.815969761386787996e-03
5.136709618355616430e-04
6.324524797779039649e-03
1.106401128177330120e-02
1.529146303204288217e-02
1.454383149127596447e-02
3.336857328645332233e-03
-2.402555128131839352e-04
1.101510696929289875e-03
-7.634580757573678454e-03
-1.127352073318133030e-02
-1.509614695079400729e-02
-3.000469133402789909e-02
-2.164574261701737029e-02
8.698637888081462918e-03
1.464041378033930155e-02
2.077827656778075040e-03
-2.874269669536391215e-03
-6.632568611546268630e-03
-6.936011210428907545e-03
-1.128085078904056491e-03
-7.979615641217424008e-04
3.174273823585896555e-03
1.466792990765141205e-02
1.725685446554124647e-02
1.461206167220476491e-02
1.085388926446922281e-02
-2.806535125326013323e-04
-8.632678576024972045e-03
-9.628282206575158181e-03
-8.728420952467123156e-03
-4.405416857653735030e-03
3.202840328937773921e-03
1.076337580439000463e-02
1.120654892118785190e-02
5.269552013722357715e-03
6.551233501285596856e-04
-8.009582843501490343e-03
-1.707893148648845574e-02
-1.440450215070150294e-02
-6.842092973784998089e-03
-7.869111898928041193e-04
5.735883551784362773e-03
1.082866680626388099e-02
1.388919664523559187e-02
1.423097940487776970e-02
1.049995920452620295e-02
3.541245901812415265e-03
-6.064575788931741984e-03
-1.358139615736315801e-02
-1.223351094582935533e-02
-4.391389781226563357e-03
2.440884522533402767e-03
5.456256695323894422e-03
6.122435050604038177e-03
4.687757766960922584e-03
-2.032828570261839465e-03
-1.018075366930852252e-02
-1.291018899053668345e-02
-1.241195305155265785e-02
-8.157604239462613524e-03
-9.753909260880395038e-04
4.018677723010781466e-03
8.362084261502204102e-03
8.478938040680247465e-03
5.778522981869878283e-03
8.420943021449626975e-03
6.756785493694376574e-03
-2.609864363937772647e-03
-7.213858601218778831e-03
-6.482773221443026944e-03
-4.774292217076951325e-03
7.741316244780729362e-05
7.565153531710548662e-03
1.065892120686540330e-02
6.007985867044147825e-03
-2.213270534321754631e-03
-8.408303811252579654e-03
-9.314923508110518197e-03
-8.698980523049498065e-03
-6.661499727104120382e-03
1.441921951260255984e-04
5.608306411671105593e-03
8.856242565201236788e-03
1.147004360366104050e-02
1.172316766205871302e-02
1.089597073817874170e-02
1.719635978567786438e-03
-1.115512233719313448e-02
-1.372977609523888878e-02
-1.170155267112057973e-02
-4.796812832076549279e-03
4.305734074615761783e-03
5.497827146578312257e-03
9.873060902362311084e-03
1.143333877538697287e-02
2.901330633840359030e-04
-6.739210287090785859e-03
-1.142971591889858571e-02
-1.388205469208527928e-02
-6.905832078608170957e-03
-4.286782620813208398e-03
-2.444582028930661951e-04
1.147698655856320936e-02
1.690983356852441069e-02
1.575272768482988139e-02
8.251904399805732801e-03
-1.125426282789373199e-03
-6.190548363469757474e-03
-1.059746619253739038e-02
-9.739473364646689807e-03
-6.296367001921001315e-03
-2.332245271561380739e-03
3.111009998316127765e-03
1.685403256499347618e-03
3.376198033595666573e-03
5.443410323516103752e-03
-5.624387912692265304e-03
-1.275103233628451654e-02
-1.121972333825463700e-02
-7.260812761001355850e-03
1.163196830956724458e-03
7.724434083643249953e-03
1.236491959640174249e-02
1.639187935011135813e-02
1.783291619096376637e-02
1.466854678550669373e-02
5.472711580755681288e-03
-3.599193793345046872e-03
-1.305926467058209257e-02
-1.770680776886987898e-02
-1.150571137367711709e-02
-4.840878135533451497e-03
2.074215928598208657e-03
7.617922841070979417e-03
5.511785942135208338e-03
-1.286500858093456688e-04
-7.359688406370240923e-03
-1.027120950270550559e-02
-9.957161174452736074e-03
-1.019304928623279011e-02
-3.939188087251050720e-03
4.459551255276895075e-03
1.066924295303602749e-02
1.493473513638709713e-02
1.423009662033045304e-02
9.267134028166795073e-03
-3.299181978093695733e-05
-5.603266670237075885e-03
-5.851316037021488808e-03
-8.802158270837622325e-03
-7.899590125536721380e-03
-1.106368342833773458e-03
6.999377557435311654e-03
1.190280621217353757e-02
8.318383085132944471e-03
3.268096964717886587e-03
-3.611954091182454935e-03
-1.379997477359842621e-02
-1.585549727532676798e-02
-9.955657931962708096e-03
-1.903733055802728225e-03
5.541044529803003729e-03
1.009446753078983156e-02
1.257121934086365307e-02
1.200321287087868782e-02
8.130122668182093032e-03
2.961923533852849500e-03
-3.285106847435043890e-03
-1.149816389925210729e-02
-1.455789775338408101e-02
-6.952596310690973939e-03
-6.118868645243807566e-05
3.969907387144791001e-03
9.468918729534881937e-03
8.141030339461455961e-03
1.518599781487870977e-03
-4.692361330870542697e-03
-9.483537987926582771e-03
-9.324212643804452583e-03
-6.664419063600249618e-03
-3.830062314556293302e-03
7.011510664534737012e-04
8.688109625734047325e-03
1.591489048068563117e-02
1.313466746089472781e-02
6.002996853365196242e-03
3.140634188279207550e-04
-8.460526618602979068e-03
-1.510017609640522916e-02
-1.641455137521261737e-02
-1.333344258670068026e-02
-2.750196461585558728e-03
6.221465089436363505e-03
8.156904754515558950e-03
1.073463021433617749e-02
7.951308235952915873e-03
-2.386620353409455667e-03
-8.468867161253746181e-03
-9.548326826021235128e-03
-4.897110923008120981e-03
2.127638123417205547e-03
4.666642731156068341e-03
1.042281997036141432e-02
1.518066442839455590e-02
1.618788854455788587e-02
1.861922874864658031e-02
1.041102200402789155e-02
-2.053728873898552371e-03
-6.611842167709530010e-03
-1.000708289273281523e-02
-9.347885342830075314e-03
-6.791190067201788305e-04
1.123494706255588615e-02
1.483836369216420641e-02
1.179299306980705932e-02
2.595336858214323562e-04
-3.584646390541033900e-02
-5.080916640085721830e-02
-2.091230495684825302e-02
-5.005556116490126987e-03
-3.210824245585248461e-03
6.087353471219027548e-03
7.679139425747788343e-03
1.114487557396950761e-02
1.641803655664404726e-02
1.413591260220562265e-02
6.195267493460623887e-03
-6.639226111330933863e-03
-1.239351324207429474e-02
-1.146046272360491669e-02
-7.760881066778022204e-03
1.601861782355421329e-03
8.980026504052090325e-03
1.446770247355136721e-02
1.560515786373886313e-02
9.377827610851851778e-03
3.319529669394603432e-03
-5.155597657579059391e-03
-1.225317518738590350e-02
-1.054168357881531126e-02
-6.746671905873882075e-03
-1.974785959364615696e-03
3.099661951993096416e-03
5.402941395742951944e-03
8.448116571075116321e-03
8.374164516455917875e-03
4.263083535247582344e-03
6.796360474328577272e-04
-8.370120807451395667e-03
-1.532699318105991936e-02
-6.559090020749254804e-03
3.923607154854915312e-03
6.581563973819313726e-03
1.309266733484422233e-02
1.817140840154374964e-02
7.830787053524907240e-03
-4.564012681251022711e-03
-9.444554530600994535e-03
-1.491107951740311237e-02
-1.014616697508986982e-02
1.675113179082468248e-03
5.997323768737336525e-03
1.221470189422467316e-02
1.508463702623433385e-02
1.564837423001684200e-02
1.535472569748779458e-02
4.305695540892042102e-03
2.950287725508087856e-03
-1.341404404106058199e-02
-4.977195988825391243e-02
-3.135188439318718767e-02
1.108397339571560655e-02
1.270760084677886523e-02
-5.148078352362839803e-03
-2.918830545964903531e-02
-3.374283317769723872e-02
-8.587596113293009814e-03
5.590737996063609334e-03
2.626387240530834392e-03
2.222233661428337339e-04
5.257414656822135927e-03
1.244059592493774145e-02
1.565721060261873743e-02
2.076228199984335790e-02
2.324928537970589668e-02
1.901773328076021910e-02
1.009113944262382892e-02
-1.838685569806261532e-04
-4.141620100840795286e-03
-5.812743662939376561e-03
-4.085283812089968505e-03
3.088693672298728835e-03
4.074789176962684625e-03
1.488509680940343013e-03
4.226704236120745750e-03
7.654538714759909039e-03
2.920935401659181547e-03
-7.655367145783249783e-03
-1.167013544560912414e-02
-9.564108008861954557e-03
-9.673494082010463888e-03
-8.264238744634411563e-03
-5.313220738720087280e-03
-4.631758990584979203e-03
-3.003112115444512079e-03
-2.069845445901140508e-03
-8.481377900318465626e-03
-1.820422395794392412e-02
-1.874568480188607000e-02
-1.251292548134351305e-02
-6.736753038417501657e-03
4.017055522928717100e-03
1.784401455302893347e-02
2.976349208792683845e-02
3.700726215468794905e-02
3.470303636837514250e-02
2.614858048856533515e-02
1.156696841693897332e-02
-2.038515989878288137e-03
-4.517841244111545085e-03
-5.793158302632669433e-03
-1.190143494418574067e-02
-1.918681455558942511e-02
-2.116059844643355253e-02
-1.993891649658065257e-02
-2.427712037531370298e-02
-2.928436115048602129e-02
-3.710386385115287122e-02
-3.478145480570168924e-02
-1.378394011564594221e-02
9.435233349370915562e-04
1.994488664525656887e-02
4.615231171498598850e-02
6.242558585788179210e-02
7.580681941349608211e-02
7.264895885083705318e-02
5.659283969557039190e-02
3.845223003030101561e-02
1.567220462734709996e-02
1.495157977291584894e-03
-1.608310929000019568e-02
-3.465000919748360830e-02
-4.893102475667081286e-02
-6.410115793889799296e-02
-6.604608981785699273e-02
-6.963472442864153400e-02
-6.924670955557868379e-02
-6.591104319089191588e-02
-6.051933656416041973e-02
-2.633017034780693599e-02
-3.462741905291872799e-03
2.799934128664132230e-02
6.728956205242232758e-02
7.222089140163780174e-02
1.141132414605738055e-01
7.402092094728146554e-02
