1.614605434034893650e-02
2.395614848578793074e-02
1.348006502667731255e-02
1.007243428966423868e-02
1.796679061859341028e-03
3.004490373766781916e-04
-2.511941617646665757e-03
-6.908779390348751895e-03
-5.332221260490264611e-03
-2.279371965013938725e-02
-3.163509156193412830e-02
-1.729825769645400996e-02
-1.145741119131877921e-02
-3.061858848584880950e-03
5.522117501173280825e-03
6.232933007477551961e-03
7.820177195827927863e-03
1.243657448468638807e-04
-9.331404782369145338e-04
1.008121545073834176e-02
1.106722838602608276e-02
1.006903896981131696e-02
9.919694542659675610e-03
4.534008979620802841e-03
1.169842058264724356e-03
2.961286795912683456e-04
3.841843626458605861e-04
-1.390750456012826517e-03
-5.039529775754605576e-03
-6.004898438754749379e-03
-7.062229637146337155e-03
-7.525486097763490513e-03
-5.505928246214174260e-03
-3.636453332837218284e-03
7.708625177080230236e-04
6.815138976244378838e-03
6.439309872573263475e-03
6.804564190039358957e-04
-4.682442996940638751e-04
2.645760895440669135e-03
2.926811961385557184e-03
3.732847105667920669e-03
5.805329155831284206e-03
3.004145910988106297e-03
-1.379379873206401739e-03
-2.126926024521350999e-03
-5.636170246074232847e-04
3.660680625813344754e-04
2.778015649046756009e-04
3.421760890577217260e-04
-1.309237307314843699e-03
-2.329753987902860157e-03
-1.419298091276181102e-03
-2.083178047779922579e-03
1.189879874224775928e-03
4.608305469039293556e-03
-4.533127786177603129e-04
-2.999778249158838780e-03
-1.102421269403110410e-03
-4.711437234886532493e-04
1.836617605132525493e-03
1.020564674683292777e-04
-2.868703023727177566e-03
-5.128161114385837611e-04
-3.788257303074429871e-03
-9.714183937374781461e-03
-4.581522850236222771e-03
4.119674029838682992e-03
6.456678666677958915e-03
4.151393547361087628e-03
1.227928671147172543e-04
-2.207900932567786068e-03
-3.148554345208410057e-03
-2.929350949695252830e-03
1.563467156749034567e-03
3.545180348446168393e-03
-8.303441607810057006e-04
-3.096547931751015160e-03
-5.118305374089246636e-04
2.169033338723669237e-03
-1.054609439081932026e-03
-4.438524662179053892e-03
1.429947807511605098e-03
3.735304943241623318e-03
-1.626178197544796101e-03
-2.795160244800650546e-04
3.785354135552451097e-03
4.343644784875256605e-03
4.568807164159451907e-03
2.809285785186455258e-03
1.779076834970191173e-03
1.627177080174350282e-03
-1.337623145320840454e-03
-1.345392205287787362e-03
1.353628840957204864e-03
1.939269297839487857e-03
3.400817020441443666e-03
1.752700988304065370e-03
-3.567826410107546517e-03
-4.097199959096564474e-03
-3.127882609388241055e-03
-2.791347160274018895e-03
-1.562929737122687552e-03
-2.654821484832909848e-03
-2.408796787689719381e-03
-1.037059783919951203e-03
2.038373080977242877e-04
3.241052417349358106e-03
2.917493109783096845e-03
1.226778777537737303e-03
1.105544239524545622e-04
-2.872130337213861517e-03
-3.457926608667706136e-03
-1.186457576139442931e-03
2.244548148056549515e-03
2.641445101538752744e-03
-9.765888594343336178e-04
-1.662038249054541110e-03
-2.334133642558644539e-04
6.524896600486646166e-04
-1.819169546180655211e-03
-3.566944469944069614e-03
1.877707664565736586e-03
1.533858637847920238e-03
-3.874846156875799176e-03
-3.233375335031681355e-03
-4.513063392747305481e-04
4.593149413832678558e-03
4.852103125450478102e-03
1.231787297130744626e-04
1.238614256240054643e-03
1.057362480971991026e-03
-1.382622172608898939e-05
1.940442473278515025e-03
1.877135153178609382e-03
2.903195159035016834e-03
2.938008853456991042e-03
-2.750237276055716583e-04
-3.510389062900774477e-03
-3.496863969842630045e-03
1.499001772395314397e-03
2.060585600111981570e-03
-1.002238385429428955e-03
-6.775211052428236453e-05
-1.243062961677541926e-03
-3.224981689750956899e-03
-2.063640522291671549e-03
-7.975805976276224016e-04
6.740463370623124995e-04
1.373060091349362919e-03
1.179862613603057525e-03
3.027997725948961254e-06
-2.326500872391434709e-03
-2.264934019397504134e-03
2.572877683683765524e-04
2.888983480178522294e-03
2.609604695307808902e-03
-5.778866137057058318e-04
-1.290861949485632614e-03
-7.609464081901432279e-04
-2.440064376422294032e-04
1.528466509084377978e-03
-1.379015457580605930e-03
-4.312231141063630098e-03
-1.447754857515750129e-03
-1.066999429115167994e-03
1.397731563039959421e-04
2.831696836300040369e-03
2.651075138360930268e-04
1.355138819410914861e-03
2.713316896980261239e-03
-2.306338258490154744e-04
1.845801922386389052e-03
1.123626441526608209e-03
-9.442734172161996618e-04
3.148503066274094698e-03
1.772028629418768335e-03
-2.238923753886021186e-03
-3.059827007524618721e-03
-3.179555330564094468e-03
-3.280712014541926121e-05
1.395016969807611612e-03
2.512273480929831312e-03
4.557853628431158405e-03
2.583112877487464890e-03
3.938727245601894231e-03
3.921460276931051751e-03
3.018132517835571491e-03
1.116513427133344720e-02
9.429684277773825018e-04
-2.534908553027329439e-02
-2.388156747022537191e-02
-7.772586160997459019e-03
-6.287332299863273178e-04
6.962925603192754442e-03
8.639125449102690035e-03
4.700116930491935081e-03
3.489917842060562703e-03
9.323634885233647368e-04
3.915819430566205373e-04
1.319861928886017718e-04
-1.593098669103440229e-03
1.089850089802286764e-03
4.912703770672304437e-04
-4.601756322927347438e-03
-4.397153114576248661e-03
5.601732133458976618e-04
5.615279092471268420e-03
4.181742113426715514e-03
-1.762880504641902791e-03
-3.273119384560419865e-04
2.459382724499476446e-03
-7.732879321059540510e-04
-6.768018228063842111e-04
9.103956385241422384e-04
5.392667768574254446e-04
3.086785714191634094e-03
1.211916359813309304e-03
-3.914339058387071406e-03
-2.330643865036203556e-03
8.644341882680782897e-04
2.315840261817891585e-03
2.879309752921941409e-03
2.546561196770556691e-04
-3.750019597138618335e-03
-3.696369783832489497e-03
5.241972389486990527e-04
1.205685142994471692e-03
1.988622457757072484e-03
4.681676525905813756e-03
1.807166511306911982e-03
-1.856118113170509719e-04
-1.186757445231902868e-03
-3.178555380408412895e-05
6.870787950327940201e-03
8.911937675429353056e-03
8.544020343414603438e-03
8.728669970237851747e-04
-7.948942923486764997e-03
-2.085951454997889143e-03
-1.345050085723345848e-02
-2.971902315748833553e-02
-1.203864841441220669e-02
3.919276847974467737e-03
2.258129622914923414e-03
-1.806247078865368203e-04
-1.915331985127953756e-03
2.849443083252239418e-03
6.094295597666144447e-03
5.302686363321824914e-03
6.084820376417924941e-03
2.411037526451478754e-03
-7.494122059635414425e-04
1.872928374367317577e-03
4.215002994069561720e-03
2.293104436231272261e-03
2.145411161007605098e-03
2.801083961643776980e-03
-4.218234441541994333e-03
-5.641441249688555065e-03
1.880535634595533693e-03
4.557047920572469650e-03
5.617891735886711667e-03
4.688118385512756066e-03
-9.010948440027875426e-04
-5.144233991183370415e-03
-4.174426769966971436e-03
1.810606502981778601e-03
5.361902181035170349e-03
4.293134845179400957e-03
1.316916040789892304e-03
-2.034950545919469566e-03
-3.876903580723222668e-03
-4.603062463120663993e-03
1.462708833116859418e-03
9.500897568069058274e-03
7.265399141549114086e-03
1.795962718987412481e-03
2.532106490072042306e-04
1.198478505292378251e-03
2.043351049073079042e-03
-8.952765328752899801e-05
-1.124736508824906783e-03
-3.573257179123058547e-04
-5.541592416911557059e-03
-1.150518597851155067e-02
-5.418023184164940352e-03
-6.862032199780706415e-03
-2.578502986071132264e-02
-2.259926553028790766e-02
-1.007389915418965051e-03
3.328764112109399136e-03
1.983165174419735007e-03
1.783706694503681481e-03
1.226548132441609811e-03
6.647836019850468341e-03
5.277462808329220524e-03
-7.087649656441248483e-04
-4.601445870727422036e-04
1.250686622066627144e-03
2.046464201764865674e-03
1.435409803358036899e-03
5.012214412311328388e-03
1.049308629328631927e-02
8.895046489388613170e-03
9.761731453504335701e-03
1.416912666819013233e-02
1.885647155093404109e-02
2.764443441336232252e-02
2.217799780469941612e-02
1.700169551629781206e-03
-1.066747824807006209e-02
-1.931079846533378941e-02
-2.495128871368757634e-02
-1.774334715167703164e-02
-6.741849022705546056e-03
2.653010260368483201e-03
5.531733564534571483e-03
-3.619324068539358369e-03
-1.038123939478629437e-02
-6.825441434859826767e-03
-3.329273232080434079e-03
-3.260789053211259232e-03
-3.659034211299307289e-03
-4.533213232377157793e-03
-3.982349393048019090e-03
-1.827144289359468408e-03
1.238030886377661363e-03
4.615880977757881760e-03
3.888201273189043419e-03
4.927093063021089660e-03
6.228135064541034938e-03
1.524400063519366132e-05
3.202556670696291539e-03
4.775109979754447315e-03
-1.054932020348290853e-02
-8.681421584857802742e-03
2.325420163936832776e-03
-2.678640120758555860e-03
-3.007823407700559257e-03
-1.152027449207495549e-04
-1.110582818149962207e-03
6.892108604677432779e-04
1.002079674554778909e-03
7.130372598571311712e-04
-2.231039834800564378e-03
-2.356661216410326203e-03
3.592782054457018849e-03
3.550778397555811716e-03
4.284516532140483953e-03
7.705048957820911058e-03
5.745799310406350148e-03
2.822007842252658317e-03
1.589899953229941465e-03
5.897350715882562419e-03
9.393583279440370637e-03
4.861159316319809201e-03
1.852750586901641232e-03
-4.495763049852204889e-04
-3.885222690538774407e-03
-2.960585731574818039e-03
3.297551734161131647e-04
2.085881527791298012e-03
-1.131731902764726008e-03
-4.314877622314369256e-03
-2.959818948304768389e-03
-3.363442596216536986e-03
-5.515563438120189670e-03
-4.317775951799981103e-03
-1.577999467719632895e-04
-8.520255402081229872e-04
-5.007459777859065916e-03
-2.435936548512350648e-03
-2.124533767786753076e-03
-3.652167422829777702e-03
3.896582469963137414e-03
4.731120833021167787e-03
-2.785608894531308149e-03
-5.150836047561743389e-03
-4.384327297197313129e-03
1.391087996366728325e-04
1.208004265842885184e-03
-6.440613166217514125e-04
3.729429761949113430e-03
7.693951657500685930e-04
-3.544197557747946151e-03
1.459051380370644108e-04
-2.062128059470119787e-04
2.976426646103863451e-03
6.293925241316773982e-04
-1.021640924781395433e-02
-2.451463176629514046e-03
2.955816783088945250e-03
-4.142391162633062875e-03
2.925341727297951170e-03
9.842124627730809011e-03
8.898074257126424927e-03
8.081943057947208950e-03
5.039069168121774502e-03
7.275288697456207786e-03
2.766241644359466838e-03
-1.020277943991928712e-02
-7.157496183795084357e-03
3.823287379215293581e-03
7.193448004191973881e-03
5.020311689904784734e-03
-8.700475149595722577e-04
-4.468033933802020678e-03
-3.541326589364273119e-03
-2.428315035557477111e-04
3.228149955765064350e-03
1.499960467090329140e-03
-4.181421895311661883e-03
-6.220458014522110834e-03
-2.598818041906998839e-03
1.621940873957861042e-03
3.333041802472440189e-03
2.808160389992313266e-03
1.548414660864470263e-03
2.443827524804574776e-03
2.068296198351574165e-03
-4.746445418393188329e-03
-1.235887952985661314e-02
-1.241500720692697256e-02
-7.601953046134762512e-03
-4.376536162292956299e-03
-1.885440335421129836e-03
1.217929204282875311e-03
4.354206355420857030e-03
5.016837957298885681e-03
2.019430631825034576e-03
9.201397972137177229e-04
-8.733190244346736904e-04
-4.206306116276543015e-03
-1.429254813043159085e-03
1.707057794250687677e-03
3.258412329222274469e-03
4.525204722211136066e-03
1.070099941260656794e-03
2.414923123889967538e-03
6.083246913417446333e-03
2.058974564570133572e-03
1.062121036910763797e-03
2.975495278956689221e-03
4.134205043163478063e-04
-4.216949608899657042e-04
2.442217261616301972e-03
5.767369551046144099e-03
6.252789523884031558e-03
2.885456710845924876e-03
8.256554673024813331e-04
-7.223012960359214253e-04
-5.022776183955670638e-03
-4.957189618706427103e-03
-4.065431983162445437e-04
2.073723339784312204e-03
4.417956667339818615e-03
1.920295101113658710e-03
-4.912620822542022696e-03
-3.645296340866604166e-03
4.311765871159320093e-04
1.033293140979943446e-03
1.923333447476330239e-03
1.278718113979062602e-03
-7.961166518096830834e-04
-5.165651003755604605e-03
-8.760161241746479421e-03
-6.584145894721119691e-03
-3.300476940231088403e-03
-6.683464990550887046e-04
-1.821584864981818166e-03
-4.640707542079076063e-03
-1.965455827959328768e-03
-1.325362272373994304e-03
-1.144873362170141995e-03
3.292004004658843040e-03
2.472703339200246157e-03
-1.719938775664451138e-03
-3.719081829105246213e-03
-3.723604628371653472e-03
-1.711047059766596665e-03
-1.572098884373205599e-03
-1.788553114485423113e-03
-1.126213627729834082e-03
-3.943922439174099744e-03
-4.756674657322378617e-03
1.383858860029530194e-03
5.936303704424210348e-03
7.036023286788439975e-03
1.042762809302547056e-02
1.403550258970138846e-02
1.955014839627465875e-02
2.270983551791091321e-02
1.006697600502566049e-02
-4.105731582527630784e-03
-1.836431879407326388e-03
4.485302139196281276e-03
4.303944846318116801e-03
-3.873484147798911519e-03
-1.712301666800740418e-02
-1.865576215047577355e-02
-7.149002170508840341e-03
-9.349655247151355490e-04
-1.286227817762038237e-03
-2.766783051326274917e-03
-4.172350760926107731e-03
2.115969117416896181e-03
5.002716250592457309e-03
-3.818152476273513687e-03
-1.513590786673417801e-03
7.035605214137240389e-03
-7.256242285662388696e-04
-1.330194101754885935e-02
-1.712020678233730497e-02
-1.197570542247061720e-02
-4.381963334431391438e-03
7.793061338750800304e-05
5.521190899583713549e-03
5.305617728915137769e-03
3.216335191833834478e-04
2.678653511290369875e-03
4.999104177588704900e-03
4.342986643342912866e-03
5.362542449171066317e-03
5.760007071752850337e-03
6.030908039701607208e-03
3.890721618180965815e-03
6.991846359471170624e-04
-1.676943869676572911e-03
-3.200962020802418286e-03
-6.025001243863920908e-04
-2.422881378444965679e-04
-6.245999034890862677e-04
3.205022069537597114e-03
4.029134566493359354e-03
5.337865583415004472e-03
7.788721485628430884e-03
5.954224636153274304e-03
2.688924008997941803e-03
-1.885791351973128104e-03
-3.133775604780880859e-03
1.545543402139623601e-05
7.270048432060900821e-04
-1.898877499553126499e-03
-6.585748823244802833e-03
-7.834509732834567253e-03
-7.288235289344289526e-03
-7.764692500401753142e-03
-2.894386907528566279e-03
-1.131128890353125986e-03
-4.008410547911834404e-03
-9.424492114349205044e-04
-2.332882712741647592e-04
-2.996699233360532091e-03
-4.486575554977112224e-05
3.403697710059599892e-03
3.409121500711240031e-03
2.660660924202364400e-03
1.632757930634859411e-03
-6.062609820614210752e-04
-4.674462045286972844e-03
-5.902261685883816549e-03
3.963930148710794767e-05
6.999980965640069039e-03
7.709755869272448721e-03
4.291409600137252763e-03
2.795019718799499672e-03
4.620482836825973508e-03
8.647524816520592642e-03
1.133989764211861852e-02
1.321988019831330007e-03
-1.428094204542456822e-02
-1.448729426827301096e-02
-9.126920142251183227e-03
-4.351615519147791246e-03
6.763715693910262589e-03
1.225504189533870546e-02
1.264511221261194369e-02
4.984949173844822889e-03
-5.308643835361308815e-03
1.735509351165481773e-03
-7.685814028413294301e-03
-2.809059936201038429e-02
-1.198867918725738876e-02
4.934055776666592709e-03
7.008411181795590715e-03
1.619218812642486682e-02
1.750988949263921485e-02
1.669522522522969010e-02
1.027982596838045333e-02
-1.070289491786533854e-02
-1.859670474225162684e-02
-1.261019197266541152e-02
-8.386637518459742757e-03
-4.627675152960487523e-03
3.755298397395564710e-04
4.100013515658676791e-03
1.235857591473677039e-03
-2.155657821687232203e-03
-3.387821356974835604e-03
-4.661700146120599519e-03
-7.501002205998938931e-05
3.228188349559126761e-03
4.467724103703340794e-04
-2.169554933395508641e-03
-4.275565618606818816e-03
-4.181342449252950164e-03
-1.800079339282630204e-03
1.865320986742808294e-03
5.383077395598691826e-03
4.388487913027471279e-03
2.310069990982529207e-03
2.400344585780713868e-03
2.207740847757995017e-03
2.908411558513312057e-03
6.684631528241885903e-03
1.041551351836283827e-02
1.123976092810667106e-02
8.970898302015316989e-03
1.609613004161978026e-03
-4.648852621508717080e-03
-4.604134085398585950e-03
-3.767271955720621554e-03
-1.797767518901964394e-03
-4.946318957190712871e-03
-1.470228615414832449e-02
-1.295229015805638741e-02
-3.446713455368944495e-03
5.536081901825472577e-04
2.589317796825113104e-03
3.242886595128536675e-03
5.443283453422608636e-03
8.848081689383851048e-03
3.854069436128436648e-03
-6.011173998728871169e-03
-7.398015218317432681e-03
6.807729404602319958e-04
5.233419037596739529e-03
3.695387160825809765e-03
4.857812827449959443e-04
-5.802240949216419183e-03
-5.305428214676717429e-03
3.380583783849496534e-03
9.404559369997686838e-03
1.118039543288839970e-02
1.541036248802413753e-03
-1.047539225982653185e-02
-6.859331424238441013e-03
-3.559459785856496691e-04
7.137204245737397085e-04
-3.418934411800055202e-03
-1.028885214231135652e-02
-5.801043996653081763e-03
1.092308442540309904e-03
4.273927928991842068e-03
1.106525618433769516e-02
7.188202061508630093e-03
-4.663609308139624911e-03
-9.305304808018804996e-03
-1.073840004210699882e-02
-5.784475726054466409e-03
3.750427798682115423e-03
2.941973160835375904e-03
-3.564036658354681995e-03
-2.543772931484587514e-03
3.290634834552492397e-04
3.394014085160063131e-04
5.205802205725302070e-03
1.042963278720964240e-02
1.149181868208919328e-02
1.213892287940053147e-02
8.776001257705733777e-03
5.546660524008225832e-03
1.314948748464484429e-03
-7.690092755589223068e-03
-6.425528606740557765e-03
-1.332788103588483609e-03
-5.902237501441162312e-03
-8.981850538025599323e-03
-8.513214848794151135e-03
-5.141502507241108542e-03
1.938094747134331847e-03
4.766065814635074560e-03
6.127786344089285360e-03
8.946956540639369043e-03
1.181526854702176499e-02
1.716802918100882036e-02
1.525016130165047709e-02
-8.651008800571307342e-04
-1.616143129929832611e-02
-2.270105091109256290e-02
-2.680492986026680041e-02
-2.533403817868783506e-02
-1.646784441653629041e-02
-4.617436273599805074e-03
8.575217774939801127e-03
1.628312283324387030e-02
1.865055752885548188e-02
2.152080970818412778e-02
2.239009441687576235e-02
1.586901850000415129e-02
-3.478443635901497808e-04
-9.192935104553177916e-03
-2.934188988858102941e-03
-1.937947865442466800e-03
-5.928410974578826771e-03
-9.673005452292625372e-03
-1.425461641541705092e-02
-9.588402011453039248e-03
-7.975979731030622549e-03
-1.197494818991943870e-02
-4.329191376494443723e-03
-4.059952753419796088e-04
-6.041353072687505495e-03
-9.411380030962862488e-04
1.141899126070673905e-02
1.907640088822712757e-02
2.395914409556191421e-02
2.476306998872372656e-02
2.034756481557318739e-02
1.862453172802342599e-02
1.754916923781138505e-02
7.612520305531099776e-03
-8.689760852677986744e-03
-2.418063048107227039e-02
-2.931233380141184952e-02
-2.079388232196949585e-02
-1.416166982877157046e-02
-1.734073656065977798e-02
-2.205730340050659349e-02
-2.384597519948953442e-02
-2.063654967457236727e-02
-1.297086625715731384e-02
-2.947731306349462167e-03
1.054555654844744304e-02
2.290110866471153570e-02
2.440433366874861232e-02
1.326397951037520777e-02
4.027720654837670458e-03
7.010909897723490228e-03
4.781503407903706787e-03
-9.127500114251990010e-03
-1.297058837509672616e-02
-1.180046304145812835e-03
1.747315579411437558e-02
2.862968799286402452e-02
1.548413988496233525e-02
-3.707470508415730993e-03
-5.124827280767720039e-03
4.471644281021023605e-03
1.168369813404722922e-02
-8.030385112522610714e-04
-1.630648601189284980e-02
4.147507795666355648e-03
2.274439621785290244e-02
3.621538079364806928e-03
-1.041684874452524986e-02
-1.541529360613701910e-02
-2.332494177102824306e-02
-9.008706493347421948e-03
2.884947646131799225e-03
-5.492605624873574122e-03
-8.978800119642787320e-04
1.682884546667447537e-02
3.247471597683668221e-02
4.055415219284095457e-02
4.475195611320431643e-02
4.839355258409770016e-02
2.242597944303089882e-02
-2.216512319052928864e-02
-4.324744616808436082e-02
-5.070134375312772973e-02
-5.173005000078265830e-02
-2.767342241966026101e-02
3.595689443043793843e-02
9.264141660435974701e-02
4.997695751174176249e-02
-4.896115615900498846e-02
-9.696578378881644256e-02
-1.112506474538719897e-01
-1.234777891782977005e-01
-1.255374843904363824e-01
-1.055577881716519700e-01
-1.896157728146743993e-02
8.732322535410148856e-02
9.024469819758602906e-02
4.124328343239538203e-02
4.459176874597636092e-02
5.035727115170765544e-02
4.827144549719745992e-02
5.222144672246700758e-02
6.405352883391099428e-03
-1.318630489260315744e-02
2.508974408955188390e-02
-5.696429156064606800e-03
-4.797935337541040651e-02
3.683481945032495569e-03
5.978921337809700587e-02
6.337700315080616043e-02
6.192198291274828015e-02
7.018046306491006192e-02
5.476573339325698647e-02
2.847650109254745016e-02
3.791752288298437523e-02
5.479939786546574737e-02
3.977637705613273206e-02
2.048335807791925017e-03
-2.511675493082571667e-02
-1.579915756519913173e-02
-2.517356429156560743e-02
-8.312259823491507937e-02
-1.225960036922757873e-01
-1.169405351613678617e-01
-9.447536074284861030e-02
-6.727671634962542613e-02
2.795613074610549253e-03
1.226461163357084327e-01
1.900199219661690420e-01
1.339823877309958555e-01
-3.367876163895679870e-02
-2.169243410065202216e-01
-2.649755218104339338e-01
-2.277456439759701912e-01
-2.078912914220398811e-01
-1.192498747242681512e-01
3.467298714692219203e-02
1.986764464719869561e-01
3.417983982358571149e-01
2.725197750181514444e-01
2.194562197498438685e-02
-1.248898089599293632e-01
-1.375963524515214365e-01
-8.779073029529156635e-02
1.186456765974870566e-03
7.842312925591572725e-02
1.646385908386562014e-01
2.091280496795737132e-01
1.454062541165221378e-01
6.473431245712091275e-02
1.354407656901267763e-02
-4.856056488776041430e-02
-1.242330694064191499e-01
-1.625807307060800344e-01
-1.253087923536540527e-01
-4.085682333021065094e-02
4.349703651505192753e-02
6.378600156074661076e-02
3.971751439733279404e-02
5.965646185032002363e-02
6.277642547978286303e-02
6.226362216011426670e-03
-3.592742107681404923e-02
-5.300899701638800421e-02
-4.590108685812507860e-02
-3.999803448984708132e-02
-7.793889121211756976e-02
-1.032787381910078711e-01
-7.792233892086106173e-02
-3.741094318246983991e-02
9.884060168625412313e-03
8.982046863890011390e-02
1.711187658622912722e-01
1.760443350251677530e-01
1.247209475259949130e-01
6.862595833033480197e-02
-8.722130315798496542e-03
-8.065203631244166615e-02
-9.651596488482235003e-02
-7.169010825128602216e-02
-5.146006178263091285e-02
-5.250380197985413111e-02
-5.700323229603716790e-02
-6.840800695411483612e-02
-7.609040767024505270e-02
-4.472610873819021782e-02
-3.759645999349769865e-03
4.921457291054608107e-02
1.334268466076624082e-01
1.541475181065822542e-01
1.084581253883488555e-01
6.609630628690735255e-02
-4.606481788855219112e-02
-2.066241905718708416e-01
-2.563038244775276420e-01
-1.832893964993062563e-01
-7.198295653154110352e-02
4.228676813771679172e-02
1.294760133690474879e-01
1.450862452463313190e-01
1.024491369712731970e-01
3.156769937850425339e-02
-5.068689139801890731e-02
-5.999280225347853462e-02
6.703570813305226826e-03
3.522131736744250896e-02
-1.019286184158251472e-02
-6.627041259788285510e-02
6.071073568217163173e-03
1.590511170882339398e-01
1.381356467521767939e-01
3.203470758606352664e-02
5.704915568790884517e-02
8.820789272021170579e-02
8.098964935789376707e-02
1.398362728412913536e-01
1.290306551351164954e-01
-1.487796820076311283e-02
-9.135912099870442671e-02
-7.030406592449672809e-02
-3.871032881395193581e-02
2.417641055322541574e-05
-2.257969686037292548e-02
-1.073852790806935215e-01
-1.636437164697097379e-01
-1.222334989137160294e-01
3.462296786906315840e-03
3.378147289847070744e-02
7.363084479501826041e-03
3.201643129942666893e-02
-1.060481829733104508e-01
-3.111319423995246303e-01
-2.651755526178488642e-01
-8.157610234070132582e-02
3.278788920072368829e-02
7.807046105727216689e-02
4.367955824474777787e-02
-1.128543464854344647e-01
-1.710543705440027984e-01
2.636056305128737284e-03
1.410546281706986926e-01
2.692722069136883056e-01
3.747196765909194816e-01
1.582290720984293741e-01
-6.721454610877358737e-02
-3.143819669018605573e-02
5.551230473936034221e-02
1.726863171496829663e-01
2.092526247051928190e-01
1.182218545477202037e-01
6.179051172162429439e-02
-2.332825648897344367e-02
-1.433898640791624879e-01
-2.211529844792652910e-01
-1.949961173833121286e-01
-1.523124122949426340e-02
8.114091434798709201e-02
-1.389727934992516720e-02
-8.071926212267603595e-02
-4.180297106762551063e-02
2.520969678069426637e-02
2.848723995581714519e-02
-2.707626208328878931e-02
-4.168090218418402798e-02
-2.491516505836101000e-02
-5.359213936795700732e-03
2.853168090839892576e-02
3.367712800878384233e-02
1.222343455114621551e-02
3.226810017764235490e-03
3.586099202213069350e-03
1.259383646316284203e-02
1.091873625083290486e-02
-9.717673685638960127e-03
-1.693453633742302011e-02
-1.033199647280254839e-02
2.789350552902117308e-02
7.562880354146676865e-02
4.518104399087242290e-02
6.196721432826868617e-03
3.621035093551822071e-02
4.878189069802098266e-02
-4.620915873877542990e-03
-8.515105486098063781e-02
-9.947538156861095160e-02
-7.466002822751809098e-02
-1.618781540489588333e-01
-2.908406350458472844e-01
-2.968469062616071463e-01
-8.482946765010684897e-02
2.722527637426407354e-01
3.861972896045783310e-01
1.933187818264296975e-01
4.577981748846678134e-02
1.553359503773311294e-03
1.506402249961125324e-02
8.559022022024900811e-02
7.942036749885349189e-02
2.133297240420036281e-02
5.498573122026544774e-03
-1.108249667166939269e-02
-2.437195496230002908e-02
-7.411894008220148121e-03
3.238811694152343972e-03
-1.128322395312652236e-02
-2.279562055402136606e-02
-2.970632463628283121e-02
-4.410206979109275449e-02
-1.302810016993860218e-02
4.904872113160431424e-02
5.152721543824260314e-02
1.744487757481278170e-02
-6.072005192239456235e-03
-2.354967918010195810e-02
-2.437243906585422407e-02
-3.306812438608063009e-02
-5.707023984893444535e-02
-5.316301399829020946e-02
-3.255089032933575904e-02
-1.814532898213918125e-02
-2.699988582959759412e-03
6.023623407400657999e-03
1.085727692302624822e-02
1.853134223917290990e-02
2.335970753577191333e-02
2.600533520802837673e-02
2.543634334230045549e-02
2.378830707303846229e-02
2.040380009798654914e-02
1.112448162469134236e-02
5.520889803344497439e-04
-9.978543336837161770e-03
-1.196307443921600447e-02
-9.988612442892060711e-03
-2.021902848791067714e-02
-2.389202389033521709e-02
-1.821807193282783469e-02
-1.965020019373007326e-02
-1.452179792868296682e-02
-3.514375605081825928e-03
2.927306055941339413e-03
8.099261466865455977e-03
8.707913376749263148e-03
1.042262787145750019e-02
1.682492380868534990e-02
1.698471122179941867e-02
1.492588680440649733e-02
1.893112512340007839e-02
1.732450087066102554e-02
7.331845320652578303e-03
2.161246371156381151e-03
-3.584229310173948132e-03
-1.301418388606967805e-02
-1.359807948859641409e-02
-7.661159183830149738e-03
-1.940165395970837054e-03
5.222395461852076017e-04
-1.473637346985798248e-04
1.292244288502895303e-03
2.534484428573971927e-03
4.933201892957139560e-03
8.436685655963015867e-03
7.653851063505868677e-03
6.250361604504215199e-03
3.650739260966501514e-03
4.107955188546239650e-04
4.939253923535958865e-04
5.764789715401692077e-03
9.963585381338837740e-03
-7.522081125802377970e-03
-2.552376827510431309e-02
-1.368491003055603318e-02
-1.182419601988198964e-03
-2.182049895666291601e-04
1.790538411091819378e-03
2.796280585529898385e-03
6.315773948764989536e-03
4.068005285186367115e-03
-8.967008220174116622e-04
2.943942121963318524e-03
6.010727720836512656e-04
-4.664081837302862937e-03
-3.693577055651408800e-03
-5.881576900410410633e-03
-7.625860040101512319e-03
-4.951966746887596395e-03
-5.318747892424300879e-04
5.171824199245272403e-03
7.453540050566789289e-03
3.544937002824590129e-03
-1.342484331764149047e-03
-1.645854564604016515e-03
-9.912940354806839150e-04
-1.513208618938513767e-03
3.530668786065242022e-04
7.874102988182284059e-04
-2.218524700416428345e-03
-3.035146439507859211e-03
-2.167138913494501273e-03
-2.612164824313575884e-03
9.526037110478895132e-04
6.669983951151328694e-03
3.823331312719602509e-03
-1.697632642544260337e-03
-2.551245343461021504e-03
-2.599983749305195303e-03
3.144930877086257997e-03
1.171138958920532082e-02
9.795638739215243446e-03
1.357991680663269253e-03
-3.001632119240782350e-03
-1.020998068202326340e-03
7.857446101033978194e-04
-2.196678325784937741e-03
-1.895819910849049373e-03
-1.989701102776991314e-03
-8.286664306566811009e-03
-2.810644994591513044e-03
7.577097257793346217e-03
1.269173311437724961e-03
-1.756060677012831472e-03
4.008599155962173574e-03
-2.200951644905915598e-03
-8.346732744409267671e-03
-4.803217951275212498e-03
-4.539014740196727765e-03
-5.572421889576775235e-03
1.387925234992141554e-03
9.669640221868882821e-03
7.483861326596670353e-03
1.859280487227542430e-03
2.986316980090735493e-04
-2.020539303742341624e-03
3.561443774630670663e-04
5.157385809283577226e-03
3.043714867823256714e-03
1.126942557481495129e-03
5.792480338687000345e-04
-1.421538977408971218e-03
-3.496637577504404680e-05
1.984517747577133756e-03
2.787176173026596673e-03
5.760912408581620771e-03
6.719406697825757065e-03
2.104623859744815181e-03
-2.647469742260364235e-03
-3.767543104776205007e-03
-1.004462925759409472e-03
3.821922382204775374e-03
2.815030446712072330e-03
-3.397144821376665846e-03
-6.032734390165372766e-03
-7.292770832862126990e-03
-9.945752359734586281e-03
-8.564924608371200440e-03
-2.767688572429454451e-03
9.015617980917076807e-04
-7.304505102252245932e-04
-4.229258302127576925e-03
-5.546589874270907612e-03
-2.413443750540988659e-03
1.967882893811877601e-03
1.697878967175499082e-03
-7.408972776217588249e-04
-1.255589314492482501e-03
9.429981445998209541e-04
5.688722901589422266e-03
9.152823393032697569e-03
1.065807873976310112e-02
1.032150467290889398e-02
5.448169493800950752e-03
-3.747641170151968810e-04
-2.149148058192401449e-03
4.510002296912888958e-04
4.223907169145646977e-03
4.748568242850651801e-03
1.520584036940219718e-03
-2.603852196163045692e-03
-5.133278032249288976e-03
-6.937982063568472191e-03
-5.514676019283841490e-03
5.895321160770032945e-04
9.956926860105401022e-04
-2.834506502554466015e-03
-3.697169674691375835e-03
-6.525170396273856019e-03
-5.362392626860525841e-03
-6.190853472943537699e-04
-1.623244277415699603e-03
-2.739939029724458835e-03
-5.678113343031337967e-03
-1.023871997798696427e-02
-8.382413713766636090e-03
-2.350910673039881531e-03
6.192740125380800757e-03
1.111873342219977384e-02
1.041477391823823068e-02
6.200347781242412926e-03
-8.771210414966151923e-04
2.956979690392403173e-03
8.479099549053932885e-03
4.819194530664715898e-03
7.596638041737744512e-03
9.152690664089293757e-03
7.542476728933447672e-03
4.311417494222601760e-03
-7.171750305164170149e-03
-2.167409418871835570e-03
3.106826510916604195e-03
-1.553640620323802797e-02
-1.615851717165838961e-02
9.925367377912901103e-04
5.434274013048572861e-03
5.570097855931909099e-03
3.611403531907197983e-03
1.129877985989573893e-03
1.511494377499690740e-03
-2.917546943479012393e-03
-8.604732015487491850e-03
-8.170013209094438220e-03
-2.874768958976720717e-03
2.139277506358812277e-03
4.766596478065980580e-03
3.258329858325822656e-03
-2.016713519017993787e-03
-3.125478739940292742e-03
-7.905628877783427806e-04
1.554864136080460904e-03
5.733968475806536409e-03
6.754946181737761512e-03
2.885522445136554093e-03
-1.185498505448146335e-03
-1.263210360099327381e-03
3.703462355473548630e-04
-2.257891421957954406e-03
-3.339609928683061335e-03
-7.280311397145320133e-04
-1.087274184953056829e-03
-2.104163974835606375e-03
-1.044582901347329736e-03
5.503229753881382124e-04
8.537853567165721051e-04
-6.630446770796898440e-04
-3.382045788549791192e-03
-7.297226826702512409e-03
-6.386885593342768279e-03
-1.423328838912935772e-04
4.569181818496556406e-03
8.470230126792941197e-03
8.361329883202222105e-03
3.261233098980025665e-03
8.119310502888907842e-04
-3.267253785654325145e-04
-3.493730040819212606e-04
1.501662530174138711e-03
3.709215974639690000e-04
2.536984462716061046e-04
7.680469327057904078e-04
-1.892114259224886427e-03
-5.107983287754005921e-04
2.694247550883318871e-03
3.065265509096386752e-03
5.496698996047871301e-03
5.515712569789344051e-03
5.261423673325339159e-04
-3.418540325321021284e-03
-4.718338636223376806e-03
-6.767557106373281927e-04
2.704009689240126184e-03
-3.979256326878296592e-03
-8.622267965673474643e-03
-5.788775074878710347e-03
-7.238912939720204553e-03
-8.755398080307844749e-03
-4.566626883918662935e-03
-1.039538114121225931e-03
-1.403671030649589853e-04
-2.085002282480189276e-03
-2.898109406915897520e-03
-1.782026223252925184e-03
-3.599936831445677693e-03
-6.045107277810683180e-04
3.110389902509592529e-03
-2.331738561301612261e-03
-1.999726970038799567e-03
3.927269826170609948e-03
1.333658868948101994e-03
-1.613075653433246369e-03
2.021015656878031707e-03
4.584573656078434409e-03
7.513930130206166423e-04
-2.004986627689181282e-03
-6.844287448683988948e-04
-1.973228008433965813e-03
-8.241940561870301162e-05
1.847386953832672908e-03
-3.092148062931354864e-03
-1.250675451658925892e-03
2.465808599080166873e-03
-1.766585139834748151e-03
-1.544302294559863047e-03
1.996473676705430318e-03
1.458576758099152087e-03
-7.814282407676718858e-04
-2.726672661497912299e-03
-1.966891429406424172e-03
-3.461546842188908480e-04
9.140556794612851848e-04
1.384072055118046709e-03
1.511263965226859588e-04
4.422034028539899211e-04
-2.701503287513804495e-03
-7.943732665996237549e-03
-4.854897170329839154e-03
-1.469138406066467385e-03
-2.582048917218035013e-03
-8.493474666830305156e-04
-9.785544789918175328e-04
-5.459076728675409280e-03
-5.884113607802286643e-03
-1.974007469540234230e-03
-1.573740407889863283e-03
-1.655481498743020287e-03
1.317180526948277808e-03
-9.398165687044521309e-04
-4.160213167716906614e-03
-1.811090107146040963e-03
1.144023674376337630e-03
4.010116145468489018e-03
2.236289803521035111e-03
6.486074810331659830e-05
1.438428826312641417e-03
-4.726835941211570032e-03
-6.027125696950366707e-03
7.264022132796054722e-04
-9.450831243535540290e-04
-1.284804377361422776e-03
-2.300534167568432566e-03
-8.272744522052011273e-03
-5.205452130441093860e-03
-2.037861049847042045e-03
-2.913055243321155223e-03
-4.482713861825237626e-04
1.367310919914858100e-03
2.346284543202238528e-03
-3.420105666159920410e-04
-4.121457724445664293e-03
-2.258352762501051811e-03
-9.352208914679732872e-06
2.056220141355407510e-03
3.216234214351568720e-03
-3.478721359460886344e-04
-3.518843850960739605e-03
-1.784932164773499891e-03
1.896809877254337050e-03
2.522550301228923889e-03
3.104456853486137896e-03
3.556861048049156371e-03
2.423424728354883382e-04
1.717126411568573085e-03
5.737426732404918295e-03
3.698695966339692401e-03
3.589284871739103198e-04
-2.378143281805514785e-03
-2.634052836218887545e-03
-2.403742429451567568e-03
-5.485259509058977405e-03
-3.841464877364911788e-03
1.493181500518102063e-04
-5.295735713873903983e-04
-1.534442147891736628e-03
-2.470314626257534910e-03
-3.308676393382563481e-03
-7.394604807591747099e-04
1.239042956695064843e-03
-1.636233788658885552e-03
-1.066906967071418015e-03
2.623099455551902021e-03
-2.825443402629205548e-03
-7.007756230870501070e-03
-2.575105147049299228e-03
-7.537143579890642287e-05
1.318667492192625778e-03
-3.975072537253355152e-04
-3.400684097466715860e-03
-3.493887914814176009e-03
-6.593033162997235380e-03
-4.532073866059312117e-03
1.932770229518767161e-03
4.498120292926974760e-03
6.206212031937137844e-03
3.114711289098544625e-03
1.608385026206812698e-03
2.322180787579872056e-03
-9.998163890186835285e-04
2.252854197007276259e-03
4.106140154843463015e-03
4.950058811455078714e-04
2.474989905974171039e-03
4.249952711013730081e-03
5.294455888018504211e-03
5.332820779849250549e-03
3.650175495248520873e-03
3.743130261229351413e-03
1.079791826686081002e-03
-1.494017164700689546e-03
-4.715251273304200616e-03
-4.163147891927422399e-03
4.870864176498897885e-03
6.687484406587268677e-03
5.450997855396697879e-03
1.644314611682240468e-03
-8.324349189350804118e-03
-4.368745632702680445e-03
-7.725869878442348168e-03
-2.802358561762171088e-02
-2.329604241089272901e-02
-3.787084859131667740e-03
1.170419393968804645e-03
1.220398575553578681e-03
1.766149467535229559e-03
2.197831544506981087e-03
2.758011010999849785e-03
2.560031937209838755e-03
2.850414710619798581e-03
1.727481957184207658e-03
-1.644376971882585388e-04
-5.979888850619060421e-05
4.573202984907898463e-03
9.852640949845295482e-03
7.754882562693383476e-03
3.961985264983879790e-03
1.448108874226579617e-03
-1.469217427627237966e-03
1.991283797334672621e-03
3.940986531790402134e-03
-1.004998937638037094e-03
-1.682525019430493925e-03
-1.130226469103417369e-03
-2.118695192381006825e-03
4.576677408419593199e-04
3.734004458802149019e-03
5.389032976454005523e-03
1.321763717769943195e-03
-5.774833038035945970e-03
-6.994797254800223969e-03
-5.575535069998052012e-03
-2.247676893220937853e-03
1.099597989445515655e-03
-1.313047566191012823e-03
-2.663034605067708931e-03
-2.213818126586959440e-03
-4.116924057652144447e-03
-4.336279557424277051e-03
-2.747470819778948404e-03
-1.146062484956233908e-05
2.768890919958435799e-03
3.359141148763411695e-03
2.703105050528536134e-03
4.197586593016163956e-04
4.247190777608633922e-04
3.620358706313954109e-03
1.625150676833738263e-03
-1.746589702584350938e-03
1.083166847728782127e-03
1.998925624057067228e-03
-3.465173423154094333e-04
-8.959622414683410209e-04
-4.376189158151378225e-03
-3.482539931272158121e-03
2.402747495915456485e-03
-2.124993368949040957e-03
-3.477567216817889582e-03
3.946408325491116038e-03
2.104712886694615637e-03
9.970576874860354716e-05
1.603567704844920463e-03
-9.111677073430191716e-04
-9.610675044392270622e-04
-2.393573355005226572e-03
-3.678356777235941219e-03
4.896635305048910379e-05
1.268995707022889212e-03
2.593724418737592720e-03
3.530223911197975881e-03
6.507654735702947217e-04
-1.117986181547343198e-03
-2.243779486609516136e-03
1.484590248769717107e-03
7.438431180201928589e-03
3.108301942976938667e-03
-2.544143312929092807e-03
-1.712158734695578329e-03
-1.970303173608837881e-03
-8.030667884332318542e-04
1.584729763008982167e-03
-4.496743581815678520e-04
-2.072686113693582560e-03
-3.313653724958080717e-03
-6.347008948591931037e-03
-5.081718301037696332e-03
-8.846887715362295552e-04
2.752329586423333044e-03
4.948497279963808698e-03
1.141443239588914478e-03
-3.103261749127061986e-03
-2.437018187014147654e-03
-2.087175531699865701e-03
6.190107433149554016e-04
5.280835926992829069e-03
3.739682327677510375e-03
-2.636225187633498544e-04
-1.448197265388204277e-03
-1.767073580486750763e-03
-1.618717843976727466e-03
-9.920347553947733536e-04
8.437703970356287466e-05
1.314644118311878752e-03
-2.690370429856300490e-04
-2.657747234235795925e-03
-2.850566661722757117e-04
1.724824987617752789e-03
-3.447192423335448909e-04
7.836468180040346643e-04
2.780585959301193951e-03
1.213485423636417654e-03
5.409750220383432269e-04
-7.680824737803980612e-04
-1.420388837226352775e-03
3.865062222860763536e-03
7.829888319402939986e-03
3.488542058154256442e-03
-2.602772080341966311e-03
-2.906604549571084085e-03
-1.271633131155765380e-03
-2.302584683695483355e-03
-1.619531782385938380e-03
-5.002448666035982927e-04
-3.421949133530702639e-03
-3.200973058857007128e-03
2.350977838016471075e-03
3.695508982426924226e-03
1.901913709312511806e-03
1.790162599233267263e-03
-3.495958571382383863e-04
-1.515227583811922267e-03
-2.709049597515212921e-03
-7.723877218075048123e-03
-3.929610743330952394e-03
4.997041384914341529e-03
2.583151446691479055e-03
-1.765912999528701250e-03
-1.264990082233962386e-03
-3.091624104586223644e-03
-3.801259445253010651e-03
-8.885166837419856663e-04
1.464796033231591070e-03
3.263377532666196339e-03
3.974122797662561074e-03
1.220556721278088716e-03
-1.150608834728120649e-04
3.630344334635721669e-03
4.389739175683870370e-03
1.252578211073967400e-04
-3.376453214379386818e-04
5.345324368036231087e-04
-4.047308570575487360e-03
-5.286725039138295834e-03
-5.637714356951951120e-04
1.312297987301984555e-03
3.637864913630472260e-03
4.607621716135438389e-03
-4.058267635052843596e-04
-1.677463192086019964e-03
-5.152797344809936005e-04
2.338564878261345818e-04
4.531174598066960331e-03
3.661912975488741239e-03
-4.438300157508006695e-03
-8.773238223908619987e-03
-4.025806773579107718e-03
1.912235686071955300e-03
3.093072020802176917e-03
5.451677622699793030e-03
3.566037279533953910e-03
-2.880756924577068927e-03
-2.711745508317309032e-03
-2.066009909098557445e-03
8.070891974988687509e-05
5.148855162002943971e-03
2.697680907495788195e-03
-5.268715831913226445e-06
-7.783281430856080381e-04
-2.519663356306216413e-03
-8.525413369491141808e-04
-2.037975440661760149e-03
-2.370397203294319962e-03
-4.408686764976611880e-04
-5.316069368395359880e-03
-5.196589895112571460e-03
4.672096575306658797e-04
-6.165667598547687651e-04
8.230862917758554297e-04
3.909937934313835114e-03
6.726040135024372729e-04
-9.102698450383564640e-04
-1.109961412270080074e-03
-7.340167926819751677e-04
3.365992485353859042e-03
6.201197897432240806e-03
7.153711834818064601e-03
1.731067372560606910e-03
-5.664990271042054208e-03
-1.262365524099480062e-03
1.780010342111432338e-03
-1.162325353629783085e-03
-9.400969620410258012e-04
-3.617770278065244628e-03
-3.262452464346204603e-03
6.220477441111092395e-04
8.639740373055131628e-04
2.245332861875665945e-03
3.180793562460617046e-03
4.653634668339273923e-03
3.753638018340146789e-03
6.525849130151545807e-04
7.191216415599931480e-04
-5.596709291564037729e-03
-6.210888228766142660e-03
3.372204069480651874e-03
3.196019518404585348e-03
2.688093085472771453e-04
-1.537206996528582906e-03
-3.238180836464613077e-03
-2.611717325004832453e-03
-3.588181572691777864e-03
1.313304567720476046e-03
2.220521625584562491e-03
-1.487432203687527469e-03
1.031307199974451682e-03
-2.445959521634232057e-03
-9.374668476709224676e-04
6.107240931669847064e-03
6.830438940454248639e-03
7.201232369676995732e-03
-9.635104442138388639e-03
-2.423904245483922068e-02
-8.549951866196106240e-03
5.020397152401630606e-03
6.442440856604491999e-03
4.839786380119710449e-03
9.581915799005382350e-04
2.321598811133244577e-03
2.479049231611277129e-03
8.815167996552763976e-04
9.741100988192427559e-04
1.054772097644512963e-03
2.382238008380702446e-03
6.834166004363691942e-04
-2.608327071897235689e-04
-6.731272106133339914e-04
-3.384217212169952742e-03
7.206724006922617066e-04
4.069213614925049592e-03
-3.260706833415116584e-04
-1.057527505081727040e-03
-2.959826677681743061e-05
-3.625303122818068508e-03
-2.361407747603107721e-03
3.944215999688292264e-03
3.925430178151430825e-03
1.549720823615931839e-03
-8.555299459740016606e-04
-4.867663855668508642e-03
-3.296581604347106464e-03
-4.038228818621120587e-04
1.609379445977779204e-03
4.502841045871921327e-03
2.736260700049372545e-03
-1.946530144349270302e-03
-6.842809069785692026e-03
-3.557283338382024717e-03
4.736622632657031158e-03
2.375007698333499260e-03
1.027776757310995808e-03
4.613657383333517013e-03
3.300096095475535656e-03
1.659193920720424160e-03
1.471113207885188685e-03
4.505519031958906372e-03
5.341574271955535323e-03
3.885596327943247920e-03
-2.289491853122995423e-04
-1.985215868486664079e-02
-2.528411641138042162e-02
-5.012915298626199889e-03
2.845150573118868185e-03
3.831106547262081059e-03
6.179064251834434987e-03
2.803713450292425521e-04
-1.389549221883384618e-03
8.802600774674639809e-04
2.051312347643367666e-03
2.291259297728846268e-03
1.119332750104973804e-03
1.520966313335333272e-03
-1.685353017263133309e-03
-3.444464826846511778e-03
5.655861575411699716e-04
3.627874394764134258e-03
7.144581625100980202e-03
4.322084894211987785e-03
-3.339101474885660444e-03
-2.040800705036691521e-03
1.850397637925010929e-03
2.758653404273363283e-03
3.524091000619400393e-03
3.822036895201968987e-03
1.746277006492694042e-03
-7.406954296253919282e-03
-1.253444948407746867e-02
-3.835825764669832834e-03
4.520876833919492549e-03
5.314892519058672660e-03
2.978101891914071171e-03
1.124049980140869520e-03
-9.952961822234968232e-04
-5.239475611739766864e-03
-1.158702228979099306e-03
5.289142952891803806e-03
3.617127827989905951e-04
-2.103658827075546509e-03
-3.843327496215925886e-04
-7.658919233616323695e-04
1.620358227058087738e-03
1.128577021312008981e-03
1.143253707056982732e-03
2.552042154760123145e-03
-5.474510308632111978e-04
-5.069511605755906442e-04
-5.429804947342643882e-04
-7.389973587748619507e-04
2.836154532731790558e-03
3.353340707802540330e-03
2.787120661422763050e-03
-3.095633854412261406e-03
-1.046873973220863868e-02
-6.003068137289338177e-03
5.232367850328694964e-04
4.634077258217733121e-03
6.622790352576430652e-03
1.537142348228428537e-03
-2.876728347782521802e-03
-2.501559217832951751e-03
-1.642570226923269336e-03
-4.925429225017663622e-03
-8.034037429686275225e-03
-3.830603840308036828e-03
-2.323390495167467135e-05
5.318258925278002407e-04
1.906074958473968385e-03
4.586392702384860243e-03
7.497049630017085797e-03
4.946806980539353478e-03
3.230533227368223592e-04
-8.124126556351438187e-04
-9.723505947950904314e-04
4.370607878374674305e-04
2.314362886610787755e-03
3.528455459043843955e-03
5.138007914337042702e-03
5.477143742669711608e-03
2.169274838440486859e-03
-3.264761586079761250e-03
-2.825853039463546712e-03
9.302254982903236267e-04
1.439127281844783304e-03
1.653084884578445626e-03
-1.147985113500212939e-03
-6.070203812672899171e-03
-6.917745755075532799e-03
-4.984463621128256208e-03
-1.905923095471181647e-03
1.921507467465701380e-03
3.989231446641114051e-03
-1.481045665835563612e-05
-3.464557021398157171e-03
-1.861016093854429170e-04
7.179870124039087467e-04
2.551170960448756291e-03
5.424352853139368519e-03
-9.726332866192419950e-04
-6.371428962229900086e-03
-5.175940100307661017e-03
-2.056546116089072625e-03
9.849742568486035896e-04
-4.694251219456598272e-04
-1.122709573936599365e-03
-2.941190632250141124e-04
-1.741064182166407893e-03
-1.044509573886436308e-03
2.371181187055152275e-04
2.090344249289044325e-03
4.230994606495737387e-03
2.626833514022079534e-03
1.212133674831182908e-03
7.650297172196237217e-04
-8.265200336801810073e-04
3.988689202498238570e-04
6.247259173776395849e-03
8.789181162952248993e-03
1.312939694235648732e-03
-4.654471992360301007e-03
-8.121776867264868466e-04
2.379892598344375120e-03
2.927942820886675693e-03
4.054123446490418177e-03
1.068848405753456939e-03
-1.163558052415748041e-03
3.446879405832586202e-04
-7.762735506048377239e-04
-4.882624332769636187e-04
-8.037933282961860467e-04
-2.779688636659473182e-03
1.757585605254563359e-03
-1.505240544145726228e-03
-5.390832402644901711e-03
4.357638863800300869e-03
-7.663571156321559961e-03
-2.452242522945956293e-02
-6.543375826186197293e-03
6.549941925837380816e-03
1.679214154655967991e-03
1.870934113118865878e-04
-2.425977790916171700e-03
5.921232575293672524e-06
4.200680512546892120e-03
3.665727142037391965e-03
4.256226248964845374e-03
4.686098402633016315e-04
-2.640188076242205601e-03
1.447911772278890003e-03
5.529364949713609124e-03
6.414195222082453261e-03
5.033078422451488579e-03
3.044139619735176765e-03
3.159467039241356696e-04
-1.328882617921896573e-03
-1.008397260256005401e-03
-2.980963171571217730e-04
1.043559286022845709e-03
2.932329562855073108e-04
-7.978769999517332755e-04
-2.060368315278103893e-03
-3.283336004900066878e-03
-1.173571384597788935e-03
-3.122467529218496147e-03
-4.045094965563729612e-03
3.160580197455055526e-04
-1.388836620346919079e-03
-2.188135378295159861e-03
1.115689727214039858e-03
1.621063769497261761e-03
1.985831999416509588e-03
1.739536103576160746e-03
1.309449960540263721e-03
1.491981201282654252e-03
2.433449516927643341e-03
2.802959324590785072e-03
2.553660112477629338e-03
5.229073916479136386e-03
3.612248290491273592e-03
6.195961953678749082e-04
8.726373161849922512e-04
-1.373106896191156031e-03
-6.048299279062840147e-04
-5.933509319150214725e-04
-1.193479419747414888e-04
1.674484637556412350e-03
-1.367424235426378592e-03
2.072127049713413504e-03
-9.790251429412555675e-03
-2.829519572039512071e-02
-8.327088889470587313e-03
7.082269216746187382e-03
-7.852077587135677808e-04
1.278637961103422328e-03
1.049665500532303728e-03
2.716466084473066409e-03
6.232580511663791782e-03
3.292520047863426932e-03
6.928969779740633272e-03
2.879991643224925728e-03
-5.642288739699232933e-03
-4.068155644232979845e-03
-5.342748062730070732e-03
-4.842222829341591255e-03
1.187721340345142783e-03
4.299796026461946176e-03
3.968928062102277353e-03
1.615022879150922012e-03
2.478490866645676523e-03
6.219895047796122553e-03
8.065778067098430121e-03
6.015308034792091543e-03
1.185974746303226912e-03
-2.860755320170976085e-03
-5.412430535262760523e-03
-3.902578789603540835e-03
-6.327289807531857402e-04
2.238713141570842537e-03
4.523576018042936575e-03
5.793023696260695158e-04
-1.221334850465919828e-03
-7.338047318152826452e-04
-5.598146917267732281e-03
-1.784326723396605996e-03
5.035199842488143236e-03
4.705262191380149995e-04
-4.465428908663822589e-03
-4.251092827814791260e-03
-1.322446009962201111e-03
5.014520413266913054e-04
8.376073665979734189e-04
2.770979810727263338e-03
6.836580059832157870e-05
-2.818522880846041027e-03
-8.536046315971831857e-04
-8.868569232929828612e-04
1.791766231128284021e-03
5.841889939700478304e-03
3.069112161863502778e-03
-2.139763528176047425e-03
-6.364060805117551997e-03
-6.538299389408474237e-03
-1.436189396949879909e-03
2.430012553202921897e-03
2.335874683575087530e-03
1.304181841863932909e-03
7.461932446264802352e-04
-2.889321279270800746e-03
-6.018407422666348892e-03
-1.545917222089344045e-03
3.419852230489779741e-03
3.062160937650204411e-03
6.200581161750447819e-04
6.804389340207764184e-04
9.236730794160662433e-04
-5.992904085309612092e-03
-4.751669881051874718e-03
7.578993373518598010e-03
5.965583638042151228e-03
-9.400143008085528468e-04
1.079312218398385554e-03
2.654923830401923444e-03
4.035181593460638802e-03
4.241317784825195808e-03
3.779962075858841336e-03
5.402490421725649437e-03
2.858101039314105401e-03
-6.292216136644944490e-04
-6.972199773022894499e-04
7.933276584544727249e-04
2.693262970746596475e-03
2.225106509396984362e-03
-1.780697413246053835e-03
-8.274347146941505443e-03
-9.252660233979102811e-03
-6.057315391953733107e-03
-9.529426885783483583e-03
-8.400384805183236381e-03
5.676637490311083403e-04
2.115011316521737180e-03
-1.877498860214480716e-04
-2.413105812950675335e-04
1.788933344399247114e-03
5.210554356765643991e-03
5.222497422007785911e-03
5.900981807820164515e-03
5.365591541310653703e-03
-1.676049601194155208e-03
-3.670600011016225683e-03
8.542251213061347482e-04
1.722553103180214954e-03
-1.507033026435233196e-03
-5.483717542029358828e-03
-7.473583128084657252e-03
-9.277482541380471792e-03
-9.981381052045447053e-03
-4.181500808165247718e-03
1.624582989533027632e-03
1.654848648091182279e-03
1.349531829972954030e-03
4.441817559229776884e-03
7.078117341854440678e-03
4.618337202351753545e-03
7.352296439960996806e-03
1.708203111521911302e-02
1.517296391702439504e-02
6.694712683833215980e-03
3.737078819365125676e-03
2.904772427800553680e-04
-1.906229424490951565e-04
8.926822850395168402e-04
-2.832226102006191876e-03
-4.217703287227814180e-03
-4.548381661991112747e-03
-8.366976934081652231e-03
-9.690190441597617416e-03
-3.367832412400351139e-03
5.288223059194383652e-03
