2.000016731934658315e-02
2.561044103637076519e-02
1.147609729910953683e-02
1.101875645649463657e-02
8.838051661544180093e-03
3.826005709273380424e-03
-3.145144610553242404e-03
-5.424177790260268327e-03
-5.702639022327359378e-03
-1.154469264403605068e-02
-8.436337336336106885e-03
-3.618955968862203228e-03
-5.575247216489464565e-03
-4.699681594917804080e-03
6.809508836514270862e-05
6.562583179337235471e-03
7.208517739081540983e-03
7.151349939223916943e-03
1.358662352373700768e-02
1.333028345742527480e-02
6.883077908762082545e-03
2.746188250624573279e-03
-4.481227834882482003e-04
-9.408647169129644551e-04
5.896293014493081582e-04
-7.612860560279348029e-04
-3.794860282387587432e-03
-5.271083362648220673e-03
-7.644806898939249945e-03
-8.120221421639079937e-03
-2.978063540077769810e-03
-3.852529141174781545e-04
-2.804025181292234617e-03
-3.583331653823404635e-03
-1.762713204002156050e-03
-1.702193124442337360e-03
-1.832260736836887564e-03
2.230464210129008088e-03
4.793694096926111488e-03
4.769015906564066584e-03
3.214196793811008139e-03
-2.373564785595991787e-03
-2.866930821775105168e-03
-1.379041369422126908e-03
-4.464303535133445563e-03
-1.921995584301463677e-03
1.664916893127316524e-04
-3.252080734579509275e-03
-2.024243768284057256e-03
-4.587080975722680276e-04
-1.940634411362033521e-03
-2.999378922136099711e-04
2.252651593442189966e-03
2.374136066185770187e-03
2.767735166673973134e-03
5.382016962693502923e-03
8.920361221635912663e-03
8.868125685581639342e-03
3.236811116652153677e-03
-1.310660857938376542e-03
-1.829597885456534997e-03
-1.708628996593458812e-03
-6.293868734676156271e-04
4.875535583895586030e-04
7.637699245420938960e-04
4.186155176649559344e-04
-5.289606560104612078e-04
-1.589923594801834986e-03
-3.477484644576877854e-03
-2.614792235640174805e-03
6.478610529784201632e-04
1.089626193867297222e-03
4.396003427957328319e-04
-1.611151953616959606e-03
-3.861711248829045786e-03
-9.661111324212557847e-04
2.095738680623010410e-03
2.084355788392443644e-04
-9.413528971111470968e-04
-4.137783278660067318e-05
-3.550977805313193167e-03
-5.590135034439176753e-03
8.644286750134989926e-06
2.917946536329112453e-03
4.030201527633365567e-03
5.514944237868101007e-03
-2.114381774919030558e-04
-3.000719080666421242e-03
-4.573320986544907908e-05
-5.686811506012308393e-04
8.285303841855496494e-04
1.976538187835157057e-03
-2.156237013611216839e-03
-2.931553802061104969e-03
1.453908631455635677e-03
3.843537640941621127e-03
1.713521219598677751e-03
2.073944408984390825e-04
1.102951427257444286e-03
-2.104051932210635682e-04
-3.162685820782789540e-03
-4.579321972353972425e-03
-3.591462262409315324e-03
1.952981509754997337e-04
2.851326547802600971e-03
4.061070367661236266e-04
-1.005226307211898838e-03
1.301167975506172143e-03
-3.379635850920187151e-04
-1.262113033874893596e-03
2.882856498077086566e-03
2.708122719134281944e-03
1.540712082838737243e-03
3.257321401227083330e-03
5.166108513817010625e-04
-3.027876488614510055e-03
-2.959033942050072301e-03
-2.970780436382037398e-03
-2.730233154035836482e-03
-1.746625164189105151e-03
-2.294136731993754244e-03
-2.640629872812794935e-03
-1.082312061800445960e-04
1.692670418123453898e-03
-5.280719081447518017e-05
-9.508980218101456376e-04
1.396454423905099055e-03
2.290882281112541392e-03
1.170270228106405890e-03
3.043503214284557033e-03
4.288816697092357778e-03
6.382098086455770822e-04
-3.791937666313514779e-03
-3.376841723375567563e-03
3.522844017032091251e-03
5.449419458749415676e-03
1.563404603039331370e-04
3.167797092623949608e-04
2.857016962882209278e-03
3.397822831111124361e-03
6.952280788563741133e-04
-5.471980100964136777e-03
-3.960205444830710957e-03
1.140399863920848545e-03
1.286733771798911430e-03
-5.828607228998976438e-04
-6.173593969624524341e-04
3.399201403528428686e-03
7.313726381263033075e-04
3.803769319501103773e-04
7.524394755376808200e-03
-7.802464942127249753e-03
-2.320851693370937566e-02
-8.725266149873971491e-03
3.650692749479093890e-03
4.938522481039387020e-03
4.452035602433800782e-03
1.162427144339782262e-03
2.773240639099359105e-03
1.577133812188875059e-03
-5.051183206835179081e-03
-3.894566184869029286e-03
1.729137256605789300e-03
3.906292281071094795e-03
4.047558298000460825e-03
2.680657451309407299e-03
9.749675096110908259e-05
8.788928092610909064e-04
2.472731239503651000e-03
8.983223309718083461e-04
2.014969228487983009e-03
3.077753798369243024e-03
2.208997368301504290e-04
5.992607447238487836e-04
2.970995372904996091e-03
2.096950793846031214e-03
6.744307074069392930e-04
6.422304551064657871e-04
-1.409673717208843272e-03
-4.333169661010181917e-03
-3.070889629859213654e-03
-2.618263227222987835e-03
-4.955453393856973365e-03
-2.908702327985198885e-03
4.605674773207081292e-04
-4.575512894909770315e-04
-2.081461628332937491e-03
-1.676039394545716455e-03
-1.289282427460962561e-03
-8.562811585043838495e-04
2.383085823502107715e-03
5.862141485654906448e-03
4.155232265629509730e-03
-7.304634689865233252e-04
-2.433851596144873813e-03
-5.261720568277575500e-04
1.764952935744310567e-03
3.471651852728380172e-03
4.046416021877431018e-03
2.297988343038011999e-03
-1.717677479060669742e-03
-2.868864438499530573e-03
4.678303486641338313e-04
1.598047640819285665e-03
6.621487490666274007e-04
4.436612922613069319e-05
4.975839683328871915e-04
2.245047726796060850e-03
-2.164742721798180568e-03
-7.618969966993208338e-03
-3.981527996705815434e-03
1.408945806976755807e-03
1.738419075565016429e-03
-2.640483911304780662e-03
-4.320085870438477790e-03
-8.178399765914744646e-04
-6.135280526403314501e-04
-5.072341160943357125e-04
1.658349934710139301e-03
2.788268775034330547e-03
2.991481639986627323e-03
-2.718653625690025310e-04
-5.629439800994216455e-04
9.026195216568843683e-04
-1.533881436284601071e-03
1.192028904135826028e-03
5.337769468992797743e-03
4.024191239512558971e-03
1.411416320954895446e-03
-4.459370348332565960e-04
8.414673532135633635e-04
1.500413751143195307e-03
8.827228031760754080e-04
2.088891182826765284e-03
1.036297796172449843e-03
-1.563836077634570573e-04
-1.090579653959414773e-03
-2.127274690764287962e-03
1.104354084605547928e-03
1.594195944824762338e-03
-3.191585770958469195e-03
-5.869129856498021651e-03
-5.653867130573380154e-03
-4.674093874822195412e-03
-3.143922887078667849e-03
1.433502496929560562e-03
4.975612731708645847e-03
1.639766073711001245e-03
-1.750015991410255271e-03
-1.719336719839398503e-03
4.825920253843887136e-04
4.511292056613862983e-03
2.973772232617142956e-03
-2.586000185747246551e-04
2.421666405237356528e-03
1.898560571732280751e-03
-7.041316118023298104e-04
3.642171212027364453e-04
-6.498225421371581776e-04
2.468683781986397456e-04
1.374404833434721704e-03
-3.619712431117552871e-03
-3.687850180007313204e-03
1.216364158475998164e-04
5.525202430913415735e-04
4.407070095217233315e-03
6.916471148173115695e-03
1.643809234330834666e-03
-3.442491430260738276e-03
-2.982988982731360917e-03
1.058559236582428276e-03
3.719057323534165176e-03
2.088873335104716317e-03
-2.555308212288271222e-03
-5.042702711120667161e-03
-2.184341744107319398e-03
3.368821099633459827e-04
-5.710136727230584550e-04
-1.306367202866156501e-03
-3.949436493848934365e-04
7.744837250558619934e-05
-7.974006954069825159e-04
6.961932820657734146e-04
3.484453186596297644e-03
2.666323305340674577e-03
-1.810450133954912715e-04
-1.504652096285017272e-03
-4.124324808293143097e-04
-1.422810329446078104e-03
-3.407640307619629397e-03
-4.921910946477126318e-04
2.185749666190776441e-03
4.118647129846406650e-03
4.324685579039716336e-03
-1.362482524015585844e-03
-1.690861277676952061e-03
1.194928848972787519e-03
-1.003735074947730921e-03
3.359293708813953670e-04
2.471071219554613670e-03
5.709867793514185764e-04
-2.240483355198987121e-03
-4.684774821466961350e-03
-3.346352622955936322e-03
-6.712578301785651885e-04
1.580086492375683705e-03
1.763858898317960692e-03
-1.767253541136860027e-03
-2.680843687989291867e-03
-3.936531244289157537e-03
-5.021318611849170596e-03
-7.627800045235313010e-04
2.005210127426421737e-03
4.119939124990634575e-03
3.699791385331219207e-03
-1.690525331984692571e-04
3.588943127188519086e-03
6.206955158412775196e-03
2.009482834530610350e-03
1.732759536688782123e-03
1.571830490928899067e-03
-5.123098697701948491e-04
-9.322265565416396798e-04
-1.927379421019883568e-03
-6.583893532998843579e-04
3.105334140905967408e-03
3.046054984408558004e-03
1.107800029791261619e-03
2.930864140066714776e-03
3.265121084148722881e-03
1.501946395745610695e-04
2.028921080210394686e-03
5.531515735094844240e-03
3.018593815874634750e-03
1.178981142239461264e-04
3.770981035442814121e-04
-6.193912307312051876e-03
-2.193998863633740345e-02
-2.352022398391783245e-02
-5.218245993640123134e-03
3.873690577071518988e-03
5.063772893374502869e-04
5.198216105633422443e-04
1.009417683505053421e-03
2.842913337912612685e-03
5.817824674516833966e-03
5.131949167696769031e-03
4.420366083507636795e-03
-8.339233021708138474e-05
-5.588302669883593761e-03
-2.882560085040189891e-03
1.686530840140709493e-03
4.965685032549742479e-03
5.463312879438668272e-03
2.113348672355382877e-03
6.850084433786180795e-04
-8.965271758737946304e-04
1.291668592043238376e-03
5.887274225978306880e-03
1.807978405898457005e-03
-8.065297927466726167e-04
-1.059113263294900783e-04
-2.797648141962932964e-03
-2.184298423186846992e-03
-5.802126979062479642e-04
2.471870528380446311e-03
4.046153603636297447e-03
-1.938141170135177643e-03
-2.942427818020738450e-03
1.583368857918804069e-04
1.035075125036304545e-03
3.096329330892972839e-03
1.267312427236297811e-03
-2.634063490043715532e-03
-3.455059866571341502e-03
-5.210607194146144169e-04
2.724889794188768005e-03
5.009952802819341196e-04
-1.502515508693284168e-03
-1.269521854689009037e-03
-4.833532571793392450e-05
9.391878316538928792e-05
-3.957035147518235714e-03
-1.462729604778125001e-03
2.466627709305176108e-03
-4.401761250334201359e-05
6.545461834629109779e-04
-8.256166249953691971e-04
-4.086761560895571695e-03
-5.018722820710946886e-03
-5.649857923962883950e-03
1.098734104665234027e-03
4.684695269784619129e-03
1.842168332479734213e-03
3.887533874169139727e-03
2.088278982831694337e-03
-1.275262109369874148e-03
2.104054003972357333e-03
4.161362269937878521e-03
1.440198867499532668e-03
-2.631015048045358060e-03
-3.994615820925973004e-03
-2.474593846176023106e-03
-7.983496679838014741e-04
-1.261887682240769035e-03
-8.836794804334216231e-04
3.165625980258311191e-03
2.373365775727225620e-03
-5.148296293307712658e-05
1.296528302762731902e-03
-9.813731614807723411e-04
-7.069091307756163872e-04
2.839891983357024918e-03
1.937181613631787152e-03
3.614601215569015601e-04
-1.046714268600678396e-03
-2.930698524929569457e-04
1.641363320476393320e-03
4.546710295108629622e-04
5.999047043866827245e-04
1.747312369947718940e-03
1.080173595029666544e-04
-4.397130721582714549e-03
-6.544598876004199296e-03
-2.585216308431515994e-03
9.983593249237824197e-04
2.777076835894737826e-03
2.807031853541880600e-03
1.043476055547567409e-03
1.376580244238704209e-03
5.868770521566462695e-04
5.866497242517753740e-04
2.235509448131398416e-03
1.664489388735479686e-03
2.403253581127764126e-03
7.096212914715761648e-04
-2.328208593099301889e-03
-1.950630271117611289e-03
-2.775204663574315587e-03
-9.476057285878205193e-04
8.593096706139838814e-04
-1.190188207728906785e-03
3.741337706651297660e-04
3.086940603774037425e-04
-2.244874151051308615e-03
-1.584365906117596225e-03
-1.021733821241755519e-03
1.084110750543948497e-03
4.279994402982962827e-04
-5.270821661130694648e-03
-3.893926832123487114e-03
7.256052656386570562e-04
9.250145152050432231e-05
1.390068575234313037e-03
3.018799946950089051e-03
-8.403329899852916103e-04
-3.028266778896827188e-03
-1.199141284600606242e-03
1.625648093051321576e-04
2.328703056979625988e-03
3.372407224911589795e-03
9.502114615180911727e-04
5.165054501406545710e-04
1.713295071762992779e-03
5.341823434854278338e-04
8.341069171999644562e-04
3.253904372185105389e-03
2.862023109925285018e-03
5.811545793831388636e-04
-7.683507763913629846e-04
-1.190035104226092912e-03
6.010859107556865881e-04
3.491583785917985131e-03
2.878913443772565008e-03
-4.743007949786301079e-04
-1.725056223298410130e-03
-9.577332200570391058e-04
-5.021462364781352234e-04
4.580367910541524839e-05
-6.406302236160176270e-04
-2.416352913414307382e-03
-1.898998842488184950e-03
-9.362309386618407727e-04
-1.098350943392458444e-03
-1.529561939540162712e-03
-2.489389033399573310e-03
-1.428095148985188004e-03
-2.018871327295305865e-04
-4.648687728313969226e-04
8.670512325388221586e-05
-1.655335235384899255e-03
-1.003066529592036831e-03
4.214806013917406051e-03
2.681003670351383289e-03
-1.853698785070559104e-03
-1.035033661123792954e-03
3.431887581961892307e-04
-3.912026761091582966e-04
-1.388735606033875527e-03
2.300356230403057510e-04
1.104376094830587622e-03
-1.865042971464582304e-03
-2.559751865513410374e-03
-1.821505934385959187e-03
-9.714208675041357665e-04
2.149088243094321535e-03
3.343395572766486024e-03
4.938325694555425679e-03
7.194507044054719233e-03
2.495292479432033219e-03
-3.980185059010088282e-03
-2.323492945482890683e-03
2.335074787051420481e-03
7.754261929616023568e-05
-2.608299170254319878e-03
3.802833736327132063e-05
-1.467934058588575997e-03
-2.865350372187487442e-03
3.409498264332272606e-03
5.781658530951666597e-03
1.954546775068286175e-03
4.304139171153925137e-04
-8.745646023552555021e-04
-3.106108458622451867e-03
-9.383993600799292239e-04
3.054062010823967773e-03
2.648146891888946038e-03
-8.042121479161924279e-04
-3.971181046826184266e-03
-4.049721324308668512e-03
-1.212205498015218093e-03
-1.341701075512227812e-03
-3.627478265551386822e-03
-1.809446278591432620e-03
1.713854243562333828e-03
7.363503081647002286e-04
-1.332229264810276450e-03
-2.618798091011033001e-04
3.475231046267799229e-04
3.531495196943186532e-03
3.806640971775414502e-03
-8.728362798268413103e-03
-1.209178580297598504e-02
-1.682803668487073715e-04
2.890192370606807590e-03
2.079671970455123763e-03
5.726955665837606992e-03
5.107489608910569315e-03
1.529964777832900930e-03
-1.967859604215896688e-03
-1.475384872975831320e-03
3.116975373760241200e-03
3.331775591788383416e-03
6.351765858383887509e-04
1.400670779364010087e-03
2.833138481919351883e-03
9.911682654080147467e-04
1.619757985040617314e-03
5.022881831013985797e-03
5.519188753068289544e-03
7.816389069186496785e-03
3.809003946076383292e-04
-1.954392242540146582e-02
-1.800428445106104502e-02
-8.404943944858953183e-06
4.381908519540188111e-03
3.900279315837972948e-03
2.602409498809239111e-03
-3.512522356673713694e-03
-3.470162840376883693e-03
-2.964188777297290206e-05
1.615512622692779655e-03
4.843098585447127083e-03
4.009475306299937862e-03
-7.179673549672062555e-04
-5.682001883449928556e-04
2.692715229076882068e-03
1.785547746209803109e-03
-3.968467084554495178e-03
-7.334238758378719067e-03
-5.413854258086117643e-03
-4.064877703401625735e-03
-4.745763138418435632e-03
-5.390058115192688376e-03
1.133132143966775803e-04
1.133331038928900303e-02
1.110619257011637162e-02
2.289388210054851391e-03
-9.704561686000635640e-04
-3.958880541956353617e-03
-4.120217657051057462e-03
1.269840898172761587e-03
1.848538509527828614e-03
-1.426761685125188485e-03
-6.477982423036541312e-04
2.902750963906843614e-03
2.571026871468388899e-03
2.422758782175000233e-03
5.162248665499825744e-03
3.291597197990461972e-03
2.494581591640159879e-04
-1.337101303053728424e-03
-1.004871942682179341e-03
1.670321902115430102e-03
1.516641186303259979e-04
4.909576201213073678e-04
1.753913495341819818e-03
1.728709431003530919e-04
1.046607972186226667e-03
-2.766971140113475957e-03
-3.432507890323220970e-03
-2.331743830977451779e-04
-1.434395504620907110e-04
6.822530979752572736e-03
-5.733960079717818036e-03
-2.810669318576109951e-02
-1.353593336864667915e-02
3.505899169507940491e-03
2.028140409172134000e-03
6.017083330895271580e-03
8.010320177621823093e-03
5.104917679379041354e-03
1.338509319885438221e-04
-1.982500470021176381e-03
2.923816183313104802e-03
3.498213712108163686e-03
3.408838441824665368e-03
3.735787898708440961e-03
6.554770368740875635e-04
-3.610593515993513049e-04
-3.315627703333069113e-03
-3.021722669077077719e-03
3.015653818287639554e-03
4.038110447769921105e-03
3.007355194423567274e-03
2.408747263343423168e-03
1.287797987500083688e-03
9.678983440869833206e-04
-4.520963968759466331e-05
1.438614137894421961e-03
8.815680562986342658e-04
-6.815565131683534728e-03
-1.187566311867016902e-02
-1.279864017318503057e-02
-1.179109474732838343e-02
-4.395934115910792896e-03
3.159642664705601157e-03
8.494145808597695566e-03
1.289577878246484822e-02
6.670119071876261414e-03
-1.573353386664116298e-03
1.844519717577576545e-03
6.012177999566704206e-03
3.801435653745789418e-03
2.079975251181575505e-03
3.504698020859378128e-03
1.453542822326688402e-04
-6.393322009580817804e-03
-3.864855578283526907e-03
2.956472614041129928e-05
1.034890663641635034e-03
2.789982771869999219e-03
-2.493660955495450096e-03
-5.174007386169950616e-03
-7.415098182628988496e-04
1.510885603911324383e-03
3.443865468021866869e-03
-1.579217101298718926e-03
-6.485947594936394139e-03
-4.381065634180363565e-04
7.684169104956242724e-04
-2.042930840507510906e-03
-1.265273299980160205e-03
-1.546396949381758116e-03
2.192335878653344210e-04
2.511658903908574672e-03
2.880807402869414464e-03
2.240030936815408727e-03
-5.641301918092615428e-04
-4.740799039525385537e-04
2.970348911546009940e-03
1.791463718051509611e-03
-3.249313538320103539e-03
-3.861105388068443358e-03
-1.185712113657697627e-03
-1.019313766630926699e-03
-4.610719117705641234e-04
2.216765246194109251e-03
4.769385374907186143e-03
4.618205879006091231e-03
4.861094022048673699e-04
-9.310558178171460036e-04
1.119455185004204333e-03
-1.261712679814768075e-04
-3.759838775401426816e-03
-5.358498086712865788e-03
-2.518530117208157403e-03
8.258593208230514699e-05
-4.701449294978675940e-04
1.224005987695070278e-03
2.643607263653848828e-03
1.049219995083863939e-03
4.968498019876226328e-04
-5.024737857515423076e-04
-1.990974011996948963e-03
-5.441574956798527147e-04
1.947795950951991409e-03
2.636890101022683081e-03
2.865511270218481978e-03
2.196888151886575938e-03
-1.429274872105179431e-03
-3.237028123092512612e-03
-1.939361391396517533e-03
-1.659699246646653996e-03
-1.674002247429459689e-03
-2.565278822709940367e-03
-2.133407527160085040e-03
1.021144212202803811e-04
-1.967445452300571954e-03
-3.167638040164366588e-03
-7.087018461145844868e-04
-6.889849973864594626e-04
-1.975037160423673711e-03
-3.028085220491469071e-03
-9.009448709832317036e-04
3.418384594158026604e-03
5.146880702255782550e-03
7.420928171977147179e-03
6.825062052525154160e-03
4.286333802024262785e-03
5.774352991153834311e-03
4.238292073238429485e-03
2.784590473357979965e-03
4.478217413105879847e-03
2.853410008666160038e-03
2.786769063404105889e-03
2.941848443091161364e-03
4.621169078284155149e-04
-4.613962411132531004e-05
4.925530860503275201e-04
8.863728728482854740e-05
-6.272767572162511220e-03
-1.003554613652459307e-02
-1.663432978184432171e-03
2.773050459797557227e-03
8.864872101942920237e-04
-1.540493013824984761e-03
-1.032268286545982502e-02
-2.086625808085973768e-02
-3.058467136433972930e-02
-3.162546205049316522e-02
-1.542399194203682503e-02
3.499945355639746351e-03
1.799221281806002992e-02
2.707499795962964653e-02
2.361060236295284970e-02
1.327296631009589056e-02
5.061864606126634247e-03
2.393230195994702769e-03
3.199137771341668823e-03
3.089485418496508169e-03
6.346864073194485433e-04
-3.543422834118335231e-03
-3.366444808255643958e-03
5.312082619960135617e-04
3.151488953056863929e-03
5.317454256818117224e-03
4.452600107611807620e-03
3.007630021089420860e-03
1.130103301767156976e-03
-3.710901823399262792e-03
-9.927676651709505234e-04
3.823807241824403198e-03
4.431180243042432375e-04
4.222289318164016239e-04
2.312655924265989964e-03
-1.021163911927335140e-03
-3.137874386925255422e-03
-5.152446569918310224e-03
-5.441341080018065671e-03
-1.144044034347181226e-03
-3.890563938316823206e-03
-9.618263650390344172e-03
-5.282132168947149820e-03
-3.182389616499327594e-03
-6.555214101801779859e-03
-1.376880295329744415e-04
7.519333799300025913e-03
5.030446413846059034e-03
2.483982552567705164e-03
4.525896078399251239e-03
6.260636985439122643e-03
5.694769699550114583e-03
6.459685851436366456e-03
8.547914118555446916e-03
4.634736490592793363e-03
-8.558815244951261097e-04
-2.775153206104979259e-03
-4.227981570818140598e-03
7.831684746259261198e-04
6.807970973245486800e-03
5.053804594653585336e-03
5.630716135217012086e-03
5.137436260169004829e-03
-2.995141794028544080e-03
-8.444915103502941348e-03
-7.323263516661826164e-03
-5.317506202982606039e-03
-8.832668085499264035e-03
-1.238408469208221278e-02
-1.015285095407630379e-02
-9.109087023671415609e-03
-4.168679359409753482e-03
1.102339374400188900e-02
2.604739831040109310e-02
2.205723961527183280e-02
-3.739838348913946883e-03
-1.843380720363214237e-02
-1.401913076525791724e-02
-1.031155136774448977e-02
-2.577184841560421769e-04
5.711573398181849642e-03
2.519237960498688089e-03
7.883771063708680180e-03
-3.934891450929950754e-03
-3.383533069248417097e-02
-4.347109747761417065e-02
-3.988591710489990116e-02
-3.674532973939647479e-02
-3.225341134688151229e-02
-2.675177413097861931e-02
-3.580397997310815882e-03
4.176919950440294294e-02
7.518474769406413571e-02
7.770959089957538146e-02
7.281297030225002131e-02
6.230333347236339386e-02
3.621278715584935054e-02
2.295156447807499348e-02
2.503641212128117008e-02
1.540383749719085107e-02
-1.997240672283907750e-03
-1.911716281409188423e-02
-3.426674440774139796e-02
-3.906119501691696083e-02
-3.405154469208541285e-02
-2.391234477346123460e-02
-1.015005219386510248e-02
4.496987256987037152e-06
1.569833268239593810e-03
8.314105861421564742e-03
2.855149395665873557e-02
2.968493127368945425e-02
-2.431008849206873351e-02
-9.324985878695817021e-02
-9.806575005177085858e-02
-5.546583747777924372e-02
-2.949745089351582875e-02
-8.357168200991010616e-04
3.682133527559661168e-02
3.528659872607345371e-02
1.259353581126380212e-02
-1.497421525045793816e-02
-6.331308892906960251e-02
-6.065118389384445419e-02
8.063491348237831688e-03
4.005523815640769231e-02
5.184364341585905034e-02
8.759081026152086558e-02
9.198980848038522395e-02
9.349530882661305498e-02
1.198724502149154103e-01
8.791722073809193905e-02
5.174741895981718569e-03
-3.257067377140612091e-02
-4.554555889462916923e-02
-1.132781643922970150e-01
-1.888818308945277857e-01
-1.897525244971728364e-01
-1.144602432865361313e-01
-2.155214999730446432e-02
-1.256755798450062168e-02
-3.356109061622980939e-03
1.518886430570795532e-01
2.627789991177600371e-01
1.905400012624230976e-01
6.693232919696917582e-02
-4.827055568154459825e-02
-1.024152798073537651e-01
-6.402562493598661086e-02
-2.889059833687979140e-03
3.523933085980746754e-02
1.199034822085417486e-02
-2.128425294625614639e-02
-1.198744599941236819e-02
-4.029044962958473752e-02
-8.092680009868487290e-02
-4.477973224531192620e-02
3.203309515326806939e-02
1.020668867304096866e-01
1.555514041968023842e-01
1.447146955301567006e-01
5.080832957152330714e-02
-2.054057798185068492e-02
-2.878506233118525992e-02
-6.829478362477540976e-02
-1.157555651974544741e-01
-8.943107217561029054e-02
-3.467142499118674309e-02
-1.312636751597451128e-02
-2.461779000165604733e-02
-3.687532812628259438e-02
-5.909402837789726193e-02
-1.639850617530040355e-01
-2.652885439885263597e-01
-1.878203739695885055e-01
-3.792817992952696865e-02
5.372075248698922334e-02
1.698176746355874733e-01
2.556484181618554063e-01
2.249145190638380531e-01
1.720975843745103373e-01
1.179070678480313161e-01
1.888426889720687743e-02
-7.739662224859671091e-02
-1.140930506196995292e-01
-9.212875246911864102e-02
-3.342013438732215069e-02
6.798907648822658661e-03
-5.130293009666825679e-03
1.665275608419940906e-02
7.367963098102663089e-02
7.924534700757505934e-02
7.728549171367328496e-02
9.527846127481078009e-02
1.155938626114845075e-01
1.179720864577237238e-01
7.193027974151390558e-02
3.136535705793824097e-02
-5.053184879815632302e-02
-2.140628945142113160e-01
-2.910140625584462515e-01
-2.371833839673732069e-01
-1.706965941406480836e-01
-8.222094654915232392e-02
1.232052321495008540e-01
2.847319810177847410e-01
1.536199721176064181e-01
-8.433434064603995139e-02
-1.893652511716187037e-01
-2.136675419853197588e-01
-1.813569404999841594e-01
-7.154223706683096595e-02
1.133612240795043719e-01
2.688404011133323501e-01
2.829947474509971195e-01
2.478308204030957862e-01
1.900107102441733753e-01
3.476998633648774317e-02
-1.806672930951838396e-01
-3.455205023820627219e-01
-3.581062466014406920e-01
-2.061346371988165282e-01
8.850631550342279164e-02
3.687487484331681831e-01
3.637317441193689826e-01
1.288253928228115242e-01
-5.626728288611308054e-02
-1.419027701360050797e-01
-2.381365656423210797e-01
-2.756387405505422161e-01
-1.313487937955729323e-01
5.266172719790883361e-02
1.702833784783613635e-01
3.292453957074366055e-01
5.147847767867480551e-01
5.431870958023194973e-01
2.664872207151781636e-01
-2.365623782469719882e-01
-6.477344791681406422e-01
-7.098956682153224618e-01
-5.235631155054607522e-01
-2.880639342455771912e-01
4.446773141755445968e-02
3.510412833185201364e-01
3.589415441024411124e-01
2.337343101331245399e-01
2.760947559033136711e-01
4.065603238918543694e-01
3.096414477002556453e-01
-9.135465241129165845e-03
-2.690933204982898785e-01
-5.127853985790356006e-01
-7.290718345888914653e-01
-6.220528670646647829e-01
-2.255086039264433129e-01
1.485107955948141711e-01
3.451974888259741747e-01
4.458891761779673613e-01
4.305114284443585793e-01
2.012983815670857934e-01
-3.393112278209781921e-04
-8.882997853628591539e-03
8.445330933187944478e-03
-3.603769817023644295e-02
-5.873443362026934539e-02
-1.716739027444901672e-02
-1.356506282936480526e-02
7.061293093106235652e-02
2.945420719523404451e-01
2.714695075698101423e-01
5.221649664865859325e-02
-1.604938143994902658e-02
-5.304831608698548640e-02
-1.561256967587305866e-01
-2.167601844260423904e-01
-1.643725652906903312e-01
-3.438848788989264105e-02
7.923633892233815368e-02
1.552802644713683067e-01
9.790867722246029969e-02
-4.846987164985313429e-02
-1.824392998280911088e-02
7.733294708187962718e-02
-9.231499309176197099e-02
-4.019380575403639910e-01
-5.093149980791616960e-01
-3.463294381428346780e-01
1.463190150865639749e-02
2.658718622141728605e-01
1.131543123027305003e-01
-7.072505475497022076e-02
-2.996735851333947112e-02
7.396240178891325123e-02
2.363689121347578581e-01
2.233228251026101174e-01
5.070646413299743915e-02
2.644257038198066789e-02
-2.391574965253748242e-02
-3.126294079039200480e-02
6.913464440865897676e-02
4.701953624795487084e-03
1.308073155287165293e-02
1.605348780871710401e-01
1.349937646911970879e-01
3.752482848077534541e-03
-7.001058404107701749e-02
-2.885293966329415677e-02
4.890293243264440953e-02
5.755392223204995605e-02
5.909506909097995281e-02
5.220089585489835760e-02
1.788516076203261820e-02
-1.418831055653809251e-02
-4.487477802806868338e-02
-5.406134445846053072e-02
-4.720650275596232487e-02
-4.635038191282714326e-02
-5.978903514948489401e-02
-6.591324118418814826e-02
-5.976742999511773513e-02
-5.316327428782018777e-02
-3.968021037559919979e-03
2.575438211231413296e-02
-6.923719529376511431e-03
-3.799664363163822271e-03
1.460008861363450497e-02
2.527826425351571184e-03
-9.806427273638959954e-04
1.113071401158598293e-03
-1.590719679656932501e-03
1.642159365356585937e-02
2.535795060916283539e-02
-7.738620093597006755e-02
-2.207003169420686806e-01
-2.273490043577194308e-01
-8.480095663555965724e-02
1.272898150453561361e-01
2.160056938966817552e-01
1.145275147797272103e-01
4.649547180905872629e-02
4.996962532842078725e-02
3.270502442711602231e-02
2.104693651361452117e-02
1.287287709876600364e-02
1.453225721176734132e-02
1.841205795783773178e-02
9.191749196600903019e-03
8.390703803995808521e-03
-7.878006936938096016e-04
-4.227543107524114885e-03
7.235466384536850572e-03
1.386534149365447992e-02
2.656817704321220303e-02
3.190810515111996981e-02
2.670242328909652046e-02
1.455507682237554452e-02
-5.840909370198445714e-03
-1.146503411153812317e-02
-1.413743198061078940e-02
-2.229243620346376201e-02
-2.457683103474836428e-02
-2.967718870934638736e-02
-3.415161077799487577e-02
-3.520824823434073186e-02
-3.113624921399215165e-02
-2.137813855424562995e-02
-1.461082985201878071e-02
-5.961234114295243559e-03
2.126361664419382583e-03
4.197974517107599078e-03
5.008360748792343130e-03
9.161000523367350198e-03
1.837884352629016310e-02
2.120351379703549338e-02
1.411545830291465430e-02
7.817193431066394443e-03
2.813339147202002094e-03
-3.384490027746820881e-03
-6.205896263974990980e-03
-4.102628063785643958e-03
-2.380332407694328578e-03
-3.010287940666538098e-03
-6.327717747340296482e-03
-9.746917898047361209e-03
-8.855988576569327406e-03
-9.731050318973928637e-03
-8.450970213807017586e-03
1.119902777769247754e-03
8.352498202524953272e-03
1.183559067378747547e-02
9.901918872913986758e-03
3.665648447813144289e-03
7.613359760369579898e-03
1.232718627711615854e-02
8.335045757269994235e-03
5.963667314505919324e-03
2.005654924099362947e-03
-1.276925851914751569e-03
2.263720882455715153e-03
2.902208195281596320e-03
3.630068345918638535e-03
5.929721174861988381e-03
3.501036739682488342e-03
3.438054246075021320e-03
3.843644957738462983e-03
3.878305983500070740e-03
7.517599732740817484e-03
6.125893345736090241e-03
2.992175833904895353e-03
2.904627609525727103e-03
-7.113879395495176792e-04
-4.571108454035782871e-03
-6.893122814791704600e-04
7.735119520313861810e-03
7.237368304728120441e-03
1.927470153679031661e-03
-6.403711794206908003e-04
-1.477733764200510162e-02
-2.802642198731626275e-02
-1.915199763832855367e-02
-5.832162771203102357e-03
-6.539733864818026918e-04
-6.437057710204628115e-04
-3.793504782241314752e-03
-3.092544218691072218e-03
9.309426817439725053e-04
4.216426195497425221e-03
4.467654410117990506e-03
7.142249662581755341e-04
1.006029556085686477e-03
3.006206610073859902e-03
2.490577219319502667e-04
2.285577249355016244e-03
5.745600201167194894e-03
3.587242448292623544e-03
6.968682095940665483e-03
9.369228352749333494e-03
2.329897807118543052e-03
-2.419712364374671573e-04
1.623035419381239908e-03
1.354586978348925382e-03
-2.685130986357997865e-04
-4.418054010661706145e-03
-5.314425298964590288e-03
-4.043067579344424879e-03
-4.880953294036824777e-03
-1.162251715710571317e-03
2.789381109514816985e-03
-4.522045639359620513e-04
-5.329980136889349469e-03
-7.991635634705064953e-03
-8.557826672231949941e-03
-5.124139423448817454e-03
1.221082562060357528e-03
6.157562165446989547e-03
8.817437222969697411e-03
6.873929875826594385e-03
2.564687116601618508e-03
3.899541944337864708e-03
3.638676572883140208e-03
4.091933757237841947e-04
2.126540946794856172e-03
-1.175206514604706324e-03
-5.724685987696992093e-03
-1.233895561297637319e-03
1.126047968202383747e-03
2.758573761006972991e-03
5.187382884635363157e-03
1.038462687781895218e-03
7.639268352059409243e-04
1.574286008378633986e-03
-6.163268079660402798e-03
-7.427206894408895470e-03
-2.382471807084977130e-03
-3.266184120314593892e-03
-1.440380697414465156e-03
8.249188698620309353e-04
-5.646459049263845113e-03
-8.664416931842873135e-03
-5.231321871455200251e-03
-2.127513439213109172e-03
2.496154173851759372e-03
1.762783345103268199e-03
-3.369945729654148358e-03
-7.786780190639818258e-05
3.845810508362236708e-03
1.021269144302995764e-03
1.498181305922731714e-03
4.711491649549437617e-03
4.311148364349162709e-03
2.025186513170986607e-03
-2.561832040544882120e-03
-5.929655944391160581e-03
-2.072978883552714993e-03
1.385797522387307050e-03
1.359025405808805429e-04
1.184925195054371393e-03
2.620929813778312238e-04
-4.988188932715266304e-03
-2.633437913157175500e-03
4.100318406340738332e-03
3.234104541253704848e-03
-1.591628927911067741e-03
-4.951388942068971587e-03
-4.451832668182970944e-03
-4.205313589767328635e-04
2.224649553474961593e-03
5.205691259761558755e-03
6.275319912304376697e-03
1.312047778387417669e-03
-2.128883085259623397e-03
-1.738614346878982007e-03
2.913033069384207783e-04
2.235129171304136870e-03
-1.737555942566210089e-04
-3.866908173120658064e-03
-4.938146353153289626e-03
-1.891539173426212651e-03
1.940937109250572782e-03
-1.000427750536063984e-03
-3.818902953161761211e-03
-2.420393917200384069e-03
-5.105854229465697260e-03
-8.214144417068473120e-03
-7.285295583298309618e-03
-6.439335166368470240e-03
-4.568353252212258714e-03
-1.085412733472847138e-03
1.252992925229548006e-03
3.370316697636664086e-03
4.080988295779314906e-03
3.086850234882481878e-03
5.167572312917014833e-03
7.090845322722233619e-03
5.475059918190433410e-03
3.738292827860565954e-03
5.782422647708234005e-04
4.298029824442809463e-05
5.262138782444372720e-03
7.564678429556585641e-03
7.114599018586326151e-03
7.815662805226270340e-03
4.660137305417536707e-03
-2.310518774456609640e-03
-3.951244029278708388e-03
2.209106225836662048e-03
5.299220357389871489e-03
3.147774385519281747e-03
1.868041843564757082e-03
-2.357533649510263046e-03
-7.737729881836370033e-03
-9.043164565264216748e-03
-1.102899482579746543e-02
-1.159104501195023715e-02
-7.092916134538712961e-03
-4.677516777561918984e-03
-4.107079362000797852e-03
-5.313791833337290667e-04
3.275179632346964746e-04
-1.869091168752130133e-03
-1.844407036939641614e-03
-3.555559321535180662e-03
-6.873532678133247378e-03
-6.978096743124161637e-03
-5.359687077854334222e-03
-4.185608350665335695e-03
-2.712692262832976792e-03
2.989523806826887425e-03
1.106095880280102625e-02
1.254001547977870792e-02
6.900884415748712725e-03
2.973089960191332634e-03
5.107526556493846050e-03
6.638733150655314573e-03
4.937343007233303653e-03
3.259817187226603935e-03
4.307001486811899791e-04
-1.023334663713970812e-03
-2.069640993738049075e-03
-3.287331460565450468e-03
1.335378204112586337e-03
6.131920039826285404e-03
3.529518137945487216e-03
-5.684010125227517349e-03
-1.168114035189825317e-02
-7.052222613609763179e-03
-4.285971908588216348e-03
-4.224688262552839593e-03
-8.751164275146458647e-04
-2.357417868407268944e-03
-4.443915660232861109e-03
-5.364806605126655990e-03
-6.373632632062824557e-03
-5.814696081292142346e-04
2.868088485447808662e-03
8.227489232712500251e-04
2.385335576906176189e-04
-2.194569156701760564e-04
2.832332808251597934e-03
4.805868507614357264e-03
5.142995240488671977e-04
-1.628674651629748085e-03
-2.370022894064080857e-03
-4.638346710927662882e-03
-4.565773810619734932e-03
-3.608638905284271541e-04
5.258475825693493914e-03
3.474037599167363859e-03
-7.005113027993681686e-04
3.998047064470047589e-03
4.710831830693627126e-03
-2.284782661468622890e-03
-9.958230501087379696e-04
2.525919844733080528e-03
1.325182619538861238e-03
1.977644498661072694e-03
-1.129264886314155364e-03
-3.473664939288492477e-03
2.445675313976206165e-03
1.106894057580337393e-03
-4.067869625712809689e-03
-1.526337532326456792e-03
-7.836639833145576245e-03
-1.543343051898913090e-02
-5.803736307943421942e-03
-6.293703889047998299e-04
-2.749811087734250863e-03
2.553556837684742981e-03
2.632934647246863279e-03
-4.831931098577643311e-05
-1.643111101992360680e-05
-2.576499864877416970e-03
-1.187884262937820984e-03
-8.323494181101058487e-03
-1.925597083710781782e-02
-8.442357550218656387e-03
2.757279588613040754e-03
1.885343832527375642e-03
4.496738124102469744e-03
4.167681802815772531e-03
3.383236351133204946e-03
7.601187731754169112e-03
4.025052693084057477e-03
-3.289330486418756867e-03
-1.826420428575349078e-03
1.303422477338630689e-03
8.309695136604953016e-04
3.728237791201580945e-03
5.027453456799449265e-03
4.648493837219941013e-04
-1.437574070003497847e-03
-1.529815040098545268e-03
-1.362536286086988213e-03
1.150172743027683521e-03
1.965417608262499515e-03
4.691818530498875024e-04
-2.489891458257780400e-03
-4.076737108460789377e-03
-1.976540526806391199e-03
-2.177290641314621328e-03
-2.870133140364322568e-03
1.234121154148478837e-03
5.969579145684585737e-04
-6.094832252458859054e-03
-5.322190625863840868e-03
-1.442726074543931002e-03
-1.376270608693734273e-03
1.487045815746141850e-03
1.180666580884410372e-03
-2.226844254522021040e-03
-1.216446705994875341e-03
-1.801483794398162259e-03
-1.061081443423288824e-04
4.355733005765325370e-03
3.872537683182122534e-03
2.204314401950558094e-03
-1.123620048825954055e-04
-1.673873329742970543e-03
-3.065271922723988851e-03
-5.758863394883705945e-03
-4.483236933782727175e-03
-1.886682275186883900e-03
2.522771667651068153e-03
1.547404091810421732e-03
-7.336251649333374626e-03
-4.705525407246295179e-03
-2.446284322853639181e-03
-7.410651445276411967e-03
-1.339273751987030353e-03
1.334203757711274318e-03
-1.890268636336778479e-03
-1.073676660052872356e-03
-4.801912450926294762e-03
-2.836056109422098979e-03
5.348791429224448828e-03
3.606239230357167168e-03
-2.636815938232210926e-03
-4.112621716884476593e-03
-1.844865266949318773e-03
1.076394929786628598e-04
2.275576698415858641e-03
4.198970173326606325e-03
1.397225372410517558e-03
-5.615959991627346654e-04
-1.717609023808430583e-04
-1.009582627035513760e-03
1.588788459034592071e-03
5.032883813960732297e-03
5.776847424620382143e-03
5.923146114812789277e-03
3.037306537636445813e-03
-6.178378199219395749e-04
7.090923998376761316e-04
4.758342210870355506e-03
4.246004018178045278e-03
-4.806060422184256541e-04
-2.690103830923720133e-03
-2.933531823204326826e-03
-1.163137361773595741e-03
2.080295404785256329e-03
-4.780036346956349812e-04
-4.633878819384371246e-03
-5.134776978670750093e-03
-6.175151083063146890e-03
-4.842224796750074778e-03
-1.519170260457723123e-03
-1.664623229585810490e-03
-2.098438054808100545e-03
-1.235749054371425293e-03
-1.338973262286508514e-03
-2.755051890372450362e-03
-3.232299743643820677e-03
-8.032336439602809179e-04
-2.667252893280039295e-04
-1.009624990068659417e-03
4.370162442284371480e-04
-1.698639891129213875e-03
-3.029380650574190360e-03
2.103078985419659045e-03
3.722781445129901348e-03
1.684350907348873322e-04
-7.700875519182021414e-04
9.920419248095877808e-04
1.572691849944499740e-03
6.383392130141110447e-04
-6.804159624689722747e-05
-6.840372293214992596e-04
3.837316414943701048e-04
2.304048111610918805e-03
2.053079327650206200e-03
2.410865302920233051e-03
1.967995709011453008e-03
5.875626434097575707e-04
3.607265106490863994e-03
5.065907010088715155e-03
9.160979037239858850e-04
-8.385543419219237526e-04
9.178979915510515359e-04
-5.068854141765538352e-04
-2.751748214094700776e-03
-8.645298522250079599e-05
2.051713893477510008e-03
1.186490924407290412e-03
-1.511349154827645001e-03
-5.764514035885604480e-03
-2.985835162776347574e-03
1.602522208752937567e-03
5.717807923058648278e-04
1.126832973194312384e-03
-1.677032254644032815e-03
-4.530394217496310112e-03
-9.429167265920622562e-04
-1.482843348718063722e-03
-1.009526100895841334e-03
2.261629125005122382e-03
4.950788768987360571e-04
-1.909008958330965381e-04
-1.155293223279313386e-03
-2.280308220692674626e-03
-2.548058035561293891e-04
-7.296463375365972240e-04
-3.645605195841851312e-04
4.595773690847875480e-04
-2.524388889654347393e-03
-3.197468514688614396e-03
-1.420134236689435392e-03
-5.084970232115078098e-04
7.249058931398648809e-04
3.164647107308839798e-03
5.101999686022566302e-03
3.147403273010677439e-03
-3.186079970976290663e-04
-1.236449046021063404e-03
4.081515022216656923e-05
1.122391309485547359e-03
2.214606393659300835e-04
-7.712304945183262725e-04
-1.824778536197139197e-03
-3.124908160835260500e-03
-2.993743833744142834e-03
-2.556340890874289531e-03
-7.897712974132793185e-04
7.791518446073851783e-04
9.380558997447686561e-05
-1.247784546267581725e-04
-1.905870088898981322e-03
-2.773439418617317832e-03
1.480154594289553567e-03
4.786038054882863282e-03
4.142887115712361179e-03
2.638479708961384389e-04
-3.106028273339181411e-03
-1.096817526375336912e-03
3.627028650984227050e-03
8.066982324135165208e-03
7.112295970032074879e-03
1.033146329722875499e-03
-1.888528699835159870e-03
-3.404910021798642460e-03
-2.749034254635008417e-03
5.645745742513016540e-04
-1.304450031402903032e-03
-4.986017621282885955e-03
-6.951502778655701577e-03
-7.687395419675010534e-03
-5.262939690077342823e-03
-6.672064218561960750e-04
4.840259500291456234e-03
9.517726172988151805e-04
-1.054717908047364365e-02
-1.064627816189329251e-02
-4.209646472201355322e-03
-1.681852963658092299e-03
-5.293126986648332257e-04
-9.305236117952074256e-04
7.976662161995993908e-04
3.297516840004197612e-03
1.332196864133135174e-03
2.109973540536838610e-03
8.854657596540329439e-03
1.063383481648739678e-02
4.586418496047740302e-03
9.756286389205397159e-04
4.014286811834158323e-04
-4.924236251254398818e-04
1.321324309950391385e-04
1.100487566074712749e-03
5.079493934780456195e-03
8.255058078922378195e-03
3.676773364949926116e-03
-1.737796807367472792e-03
-5.708476032912060752e-03
-6.557092520030016053e-03
-8.092480760596754185e-04
2.124348515442776430e-03
-8.333604257794063105e-04
-2.286322980004365339e-03
-3.314205357448032517e-04
5.258742071288755883e-05
-1.968067454750364528e-03
-1.717572237474662006e-03
-1.794825860280115050e-03
-2.987904035499869965e-03
-2.569090418188979975e-03
-2.398619557581452635e-03
-9.665894131591132700e-04
1.215400709837113322e-04
-1.014752064808771038e-03
-7.871166709542065047e-04
5.838967097468435261e-04
1.724955943356304986e-03
5.161499068224641596e-04
-4.017411326755099027e-04
3.205898825499811731e-03
5.225828244096647479e-03
1.432134410767469355e-03
-4.445443212787471982e-03
-4.533704095959277362e-03
1.186041505405730162e-03
2.598078341692654832e-03
-5.340884859151266576e-05
-4.578019441243648402e-03
-7.463778647981460061e-03
-1.936298141843724842e-03
9.797690857449171519e-04
-1.974122948791079586e-03
-1.366904337026210925e-03
-1.607360394006557801e-04
2.564318195983724367e-03
5.175568196448330008e-03
2.542993982962963966e-03
6.213438559650786598e-04
-7.147583669608823789e-04
-6.724761769321210576e-04
3.590736524152067857e-03
3.279664754214491919e-03
-5.169265705480195050e-05
2.122844153022621951e-03
4.237790400002503302e-03
1.276897072846587848e-03
-1.374313616195020410e-03
-3.583542410621372840e-04
1.126200739813869832e-03
1.155796198265105889e-03
-9.032526534158481259e-04
-3.796590587031756399e-03
-3.109558827335331434e-03
-1.179319271249210880e-03
7.297478016937955416e-04
4.022485003652271317e-03
9.832406490710751245e-04
-5.212011561934101582e-03
-3.951068606147452832e-03
-7.060675450752776664e-04
1.373607388478643131e-03
3.636606491284783815e-03
5.091142358320725845e-04
-4.264462754089093366e-03
-3.329082916857346690e-03
-8.506551807409035463e-04
1.426585292458400125e-05
2.065933234356777306e-03
3.822418930386247814e-03
1.023354210916503203e-03
-3.972303897024032256e-03
-4.528957768299701758e-03
-6.652627932983217959e-04
2.449197892615508163e-03
3.383412946787724748e-03
2.874305114179625566e-03
8.170043163470697145e-04
-2.004570948796169459e-03
-2.474848783980824248e-03
5.474142331181262302e-04
1.559245130437692016e-03
5.615087523564960643e-04
1.926181803841235879e-03
6.901339620202279115e-04
-2.964901058769697697e-03
-3.232413360672780657e-03
-2.108884673052108510e-03
4.867079615920151753e-04
3.145251392092460446e-03
1.734079682499342764e-03
-6.165092885020286928e-04
-9.054522691250784005e-04
1.633567529016772711e-03
2.968954121580440371e-03
5.171529805687813760e-05
3.730850391962475896e-04
3.115573584455805754e-03
2.206834722731240706e-03
3.712415494082427691e-04
-3.805718511696416177e-04
4.668213530775184705e-04
8.105237759225345081e-04
-1.506520887564776249e-04
-6.432313612658903260e-04
-4.153292043321291267e-03
-6.421337339289077788e-03
-3.064152840143562033e-03
-2.429221044987449330e-04
2.722435821901317884e-03
3.965068921492773124e-03
-1.558605060739616044e-03
-5.939098833735048308e-03
-4.686177775264688088e-03
-2.174475377880196684e-03
-6.047907920606393137e-04
3.571917185205584024e-04
2.304002184026143155e-03
2.761050890677017519e-03
1.666256370863361579e-04
-2.670707633478663651e-04
2.175625711613178147e-03
3.784380045178603429e-03
4.593036408771363974e-03
5.157834952424388518e-03
5.135760647590633526e-03
4.912670216600264692e-03
3.045076862662432233e-03
-1.670649636414469100e-04
9.590211021087513641e-04
3.619709416356257665e-03
-7.594259297024699446e-04
-6.221819930450661791e-03
-5.517443637286387204e-03
-3.029924095592990800e-03
-1.174544996950045760e-03
3.208928080676099262e-04
-1.261243365244628107e-04
-2.977158617112517919e-03
-4.890447104813008990e-03
-2.379393797668714113e-03
6.306331088750952640e-04
1.240790294080041647e-03
1.534406142983339022e-03
-3.503115866645622675e-04
-2.978391199508943158e-03
-2.225889079108286754e-03
-2.711211112808502386e-03
-4.490858078479847970e-03
-1.979977816083981594e-03
-3.086351466335808275e-03
-9.390613574352011175e-03
-7.940646833981145417e-03
-1.805517099737730851e-03
2.248777129336030581e-03
6.678073713616968984e-03
9.769791172387074993e-03
1.220044439157858505e-02
9.728448848108951774e-03
5.123101416798930569e-04
-1.569112266227389203e-03
2.411508333959797024e-03
1.105226432003981584e-03
5.250435596558170178e-04
6.241214386604605237e-03
8.765225654126598126e-03
3.706456355187066291e-03
3.354873703399044492e-04
-6.378239215829628649e-04
-2.907730561242019736e-03
-2.842326007584102237e-03
-2.668525662328266601e-03
-2.394423943162505685e-03
-1.063408886174381333e-03
-2.795868453056637743e-03
-2.086672863453057237e-03
3.702767171920819198e-03
6.233099648384517709e-03
2.145108101033147297e-03
-2.434192396122075632e-03
-6.234429216333372756e-03
-1.616418835148659972e-02
-2.052320719233942381e-02
-8.747553545434917643e-03
5.869584655618402189e-04
1.669702716686051339e-03
3.414807780028007202e-03
3.234644269110081068e-03
3.172484504002439330e-03
5.104588092421424861e-03
4.375631343573801839e-03
2.881725051655265046e-03
2.873504463257704148e-03
1.614329709680236086e-03
-2.984274836694915910e-04
1.547125678436997442e-03
5.721140830150000384e-03
5.664636177713571093e-03
7.625103498078014208e-04
-2.080918333132891242e-03
-6.357798170476905170e-04
4.922295331856082199e-06
6.884648876492462750e-04
1.536938390993729427e-03
-3.586852373701789314e-04
2.393546978670721263e-04
1.794203034127664310e-03
-1.165160274746367358e-04
-1.621441182134479315e-03
-1.938932222026720342e-03
2.672134893273408855e-04
-7.720660450813066522e-05
-5.439479641102713987e-03
-3.395738659770060341e-03
-2.190255304691058301e-03
-8.719099450974512194e-03
-4.149661415361698830e-03
5.670140711409569004e-03
3.845934168719178457e-03
-1.158507996124735892e-03
7.105737673689875144e-04
5.546648944309475610e-03
4.658146100363144172e-03
1.631141154772382425e-03
1.284140573932856339e-03
-1.476049625335165922e-03
-5.209949184907482949e-04
2.671061870014387971e-03
-1.911963278155254502e-03
-9.633333722369936437e-04
3.337557733532476624e-03
-2.716405397290598284e-03
-3.038306526699553495e-03
5.937862045664190442e-04
-4.123985148493535327e-03
-1.666591064296714907e-03
5.341924961524606094e-03
4.256774923743491049e-03
4.609525063966314834e-04
-3.862554890006091642e-03
-4.252468207213271414e-03
-1.036154691237067436e-03
-6.577009576465825793e-04
8.245189017561235442e-04
2.181664426062387453e-03
1.280732272466371001e-03
1.950426691464898690e-03
2.790592906860640560e-03
9.803011192587366123e-04
-1.454719064049912877e-03
-1.150465618224195833e-03
-3.846319399196615387e-03
-7.178612404357127656e-03
-2.238613546966148997e-03
3.094451554097231113e-04
-8.589665257024139348e-05
3.547943505343843177e-03
4.440590264168415777e-03
3.586916755858853695e-03
-9.366535786414050468e-04
-4.273976145144431707e-03
1.012544384072794389e-03
1.662865864832757841e-03
1.856679867188201207e-03
4.053827025531137399e-03
-2.030540347758221908e-03
-2.834824943093614599e-03
2.012804279444776762e-04
-1.751603127207672144e-03
4.124587734715572974e-04
1.503539686099464485e-03
-1.145999327749296429e-03
-2.556163770717706854e-03
-2.547942314703575788e-03
3.150036976213057595e-03
8.122939703342711357e-03
5.559122274363544579e-03
1.724185290904292232e-03
-2.100691533077716968e-03
-5.387775635541584666e-03
-3.520418969257959035e-03
3.829161726652587907e-04
1.750360821601106009e-03
3.879119670013159854e-03
4.221742029546702440e-03
-1.163839968799020019e-03
-3.948999520101990901e-03
-2.790249167461445606e-03
-7.343145469941629805e-04
2.130261888547439232e-03
-4.164563776393247034e-04
-1.869150724254185466e-03
1.458352242518883447e-03
-2.136285214972138535e-03
-3.641941488307136147e-03
2.857018375116420796e-03
3.480034822798146361e-03
1.952428755414185825e-03
1.775008578349254133e-03
-3.724751138269775941e-03
-6.640605933102184007e-03
-3.460582127949108147e-03
-9.066153945800566093e-04
-2.924543267479580452e-05
-1.821933537138738192e-03
-3.980878473635342078e-03
-3.969230496732222002e-03
-3.515139610974375717e-03
6.354994676808475894e-04
4.127638179043053267e-03
1.747292407718376754e-04
-2.644128575133675857e-03
-1.684718342594347402e-03
-1.343782672366129966e-03
2.061356898738527042e-03
7.975917968474629388e-03
1.164928397956692396e-02
1.065345461979626089e-02
5.628145075523030734e-03
1.676979169876840776e-03
2.756655650166235194e-04
1.293757170793869045e-03
3.329747229305569847e-03
2.096409936316662691e-03
-2.562747109583806749e-04
-2.647416806240583068e-03
-2.188371069246232599e-03
3.873006119796969671e-03
4.287659672067453860e-03
1.958891960033119772e-03
-1.344541897685831147e-03
-1.898239126389878600e-02
-2.591334200254255885e-02
-8.023484976833595780e-03
1.572266722625038481e-03
1.286081877698563034e-03
3.927115952677145624e-03
1.251370509523115453e-03
-3.957938547739279535e-03
-4.377570189008043490e-03
1.800556189141550543e-03
8.320756485074671735e-03
6.002313819916904776e-03
8.740555834480342361e-04
1.540497411634324113e-03
4.817090669759107116e-03
3.388436349688435639e-03
1.299812469249011409e-03
4.680328648475992614e-03
7.268533946126617788e-03
5.907343657851531725e-03
-3.222221045973402758e-04
-5.135386041264410756e-03
-1.916317053464424968e-05
9.585175555672996147e-04
-3.345243623230816261e-03
-2.645535815845174044e-03
-5.217492127242331044e-03
-6.765840037311281197e-03
-3.332837563825284156e-03
-2.027152291727847555e-03
4.724920393916286600e-04
1.265764338478587341e-03
-3.226456810139453728e-03
-8.036999678525880847e-03
-6.624709608966824342e-03
-4.182974172646846474e-04
-2.395073634076946931e-03
-2.739739029059972894e-03
9.428647792084715595e-03
1.505328855282420455e-02
1.053365884412762153e-02
5.885221858204666562e-03
4.132394198926869940e-03
6.080316599303261203e-03
3.918961001489117309e-03
-6.281300678138700437e-04
-3.834455327964674150e-03
-1.054410045299935053e-02
-1.368108138899212095e-02
-9.771381708538990490e-03
-4.288787250514429147e-03
-2.013556230047457759e-03
-6.860843294672586828e-03
-9.949400342946763606e-03
-5.257288252091260779e-03
1.898239701452202229e-03
9.519584177691071264e-03
1.405465631674898512e-02
1.380446741631977461e-02
1.269125979003263641e-02
1.149865428950575669e-02
9.013413271521211398e-03
6.288621617783964057e-03
4.972524789668453758e-03
3.861053845314214167e-03
2.154933277434389199e-03
-1.391435504715566110e-03
-9.109776487778740994e-03
-1.605055810905438307e-02
-1.528834398901009889e-02
-7.399878816788644023e-03
-2.348079140932835592e-03
-3.488779741524387044e-03
1.153330808817762485e-03
6.974423371238595848e-03
