-5.753347485518736128e-03
-2.306252790142148713e-03
2.694958403222130500e-03
2.125062856802205184e-03
6.511366772179307677e-03
8.046217666404200525e-03
8.307158210184382302e-03
1.105417874059951011e-02
8.828898494970068359e-03
4.542232836930388054e-03
-1.312578719758423877e-03
-7.348141207370277941e-03
-8.056160189129723745e-03
-8.290775692364632868e-03
-1.052724133998241864e-02
-1.166115776155106885e-02
-1.336913919440573147e-02
-1.620287011446210762e-02
-1.365519431626261056e-02
-6.956754590646352029e-03
-3.614997489251298764e-03
-2.817654159300401486e-06
3.650423618418375399e-03
4.525904600931310653e-03
5.909165654096547836e-03
5.013371473636134626e-03
5.023982435707456846e-03
7.346691340335351726e-03
6.567702875337124747e-03
6.432661384016553907e-03
4.983887635158478109e-03
1.652320478665563874e-03
-3.835851725360588799e-04
-2.346333333067527911e-03
2.280948783911343047e-03
5.273261509252435801e-03
-1.795260085425588173e-03
-4.471696775370086543e-03
-3.157159549769964456e-03
-2.926538721135217309e-03
2.048102551500319366e-03
5.996024904726683299e-03
4.003845469444731152e-03
3.815100357173425907e-03
6.222265332186479973e-03
1.513066513010200703e-03
-3.182144385518933648e-03
2.366024822628673505e-03
6.771233238367143498e-03
6.294228358794826117e-03
2.443747565885688589e-03
-3.186259761826043101e-03
-5.463491232613026938e-03
-1.722990893061619039e-02
-2.491343567392110755e-02
-6.652729981233000689e-03
4.192263126046367680e-03
-1.987653404986901469e-03
-6.148461680999603310e-04
1.517304122056993988e-03
1.692402173371874768e-03
4.246200429958699174e-03
3.112106774588458379e-03
6.807528985286747129e-04
-1.300446227804083997e-03
-7.024024539593076190e-04
2.740968745750950886e-03
2.485473388471716796e-03
2.238781389403678157e-03
3.796482427659224768e-03
6.211032650867537828e-04
-2.528925540225098172e-03
4.044482496632887010e-04
3.805015611943482999e-03
3.142518241260700181e-03
1.493134294926174539e-03
2.543137674597728808e-03
2.496865093576541503e-03
-1.608243002725674156e-03
-2.056654362746989338e-03
-1.061113327049307154e-03
-5.354269491499414127e-03
-4.967721621277715500e-03
-6.490251911466139592e-04
-8.901529173858556063e-04
-1.337080374364869439e-03
-8.215152422342724466e-04
7.674933800540750762e-04
2.109557849752273940e-03
2.677389250339595045e-03
4.008647992926136876e-03
-1.826128517810786324e-04
-2.676584949424703434e-03
4.674829851483462218e-04
2.784088603114220450e-04
3.709741205451529827e-03
6.760290456115817387e-03
3.173308901295588194e-03
1.859022054892296976e-03
4.967117271670389803e-04
2.000585127634298349e-04
1.129517567545429511e-03
9.221910477262685148e-04
2.044616378542133371e-03
-9.565772813413767495e-04
-2.599538444955284619e-04
-1.893707288721358569e-03
-1.840448807561565273e-02
-1.767967185116637793e-02
8.491053558022956761e-04
2.017786172894578140e-03
-3.360602249444150959e-03
-1.450742953573632148e-04
2.146057556596377321e-03
1.392888852205975822e-03
2.746845243428482596e-03
5.410259686348398850e-03
3.422134933055840343e-03
-1.024461869389235030e-03
-3.324716256875366160e-03
-3.140157462612911711e-03
6.621167004639977056e-04
4.084031219315124341e-03
3.787674749001117194e-03
1.601815528809382924e-03
-5.446443486119939255e-04
7.728256387452625076e-04
4.276533506034637701e-03
4.133890156243653739e-03
1.923740975123195470e-03
4.878561705878462569e-04
-2.655509034241105952e-03
-2.408985408372078113e-03
2.712984782055009609e-03
3.693944876375983288e-03
2.681733163177341377e-03
8.789032371991471488e-04
-3.477087760644491203e-03
-5.192908823138967130e-03
-6.053573159296305774e-03
-2.450988168393280087e-03
2.699452667636701320e-03
-5.710230465484330067e-05
1.099544272742674245e-04
-2.688481402505359281e-04
-5.027275788461644385e-03
-1.115012869350873702e-03
2.052294577472907680e-03
2.170293140164694743e-03
5.034531713691372569e-03
2.748993410279151287e-03
-2.205808986633116860e-04
-1.178397514095682122e-03
-1.642593522560026201e-03
-9.303682721622070443e-04
-1.216760822457411528e-03
1.839844209059431426e-03
2.494939273022733599e-03
-1.680996345292591913e-04
4.420796257117159001e-04
-4.425662512840705144e-03
-6.495828054401160158e-03
1.624441463983424287e-05
2.246691476680837476e-04
-6.975017972769342531e-04
5.035734191051865344e-04
-1.203728623091801942e-03
6.976326388125614472e-04
3.736344229801453424e-03
3.890033293892330383e-03
2.253744919550298986e-03
-1.412950175093863727e-03
-1.421043416297653340e-03
9.533278981564088537e-04
6.624301939495342607e-04
1.799622454301290451e-03
3.269907610418611339e-03
1.583481623301017651e-03
4.041099331023286292e-04
7.197644711188450149e-04
1.050447731581202445e-03
1.014278291585537584e-03
-8.909769403166679837e-04
-9.408813421524513023e-04
1.327803251527282522e-03
-1.349653078723493356e-03
-3.454251982639422718e-03
-7.845989372474337009e-04
-9.183656675441304127e-04
-6.465980598310528370e-04
-6.967210917415616938e-04
-4.396767197677581979e-03
-2.698983610151187238e-03
1.767653069449317172e-04
-1.384513759246382755e-03
-1.286230663443184040e-04
2.988603891330313209e-03
4.429335080589591814e-03
2.771934431461488268e-03
-8.134044007403655810e-04
-3.510526228616687354e-04
3.174205207685751231e-03
4.605695161986228178e-03
2.519899133352074098e-03
1.142864414437560604e-03
1.611899893928593879e-03
-1.422050938268590000e-03
-3.529452189182252092e-03
-1.994493268164734302e-03
-2.632503785519600334e-03
-1.753750106325121117e-03
7.066968134713391561e-04
-1.414956932303003878e-03
-3.293772420069628754e-03
-1.168051158196611872e-03
2.356388225829363081e-03
5.987461758844320192e-03
5.571236496582754327e-03
9.317679214061048553e-04
-1.407397239617607775e-03
-3.427097399612081261e-05
1.779977967075182382e-03
1.403250429315111656e-04
-3.378504648062710756e-03
-3.495280954040036123e-03
-2.885673093823943464e-03
-3.048715559182040100e-03
-2.791977464192653240e-03
-2.315998918874349107e-03
1.165605286565147051e-05
-9.700768386337765186e-04
-3.427042353851108506e-03
-1.109978871267274653e-03
-4.624586787558878764e-04
1.237184297210457747e-03
5.429003105332076348e-03
4.258617174763171080e-03
3.580585542028105837e-03
4.694594024221067710e-03
1.289520726908095077e-03
-1.110413506229701586e-03
1.943740922013349358e-03
3.135688823878901924e-03
6.473799305896461506e-04
1.050543476382448599e-03
-8.273745719199774923e-04
-3.262312516880140102e-03
1.687723093387151659e-03
3.380857656862751390e-03
2.542942663750629839e-03
1.525412951548422167e-03
-4.542711514402264332e-03
-3.085109927068212070e-03
3.253339635978470031e-03
5.562581512425433285e-03
7.178975366477977071e-03
5.513052727027334225e-03
4.258270655594092340e-04
-1.377294888103831882e-02
-2.561058028785961199e-02
-1.446240055221871719e-02
3.400692781453576842e-04
6.430760562055239798e-03
9.129940797901666197e-03
4.619465126062090136e-03
3.389064088383049911e-04
-2.752552856881884582e-04
6.233952516226740894e-04
2.220487436931313768e-03
8.950687502242561482e-04
1.470416855714563441e-03
1.457486746684695002e-03
-3.262895542978137310e-03
-6.042623314904445840e-03
-3.492578609417577688e-03
2.668336647919736845e-03
4.911593234433780236e-03
2.894975266149812845e-03
2.496590506417280426e-03
1.970603542703278175e-03
1.293081411632107268e-03
3.934734315941821920e-04
4.695425951353294569e-04
1.143369097650620428e-03
-1.560746301920696352e-03
-1.900740611701488229e-03
-9.015177068895083084e-04
-2.732502542733639649e-03
-4.315991368751398156e-04
3.449924390631352398e-03
3.039911754065312537e-03
3.696593611751657223e-04
-1.974873838916545860e-03
-1.838155489655921015e-03
9.046298356523176359e-04
4.657346339449093542e-03
5.064805284468005056e-03
2.274880979940065249e-03
1.037577360930953124e-03
-4.170636562123749267e-04
-1.016113005142259794e-03
1.425059595059120473e-03
1.579918151461680688e-03
-1.054980689491446643e-03
-2.443305382703823275e-03
-3.404977341165241027e-03
-3.707569233281485677e-03
-1.514146048146626728e-03
-1.989500897529699816e-03
-3.765921901570307324e-03
-2.104727981237797859e-03
-6.221433826363786598e-03
-1.068101883782285842e-02
-3.582932155051286524e-03
3.361501604037089256e-03
5.202058727460744277e-03
4.420268660668956809e-03
8.978995930414816621e-04
2.128031667982150776e-03
2.878590219420653403e-03
-1.087045480782111630e-03
1.035903108736315435e-03
4.864832417574276729e-03
2.520994495350186576e-03
1.948446010179481552e-03
3.777008038519176665e-03
1.120278484401405214e-03
-1.226177420985250953e-03
-3.834542135943530116e-04
-4.965748313324109577e-04
2.683911309298516899e-04
-6.602263743090682011e-04
-2.809405584847164249e-03
9.541786105624886676e-04
2.883444430527403856e-03
6.540297552473521613e-04
2.194631515978508890e-03
2.345607565415870795e-03
-8.262415680236956991e-04
-1.732181950678199746e-03
-1.516654963947014099e-03
-2.504927525986526578e-03
-1.391915859568439943e-03
2.340977839536287006e-03
1.057546367543456744e-03
-3.024713035493628490e-03
-1.950160377606188549e-03
-8.795842787071083769e-04
-3.005936829976938590e-03
-1.860217805605193396e-03
3.041233720154734414e-03
2.135750481275486539e-03
-2.966695146012482583e-03
-9.248016230582924027e-04
9.694047713309229515e-04
-4.765415990608281552e-04
2.725482693122675566e-03
1.905765879079215908e-03
-2.043437380711428906e-03
-7.275834423741320799e-04
-1.225212163433230103e-03
-1.679417405133574364e-03
1.815170435944498447e-03
2.209381467621481313e-03
-4.439735589231887233e-04
-1.552534411493027748e-03
-1.137706306574158251e-03
-2.065236482886262197e-04
1.300329609666077196e-03
3.246398286664756334e-03
5.243612947193184923e-03
3.598752326214922463e-03
-2.158651622984609358e-03
-2.037767105198515488e-03
2.240700459077218064e-03
1.915233456527091647e-03
1.590293934191756072e-03
2.161092863051001253e-04
-1.489040383451743733e-03
1.694150180408149527e-03
5.356173090216748449e-04
-2.557250319816819790e-03
6.707562573475862747e-04
1.888642005901480965e-03
-1.003662082497176842e-03
-3.510327267607778971e-03
-4.047330608608614919e-03
-3.378712181063244120e-03
-3.044961262190804766e-03
3.904897554688739766e-04
2.580703330107874793e-03
-1.320316994105522924e-03
-2.906459222962268999e-03
-7.726777704729003663e-04
-5.385023555563411531e-04
-1.083705918793718753e-03
1.671946625770193368e-03
5.756526370833611739e-03
3.997499288119532417e-03
-1.718565651079805544e-04
-1.583808177223956998e-03
-2.965618809346221713e-03
-3.959029916897383625e-04
4.081528197578621064e-03
2.033576348817875239e-03
-9.226652229916035113e-04
-2.849946245537681344e-04
9.790903238118459952e-04
2.110893101233634293e-03
1.967768751866750664e-03
3.216983874012363000e-03
3.527698578217361262e-03
-3.513424286738910194e-03
-5.623174839054521923e-03
1.891966546197292823e-03
2.305444308127952650e-03
-1.027501812354621614e-03
1.766953685485521354e-03
2.463891144055842513e-03
4.278738070672826886e-04
-6.909407925234945522e-04
-1.759483355970332041e-03
3.544911665818457208e-04
1.629705140947188121e-03
-2.068982295300335426e-03
-4.049917533892451182e-03
-3.098512329694620877e-03
-2.431440795912524246e-03
-1.040185221222467322e-03
6.464837602890092638e-04
2.360033930830036843e-03
1.660738758966816405e-03
-3.602160112588693661e-03
-5.231517052904484377e-03
-1.931033146054973856e-03
-1.385177699218392844e-03
-1.240909336652042940e-03
-1.276852277683361526e-03
-2.840785832732537625e-03
-8.505905249815697445e-04
2.045914705912397352e-03
3.217971313185346606e-03
4.089304025462509040e-03
3.286935897946424625e-03
2.657026984804094442e-03
1.999566251500859565e-03
3.482194624623141926e-04
6.051335481405346927e-04
1.361850404486193190e-03
6.945495806451022379e-04
2.712099614387730728e-03
6.590324040053451710e-03
4.140235890459614820e-03
5.847237780607936284e-04
2.196550388566272279e-03
-5.407547343228966043e-04
-3.273315499185088830e-03
1.185193661134159322e-03
3.911703263950247825e-03
4.036447089337957470e-03
2.235994992637513681e-03
-1.665060503168425436e-03
-1.234679685754827300e-03
3.318690691685019165e-03
3.506427767284769144e-04
-1.772693692459115580e-02
-2.552202008741796813e-02
-7.894516250239432334e-03
4.583301917500642864e-03
3.335162406297675648e-03
2.228521099580603980e-03
6.383454500485427185e-04
-1.729178133081575976e-03
-3.794983746945427856e-03
-2.077646679130673406e-04
4.368910538052436961e-03
2.530847344467366655e-03
3.626678243159685028e-03
3.070873461788570929e-03
-7.578959804309885046e-05
2.555571312693735893e-03
2.457872461229352722e-03
1.654847183822791929e-03
3.144576363548505591e-03
2.227158091447563847e-03
7.066231100169410601e-04
-3.213639300924279324e-03
-2.938007479121635020e-03
1.716875950422153607e-03
1.379699800287643085e-03
1.815578548678930398e-03
1.354064258377694983e-03
-3.189960234288118784e-03
-3.302095981858599316e-03
-2.808009204758415934e-04
2.659950205765214881e-04
-6.388278464557403669e-04
1.259337717734334118e-03
3.027309136554702605e-03
9.058830856380881602e-05
-1.009841392909227109e-03
7.090873039519695600e-04
2.584096220817178155e-04
-8.459312711917591149e-04
-7.876033406615087686e-04
8.900029873859659386e-04
1.917969905090218105e-03
1.312529481891718799e-03
2.794404745080753937e-03
3.541300605764444512e-03
8.703883241334515130e-05
-2.068707176198139770e-03
-2.109710773046856013e-03
-3.038003037151458616e-03
-3.113324801443206283e-03
-3.168202889439911650e-03
-1.327220200205536226e-03
2.125936920388969611e-03
1.737159695049391144e-03
1.868160129378345713e-03
6.083374525146789669e-04
-1.908165871454704701e-03
1.668017098591960921e-03
-8.040255493049296544e-04
-4.859402101401636732e-03
4.573556667626191849e-04
-3.642548974452194293e-04
-2.153846768485537418e-03
-1.323997831248021955e-03
-7.616660428061827227e-03
-5.320841314613766228e-03
3.318638170647477542e-03
3.137842727681785116e-03
1.749017911948082434e-03
4.820008418026421396e-04
-4.384954249225808546e-05
3.332767463972291944e-03
3.606009411705115610e-03
3.199432211300664349e-03
4.179583476601840195e-03
-5.767751258380022020e-04
-5.087136780470250842e-03
-1.342981896172978744e-03
4.151425561140436454e-03
5.973503177493693153e-03
4.717077393516257849e-03
-4.259731284536985335e-04
-5.480486674381209421e-03
-3.122187637374047864e-03
2.290538462853705833e-03
2.884365207398281120e-03
9.883590534392348772e-04
-2.202523098666249717e-03
-4.399386282226536334e-03
-1.131592456649086658e-03
8.770378256264803763e-04
1.096744745936312259e-03
2.746036578925858951e-03
2.926926652229603167e-04
-3.386668844838760595e-04
5.112118845813042782e-04
-4.231244070927739701e-03
-4.099322638090682584e-03
-5.765046353830029745e-04
-1.721348148750102228e-03
-1.361495898309158289e-03
-6.065401600840827391e-04
-2.591573950427149102e-03
-2.252676615660015487e-03
2.655440643736110655e-03
5.410688318604517204e-03
2.610965262792167181e-03
1.724068278973875726e-03
1.286597779252799225e-03
-1.913727248730866031e-03
-1.662586446532879651e-03
9.223297338685994599e-05
-2.350902693443532180e-05
1.202239928855094748e-03
3.118532038505598264e-03
1.679201017886635706e-03
-4.702403349645039666e-04
1.848028801933342688e-03
2.143026771947801386e-03
-1.716603174188781594e-03
-1.739263532700500471e-03
-9.501733205238191947e-04
-1.991739280588414665e-03
-7.159779601113123049e-04
-2.992299453325765186e-04
-7.601653711792976222e-04
1.257428716064950061e-03
-9.531788952870020324e-04
-5.368120805054199182e-03
-1.668431014654669572e-03
9.494990525092708274e-04
-5.952900598476025150e-04
3.932546244605361445e-03
4.938703131218654015e-03
5.317037113059337652e-04
-1.102082425338440273e-04
-1.741366666782460894e-03
-1.729394185639542133e-04
3.529603225841003097e-03
1.023427012715555590e-04
-1.153494480398345803e-03
-8.459053583963844960e-04
-4.618399892198200331e-03
-3.126949485506376383e-03
9.798975526958525993e-04
2.132521147705311159e-03
2.326840035126610112e-03
-3.902983279712640750e-05
-5.963630814495175228e-04
2.945671362354904729e-04
-1.583870124487198137e-03
8.794991792464871769e-04
3.187716497486544308e-03
3.643189633158288839e-04
5.199335158274213421e-04
-1.380967595672061244e-03
-3.841692617837308508e-03
1.499358931262734142e-03
3.525665819379957856e-03
-1.979322666715490210e-04
-1.400173576493899275e-03
-3.824342773894849894e-04
1.407232440139377433e-03
1.941709407908853192e-03
2.437814531072781191e-03
2.995408157830429467e-03
7.742098911543991756e-04
-1.618862331113426762e-04
-1.055799320511587383e-03
-3.916972441726803908e-03
-1.333981335359678971e-03
2.081450358854675890e-03
-7.884961389935986071e-04
-1.951266754142033438e-03
-1.701534294566646021e-03
-4.653628990287315623e-03
-4.797519608206388987e-03
-1.849299891624665805e-03
1.904989087053865580e-03
2.594137605628666840e-03
-2.531174714065200816e-03
-2.403264710457571687e-03
6.351501455733231600e-04
-2.007067082833446231e-03
-2.023579902338292370e-03
1.351159094611325715e-03
3.466704526752363656e-03
1.419780240575915353e-03
-1.369140226919521395e-03
1.917246032510891603e-03
2.542548548287487404e-03
2.945390948578383798e-03
6.344968929458236380e-03
3.620443586533652041e-03
4.061092827438579113e-03
6.115218651316435203e-03
2.132939985877988550e-03
3.233449941449003393e-04
1.454524482577634328e-03
3.533797280317559509e-03
7.636970350396885205e-04
-1.707012136122569969e-03
5.007330611303420585e-04
-4.575640264899229898e-03
-5.696189355537192509e-03
-7.168802460033579967e-03
-1.727069683059545557e-02
-9.402350358120785054e-03
2.695476148241779564e-03
1.921549063422938386e-03
2.979136047475741504e-03
8.908222179650399954e-04
9.461036638963281624e-05
1.299487422934541550e-03
-1.675179106641724262e-03
6.351657508045979988e-04
7.126478358615038003e-05
-1.161433310776445720e-03
3.871794498661887841e-03
2.655157859482518146e-03
5.615487091737143659e-04
8.428357098880422333e-04
-2.132485167797829766e-04
6.942603712085666356e-04
3.533197297508511607e-04
2.311555290679391875e-03
3.921557134915238697e-03
-1.110143616691095826e-03
-3.555982620160805588e-03
-2.708719924531874726e-03
-2.135843351507981693e-03
7.661304205033335002e-04
3.442219505486331446e-03
1.972743964288879541e-03
2.627376397367444023e-06
1.773964703712000617e-03
-2.152576975333111813e-03
-6.045994741926816705e-03
2.855032806756404706e-03
5.192369746313131584e-03
5.497669356791612481e-04
3.082962908434864514e-03
1.400533977499155433e-03
-7.327219452940721654e-05
2.575082660922742121e-03
1.552740291973209869e-03
1.709753850099356197e-03
9.342632639465405777e-04
1.055374142275421624e-04
-6.383856962930510972e-04
-3.105414747028838011e-03
5.416240821781616180e-04
3.199895477406221669e-03
3.325404242211079438e-03
2.711001474572408490e-03
-1.746862151657906570e-03
-2.785258527369146274e-03
-1.257724823756630785e-02
-1.852838416278554043e-02
-1.025901036688911744e-03
1.030755689936142892e-03
-9.486027842659967152e-03
-2.823645402180469544e-03
2.852992290767091769e-03
3.397775879997469439e-03
9.854621559260087500e-04
-1.420287736236214467e-03
4.149939097982784271e-03
2.636542594558162651e-03
-7.037019790465814809e-04
2.967670507485156272e-03
2.489452986651098133e-03
2.911611368689733404e-03
5.466016058785858750e-03
4.121968187346726833e-03
1.018373149881103557e-03
1.300939318934058830e-04
3.909307486498789924e-03
5.218753200524304213e-03
2.842144859076957582e-03
1.062935685765239828e-03
-1.730406663201273501e-03
-2.298506894995436343e-03
-2.339286813120569890e-03
-3.435214056946920506e-03
-8.255404412250142484e-04
9.649733302061252928e-04
-7.170889239538509857e-04
-2.315978697905690924e-03
-3.080807092508485757e-03
-3.337307736586006893e-03
-2.466935016795774802e-03
1.926945250846803185e-03
3.743265095871172940e-03
-3.814087756965009197e-04
-4.075178271111734780e-04
1.108314758427710826e-03
-8.272548243721669159e-04
-3.179206779083746911e-04
-1.830990871243733521e-04
-1.121051423747208408e-03
-7.755811673629088099e-04
-9.613842882257885285e-04
1.615733626600967133e-03
2.493532057609233916e-03
-9.510212119399675569e-04
2.985927128963106452e-04
3.181260769635596564e-03
2.209865389088714466e-03
1.388454727012782995e-03
-2.086538188725182107e-04
-3.952984995262326211e-03
-3.074024575353325600e-03
1.099460598995808270e-03
-1.153066317940465305e-03
-3.231222200101448606e-03
-1.646322543558192356e-03
-3.671129319159842624e-03
-6.174075713021513583e-04
2.452751070889450102e-03
-4.270874816911051849e-03
-3.956302681867830510e-03
1.772749295969731475e-03
1.293581204313885716e-03
1.308177860633107309e-03
3.046593862096275227e-03
4.034474776291162995e-03
1.021325062396321193e-03
-4.378483662621045561e-03
-3.715336016790301860e-03
1.076632881501822655e-04
2.957524033802103915e-03
4.049582879007397607e-03
1.818636566707570621e-03
2.636144923489131724e-04
-7.624007275467350889e-04
-5.028538328675860765e-03
-8.013168083896573049e-03
-1.822928605968993651e-03
7.493368716474104255e-03
7.972606144709553505e-03
5.625417456137699404e-03
5.026873933990887514e-03
2.060996770763595144e-03
3.709415861886809079e-03
8.068140667332152766e-03
5.423744922221450555e-03
1.824260281689355726e-03
1.853304816724816529e-03
2.638960502697461873e-03
4.041177645678981599e-03
3.233264439752563807e-03
-2.856303746845382662e-04
-2.233209773200629279e-03
-3.034963361795950734e-03
-3.995432555228137922e-03
-4.399711998481668600e-03
-4.002048771462398541e-03
-3.262621514015957565e-04
8.792378342648444339e-03
1.510571975867678121e-02
4.405217048865213425e-03
-1.375050207111671446e-02
-2.111622794639822151e-02
-2.702454285669682668e-02
-3.378205164694744050e-02
-3.610211306270118270e-02
-4.346189872791429709e-02
-4.404138280838763853e-02
-2.713975301318915373e-02
6.209032913274098019e-04
4.018483106663790771e-02
6.689087505354737728e-02
5.839834740983212980e-02
3.255442230216490374e-02
1.848953514674279725e-03
-1.962792490552631858e-02
-1.480184520472346485e-02
1.913506745161526815e-03
1.483057396063168672e-02
2.199884091690696222e-02
1.954959056598808489e-02
1.225520333661279070e-02
7.713444074558738379e-03
5.717245241378991587e-03
4.743894783784579142e-03
5.279700892476703669e-03
7.126924779860050428e-03
4.092250104321337560e-03
4.593661970574142292e-04
5.723273494580930973e-03
7.656231425839653791e-03
7.925217740573697878e-03
1.588655328337783279e-02
1.497793749950633926e-02
1.085466621026103494e-02
1.030274320158063202e-02
1.783223437123944693e-03
-8.369029534162420944e-03
-3.298762398005606472e-02
-6.753042372668364990e-02
-7.263092997632861203e-02
-5.489137518469185822e-02
-3.044152470086169612e-02
-2.341165671133025542e-03
1.174405922455259987e-02
1.507780774541913477e-02
1.841408505386482944e-02
1.252609988926701827e-02
-1.490935145993986348e-02
-5.066307915618251806e-02
-5.837234227042168572e-02
-3.748698314574773482e-02
-2.423827710839220051e-02
-2.407034927753400402e-02
-8.713750494341218275e-03
2.525238105607547842e-02
6.180152959061462059e-02
8.961536470303935187e-02
8.347144522265184663e-02
5.298091620073049068e-02
3.392129505972983627e-02
1.759540242225761039e-02
-2.966623595483389858e-03
-1.422526088895641715e-02
-5.551254996832700843e-03
1.355618107058804457e-02
1.290097233714345738e-02
1.311649852054296364e-02
3.731464575247634557e-02
5.394153115465259718e-02
4.971861932887845781e-02
3.387421288638484129e-02
2.391558310882594546e-02
2.536694351361847011e-02
1.148644593359310871e-02
-3.962139413424884543e-02
-1.157563096996975516e-01
-1.578907527203419203e-01
-1.552879429682395840e-01
-1.482956820096239248e-01
-9.687693071265938982e-02
1.600499951914547206e-02
1.078999769639461259e-01
1.184357776752050645e-01
7.563131267031589222e-02
5.953432343818829131e-02
6.995208482037056086e-02
5.211701303490888504e-02
8.748791811527191487e-03
-5.596594808055629228e-02
-1.090458784260314590e-01
-9.095578386247872571e-02
-4.833465659536475417e-02
-4.169480897651032386e-02
-3.326909139855911105e-04
9.628224415021166549e-02
1.081053077346686292e-01
3.998372284448733355e-02
4.021721173647170577e-02
6.573784606051065460e-02
4.660994615739599140e-02
3.656109094827617728e-02
1.043908113370085357e-02
-6.297322933711059501e-02
-1.353477300116453508e-01
-1.655317499835054773e-01
-1.276552916167156271e-01
-5.952678696825992183e-02
-1.515518214284690673e-03
6.409091465887065131e-02
9.138275347193956788e-02
6.387037403392198387e-02
4.345765524003556562e-02
1.777968954103830226e-02
1.720384202198419832e-03
1.929235432998122057e-02
5.609191637980820433e-03
-8.745070052357039464e-03
1.906034488179928973e-02
4.163937997183271567e-02
6.673417857153607358e-02
7.518232477204181419e-02
3.797019639302775390e-02
8.488241281861272705e-03
-1.095213045731824189e-03
-8.297976111322123705e-03
-8.112661024269182328e-03
5.203240045794041771e-03
1.952833871884699854e-02
8.887136036288824717e-03
-6.249721485694000392e-03
-1.726933917949087863e-02
-2.404444736651481507e-02
-1.234158082224775556e-02
-5.553293366490340971e-02
-1.521657481843214643e-01
-1.793421001728203457e-01
-1.454436228440156575e-01
-1.046351844952588539e-01
-1.802669480037305885e-02
8.652612764980299742e-02
1.301945276338555002e-01
1.336882269501502019e-01
1.044978034784737053e-01
2.064633767247651876e-03
-1.080388593451855617e-01
-1.386345018259488582e-01
-8.754447279700994233e-02
-2.010276509604009242e-03
5.675305323084930964e-02
9.335384093358947699e-02
1.345646751765939841e-01
1.552717993002087626e-01
1.230694775108877176e-01
5.322934764999789209e-02
1.806792277193846209e-03
-2.970217368385297610e-02
-4.993414196813334566e-02
-4.962991863945288851e-02
-6.083987521269981769e-02
-5.570867948037079576e-02
-3.507520030316011589e-02
-5.064965910487388701e-02
-1.657507024393866171e-02
9.881810650592258438e-02
1.865106553290994673e-01
2.066746727031505970e-01
1.546513681380520533e-01
1.508517876040267255e-02
-1.304667422423868572e-01
-1.940044679922422466e-01
-2.242863552556659812e-01
-2.190349804377177967e-01
-1.174730899859831867e-01
-2.128897329488502708e-03
7.728564567068477165e-02
1.549471484036954172e-01
2.059928507915893547e-01
1.847037253748489705e-01
9.714175448366216270e-02
-1.361210247884535882e-03
-1.531914085855742291e-01
-3.141413386535531482e-01
-3.045962908427484739e-01
-2.466848355000034465e-01
-2.869608735154738355e-01
-3.069627751015882589e-01
-2.063310351226084471e-01
5.266263510505427708e-02
3.439515514801788632e-01
4.885910896958326477e-01
4.557826430422409758e-01
2.677651221649805513e-01
9.007643059951821185e-02
5.133409331655256619e-02
6.516355855821073795e-02
3.730535655085621266e-02
-5.438876385328236113e-02
-9.717824057301666096e-02
-3.963405942622395817e-02
3.488478987096935158e-02
1.551337266213014265e-01
2.371774287702426431e-01
1.323629901351435767e-01
-2.256016951600762696e-02
-5.190879678617855986e-02
3.034860656489844072e-02
7.540688998122324627e-02
-1.883275572154561456e-02
-1.139361640236696005e-01
-1.164663148659841885e-01
-2.110330450819953296e-01
-4.502567268769464004e-01
-5.874549797937708151e-01
-4.862688357649868620e-01
-2.143410050049741888e-01
9.157831835092483663e-02
2.223264339603706341e-01
1.595323254178408479e-01
1.125527677196422049e-01
1.333196524452951448e-01
1.497369014833564993e-01
1.365425299106603207e-01
8.440758709647143421e-02
4.099596057885199901e-02
2.951858936818664569e-02
2.913886416011654892e-02
5.640194351917112575e-02
8.690652901591053303e-02
1.276769122576251747e-01
1.769776246066873671e-01
9.970670815256146846e-02
-6.352396098931617496e-02
-1.163579204906063924e-01
-5.926878618505700830e-02
3.728031568561421955e-02
1.258858481006076002e-01
1.065313396053525347e-01
4.250399239326504985e-03
-3.063632965526711868e-02
-3.592137230587925251e-02
-1.212145736721316341e-01
-1.485710145343447086e-01
-8.213038750847041769e-02
-6.732978510072272493e-02
-3.078185707092252060e-02
3.392103180489726422e-02
1.559173016776535005e-02
-7.835615370338456717e-03
-2.291792930499807202e-02
-5.463732060495427034e-02
-2.356861034419615794e-02
6.174765877966955502e-02
1.103158999802590773e-01
5.996561989647898605e-02
-1.013143127075529296e-02
-9.379816372722993983e-03
-7.180551351554341488e-03
-2.489704915863593174e-02
-2.963667207244041757e-02
-4.203071101101630430e-02
-4.411798115827780115e-02
-2.608808789951843135e-02
-2.262555753861113933e-02
-3.421031397084563219e-02
-2.604115687371640064e-02
2.546114826488532056e-03
1.964815213433524985e-02
2.262136863583902313e-02
2.246771674306943453e-02
2.916423099775232106e-02
3.859686593222357714e-02
3.514983845964488735e-02
3.007941729477901435e-02
2.486742135914662977e-02
1.453225950687972098e-02
5.837786073084177789e-03
-4.287864208030228198e-03
-1.115531024505043121e-02
-1.795063363841554668e-02
-2.439857761531285391e-02
-1.837525460129566662e-02
-5.776545336895303438e-03
7.986304410201091469e-03
1.470658182649698352e-02
1.409728416988914775e-02
1.315977941494517536e-02
7.837292651446645803e-03
6.634694855772475461e-03
5.946318407405932691e-03
5.198846255536727435e-04
8.174987510599781518e-04
-5.191217856083641616e-04
-2.601017892017940154e-03
-2.741577016590493552e-03
-6.297240942242983246e-03
-7.594843803542743188e-03
-8.194585773846515403e-03
-6.598164705269678708e-03
-4.162965493525839361e-03
-6.235098349384756919e-03
-5.110866409075943625e-03
-2.817854113492683846e-03
-2.186003985557539390e-03
-2.800306509190522881e-04
-1.589842411011855805e-05
2.640747629910420303e-04
8.662630751113818868e-04
-8.184239046827321371e-05
-2.006565794900701770e-03
-2.954575954538722887e-03
-2.833952236664296492e-04
1.941997750328994677e-03
1.586322237454677701e-03
-6.874668386328189719e-04
-4.532105201212221178e-03
-3.960358876478066968e-03
3.232129524986243884e-05
1.789913582551377761e-03
1.200521005117584708e-03
4.885643466697570624e-04
1.379479304942282875e-03
-1.062928809389968336e-03
-3.146351961365738241e-03
2.410558228897064208e-03
2.543484669347632812e-03
-3.151089140912321455e-03
-4.921426885120786139e-04
1.520350487460874573e-03
-2.108910334638774454e-03
-1.452905700022934362e-03
3.641937269122354432e-04
1.279620414301470277e-03
4.301892591642462321e-03
4.138021361274097851e-03
1.838791273932479341e-03
2.028375699308119888e-03
1.190480223029609808e-03
-6.828843144517322611e-04
-7.707055135576119107e-04
-8.577630105798480804e-04
-2.275490636814689761e-03
-4.465814875897540503e-03
-5.161084041054537185e-03
-1.429775729892635580e-03
2.874596494529760987e-03
2.312238936079466425e-03
8.126025482421334913e-04
1.690882326329355570e-04
-2.666799171426541878e-03
-3.320748383242924477e-03
-4.025250419652825801e-04
2.529283648590349189e-03
4.753109576153430674e-03
3.402727081628750122e-03
3.627962045953676395e-04
2.249027106412719186e-05
2.318271407407789095e-04
1.065952210909608356e-03
3.742109345201576065e-03
4.547127100725099035e-03
1.097048154618890164e-03
-2.274730941544369795e-03
-2.554239039229285000e-03
-1.608270161421880388e-03
9.212838279753873165e-04
1.545092722032168509e-03
-1.415716108031332601e-03
-3.041343675951219648e-03
-4.973549538173785770e-03
-3.937443870995338026e-03
1.364126887972113384e-03
1.442640400102734822e-03
1.301266472173920113e-03
2.947688436614267701e-03
-6.418599285623659365e-04
-2.440424722878089051e-03
-9.941591213605623263e-04
-5.995165097512607580e-04
-1.685326957550664423e-03
-5.798292053633543816e-03
-6.629826299608006929e-03
-4.337418740914126929e-03
-4.216118031976314427e-03
-3.178080507735433352e-03
-2.414948093750383419e-03
-2.571207694287756351e-04
2.035622972064477475e-03
-2.233352276746564981e-03
-4.510484225425513694e-03
-2.590745016700141904e-03
-1.323896150976581251e-03
2.858436806390246901e-03
3.121014078783924343e-03
-2.281179576653613844e-04
2.257755797422850586e-03
2.393890774172170027e-03
-8.963990514184222349e-04
2.855745589339312839e-03
8.419400446929162576e-03
7.149340198262084389e-03
4.179731321093912641e-03
5.267054635132829322e-03
4.925432729497573880e-03
1.975087464533490170e-03
2.481475533724055316e-03
3.543239763881847210e-03
1.708718343356197336e-03
-2.093887227990399622e-04
-1.555289848744163339e-04
2.456004927484340544e-03
2.991261623348415687e-03
7.469997399788164301e-04
1.570071129273613655e-03
1.898966779817464270e-03
-1.435673156776649112e-03
-4.501184461259851582e-03
-5.164856432757827624e-03
-1.391548834530078552e-03
1.249951687791171903e-03
-2.325515897085636031e-03
-5.785487362473819804e-03
-7.161938177913512553e-03
-6.148150018479684592e-03
-4.309354671675542925e-03
-6.374247065021441776e-03
-5.826490221013972022e-03
-2.172335004213909668e-03
-1.303351738590045579e-03
-2.141982580356139188e-03
-5.368583153696438945e-03
-3.763052190834279605e-03
2.656938032076510900e-03
2.705560643531136015e-03
1.758142225351631534e-03
1.872568718040203270e-03
1.269316521154056909e-03
4.443444548633920799e-03
6.133841657907678109e-03
6.973612527878170556e-03
8.261103636597008290e-03
4.366842740477822407e-03
8.959997036652675179e-04
8.918165208287845338e-04
1.733000687408822954e-03
3.802319100455411969e-03
4.884222957459642515e-03
3.584015084097114546e-03
4.967745236435659652e-04
-1.991485260260203612e-04
2.528537402858834805e-03
1.308331148375611094e-03
-9.244089230781898838e-04
3.901454297354759251e-03
6.918274828590255734e-03
2.109461545776105708e-03
-1.238104877595760456e-03
-2.152971895827277427e-03
-2.500926463970701372e-03
-5.649149911001265754e-03
-1.823850221173889397e-02
-2.086686558816830753e-02
-7.056688843977298835e-03
-2.460857838096271524e-03
-3.172725448264648428e-03
1.472200986591801859e-03
3.785157675405589461e-03
5.316615090652157018e-03
3.769665360908032795e-03
2.702943376839263105e-04
2.989143418216079701e-04
-1.638819078026983872e-03
-1.520826923523521624e-03
3.570023214157997185e-03
4.404845370564774293e-03
1.674748240384415056e-03
1.673487359408184832e-03
3.240611109686618741e-03
3.622947559159046815e-03
4.293943946896962467e-03
5.082806035678432040e-03
3.221327500401557822e-03
-2.766749428382922764e-04
-2.130577198414100940e-03
-9.143658451455260365e-04
-6.378555454407341344e-04
-1.263055145825292937e-03
1.623067692605725766e-03
5.249884141101583777e-04
-4.492970912474900970e-03
-2.789592463268539876e-03
-1.498731653107288845e-03
-2.349083059984972792e-03
2.503454989802757560e-03
2.983631294434746593e-03
-1.432604497476679725e-03
-1.727034890392417470e-03
-3.566142392488258483e-03
-3.783614436435714205e-03
1.530139596446045353e-03
2.986825318185491220e-03
1.585502017648526872e-03
1.108356600401695603e-03
-5.539358382114902089e-04
-2.910178709866991821e-04
3.545901977417569798e-03
4.316923624400281767e-03
-4.878818942196431704e-04
-2.957414007752862378e-03
-3.577911389980930820e-03
-3.917708544234756000e-03
6.181296095469852913e-05
-1.848225058661957017e-03
-6.006073761327668237e-03
-5.064708773036769376e-04
1.548925252036455116e-03
-6.805681033208462296e-04
-1.476862431131163711e-04
-3.820329098888339595e-04
2.986223871114060315e-03
3.966916144958744679e-03
-7.926564154246050703e-05
1.820241863985563651e-03
3.597277208282453204e-03
1.108298479186227772e-03
8.239273852225914704e-04
2.622963142515003995e-03
4.270717340954545242e-03
1.696498911278574362e-03
-2.815306507522540979e-03
-3.137669060967852776e-03
-2.639319928502349873e-03
1.171636449336505004e-04
5.522258206913214368e-03
2.786819965568470506e-03
-3.623959031568965705e-03
-4.038733267242775732e-03
-3.937204074061089430e-03
-2.168071547755246690e-03
1.891060919993931694e-03
8.862368496860460135e-04
-7.475280997194190449e-04
-1.084802210795368302e-03
-4.084607730837679952e-03
-3.949341032482787603e-03
5.514907906632655118e-04
2.908423135907014200e-03
2.763665640820662812e-03
1.616153938887544264e-03
-8.711700174706323583e-04
7.287002769706992368e-05
2.692292971515658929e-03
4.648453321500505995e-04
2.100641857614002263e-03
6.010419845379711030e-03
1.370412945196842992e-03
-2.311423094943372992e-03
-3.523969289089294230e-03
-4.552745549631899424e-03
1.177469489383768967e-03
3.122023206019358937e-03
-1.900211673539827818e-03
-3.821459359148426851e-03
-3.281867033940956760e-03
-2.582644869611329386e-03
-3.505896431104965193e-03
-2.015529153250053118e-03
3.437487600481440534e-03
3.804525025979167609e-03
1.524988095016548573e-03
1.196435849257433508e-03
8.742740808526628608e-04
1.247753189667396255e-03
9.509478314915678198e-04
1.544927954183606235e-03
2.849363898363107151e-03
7.273889904054007399e-04
-1.567795091454127557e-03
-6.176834744806087218e-04
1.816903988038732999e-03
2.279031759241572763e-03
6.013099263550744211e-04
1.544838591784592451e-04
-6.725741844561538034e-04
-3.189033465192406703e-03
-2.928981304836610153e-03
1.468877522411540185e-03
2.988269907327065038e-03
-2.618537753450732135e-03
-6.179299002607695386e-03
-2.635323094719346261e-03
1.472592726418049734e-05
-6.100508743766015068e-04
3.823024865849078370e-04
3.124114119959350497e-03
2.842729378194969268e-03
6.123836440861161285e-04
1.359725854549514480e-03
2.285272778265350687e-03
2.967182966182915424e-03
3.846875708869912022e-03
-4.983347680579156783e-04
-4.027550026366918598e-03
-2.569850026823993806e-03
-2.105874405260117332e-03
-4.752042436407258796e-04
8.289382322764350490e-04
3.282705707783763042e-05
3.237316712821903240e-04
-2.578957221018272905e-03
-3.452468926061791690e-03
-3.705000602525661811e-04
-2.266402721133414528e-03
-6.356379783599642097e-04
2.931979790928328829e-03
-1.476057716737028255e-03
-1.787597250745660490e-03
5.980472709155214501e-04
-1.626671242943871941e-03
1.070019568654421744e-04
1.157465848997069578e-03
-5.270012726596527003e-04
2.076309916294656610e-03
1.336216507492129146e-03
-2.956728417325395642e-03
-2.013996722170079915e-03
5.162756268672563046e-04
1.194587483884481304e-03
1.251319770125038262e-03
9.702099598108062262e-04
1.646114005848189508e-03
1.258794232767470591e-03
7.838457912486043169e-04
2.714826700077955287e-03
1.691794494179772127e-03
8.847969490088961563e-05
1.132295660045489795e-03
-1.581878284865693854e-03
-2.749714511569154116e-03
-7.954957989440687390e-05
-1.906781139460091449e-03
-2.913490134205591869e-03
-1.774819109546598263e-04
-1.449281468882995761e-03
-4.736222774258771681e-03
-2.213055861287691571e-03
3.650637991816627070e-03
4.332740253038654989e-03
1.863116379144012791e-03
8.976633143531239766e-04
1.030660840084726909e-03
2.862716485280800312e-03
4.203062569976384263e-03
5.217809085239289921e-03
4.748857902487219063e-03
8.659406622309720383e-04
9.101417800825980446e-05
5.361121139363387092e-04
-3.489669305938387564e-05
2.289384622528614806e-03
3.178071497213269449e-03
1.916342808189354331e-03
-1.882546275588859374e-03
-5.928649127486845111e-03
-8.373882041237266233e-03
-1.917234028031441356e-02
-2.289271492892238843e-02
-5.238641695817830048e-03
6.202417056942748259e-03
9.148843535583656671e-04
-3.421432307000319990e-03
-1.161794551568963744e-03
1.764110272248076454e-03
2.544861440615534768e-03
4.365856151051132963e-03
4.060417139601276044e-03
3.414907346532252991e-03
8.496530517585190387e-03
9.556656731893924117e-03
5.428015758522478779e-03
3.843714697532130391e-03
2.435129436939664858e-03
1.604166906698354387e-03
1.230938368892327923e-03
1.820390255827768330e-03
5.441573318784031187e-03
5.025394936620476358e-03
-3.405899717618948849e-04
-4.634145671341081789e-03
-6.681969599201618287e-03
-4.774640026887829770e-03
-1.358383493292388824e-03
-2.533322846097180343e-03
-5.105681146431725187e-03
-2.528033572246618857e-03
-2.988366047160492854e-04
-3.645952568933257323e-03
-4.725253215611097991e-03
-3.135886963470239409e-03
-2.183518906892567297e-03
8.213020938321322680e-04
-4.758942702829668326e-05
-1.301390153199579250e-03
3.539725723066668248e-03
4.365368995503075486e-03
3.835612691075028328e-03
6.448697189934001449e-03
5.718856404063483653e-03
3.891360491320195424e-03
-1.000825524591764776e-04
-3.815527678047325733e-03
-2.138719185000774545e-03
-1.502141360376368527e-03
-4.909350064736305117e-04
1.795368601077472178e-03
3.120234847940021525e-03
6.251328870982583372e-03
3.189802956588720390e-03
-2.200830189409679321e-03
1.926712065686432985e-03
2.338852486504839224e-03
-4.738986524578170552e-03
-6.706471210747115379e-03
-7.859035686642647581e-03
-7.266287695531804640e-03
1.130524124063037831e-04
6.724417870287908473e-04
-4.416243829949862559e-03
-2.683574598707166078e-03
-5.473278478564009859e-04
-8.307056508446061241e-04
6.692515335757627222e-04
2.121880901225585078e-03
2.069728407144980336e-03
2.038324136173859727e-03
3.258383483768851046e-03
2.121414853129322030e-04
-3.819706080233374601e-03
-1.941183384450754189e-03
-1.484156132246994969e-03
1.259556381949616900e-04
2.800866128446138220e-03
-3.402723475150151613e-04
5.197548144464524296e-04
4.245440431511243902e-03
5.052174655387189385e-03
4.271071563250298381e-03
1.001956659418416816e-03
2.864419623673853874e-03
2.918446840021124162e-03
-2.765543752879574303e-03
4.326225621261980394e-04
4.314825612755511693e-03
1.872860866219307066e-03
2.374692626558034105e-04
-7.314463418066999853e-04
-1.293830864544562613e-03
-3.947749782847263106e-03
-3.562830422573703363e-03
1.237580205632298142e-03
1.180992265659222768e-03
8.226854173894939271e-04
-3.218036473541939675e-04
-4.561094315226004933e-03
-3.574486510216988867e-03
-2.354665891690037056e-03
-2.847003195172416283e-03
6.143003820465602104e-04
1.362245102956863513e-03
-2.522033082221217162e-03
-3.020156976310633436e-03
3.166904641173101274e-04
2.263230067375401888e-03
2.636784735933134834e-03
2.289642549948604604e-03
4.015773071941346260e-04
-4.156653268089053081e-04
-9.801908496160219916e-04
-3.491267205590019556e-03
-1.662481023373255529e-03
3.206082513749920499e-03
2.106398155431098325e-03
2.150271274449307613e-04
3.192980957795452969e-04
-2.781716199904963292e-03
-2.097537964545564092e-03
1.861660650082734830e-04
-2.495480329133695566e-03
-2.505153304162392193e-04
2.670147213292153356e-03
-1.688765524067596235e-03
-4.016528115743010774e-03
-1.383178030321426891e-03
2.926184141332827462e-03
4.827208433162321483e-03
2.900848745737649292e-03
3.848616745808449194e-04
-3.279148667915927819e-03
-2.738266955191098577e-03
4.276399932625008643e-03
7.638213779295988451e-03
4.336439039235267905e-03
2.896424915373682109e-04
-1.017228979537365945e-03
-2.860699961729134232e-03
-3.405286986083517781e-03
1.251474128904517952e-03
2.733865577709685465e-03
1.046867553003533310e-03
1.248934874049912463e-03
-6.923599315045008426e-04
-2.624037995344595010e-03
-2.902007484543227440e-03
-2.142543048859226352e-03
1.767810087286855562e-03
3.736621540443965054e-03
1.104345048724785124e-03
-1.311366559046159199e-03
-2.081971114387582908e-03
-2.989195670182727936e-03
-3.008781672464540952e-03
-2.588794939551421637e-03
-3.045793823366606430e-03
-8.079172794397377439e-04
5.462850439707668928e-04
-1.860063587785808648e-03
-7.592864211150224859e-04
1.162383400151903706e-03
1.345676583408414104e-03
2.345176345898000378e-03
-3.868977638851301510e-04
-2.931951326261800043e-03
-5.368214008038092386e-04
1.877400601367885382e-03
3.812960022221251102e-03
4.271054068346752559e-03
1.475402111647035807e-03
-7.441555408832265872e-04
-2.505604608428630645e-03
-4.235877573674905194e-03
-1.674593213800545672e-03
1.180315736651616799e-03
1.031913809565406653e-03
2.217241036327734661e-03
1.351590247236585975e-03
4.148533651165468264e-04
3.347221295498167652e-03
3.042933702035219290e-03
2.421213005610878266e-03
2.355478489756084905e-03
-9.037858527422967456e-04
-6.766114371724373877e-04
1.896130473372903587e-03
3.580294094616836426e-03
3.197781862827104703e-03
9.453943709508022021e-04
1.575746731112501534e-03
-1.938537446481227475e-04
-2.793312118087244462e-03
-1.988666584596431638e-03
-1.556970332017134457e-03
1.788660371512624180e-05
-3.657221168725737371e-03
-6.033980523712725516e-03
4.876545447300980143e-05
3.036528526618296098e-04
9.152311058218741240e-04
2.796770279945515626e-03
1.700696877437959552e-03
1.974706107774356397e-03
-1.457241087900652300e-02
-2.745542861372841231e-02
-9.877134563982268092e-03
4.382207972471397622e-03
6.675782056914286548e-03
1.069252260013957637e-02
9.635972851731582425e-03
4.149693729309469024e-03
1.777494200397929547e-04
2.801843509439762986e-03
4.842555750702357172e-03
1.953048325002069725e-03
3.510400480459233055e-03
3.077287802505290683e-03
-9.624225913013523866e-04
-1.652469692019384231e-03
-3.075719553550538936e-03
-3.308658081389018266e-03
1.068756389532578662e-05
2.522415539624510081e-03
1.025286811510284137e-03
-1.357494891822134909e-03
3.429300728066090199e-04
2.031821052042935127e-03
2.216383940544444132e-03
2.078138268513745734e-03
7.541545375457576247e-04
-1.794295349542141655e-04
-2.105649093319938384e-03
-2.399293352265771933e-03
6.377675506080786837e-04
2.069895479111984876e-03
-2.482584721382858858e-04
-4.166041562293079821e-03
-3.302396606215994481e-03
-5.837470823147794703e-04
-9.123908221068091802e-04
-1.017861001533615470e-04
1.021264773477056735e-03
2.963064600638434885e-03
2.346261036278638606e-03
-2.200679713567727132e-03
-1.154394559508917922e-03
1.305954726014779774e-03
2.690906212131466326e-03
3.251648495951447223e-03
-3.739325326570192920e-04
-5.945524642400210004e-05
-1.989017843420304126e-03
-7.170657088029890221e-03
-2.179686191301591445e-03
4.283135060325925225e-03
3.279359211515015925e-03
-4.965951598382671237e-03
-9.136330448658214545e-03
-6.682309689427740149e-04
2.954549939773036191e-03
2.838397797733079996e-03
4.663130726349414348e-03
-1.180779311239621389e-03
-3.737935685372215534e-03
-1.430488298360789792e-04
1.727668757199249177e-03
2.401868510512192995e-03
1.418828900093507123e-03
2.912761623624935368e-03
2.890400967372821171e-03
-5.902803879212968575e-04
-1.457066819006306050e-03
-1.252648691444720143e-03
1.614585277205150956e-03
1.918845406904461917e-03
-1.752769741610754736e-03
-1.049124405729955078e-03
-2.153749245503047954e-03
-3.852239287960261462e-03
-8.043130395897481145e-04
9.814134840177581552e-04
2.253200510167171437e-03
3.283268013894780069e-03
1.306290661625980013e-03
-1.573830570508752023e-03
-1.077776721295691052e-03
1.350040484881081517e-03
7.312015140262636192e-04
4.270297628467504430e-04
-5.132906149416910065e-04
-1.911798124379833399e-03
1.002953645072435142e-03
1.834971072150364587e-03
2.071124070125307179e-03
2.919386586773620954e-03
-3.025234278726432035e-04
-1.427468530746838719e-03
-2.837184196056248466e-03
-3.462864802116400603e-03
5.631195671186666439e-04
-1.313701819667846419e-05
-4.400363049381582608e-04
1.851243068921787143e-04
-4.795617312415303111e-03
-5.713228159989550137e-03
-2.566853356780377394e-03
-4.570221322800671246e-04
2.584037185987940292e-03
4.471298526084083701e-03
4.748398473841955285e-03
1.982723525380032485e-03
-5.356285865551762984e-04
1.728307256717055273e-03
2.902724523358113113e-03
2.136613825008269480e-03
-2.929041854882812284e-05
-2.824494211979476817e-03
-1.301422916180013578e-03
-1.255069042315579142e-03
-2.485918911107977414e-03
1.861246233218733599e-03
3.560594315077503843e-03
-6.402133995279020180e-04
-3.349203973635996728e-03
-2.539541528703645728e-03
-1.034366913387888432e-03
-1.878531776022977339e-03
-1.373697755063553461e-03
2.477735540570337631e-03
3.380394665603799181e-03
9.459595167036427771e-04
-6.770012101893178738e-04
-1.166436052021345210e-03
-1.572922967140415965e-03
-1.731912082347319666e-03
8.085305219812283814e-05
1.226368369295922868e-03
-1.151869104780283218e-03
-2.131851370421117536e-03
-1.174881449617893496e-03
-1.952511659070587258e-04
3.861574656496139131e-03
5.818049088622552489e-03
2.604991509361677046e-03
-1.196782033128098268e-04
-1.563269785656411183e-03
1.439679933097079336e-03
4.942530157598605707e-03
2.178018566355394321e-03
2.367286143734147110e-03
1.739468864501975088e-03
-3.384311870605141454e-03
-4.928876005604151045e-04
2.333415322296979611e-03
-4.095138235955505038e-05
-6.890452241863478716e-04
-3.057250961578036885e-03
-2.732404584034573650e-03
-9.398831237497337404e-04
-2.121521446781545698e-03
-1.782501927234946730e-03
-3.085932911728582386e-03
-1.710381156480294835e-03
-3.092261402207745907e-05
-5.245182705335495014e-03
-3.610832436166350450e-03
9.692571070658040919e-04
2.155367053876226660e-04
3.879756030820703024e-03
5.241223424040256616e-03
1.180028852553562319e-03
-2.466941385782665309e-04
-1.132463438618379033e-03
-8.457970443750313389e-04
1.870596340901788113e-03
3.313454876843765530e-03
1.979887419344578971e-04
-3.796736552203567368e-03
-1.970291704797246489e-03
-9.468343842382558181e-04
-2.972355132219136557e-03
2.377768580637876477e-04
3.008738036718288517e-03
7.579484151666749520e-04
2.556365386711692512e-04
1.579782983128112184e-03
2.018835731222260767e-03
1.742605391258560642e-03
1.196005542348956745e-03
1.270823794418132324e-03
1.281244357284809770e-03
1.129441945905537399e-03
7.325688924148376219e-04
4.160190985707914514e-04
1.927703913231224812e-03
2.411770459538244843e-03
6.614395755141443643e-04
-1.230259070980514475e-03
-2.132892074286931155e-03
8.753933645813050590e-04
1.653703795237325067e-03
-9.693643458795746671e-04
3.147132556463170649e-03
3.779944022876404255e-03
-2.129251677474415516e-03
-1.154538122516090518e-04
1.471125904143477095e-03
-2.216668167922267434e-03
-7.481981924658589675e-03
-1.759357296326831063e-02
-1.674270983613534991e-02
-2.731589612781824394e-03
3.013687535962588683e-03
3.889016824235133618e-03
7.492069657146119277e-03
6.511918858930237052e-03
2.613528764774426024e-03
2.522989781048609148e-04
-1.504723277223846871e-03
-2.282152686680245183e-03
-1.811735918419730539e-03
2.032864088102138219e-04
3.306418502379138060e-03
3.766589287853283619e-03
2.452106770700516764e-03
3.254605672921830496e-03
3.126214267553493239e-03
1.353519135634147653e-03
2.429261684929525690e-03
3.978344663734845708e-03
2.027294601199973716e-03
3.957494236946841365e-04
1.714377670744428751e-03
1.308881150847742737e-03
-1.526804937524713123e-03
-3.437353007754846874e-03
-4.472522724918781729e-03
-3.974677654873875858e-03
-2.525381687456643848e-03
-5.652627824819061704e-04
6.026140416335418973e-04
-1.765310039118202137e-03
-1.473034296798559923e-03
-6.543394059419116882e-04
-5.400387458530678253e-03
-4.528306589645740392e-03
1.881001079914918200e-03
5.194774988305236353e-03
6.081591818369122375e-03
1.490304669645712600e-03
-3.363088902817562217e-03
-2.860920465687826278e-03
-2.647810272648870502e-03
-4.688794153738145079e-04
3.023045811957359233e-03
1.173674979876426511e-03
-1.748744474130044897e-03
2.945393533521677501e-04
2.792585484790578981e-03
2.112917417735852166e-03
3.878113318316519717e-03
3.341125046894068834e-03
-2.430542866708703884e-03
-1.694696147836723425e-03
9.330365031169267440e-04
1.375757660145900531e-04
-9.809967087085892483e-04
-4.969444674845876174e-03
-3.242806376003458391e-03
6.375392608664982256e-04
-2.162884039597590298e-03
-2.785674519291299334e-03
-4.378338601897260179e-03
-4.991222404086058904e-03
2.957879839192252211e-04
2.867695246348720903e-03
5.773675338573364471e-03
7.215083631830681264e-03
6.729186754922649415e-03
1.106374062500199359e-02
1.082856715825501921e-02
7.116063414059816544e-03
6.806627647995396047e-03
5.001788543705761036e-03
5.679566625784750449e-04
-5.199877887391359498e-03
-9.057877427123635708e-03
-1.189021912559991984e-02
-1.271707540587747008e-02
-9.761028362146723786e-03
-1.163850635204475605e-02
-1.503190636306280144e-02
-1.433945443974774490e-02
-1.052358316073300805e-02
-3.494614481619581076e-03
-7.890580531335035985e-04
2.364997863680350088e-03
8.639249260535887889e-03
9.716783835675533651e-03
1.112982447483507054e-02
1.253302255544016912e-02
1.242886880928354906e-02
1.117720889401911666e-02
4.644989784183043563e-03
-2.541255451708884783e-03
-1.174604784669656433e-02
-1.055522225833054224e-02
