1.958398424192123784e-03
8.237175170357187784e-03
1.767271065211967890e-02
2.605998330852960995e-02
1.978265887832472356e-02
1.437204576547094353e-02
1.031453010129091373e-02
6.272909925674152905e-03
2.952882978847983560e-03
-4.225500760637200884e-03
-6.818394028831062728e-03
-1.123627741590037254e-02
-1.783216632464802026e-02
-2.053351239238351486e-02
-2.322377453845100165e-02
-1.667842855949471306e-02
-1.387469415428533095e-02
-2.010066916046912219e-02
-1.217655814888549126e-02
-2.199669563193290198e-03
2.270909093527147607e-03
1.027142206059214642e-02
1.096017656331269886e-02
1.035013106992352210e-02
1.589832628814603216e-02
1.328313103858591061e-02
4.332538182097269916e-03
1.999225240990578495e-03
6.568249684777910987e-04
-3.855220236409645680e-03
-1.036575735713135245e-03
3.211660111738482912e-03
-2.460717060444855570e-03
-9.600346241967877212e-03
-1.150000380403176301e-02
-9.468892533203477485e-03
-7.136413350860886656e-03
-5.570465464410089516e-03
-4.884599338670135658e-04
4.020482805167134924e-03
5.526837007625969023e-03
6.342786985252576136e-03
4.821375216590567669e-03
5.485594061354919296e-03
6.347821167372704257e-03
1.068517844452219687e-03
-2.009904263862561866e-03
7.982553451845201750e-04
3.152285840560257145e-03
2.452990422482557564e-03
9.336381403057703466e-04
2.813775346786468595e-03
5.282042582211865338e-03
4.029371496729368916e-03
3.832070626047644635e-04
-3.211237631808689600e-03
-2.353869945323053964e-03
1.028860761300757175e-03
1.591817937972833446e-03
2.400729276529543939e-03
1.948689264653759821e-03
-2.334551879141803874e-03
-2.814654309380661915e-03
7.433712352093060742e-04
9.244159861973378148e-04
-4.728662610396488358e-04
-7.890985759952727583e-04
-4.466045890839344217e-03
-8.419565238987170713e-03
-5.565870545673094055e-03
1.178104499284967613e-04
3.170192909643702438e-03
1.398664985339861336e-03
-2.557592007854859583e-03
-2.180484070589474698e-03
-1.658683948615536589e-03
-3.684944342866293843e-03
-2.408007512869026097e-03
-6.323626604114375872e-04
-1.134359426587452577e-03
1.694983395538798279e-04
2.581594130526368349e-03
1.540956760783165642e-03
-6.172854581884179483e-04
5.379325455232993026e-05
-9.787492774703220044e-04
-2.231188842590884052e-03
-6.805000684434827675e-05
-8.013799205204973509e-04
-1.394284413485739329e-03
2.279724829671153728e-03
2.234760667649405945e-03
5.041347900197399971e-04
4.636415450587839243e-03
6.290190005039453421e-03
-6.894172339224092236e-04
-5.143288872769881739e-03
-2.755582275736694238e-03
4.966950606020624449e-04
4.180903201874580991e-03
5.548645433427736029e-03
2.136133881332578227e-03
-6.930781348969743084e-04
-4.319559593942197558e-04
1.543457407077107569e-04
1.751240328816407307e-03
5.469041028925788854e-03
3.502339665091094324e-03
-3.363005356528367667e-03
-2.916223736606313611e-03
-4.008802941887458981e-05
-1.960856310087950079e-03
-1.730412739044383816e-03
2.308646531116439159e-03
6.060036534293047721e-03
3.870437215175904881e-03
-3.003062728298800527e-03
-3.336784664575342865e-03
-1.271674182879624782e-04
-2.547835714967726546e-03
-4.139314610622210622e-03
-1.992590972890083845e-03
-8.695545976628365689e-04
-7.341760131459702191e-04
-4.412339779069496780e-03
-9.828579958983917064e-03
-8.195215555834415438e-03
-4.016567987399539269e-03
-3.188378252464815939e-03
3.644185406545394010e-04
6.448371016095078880e-03
7.142886833664196036e-03
6.568394088181897517e-03
8.885339663273848082e-03
3.753225063323123879e-03
-3.243845862149326732e-03
-1.453042018688665291e-03
-9.594465817970527837e-04
-1.651464626831918459e-03
-7.036637389149218592e-04
-2.219340830557386523e-03
-1.888277252849315541e-03
1.309240058511163939e-03
6.210479592375225781e-03
2.380930738260832527e-03
-6.800830127606616142e-03
-2.624634297074514549e-03
-1.086795092624344384e-03
-2.951937285413119751e-03
4.997361580888129776e-03
5.123957197562923650e-03
2.333315274336153055e-03
3.995174546818321300e-03
5.472951425534172340e-03
7.272901965975530486e-03
3.067738422086541475e-04
-4.494259779115911124e-03
-5.845094825994577754e-03
-6.243724500063005736e-03
5.867309455514744219e-03
6.585503180540263658e-03
-1.744255545172848166e-04
3.146763448170533358e-04
-6.149952690499266468e-03
-1.061943417239570022e-03
4.689476851994564023e-03
4.873629940112121813e-04
5.803393784553200624e-03
-7.082420670055496192e-03
-2.150635420497776576e-02
-8.525765275246149910e-03
-2.864167745833139534e-03
-1.151624510832192265e-03
3.160034107691246912e-03
-2.785385491329943342e-04
8.788495910203727394e-04
6.540055049128496324e-04
1.046753602509630388e-03
5.982829982243155140e-03
5.810432894874998679e-03
5.730023856499813668e-03
1.801478001195137109e-03
-3.876921558927232808e-03
-2.378261388076838463e-03
7.004929695597622704e-04
4.128984233405875830e-03
-6.168737013208259448e-04
-9.357158659957670946e-03
-4.400046844243755105e-03
3.449078342907196081e-03
7.212895777875752944e-03
8.050843634815273500e-03
1.171709325393160495e-03
-4.854791146036945134e-04
-4.163425107436573747e-04
-7.641258260500110797e-03
-2.252415102236368909e-03
6.803222132328215488e-03
1.544586347267388809e-03
-2.177053231694199825e-03
-4.629870479625475092e-03
-4.339662561939583614e-03
5.171761123417047828e-03
3.783308437524358307e-03
-2.184138292856767447e-03
2.720051748221801379e-04
1.396185303390339635e-03
4.102669695391402208e-03
7.387234915459785570e-04
-9.886640286137029360e-03
-9.681961274667957862e-03
-6.887288270310651557e-04
8.046457233534743542e-03
7.451172433095711901e-03
3.334107924174101178e-03
6.719547822287543805e-03
2.856148972655509714e-03
-4.115460253644179049e-03
-3.920524703048578440e-03
-3.332381823102786595e-03
1.460063121483101299e-03
-9.145719975815651877e-04
-8.921613725500892114e-03
8.032258600241195417e-05
7.497715231127208800e-03
-6.773902911759337783e-04
-5.717733176902980129e-03
-6.186955001156691121e-03
-6.358736110100267694e-03
-2.781882273505344519e-03
7.916359169585279396e-04
3.812804893322188290e-03
6.248909869768753088e-03
1.614869739791322499e-03
-2.955146739909898183e-03
-7.446749325104478939e-05
1.278391048615666213e-03
-5.960762137390744706e-04
-1.294062031613870713e-03
4.735174063915356711e-04
2.511686921922657093e-03
-1.175854086765880119e-03
-3.190476670521118913e-03
1.975211985560830150e-03
4.750490196064464585e-03
3.549666524546796556e-03
6.429938913579155528e-04
-2.733476575861601334e-03
-1.232773541724193223e-03
2.805213630636576357e-03
2.675778361274025637e-03
1.655106836467228103e-03
3.996584861827926806e-03
4.266771590069424677e-03
4.409112676494829201e-04
-2.655790905655495797e-03
-1.738739041160741695e-03
1.085053884411924874e-03
-1.434930305958611587e-03
-6.563900448917206476e-03
-4.756641662357468173e-03
1.265154828829118941e-03
1.718010271732698475e-03
-3.512815764746711131e-03
-2.564336542965246074e-03
1.960728337236950728e-03
-8.231551489837955716e-04
-1.183847986050558937e-03
9.955900134875662888e-04
-1.878433233146997684e-03
4.943917646193496645e-04
4.028483240441386656e-03
4.965489130703814322e-04
6.922093615484308958e-04
3.392009905870537086e-03
-4.631931910731347806e-04
-4.452388167428101597e-03
-3.072462507109276642e-03
-1.025143170761272154e-03
1.142329814630073338e-03
5.035979991480739847e-03
6.559667742338553403e-03
2.323702428926307639e-03
-3.242455703756059061e-03
-3.135925687517225353e-03
-1.933112394292343201e-03
-3.667786148329073553e-03
-3.702285926186409289e-03
-5.618385300250811239e-03
-5.568777155923944344e-03
2.190455307017909366e-03
4.003180867124317942e-03
1.315182050343836548e-03
6.509319532257100763e-03
9.394829680682018069e-03
3.794514687918726023e-03
-3.920203887717622643e-05
-1.714465558927652077e-03
-4.456690533039596100e-03
-3.230473981096176721e-03
9.478861696224686294e-04
3.521017765617034598e-03
1.184596591702854682e-03
-4.061341042455669618e-03
-2.813400531654644977e-03
-9.857449065992182104e-04
-1.174337929087869480e-03
2.720616363465494167e-03
1.394382094303711107e-03
2.543944747207927499e-04
3.604515830235315368e-03
8.088493815432043054e-04
-5.821188038775781774e-04
4.425009693969970503e-04
-8.641293543251687536e-04
-3.101660820755254133e-03
-4.272264047994979094e-03
2.166661036220722449e-03
2.589430591906670583e-03
-4.653112905729056255e-04
7.374428984808236408e-03
3.414999203539719093e-03
-6.175332411451551172e-03
-2.816085692526585412e-03
-3.456284354942670638e-04
1.809787267425905840e-03
1.228226942738226473e-03
-3.736947911706991164e-03
-4.210565904883535604e-03
-5.669113452280441327e-03
-4.803795443012716382e-03
3.258711288453874141e-04
5.590775081277210741e-03
7.467585186069501495e-03
-8.556590296260751811e-04
-5.074286142452783845e-03
-1.948596304860496578e-03
-1.671554405709395341e-04
3.646054853195407688e-03
4.653955120374966706e-04
1.278554855652315383e-03
8.408872547601262473e-03
-3.250983092457911377e-03
-9.850145495432323026e-03
-2.335604416269844463e-04
-1.890338849919547806e-03
-3.830798753939275436e-03
3.701657689772440136e-04
6.060906365606355756e-04
1.799472025765323996e-03
1.503462370866470678e-03
3.636325089970430992e-03
8.264609402529607754e-03
1.187617552138709289e-03
-3.284557494224074441e-03
6.875904421270956010e-03
8.994657617551131412e-03
2.087641365924521476e-03
3.066677187524573418e-03
1.985074205956865144e-03
-3.935563937582363739e-03
-1.895595710592566478e-03
3.113996487935775828e-04
-2.428063934900739126e-03
9.833734887590755893e-04
4.323468266364510759e-03
-2.299125110992639946e-03
-7.416867218685105345e-03
-9.740261727627557223e-03
-1.007004352096554922e-02
3.706637481582188663e-03
5.095443372339849772e-03
-1.908276279937908687e-02
-2.164978085459965187e-02
-1.573936089667448768e-03
4.627411307625661600e-03
2.569082175941627896e-03
3.788382926976732647e-03
4.784165595531973507e-03
2.834436627030659673e-03
1.582560670704063902e-03
3.296486775550665303e-03
5.466702936387894673e-03
9.615351350266003114e-03
6.478962753248298373e-03
-2.221888064167744023e-03
-4.810474957290619301e-04
1.524628730859076912e-03
8.331491573328170643e-05
4.634668634750253868e-03
8.058810887172097523e-03
6.076753362934415870e-03
9.303783744697825906e-04
-1.252867958021008617e-03
1.482937322553772464e-03
5.593660779097873971e-04
-3.574303943924650711e-03
-5.805396357142699089e-03
-2.633108299381774903e-03
2.782610286924743978e-03
-8.804770823742929945e-04
-7.642518694394944377e-03
-5.873152788654153675e-03
-2.634068090022080328e-03
-3.683836075575489671e-03
-4.604887462149682455e-03
-4.720941518967319839e-03
-3.081424724989445356e-03
1.229254193870871984e-03
1.702962713096621171e-03
8.030619172415010562e-04
5.483285284554594366e-03
9.569604397852518943e-03
7.395777529177612400e-03
1.548884556346069412e-03
-3.829833904335036478e-03
-7.583507597959525393e-03
-6.080558999618812868e-03
2.387419375409451788e-03
6.209272118361831676e-03
2.406698007452499205e-03
-1.356045583174560025e-03
1.322850627716891467e-03
8.858838601113597222e-03
3.177674110396440485e-04
-1.396061844988422812e-02
-7.268320743264721460e-03
-1.707366648347723691e-03
-3.262357481122797435e-03
4.062045228699634122e-03
3.497034999054601193e-03
-5.360171406673941430e-03
-2.875938623534555344e-03
4.648344553209862035e-03
3.682269772502614127e-03
-2.111329622162249622e-04
1.782700818215074380e-03
6.254388104814558556e-03
5.891182956933127372e-03
-6.113099787851011303e-04
-2.647626328886944300e-03
6.479068344489653970e-04
-7.291172399470109830e-05
1.046113103182386237e-03
1.924933764660738790e-04
-5.923182997436850054e-03
-2.518259955566824141e-03
2.259614605639696447e-03
-4.464333055916361835e-03
-6.653006885570252049e-03
5.145418165742631118e-03
1.034468615291579859e-02
3.420290354350386149e-03
3.088152105860343319e-03
2.393179653271685497e-03
-2.153447325840897406e-03
-4.328209406562459225e-04
-1.662993977769808892e-03
-1.930976192435843132e-03
-2.741751827527747019e-04
-3.772627469506145519e-03
-9.457857614406208271e-04
2.728869101795954998e-03
-8.795020322498828822e-04
-5.603996246403450572e-03
-6.890196251297770261e-03
-2.123816326602107063e-03
3.460767642887983310e-04
2.918098618641091092e-03
3.815144209457779160e-03
-5.945774160292304628e-03
-6.012062778536137776e-03
9.354370361645718886e-04
-6.528869376935884494e-05
5.909118361750086146e-03
8.029041624648817696e-03
-2.724795771677804030e-03
-2.687891062373813558e-03
2.954871523616360313e-03
-1.405785901547083839e-03
-1.037177342224788676e-03
6.219076556837225232e-03
3.966410854746026636e-03
-2.280531518755151820e-03
-3.110525653710658790e-03
-7.557950802447212105e-04
4.713468192358048064e-03
7.263067606583690182e-03
2.082401638530922798e-03
-6.324013839828591943e-03
-9.175645412283514255e-03
-3.072264381500771410e-03
1.852412632549001355e-03
3.200298703215723791e-03
2.988080863961602076e-03
-2.883629227288585922e-03
-7.307442677427190662e-03
-3.765546692497043907e-03
2.660012048840006485e-03
4.666550993306158024e-03
3.455129237864117651e-03
3.838611842334669916e-03
1.449957380577263262e-03
-1.041674719540287841e-03
-1.031323940821816292e-03
1.933501130362931997e-04
5.407381992324823174e-03
6.002542563962587601e-04
-9.079519708739899539e-03
-3.424624167154978905e-03
3.695162181241049178e-03
4.748469504667992246e-03
3.994644345563304853e-03
8.644162547343605708e-04
6.513753596274702087e-04
-6.671561854065203440e-04
-2.033195990444307960e-03
-2.250160999570920573e-03
-3.739883744780332728e-03
1.082033914746303267e-03
2.300224659039175248e-03
-2.425519733350668498e-03
-5.525540161672064850e-04
-4.512681475664667534e-04
-2.110855387938920160e-03
-3.198247473473650026e-04
-1.415179336765469593e-03
-4.634691454244543700e-03
-7.112634778605098421e-03
-6.625886739485512857e-03
-2.575569710040793298e-03
5.416954571039926149e-03
1.140112562638353859e-02
6.639074173499221083e-03
2.173551641922349606e-03
8.373282164734852182e-04
-1.091126878599366209e-03
3.388348327740589236e-03
3.566862307618775575e-03
-1.192440169417564519e-03
-8.968399819163819404e-05
-8.254322490160897249e-06
-1.517209177130888348e-03
-4.324074502682260200e-03
-5.574254969474097196e-03
7.337629821415832298e-04
1.541363798422478110e-03
-5.832222478830435992e-03
-6.882335358477437680e-03
-1.733782272204247975e-03
-3.637778111618580846e-04
6.112254093322169561e-04
5.823116245350831374e-03
5.220666099426752096e-03
2.279514424989217275e-03
3.364228661301133568e-03
1.420541250955526967e-03
-3.208524005933663099e-04
-1.984982747528175526e-04
2.456888045837294851e-03
6.546589322548749222e-03
4.207735167573288353e-03
1.586913097436418868e-03
9.904654841717906028e-04
1.047151539214739337e-03
-1.089718883413673422e-04
-6.865970735514904076e-03
-6.670888784598284597e-03
-1.041630279464672527e-03
2.039355403376138121e-03
3.118996858440555801e-03
5.525774608569341629e-04
4.732314728874503773e-03
2.471382998590356504e-03
-4.706021766506526989e-03
4.540087661782075696e-04
-1.411393824725710143e-02
-2.606658913096312688e-02
-6.311298134576926767e-03
-1.138577464121476052e-03
-2.594863127065485508e-04
1.100837179230177397e-02
7.005721037047761036e-03
2.782876528037044311e-03
3.205032370232816213e-03
1.636649304835344470e-03
1.538058734335191096e-03
3.700087852811186268e-04
1.995151184258374746e-03
4.266129402548082990e-04
-4.460299583585377323e-04
5.516473219242382098e-03
2.832905456283660740e-03
-2.591509201092351625e-03
2.534370243003293902e-03
8.933008840169249370e-03
7.034157232560782347e-03
3.275165890712208004e-03
3.223018316503566214e-03
-1.643465379636763202e-03
-5.242513828686242751e-03
-1.858445646919501711e-03
-4.250924480647086910e-03
-7.369125824875028333e-03
-3.512057362309984384e-03
-1.742710883523266446e-03
-4.666919680937771722e-03
-5.061824373850494323e-03
-4.768001763343243009e-04
1.386894938569524678e-03
-1.252243014626646788e-03
-5.840513358006469823e-04
3.400014369202322174e-03
1.281583700477073899e-03
-2.513820720774931870e-03
4.548308048710787178e-03
8.509429736614252879e-03
1.095774072377133030e-03
-2.189353897207810002e-03
-2.487367300964471103e-03
-3.235147341763455059e-03
-8.721702596207640346e-04
8.925556925094164104e-04
1.315799898055481417e-03
2.943801802416506300e-03
5.277727458459977733e-03
1.288028249251473066e-04
-6.276661114955080396e-03
-2.583265899440239256e-03
-3.628383983248208763e-03
-7.204128694826872001e-03
-1.813839241918256510e-03
1.599721910248475031e-03
2.335737308868742704e-03
2.886561792286179099e-03
2.046137137679932948e-03
-6.483035180584700678e-04
-3.646212581969431217e-03
5.276047013135940975e-04
4.075489377227232805e-03
6.242429433228662006e-03
9.403879695460136065e-03
3.673176594144837281e-03
2.586414552789215865e-03
5.245420648610193970e-03
-3.974327531229687564e-03
-8.890478135960021289e-03
-4.316464805679345179e-03
-1.694444775070148932e-03
-3.779141890697443069e-03
-5.903272200307290926e-03
-3.771980547266368805e-04
3.255254932330557769e-03
-1.788326160021026399e-03
-4.829765486944089838e-03
-2.469590184024620001e-03
-1.097278168344517505e-03
-3.428792782165698914e-03
-2.460391545492709303e-03
1.397866669490387603e-03
4.212622452442519282e-03
9.282342561437062489e-03
1.207413976151878315e-02
1.059143419297206914e-02
3.428961765529553712e-03
-4.627260592779133298e-03
8.432384209063585470e-04
2.910124376389758381e-03
-1.063462892211199280e-02
-1.736832336069298391e-02
-1.115688546155010549e-02
-2.534929717362931646e-03
2.959283559964936885e-03
6.396564856286065040e-03
8.257426631614587023e-03
6.542541831816962340e-03
3.523639971488095983e-03
-2.706366868804601592e-04
-3.235411715724828357e-04
-9.848730859088315227e-04
-5.146494148299229389e-03
-1.955924130604857168e-03
-5.071020571525759746e-03
-9.340257035304463593e-03
8.984182399440091091e-04
2.454971900203595930e-03
3.042494674945108672e-03
6.388083162280328194e-03
-2.783134820721156442e-03
-1.517045436526534390e-03
1.419375234510278014e-03
-3.285527233045287820e-03
4.773778350593055678e-03
1.059178079962445722e-02
8.917693323722431648e-03
6.263679062107259735e-03
3.186608373952564289e-03
5.870824688903296569e-03
-2.411049060304749220e-03
-1.855465443630164440e-02
-2.082598465478755281e-02
-1.516242863224226585e-02
-8.255069211887700389e-03
-4.725047467564482914e-04
8.152943601696823611e-03
1.232660829415303978e-02
8.591651039863753420e-03
6.276839055655706809e-03
4.741012494594325742e-03
5.679062687896353941e-03
8.199540135142312225e-03
2.142652563529752474e-03
3.246179227988657762e-04
4.671071747570647477e-03
-8.419857367565639159e-04
-8.274109890905339063e-03
-8.754343859563378308e-03
-7.884476948568598306e-03
-5.025065839188155165e-03
3.826023353060761627e-03
6.913933776410130343e-03
-4.415158677854660180e-03
-1.310322102199600741e-02
-1.257834482173151615e-02
-6.200113273723304591e-03
9.801311487281472168e-03
1.550722518853710902e-02
1.083900557824052629e-03
-7.941870169875938149e-03
-6.187325823945910228e-03
-3.029426719348096275e-03
2.333246525684050734e-03
3.552557599509139838e-03
1.809388990060944785e-03
6.347693712979348910e-03
1.060866560954089322e-02
1.229077964574947467e-02
1.511546601256097411e-02
9.956032331408123243e-03
-2.510605264675643770e-03
-7.827394546656289351e-03
-2.560016257659268948e-03
3.232129510971475887e-03
5.723250220616366360e-04
-6.443543955789076717e-03
-1.008159737483991895e-02
-1.083339043792055749e-02
-1.075579452870108026e-02
-8.534382678843783349e-03
-6.524958162986448963e-03
-9.828977541522994008e-03
-1.146092405107671311e-02
-5.005287640477038349e-03
2.344353146157648459e-03
7.224178810533825323e-03
7.790821503254425837e-03
6.033731801370172121e-03
7.185367183141388135e-03
4.384287083028716447e-03
3.245072895662681062e-03
9.746484468731901954e-03
7.997094497357370296e-03
3.302741639757168779e-03
8.074848427374282586e-03
7.057317809503683287e-03
-2.994098658517403526e-03
-2.710443468361908598e-03
3.140119855360619383e-03
-4.829753122683936792e-03
-1.133845221853355470e-02
-4.463790975061612647e-03
9.218009210645096733e-04
4.298513274911990208e-03
4.323755135158631122e-03
4.403370069429003546e-03
8.478934698819762944e-03
9.651839833868550112e-04
-6.961328863609624919e-03
-7.604357801297927273e-03
-4.274194237277953619e-03
1.130756038906384313e-02
1.080795858012797983e-02
-1.641643647995613036e-03
4.775960937385546239e-04
-8.268093035156779194e-03
-1.841626051082935825e-02
-1.441132595874476847e-02
-1.015153827695939974e-02
-8.972462194717788393e-04
1.623176174084915149e-03
-2.768309542888231813e-03
-2.415852773502588820e-03
3.685500989764416125e-04
1.066040287737659090e-02
1.511314009459359745e-02
1.267185042466402456e-02
1.057648641412942993e-02
3.971431153165488198e-03
2.183690678423861643e-03
-8.180773957389576162e-03
-2.148395504621142607e-02
-1.641175213621401396e-02
-1.012212102435844016e-02
-5.652177233854961637e-04
5.446993994640956203e-03
-1.973596102115826416e-03
-4.242586984783253113e-04
5.118796653409676302e-03
6.936768629778900311e-03
7.124517825876097894e-03
1.414486403805133123e-02
2.946853003293909215e-02
1.552773419630973893e-02
-1.627844127071459077e-02
-2.921258689059775746e-02
-3.247527244613393482e-02
-2.609546737511744124e-02
-1.619296056215919349e-02
-1.539712613789072544e-02
-1.030277828182498551e-02
1.192796348710242413e-02
3.221240571057828322e-02
2.362995684135490299e-02
1.354040942990003375e-02
1.792838027794142752e-02
1.760513537894494232e-02
1.794607345308705040e-02
2.233016830238294774e-03
-2.401359380733954912e-02
-2.220525494816267056e-02
-5.246033138305748571e-03
8.816953014866331026e-03
1.608828336905979151e-02
2.189584689107041543e-02
3.217744928310953961e-02
3.277158407494285691e-02
2.700555652529443296e-02
9.292887487357176859e-03
-2.116835004486554428e-02
-3.771220637862465058e-02
-3.643855761755644684e-02
-2.497302958184538166e-02
-2.177774043557614489e-02
-1.352203313339210566e-02
3.058753149272984070e-02
6.516758416914406049e-02
5.019187771061569409e-02
-9.388321703112992994e-03
-7.865942502632186639e-02
-9.183246515258269849e-02
-5.239460986700162498e-02
-1.538601329105765414e-02
-5.316702923932727608e-03
2.143304231205982267e-03
2.144309933574057442e-02
7.336756163991303009e-03
-2.409967325223151199e-02
-3.562630619347553068e-02
-3.795098561476888815e-02
-3.860028767462623557e-03
5.326955899263128430e-02
9.626144822227976350e-02
1.036788112362761610e-01
4.470549901240487845e-02
-1.743203717029101138e-02
-4.270958416166822230e-02
-5.276357329702772297e-02
-1.831692106986025637e-02
2.267903032625894280e-02
2.647317563054065598e-02
2.944189590210383178e-02
3.151359066433739170e-02
2.102209274320220381e-02
1.341627949234707080e-02
8.315379818848646354e-03
-1.981095358379873078e-02
-5.460905111707765186e-02
-4.712991920387490929e-02
-1.916343425282061863e-02
5.164948689045298184e-03
1.499547195223631738e-02
-1.218984556733977882e-02
-2.513335319712597937e-02
-9.947015987788668592e-03
-8.687552951016013630e-03
-6.640269873466324302e-03
-9.430900680070053096e-03
-1.925218684400691396e-02
-1.561783938623440438e-03
3.179548289699986319e-02
4.536463501276532390e-02
2.967884027147853210e-02
1.809178158869292896e-02
3.459232583022616575e-02
4.954019664407377510e-02
3.923868182412784678e-02
1.451702497796193876e-02
6.449462914375058732e-03
8.927649311605381430e-03
-1.913739355500915923e-02
-6.375342246098628096e-02
-9.472939093202968619e-02
-1.043729950815977942e-01
-8.719754268410126463e-02
-5.040385364994606765e-02
1.044304673902230265e-02
7.475566140678598093e-02
9.292073401369478625e-02
5.730221061426905849e-02
-1.230432951815381599e-02
-7.113138177715508381e-02
-7.876645546337159021e-02
-5.529684345254864269e-02
-2.962509587863496399e-02
-4.445820908667417852e-03
3.740759251579699185e-02
1.039902036322950668e-01
1.372544665641995953e-01
8.829108149387046578e-02
1.684582818215376449e-02
-1.076325683194274095e-02
-8.070074074955482790e-03
1.748951887918336837e-03
2.735007943283174897e-03
-2.123085160070905565e-03
1.821689586580114290e-02
4.753873984443132694e-02
6.113539248714559837e-02
4.640708499049005231e-02
-1.217927368356930794e-02
-6.294567293202638081e-02
-8.941555646454646400e-02
-1.246605059140837996e-01
-1.356211832904081760e-01
-1.081717970075244950e-01
-4.925540884641596562e-02
2.690522608967210738e-02
7.785267422395920900e-02
1.012739641506311961e-01
7.856795036981166491e-02
1.602199403982014839e-02
-1.487615245306424076e-02
-1.351763301612228865e-02
-9.643296000989313652e-03
-1.230050268363353481e-02
-2.603845928313812744e-02
-2.808320434835125459e-02
-6.709716896194917873e-03
3.022109936661931603e-02
4.819051324765157018e-02
2.923564224290299204e-02
7.238444560265840794e-03
-4.458046086482737869e-03
9.744650892950856153e-03
4.229952037510957552e-02
3.798623256435494644e-02
8.645232656427327082e-04
-3.712184726062056628e-02
-5.884913556123579081e-02
-5.457109980296191709e-02
-5.181445557105187477e-02
-4.989984571662701984e-02
-1.092654542640301638e-02
4.351792270719229139e-02
5.220878810882314397e-02
2.608193784355731723e-02
1.965076142835070830e-02
2.732983006402999945e-02
3.556057663309359490e-02
5.016526609645973606e-02
5.043124011010154811e-02
3.586370003757669012e-02
1.980510956260542188e-02
-4.394615643450124932e-03
-2.467981399213501140e-02
-3.056238474040730291e-02
-3.918123050287525277e-02
-4.045270022021545814e-02
-1.564591405364376686e-02
-6.812809438017847002e-04
-6.060001530308337797e-03
5.839640964026464667e-03
2.682177044712862404e-02
3.282905621490427722e-02
2.075489259761686273e-02
6.897835031220282166e-03
-1.459338625566384239e-02
-1.086676355991558068e-01
-2.181397607595824684e-01
-2.149704224372839811e-01
-1.422258608157170312e-01
-2.790378007889144155e-02
1.339059416259610336e-01
1.839333242490545361e-01
1.004050397628717256e-01
6.238497744908665099e-02
5.700557157698814964e-02
1.305497146324583781e-02
1.653348790624616788e-02
6.166865669516829324e-02
6.094412618657056580e-02
3.496579868438796229e-02
1.933689895535830455e-02
8.578437587066854719e-03
1.148945885091518480e-03
2.250584791248516278e-03
1.018337369268102789e-02
1.113132881113527289e-02
1.339054311633825281e-02
1.338808736675011109e-02
-3.769533376682345730e-03
-6.419427754153653708e-03
9.081555758022906216e-04
-1.721686977549539976e-02
-3.899869039279612454e-02
-4.698159434404701462e-02
-4.634605686177938055e-02
-4.251778181394222367e-02
-5.097863691028420297e-02
-5.620193004004787191e-02
-4.425790482088081540e-02
-3.808150727940107921e-02
-1.963615173596518909e-02
2.329940050185056941e-02
2.414867731161344025e-02
-1.574636277059912257e-02
-2.072061912756666818e-02
-3.813016811658877497e-03
8.117113541427431120e-03
4.119304319651650309e-02
7.556233578600211886e-02
6.674138008642241382e-02
3.326816559611911472e-02
2.833289091131079712e-02
3.079664519759415381e-02
-3.691213002005967921e-03
-2.363456408498602890e-02
-4.518908053378446928e-03
6.308733474094952928e-03
9.239666273609363142e-03
1.497351399865273769e-02
1.076552021894694976e-02
-7.129223127208844657e-03
-3.089329579235131074e-02
-4.011048661483532923e-02
-2.899537330554434814e-02
-1.465687452268745047e-03
3.206745824098613390e-02
4.398552125568318955e-02
3.051140067300959005e-02
4.772164225922729056e-03
-2.600846787086043277e-02
-4.020659666998788878e-02
-2.647320567408672359e-02
-5.008977539364756378e-03
1.154984141145766127e-02
6.000198093056502598e-03
-4.815928582790361678e-02
-1.060807700715251656e-01
-1.089757135933244886e-01
-6.261774193429489599e-02
2.772246965294474647e-02
1.100483651129809115e-01
1.112355242842968245e-01
6.461273762943818555e-02
2.050349325690855110e-02
-6.232023586925304962e-03
-9.899425604621082259e-03
-8.099465630584347028e-03
1.681663028322330066e-04
5.785342424733518063e-03
-2.410147806333451468e-03
2.251428220208556014e-03
9.529216103682009234e-03
5.598097003360401162e-03
1.199938980737453621e-02
2.033243587776954395e-02
1.782460394177328225e-02
1.133372749445759643e-02
5.076532882222842442e-03
2.811602362155915785e-03
3.055490364739187319e-04
-6.004203822469285010e-03
-1.103595603377119372e-02
-1.420593540067001219e-02
-1.912925357317923902e-02
-2.679419135177817102e-02
-2.801810103818172179e-02
-1.914447844349675271e-02
-1.408062402924202712e-02
-1.326519112848121261e-02
-1.068543528468491634e-02
-9.086840716670091869e-03
2.081850381609379620e-03
1.345699310811632882e-02
7.249973923841583796e-03
7.143549685642931225e-03
1.452713725321285072e-02
1.095067651059905209e-02
8.347607680919712919e-03
5.340799070482889731e-03
2.346400391172549435e-03
6.131546883490112537e-03
3.808905420856422645e-03
-7.313083350066788228e-04
-4.991746053431165772e-03
-1.117141625447772360e-02
-7.833250888795139852e-03
-3.693751421979067032e-03
-4.243003977947105640e-03
-2.517865980117421892e-03
-1.007565767245831951e-03
3.711765543734696273e-03
8.650031036162077538e-03
8.762924768231308489e-03
9.574351160493576804e-03
1.006770508281354219e-02
7.618972030703122233e-03
9.726587320237257582e-04
-2.553502915835103963e-03
2.954425801651013039e-03
1.590059708065641496e-03
-4.164701837000813964e-03
-6.005709828112635023e-04
-1.268143649564139027e-03
-6.064090310697291090e-03
-1.227260149028064611e-03
2.354622933052217312e-03
-3.048593763870485578e-03
-5.772662529416013218e-03
-3.867454279643341673e-03
-3.648857460601247823e-03
-1.726323284090574943e-03
1.347392076581781922e-03
3.808939994184199276e-03
6.719961327150940876e-03
2.023381422621467213e-03
-3.640275770378390095e-03
-2.522440886496541464e-03
-2.780244092397626734e-03
-3.808084242093606221e-04
1.000396540508472799e-03
-1.928018238867245629e-04
5.394989566705996574e-03
3.152181375432069974e-03
-4.034493759129121650e-03
-2.782526458941052706e-03
-3.016273185862976356e-03
-1.353928592617365456e-03
-1.712531698670309317e-03
-8.761833399971611508e-03
-7.304850163991080149e-03
-8.425830873796771089e-04
3.616315948442318327e-03
4.072837343578564195e-03
1.858470166872822505e-03
3.412075871386309120e-03
3.997279837046186337e-04
-1.005781616417886649e-03
2.146722302378264568e-03
-2.721804156542581392e-03
-2.648121488969392995e-03
-3.818019548019243453e-04
-1.591185317282195911e-03
7.125051629948219757e-03
8.874364950987674930e-03
2.513144500571179267e-03
4.801259978442691881e-03
2.216102879272718613e-03
-5.213021029486600635e-03
-5.032927889709631897e-03
-2.399524243573005183e-03
-2.352010010735216400e-03
-4.481961232690404723e-04
4.482819020057100812e-03
4.572600584792354747e-03
1.711824516555468783e-03
1.487427010226275543e-04
-1.408917013268760421e-03
4.182624743086558019e-04
2.118046372374489915e-03
2.173631988473777310e-03
2.677784624890589688e-03
6.879330007279818582e-04
-2.798841498887018331e-03
-5.226235284493585022e-03
-3.199418822087900347e-04
6.744016858135146522e-03
5.109492499948932280e-03
-1.458630221254043555e-03
-9.141709203856753993e-03
-3.973837475919292719e-03
2.426022383140675771e-03
-1.637686260650362061e-02
-2.021300051224934891e-02
1.929581093517392489e-03
5.389818316967671941e-03
2.510719849897969942e-03
5.732070301113798526e-03
2.333655878084259401e-03
2.397642746379885156e-03
1.028990902170240015e-03
-4.282371021658801583e-03
1.608551900512325138e-04
3.769512825706585607e-03
7.664317555769765630e-05
1.403520282639266273e-03
3.886332354537877076e-03
8.646359674562101869e-04
-2.565496538613393478e-03
-4.372891516110136677e-03
-2.422482591975089715e-04
4.825757485881263138e-03
3.289635824618834543e-03
7.261346829590393896e-03
1.185518665231297467e-02
6.301889364934290874e-03
6.247044442144799930e-04
-3.873853278221014388e-03
-4.608292312246463004e-03
-1.731412531295168549e-03
-4.181359083922359457e-03
-4.800682337282745696e-03
-6.763395798984164807e-04
2.181300426355806295e-03
8.084022212441538055e-04
-4.544696011154918114e-03
-5.533796881259388060e-03
-1.495554334729821402e-03
2.070121941310756625e-03
3.037005318847244787e-03
1.736687189555650469e-03
2.574315498170135549e-05
-3.884082543817272536e-03
-3.632202153544311553e-03
3.940748477982342936e-03
6.815748835090941656e-03
9.088690932165690954e-04
-6.312535335002741888e-03
-5.624009145922778327e-03
2.045642397150230097e-03
7.678950209343921897e-03
5.930731905128956878e-03
-1.716484741476296703e-03
-2.420436397753677853e-03
-3.981631614981489360e-04
-6.374909649124706028e-03
-7.137574722651036929e-03
-3.845167230250989311e-03
-2.752589841046239327e-03
6.429212014294602082e-04
1.429678159468213139e-03
2.019451237442316475e-03
9.465836072496381336e-04
-2.937535417386877463e-03
3.565772778517235092e-03
1.083400412047000154e-02
2.972679587753177498e-03
-7.018148763625178810e-03
-4.630659049928622512e-03
4.862881553615363834e-04
-1.835789482187040727e-03
-2.024937939286234820e-03
2.898095459949753035e-03
5.335345568904298688e-03
3.639816305035944131e-03
1.127454363199074938e-03
3.635272218257835138e-03
4.457914352618287321e-03
-1.742811660579024350e-03
-2.749238738830425428e-03
5.667144882177542649e-05
-2.726190006208369619e-03
-3.667467148418561071e-03
2.071142896796488841e-03
5.010989950656203479e-03
2.443388165635548576e-03
3.165187567679405081e-03
3.592881458431451246e-03
-1.078424093833608337e-03
-2.550870545750840573e-03
-4.361445219195510085e-03
-6.257495936729927204e-03
2.652334707672663640e-03
7.065945975304308360e-03
-1.042565584085307535e-03
-1.256622627970034687e-03
2.653583450904670096e-03
-4.557922224223844195e-03
-1.425677654812273869e-02
-1.524607992315509843e-02
-6.159125584319319162e-03
2.737497890481853813e-03
4.571342562299402293e-03
1.049409708583410802e-02
1.494519437035050913e-02
4.375858128365391064e-03
-4.410936262429079185e-03
-3.732325563367795435e-03
-7.072401974495628151e-03
-6.460550132637679285e-03
1.964480601396052968e-03
3.289157160701847247e-03
4.583756090718133121e-03
9.958477713730335551e-03
4.800527359769324320e-03
-1.771194487361191575e-03
-2.244727664755460114e-04
-1.531850793053469431e-03
-4.307869137528457133e-03
-4.889484757389941927e-03
-6.184251747075104021e-03
-2.604968647097990250e-03
3.696716243714081099e-03
2.748518107794280588e-03
-2.341193529202890478e-04
-4.902171591037899701e-05
-1.463873644661275618e-03
-7.465252791372862552e-04
1.712852968457889355e-03
3.043052714572121609e-03
8.031442954929145922e-03
4.896125320844074702e-03
-5.259173806821205999e-03
-4.509953458971795170e-03
-2.877784647378311533e-03
-1.839107270989368079e-03
3.684964509093628139e-03
-9.637166719983045367e-04
-5.975525142716224015e-03
-1.384445926976704370e-03
3.519982029207724839e-04
1.975236629494879406e-03
5.187230328122479847e-03
5.285084681885377812e-03
4.689067131893009423e-03
2.529634002838891346e-04
-3.533469442991868902e-03
9.250320536528283850e-04
1.663191936761285357e-03
-4.174080878250656379e-03
-3.149396980703220942e-03
1.554961735644433277e-03
3.705422007587851237e-03
4.496527708356672960e-03
-8.803423678408813392e-04
-5.879141009249205622e-03
-1.303432941422943709e-03
2.580060381186570495e-03
-2.051334682575087741e-03
-6.969528835538523794e-03
-5.458185368271857400e-03
-3.635352645129289514e-03
-3.896638679761580803e-03
-4.802607591499766996e-04
5.619750483376689983e-03
9.623730736091285626e-03
5.529179189311545992e-03
-2.078147066215568859e-03
-3.746878910858551272e-03
-7.230040151452944881e-03
-6.881902065476801569e-03
4.492270180790566142e-03
4.747662251534104025e-03
-4.310005037334894290e-03
-2.990450218074141176e-03
1.584955362536422628e-03
2.473375095180236401e-03
8.502979947658739161e-06
-4.279174404482514495e-03
-1.024839448848990139e-03
3.978859960759716097e-03
-3.534172221511903142e-04
-1.861493336141998873e-03
4.212821034752622061e-03
6.443663572373936957e-03
5.631201531330893954e-03
4.622434722101254577e-03
3.830281224615700655e-03
4.211715787550696088e-03
3.760858643474721159e-03
3.392711632309478725e-03
1.159156168090520831e-03
1.814831995697515363e-03
5.166393503198934804e-03
-2.014049452667883607e-03
-8.123556811773241168e-03
-4.721160563407897880e-03
-2.013340752702250970e-03
1.423597685298232465e-04
-2.958962313447454067e-03
-6.422817723480417004e-03
-4.156015500364206548e-03
-2.908376635166637011e-03
3.594859116530594581e-05
-2.961787280221302773e-03
-3.021025547068332141e-03
5.815186860345338341e-03
-9.661870224822299152e-03
-2.522295912001631599e-02
-8.833604449291754951e-03
2.645902428717614684e-03
4.441709708102189146e-03
8.408235048931671229e-03
3.600151769927541646e-03
2.367903508008295348e-03
1.017268943720081587e-02
1.286614830562874540e-02
6.749799384415025756e-03
4.074606344268965480e-04
9.520202813581618486e-04
9.510827712547720010e-05
-2.844010718680582608e-03
7.497083929156904067e-04
4.948281701473120596e-03
7.201742950319442622e-03
7.785700504149623523e-03
1.594731528872881526e-03
-4.795607572747118304e-03
-5.443114662075077687e-03
-3.166560232359308131e-03
-7.099917112471361511e-04
6.871303968260955184e-04
4.384455780032251240e-03
8.295165616137409499e-04
-1.143844770987661845e-02
-6.938830096021850191e-03
1.423855248633928029e-03
-6.078200676154100340e-03
-3.988269174653513022e-03
1.208284046935928242e-03
-3.561335246255875608e-03
-1.119242095918150486e-03
-2.802732379685567978e-04
-1.099321490210467597e-03
2.860113929924279139e-03
1.215211927653174658e-04
7.882469391809274065e-04
5.062123391825428843e-03
5.270178113539583480e-03
8.104664180438533178e-03
5.813280698178398438e-03
1.769614458716397686e-04
-8.018304235105095518e-04
-2.885477117426388932e-03
-5.393566216366634490e-03
-4.189191266081060058e-03
1.496492213043683697e-03
3.340526946563851952e-03
-1.822072302000067741e-04
-4.822702644031571671e-04
-1.892840561060867488e-03
-3.174506864997927134e-03
-3.565748034551306789e-03
-2.731605006087576420e-03
5.630036431089678432e-03
5.153023725576044191e-03
-2.749781358630382522e-03
-3.896633240588636294e-03
-6.010525376997051701e-03
-1.855573259153802052e-03
3.154408432302704523e-03
8.005698650023642228e-04
5.801581800909729261e-03
6.350023965564790228e-03
-6.778225031813514198e-04
-1.840977301965260023e-03
-2.659204608846874474e-03
-8.464366078699192206e-04
8.659765792470812537e-04
-1.093568442764017348e-03
-1.287579393196764278e-03
-6.110017822008142682e-03
-7.501171813989217230e-03
4.206008951012521133e-03
1.165155367646508212e-02
5.702473391027261355e-03
1.172586164889831157e-03
4.252848320148383543e-03
3.314220017295324994e-03
-2.967424787096310302e-04
4.112305449789179553e-04
1.281557284302834755e-03
3.324593335618401596e-04
-2.633673325682155293e-03
-1.294284335512974971e-03
3.217905792142459771e-03
4.593578878499724426e-04
-4.172480127627444316e-03
-7.598506625335484446e-03
-7.760035437874463447e-03
-3.979923875170214738e-03
-3.444077712070877338e-03
1.266014509134939488e-03
4.385138638872879309e-03
1.057165368645292345e-03
4.521139585664270960e-03
1.894888823657030772e-03
-5.320668772646300858e-03
6.757536733223829493e-04
5.767866449220857526e-03
3.260481323073649942e-04
-7.153820371637679802e-03
-5.591265002531365519e-03
2.919532363634074531e-03
3.972458824484231647e-03
1.540022933016970373e-03
1.364624948679727702e-03
-4.966251834096105204e-04
-3.840268421657989754e-03
-5.938851836489214900e-03
-1.167099203374086886e-03
6.752130061046818059e-03
8.079473828018924469e-03
2.916722145014199064e-03
-2.577607675276614562e-03
-3.169420795357478279e-03
7.368458518281874921e-04
4.260536541454843298e-03
1.332899645012826373e-03
-2.984883748081217005e-03
-1.071791492586068395e-03
1.373465070281775771e-03
4.924111390111268922e-03
5.959877144615835509e-03
-3.053039520496802356e-04
-1.591078158087347793e-03
-4.726784480514482955e-04
-1.192728387775059780e-03
4.325761967176731298e-04
-1.945226675903259780e-03
-3.470454510612751287e-03
-1.350696550129935718e-03
-2.004562784390245562e-03
-7.711967539406109316e-04
2.170443729108857255e-03
1.866395491437042829e-03
-3.599846148319190884e-04
-2.050588973822693815e-03
-2.598740557605616185e-03
-2.551495284914915857e-03
-2.620096095608287056e-03
-1.945642673287941490e-03
2.645874906644672415e-03
3.696969288839275884e-03
-5.266154860911051103e-04
1.250970735871716547e-03
-1.050346719787160392e-03
-7.815504372095268687e-03
-2.932599220802530049e-03
1.216458515580813625e-03
-2.002246068346544793e-04
1.118032756597894719e-03
-5.802441317380110670e-05
1.044940254364551185e-03
8.083141041763296231e-03
1.111638098926997706e-02
4.587214262400836351e-03
-5.117176254781315159e-03
-6.758294584402961547e-03
-1.438819137659921692e-03
2.601308861247805370e-03
2.315951032551508918e-03
8.916086705076929934e-04
3.426550518512472103e-03
7.034750628405701811e-03
6.758640887403714534e-03
-1.173876879577140635e-03
-1.140457568141551616e-02
-9.294252052504569511e-03
-2.841563990100127828e-03
-4.616538494607920484e-03
-4.422442513176860768e-03
-1.807580669558257400e-03
-2.874457528759889573e-03
7.322187786450000142e-06
3.367097948148018750e-03
-6.219335256096318511e-04
1.470002141017404010e-04
6.568652398189087950e-03
3.667453448411477860e-03
-2.950979804560050911e-04
2.496579720896284146e-03
2.276500244864642329e-03
2.645265914360371649e-03
4.647004289532095933e-03
7.349949909116337702e-04
-9.892037967966457214e-04
2.177875132142723102e-03
-3.247215340750908303e-04
-5.028860524873179222e-03
-4.475316742265944038e-03
-2.178134858410975521e-03
2.319407325027925473e-03
5.036757646110119613e-03
2.905459257548208881e-03
5.973837527447583076e-03
5.293959249470985527e-03
-7.760473577016603706e-04
-2.974094032113685886e-04
-7.547160523469968567e-03
-6.920441558923828493e-03
5.006790372286427926e-03
-1.406675734632630709e-02
-2.462276231775513413e-02
3.934850452824034499e-03
1.078301316800456613e-02
-1.593732010691171954e-03
8.508254237001479240e-04
5.608421143145448338e-03
8.628709191862031502e-03
5.709151619303048063e-03
-2.024135989731503608e-03
-3.012369075584677390e-03
-1.657870622666377533e-03
7.209087023307569507e-04
1.410856502965705589e-03
-3.429737656388522939e-03
-3.728498938215506382e-03
1.815226635567223495e-03
3.131126001277647394e-03
-9.477214938529739249e-04
-2.617221854647527532e-04
5.407635561418063126e-03
5.041987458715933672e-03
1.484069716724277553e-03
9.609478037776214739e-04
2.648945182041154926e-03
2.808696611638516159e-03
-3.119807324916151758e-03
-5.566472749029582542e-03
-2.244371169494446035e-03
-4.313717632146299615e-03
-5.362587637162141881e-03
-2.132437643762007725e-03
-1.599258187503117736e-03
3.012101114959031111e-04
6.284413775456234794e-03
1.125821050694267994e-02
7.141770727680340006e-03
-2.557372904890249134e-03
-3.735747622941361888e-03
4.841808931830453907e-04
2.482060153381606803e-03
5.784448920531510803e-04
-4.684860471685314831e-03
-3.134062661521188915e-03
-2.069172563224064374e-03
-8.490790623019380673e-03
-4.178606722643608655e-03
3.256638173784204976e-03
-1.294305778743365517e-03
-4.265810511522907453e-03
-1.579691757389486669e-03
3.017810956998293222e-03
8.166943067835044298e-03
5.394219183592490613e-03
-4.748862246317483299e-03
-6.490020946019933387e-03
5.886138982357768008e-03
8.382289003772271790e-03
-3.934756061611107032e-03
-4.414903273586621643e-03
9.658684802979836115e-04
7.329174076074263574e-04
2.981152094337718994e-03
1.016206584873806905e-03
2.293318899314737182e-04
4.085474729510246879e-03
-2.275697942984586332e-04
6.114624364517416179e-04
5.740564042584745709e-03
-3.330262891604690752e-03
-1.042657870236608428e-02
-7.050436382092094278e-03
-4.494350224343523722e-04
9.499568355750971985e-03
8.238857535123296841e-03
-1.375467153473672799e-04
9.089716904941547550e-04
-2.451445527252777909e-03
-8.431778336011375857e-03
-3.368278673407817513e-03
6.443556729339371906e-04
-1.830081767740564594e-03
-4.160245229702553768e-03
5.524392305424469501e-04
8.511329020908406720e-03
5.652987648496143880e-03
1.886492964086655590e-03
1.780693862246806583e-03
-4.884329524688587471e-03
-5.469507857689796977e-03
-1.545127495950835176e-03
-1.833009940268820730e-03
1.279564244892838825e-03
1.252179090850945656e-03
1.154121957422290894e-03
5.333179235454152227e-03
1.421879063241875520e-03
-1.836458368669089194e-03
3.692571626544492464e-03
5.704740010750287624e-03
-7.023974059873262267e-04
-3.125144904381389494e-03
3.590477198833702879e-03
6.545048653454868699e-04
-7.506627894650659202e-03
-4.814935327002289184e-03
-4.498642921606042962e-03
-3.827674430745754697e-03
-9.409551986007640275e-04
-6.417222807731880717e-03
-3.740575755475659351e-03
4.227540762170189925e-03
2.829646483549259125e-03
3.410621988499151856e-03
4.353785227940437132e-03
3.033128383039549684e-03
5.115406565890627186e-03
3.671941352171828772e-03
-7.331263612966726611e-04
-2.106633532877583322e-03
-1.938869230690955237e-03
-1.705631342938881273e-03
-3.497406676155739576e-04
1.609769310188080560e-03
1.559968435039848665e-03
1.132223128342353582e-03
-5.191451796086390957e-04
-2.139399081069191019e-03
-3.351698359816644972e-04
-3.321877404696403982e-03
-5.495111487589971443e-03
2.980343519673523713e-04
3.267614019248160206e-03
6.235212555425011065e-03
3.505743818346893689e-03
-6.585754353384003570e-03
-2.290265996485562131e-03
2.736045181718372438e-03
-3.117936242976588040e-04
3.355483911911749488e-03
1.312787892977049014e-03
2.153032700563870785e-04
4.721918088589850161e-03
-2.152711001604612137e-03
-3.630436398917013911e-03
5.298866355574491458e-04
-7.258991821814736933e-04
3.196380439247467793e-03
-1.169493805089737246e-03
-7.646458875984126456e-03
1.073182966192005877e-04
1.525564551338243159e-03
-5.663558869294909996e-05
2.545927480327612666e-03
-1.240287193745360974e-03
-1.428985406027424810e-03
-9.629551939256111772e-04
-3.741894715265727672e-03
-1.005114128521974407e-03
-1.359908725190974062e-03
9.022794312794837771e-04
8.253120497771007646e-03
4.415125248601341548e-03
6.954967089568036198e-04
3.228141272000342298e-03
2.752003918242935184e-04
-2.615050427864112903e-03
-2.215503793169549748e-03
-2.445080846734072697e-03
-4.451785766188236758e-03
-6.677116667193193356e-03
-2.526648106912493010e-03
4.331328188547550577e-03
7.268047932455178745e-03
6.558566111220119101e-03
5.825762003207374425e-04
-5.196501806928177994e-03
-3.719482253932774631e-03
-7.267712997209907272e-04
2.173881956506974928e-04
2.348698818616589638e-03
1.092946772374777872e-03
-3.239566029045155317e-03
-1.315856594554926356e-03
1.810235132580191066e-03
3.982512236043436651e-04
-7.977965472232925346e-04
-1.062652318788397240e-03
4.186779170746009410e-04
2.146042772033947103e-03
1.601137645341290045e-03
-2.499097593652648778e-04
1.232756236581824226e-03
7.681082034682318316e-03
6.594930384027282780e-03
5.131768203296792688e-03
6.097142817083987983e-03
-1.044573868206666138e-02
-1.584100917803476366e-02
1.126114434853856184e-04
1.767841102844996438e-03
2.153056729561416468e-03
7.338649841215641456e-03
4.096638683843717432e-03
3.431210325929854362e-03
6.091253128740523048e-03
2.823313727135355004e-03
-1.822257207711052221e-02
-2.912909016539300122e-02
-5.485273678316094845e-03
5.964899824585825905e-03
2.259189855460056948e-03
5.851246313032071669e-03
3.731496788882289733e-04
-1.438389054597452197e-03
2.107796143500643982e-03
4.342652417582936993e-06
7.835269801923568523e-04
3.765991931931462447e-04
3.071019097153875142e-03
6.717740761813473238e-03
2.671813496410427400e-03
-8.342515018563141475e-04
-4.749630023063957339e-03
-6.615797927858858840e-03
-1.061490487227573828e-03
4.939410755765176117e-03
5.166718558155396733e-03
-2.988945527647832612e-05
-3.731453407933049346e-03
-3.687594068522006847e-03
-8.769505558963511249e-04
2.646164119753511689e-03
6.032575438061245354e-03
9.383943379823091874e-03
3.470561105483894234e-03
-3.939410426534128290e-03
-2.297481563335711501e-03
-2.945933216148095921e-03
-3.181331318728700900e-03
7.233426288634456662e-04
3.977609941547528643e-04
-7.020062229060537772e-04
2.635005254315124675e-03
4.173284220770213070e-03
5.869512411957652359e-04
2.166426922104189388e-03
3.765146256382115655e-03
-2.861829591153967987e-03
-3.032774185556825781e-03
-2.255310608789903317e-04
-1.895706623719430094e-03
7.347054896209485961e-04
2.751845173421075402e-03
5.143747990417081844e-04
-1.910314368927315109e-03
-3.371486294189431424e-03
-4.045355486191601346e-03
-4.033914624404161069e-04
7.424712462749152343e-03
6.868374949230557878e-03
3.608776783691546291e-03
-2.451502101825809004e-03
-1.881220249849266737e-02
-1.576521919551571865e-02
1.662392740414207759e-03
3.066484125986315094e-03
9.714395054784507027e-04
-5.650905688757169041e-04
-2.836090853955261851e-03
-3.320409770871811991e-03
-7.216810314443747668e-03
-2.913634831910370468e-03
6.302791901229663242e-03
5.848158481836905447e-03
1.245586010186635522e-03
1.038970811054559405e-03
4.234335186549481253e-03
3.623756491935284721e-03
3.201128186275857285e-03
2.579561771379300459e-03
-1.838756351254304056e-03
1.095256507868007812e-03
5.480893473703781632e-03
6.800651976486904796e-03
7.386029252747018312e-03
1.612770507820471136e-04
-3.793730452573155967e-03
-2.859418574001086535e-03
-1.763088650115329304e-03
2.346863222764697995e-03
1.613757239762702266e-03
3.372472317012575969e-03
5.530183326287692325e-03
3.053010234017476503e-03
5.178137145687634890e-03
-3.068523958001705826e-03
-1.163491589353684609e-02
-6.681715273010055932e-03
-6.774018613020842128e-03
-1.713498453498865995e-03
3.538021160276883913e-03
-2.583182208823734619e-03
-5.441821530670373861e-04
-2.347591215897718974e-03
-1.111100779515932294e-02
-7.812905906565645667e-03
-4.355295417155051734e-04
4.806376543566705760e-03
4.011918677011816134e-03
-1.018259484751903423e-03
-5.681429653017199552e-04
-3.266082295783212389e-04
-1.221124927519405545e-04
2.166529408600429037e-03
1.602814695275990575e-03
2.171963592985957491e-03
5.317299914061138569e-03
4.796105459725009089e-03
2.045504418108166217e-03
5.432647464022510170e-03
4.104511750643091879e-03
-6.887910458566594112e-03
-3.663386837618655672e-03
4.885400482126141773e-03
2.203768958305557784e-03
3.242973576107671240e-03
-8.563907223387638408e-04
-1.020128269629964890e-02
-7.227523991127576299e-03
-3.602597654638431488e-03
4.332525913988895683e-04
5.571999969171470730e-03
-1.318072352295771976e-03
-7.555154089115329388e-03
-3.349812621853649058e-03
3.971779398145980529e-03
4.976478383868819869e-03
-3.378840299403682110e-03
-7.340062291691104059e-03
-4.648579179045360041e-03
2.119727375361624665e-03
1.077601717581538540e-02
6.875377311133432610e-03
1.134827068788558761e-03
5.299870703073977438e-03
6.001513363316631107e-03
4.478106194583781306e-03
4.049743472215349901e-03
1.868036598551881889e-03
1.582917396950028061e-03
1.706695996950153551e-03
1.946375487411636847e-03
3.583458807636160509e-03
4.291229885012591561e-03
-3.584859124909592245e-04
-9.836484165435465180e-03
-1.373115655889438347e-02
-1.233515894329696543e-02
-9.336220217913381025e-03
-4.209252275708835235e-03
-4.567527251050152066e-03
-5.190144365537796914e-03
-3.774549270939959143e-05
3.465298408487534065e-03
8.334238370541058663e-03
1.261223702894414232e-02
8.926506344584705238e-03
4.357037754373522219e-03
5.164344138670609249e-03
6.527189197941385586e-03
1.876399887297152801e-03
-2.240909855468254958e-04
1.358865082806176528e-03
-6.246704769171227203e-03
-8.563465626381687110e-03
-5.930207065748238290e-03
-1.891832628315797543e-02
-2.511026358731358391e-02
-1.499732980616261258e-02
-8.371513412435256651e-03
-3.650313996048446929e-03
4.496158515470546554e-04
5.003354985645619597e-03
8.943687217380666063e-03
1.037309513217619765e-02
1.716158000605472536e-02
1.778655302539229946e-02
1.392968227591699984e-02
1.755815174062196060e-02
1.721204750475811493e-02
1.210130639469401970e-02
-1.098904286092117384e-03
-9.635313070626238749e-03
-6.661618020515087252e-03
-2.486994599522694693e-02
-2.375969133001347086e-02
