-2.813911602881313985e-03
1.102349315986299316e-02
2.009097729756097878e-02
1.879482525245331631e-02
1.954044056386355227e-02
1.960385879586150348e-02
1.924332153928369829e-02
1.909242307967103092e-02
1.450036826821584322e-02
9.661075004760729876e-03
4.476127295996115522e-03
-2.338219016113800286e-03
-7.704698546516539764e-03
-1.580423849546754023e-02
-2.553179266041481765e-02
-2.823867097235724377e-02
-2.260789300061767995e-02
-1.632820336759874952e-02
-1.589613243436531834e-02
-1.423701182509196951e-02
-8.867788027773758699e-03
-7.824129583650647757e-03
-5.125319467145885918e-03
1.414770041605580616e-03
6.053335968327682760e-03
1.200764370945870546e-02
1.430656360306061491e-02
1.291912942631008587e-02
1.245837403041282800e-02
6.047934002552899334e-03
2.815665847274810823e-03
6.974832359175478676e-03
3.205317776401794046e-03
-4.129537582506095407e-03
-4.880000348827169196e-03
-3.142522957830264346e-03
-1.543969142422922484e-03
2.151752262661535148e-03
4.144045059594821979e-03
4.261904876704968774e-04
-1.203420431259781759e-03
-2.402943453854621252e-03
-5.936465914889385749e-03
-2.589957569386684439e-03
1.321496463139868599e-03
1.382547262968830334e-03
1.564279748768930339e-03
-1.028285633896977103e-03
-2.537181776077664271e-03
1.411862007526492994e-04
7.184013624723536301e-03
1.038212874708907552e-02
3.080596549934675604e-03
-2.415145654510358940e-04
-1.910804530041584947e-03
-7.640575645039945213e-03
-5.051118567552104546e-03
2.198892150655144210e-03
7.481207831270089356e-03
7.006088221396675024e-03
2.033285918801163751e-03
7.894331834550305472e-04
-3.388237016530894381e-03
-6.290681609913285031e-03
-1.604629207274059022e-03
-2.538043357225799965e-03
-9.372242803380122222e-03
-1.196317528477653346e-02
-6.782658422045778970e-03
-1.691549902393484029e-03
-1.411338943671093895e-04
4.090442067717320156e-03
2.436476287956520527e-03
-1.362538391095764658e-03
1.373091465316149005e-03
-1.662261686294233196e-03
-2.651985020050629058e-03
5.081493560275683781e-03
7.838958925223866309e-03
5.890403992329996605e-03
5.494808251832155720e-04
-3.484574692728990754e-03
3.222918604526741129e-03
9.131430166070018256e-03
5.403512091397740143e-03
2.278656050011136722e-03
1.391443181367839387e-03
-2.511254483096895477e-03
-2.935776187336954293e-03
1.777200787619541520e-04
-1.362475785491868959e-03
-2.384118879101873069e-03
-7.366545399944320342e-05
9.871891084993703741e-04
7.357010740874508643e-04
-2.398630771959859003e-03
-3.934864747964877257e-03
1.663894339389820464e-03
5.808701291271713661e-03
2.645694885709231736e-03
-1.217514713961961436e-03
-3.711400396598351931e-03
-7.247596820621263029e-03
-6.000083723582608566e-03
8.337469025018190015e-05
3.430305464651881887e-03
3.932872985499723077e-03
6.467291881596359511e-04
-3.865146827904904648e-03
-3.642345778790232781e-03
-1.377046805280298216e-03
-2.895579835587168589e-04
-3.837136338430058389e-03
-6.443331537389464583e-03
-3.276332216236204145e-03
-6.256203714506729935e-03
-7.384992153478616914e-03
2.013194522158412263e-03
5.469866121498049780e-03
4.741316811346475875e-03
3.865645444170785674e-03
-3.073543875126680085e-03
-4.324519790466026595e-03
2.389811375408339329e-03
6.268119973248170371e-03
7.179687812871891027e-03
4.543896019756167581e-03
-7.657687285104906524e-04
-1.925787469321653790e-03
2.635672283802640333e-05
2.971536268971065355e-03
9.609127855258862289e-03
1.183224182429953343e-02
4.070416151281478108e-03
-2.443792738626230678e-03
-2.448289194090604460e-03
8.321493266970717570e-04
4.314191388811026116e-03
3.731754316155189155e-03
7.615394574899982377e-04
-2.927660925303915852e-03
-6.231711260907181298e-03
-4.337882430544001862e-03
-8.700771574635042830e-04
-2.490616044149079542e-03
-6.443438606351128278e-03
-4.905491345882093471e-03
-1.833735766800311797e-03
-6.871561160070167179e-03
-7.373930371272995749e-03
2.776470981578351652e-03
6.513322893011096702e-03
3.769107708985248387e-03
2.835354441494464034e-04
-5.038543278069428089e-03
-6.920979946766099393e-03
-5.206870431611759949e-03
-6.049289081266274104e-04
2.719683012063582855e-03
-4.246385281976676473e-04
-2.745648388507185029e-03
-3.681408725504249288e-03
-2.717580648211149509e-03
3.519567519852935793e-03
6.628387130993028398e-03
4.479946800457225084e-03
-9.259494213878738346e-04
-5.013611306524174381e-03
-8.733713674097339950e-04
5.318932086130471852e-03
8.487632934587294870e-03
7.713025917180666574e-03
6.122537192676882206e-03
7.177526129242598439e-03
3.519732088811361719e-03
2.888200057096438744e-04
9.118174307338637119e-04
-8.288676797433134529e-04
1.826939137627621836e-03
3.185357119030172643e-03
-3.894382982132618990e-04
4.724629041540194399e-04
-3.135809309357149525e-04
-2.650629339816025411e-03
-1.751500985609030824e-03
1.813075543004824194e-03
5.041251511415942646e-03
4.694256488400892812e-04
-4.469207045444207639e-03
-1.477308276301889621e-02
-3.085662265114645642e-02
-2.050986463002421600e-02
2.456131517561467494e-03
7.067131122903030568e-03
5.960480445279412072e-03
3.546576923973672815e-03
1.938539846104952568e-03
6.342979261820809282e-03
6.901365697120851080e-03
4.105606867190686807e-03
2.220323512224329642e-04
-2.607847735318585478e-03
1.714803382831370487e-04
9.911620660174300969e-04
1.642508629153663672e-04
3.197223235572355365e-03
4.650249543324637413e-03
1.640210691334467990e-03
-3.184863218897934951e-03
-5.432488221109614199e-03
-3.037414693721607935e-03
9.082463127505185484e-04
3.944272603873096895e-03
4.937946816508177392e-03
3.410178026458486264e-03
9.862523252286647078e-04
7.889308518738170082e-04
1.822860982813493931e-03
-9.890966340400882183e-05
-2.272747404812217042e-03
-1.981586843124107013e-03
-2.385770520336737404e-03
-2.306545904917336933e-03
3.406771060911821763e-04
3.859778014331947862e-03
6.205905434576419397e-03
3.496248939704079284e-03
-2.907677186551424486e-03
-5.531014398566231997e-03
-2.819500563020207670e-03
-3.900783880974941658e-06
7.118785247077124905e-04
3.567741322740505469e-03
5.655486822500999100e-03
1.735134797429740668e-03
-1.803480131517493611e-03
-2.913953875665631962e-03
-1.720518109991633947e-03
1.307852121145532381e-03
-1.285433163857415588e-03
-3.484169988430063560e-03
-2.730576866141751387e-03
-3.196042659986179056e-03
6.823666365059164471e-04
-2.306138080198947421e-03
-8.716465103047412247e-03
-8.066625169096064635e-04
1.976925044651706414e-03
-3.633234829539059348e-03
-2.546096488815877720e-04
1.785969350873257847e-03
-7.913868201355496847e-04
3.282377775387877988e-04
2.547728713413465428e-03
1.188053490820999841e-03
-1.593223437757235791e-03
7.921711307594711104e-04
5.680235588407883673e-03
7.069768798045426329e-03
3.796844901384979851e-03
-1.397886346320325593e-03
-3.081496158122435259e-03
-3.082324725321126946e-03
-3.485307158908520228e-04
5.497679388587346436e-03
5.625006365582431618e-03
1.890275729957271783e-03
-8.432017704641429174e-04
-1.905317420237512879e-03
-1.676308358831922777e-03
-1.951564346361069199e-03
1.986482787439223987e-03
3.022988597079451743e-03
-2.652724980826374514e-03
-1.082999826562846234e-03
4.551416687051118440e-04
-2.511721588641633446e-03
8.785703508264941161e-04
1.948245895769370279e-03
-9.225819091394202223e-04
-8.118333670295225287e-04
-2.620170139265957498e-03
-3.756254215472773841e-03
-2.126974791591282766e-03
1.122837119635420721e-05
3.528349653694268923e-03
2.364859559461798474e-03
-2.128833044956360797e-03
-2.645034899944663596e-03
-2.810443925172988276e-03
-1.341112646165474199e-03
2.216218327601093222e-03
-1.370348775715296758e-04
-2.076448364297096665e-03
6.244939611061392807e-04
-2.313326587793523154e-03
-4.885183992132493755e-03
3.028095897552745847e-03
8.572420066965553628e-03
3.617518497216124732e-03
5.355058769722899565e-04
1.725899199042488577e-03
2.080017262141096567e-04
1.605143348089822656e-03
3.442411987523672032e-03
-1.516323672626085882e-03
-3.761809894441207804e-03
-3.395124941852266549e-03
-5.441562996538198797e-03
-3.385611105054475278e-03
3.776660403886797314e-04
2.700861169929296476e-03
4.612430837455001875e-03
4.217664940888149819e-03
3.661644552199688242e-03
3.653118236662968423e-04
-4.723247909616805351e-03
-3.890435699489591063e-03
-7.190244960689216912e-04
1.739503777854941365e-03
1.718731668427364492e-03
-2.048446012557839091e-03
-1.598201410314195863e-03
4.618664919750982596e-04
-1.090184171711707146e-04
1.375170215026043623e-03
1.396630063748832435e-03
-9.170301200861917437e-04
-3.897116751228116988e-03
-5.210566043161953854e-03
5.758390166451716644e-05
3.781283459464429911e-03
5.578215653042176841e-03
8.832315452590900826e-03
3.410940095234920536e-03
-3.503291323882183183e-03
-4.659688963120980909e-03
-5.467766259019578995e-03
-2.099993906135323111e-03
1.242945965546627752e-03
1.611843325805668858e-03
1.599562799787360157e-03
-1.174431058231701014e-03
3.918915311351241692e-04
3.324203272793764541e-03
2.856970372664796934e-03
3.864968905035731130e-03
-2.668912068822095873e-03
-9.230064319878565973e-03
-3.231427343538445778e-03
3.744010560658223496e-04
-2.175680749970005409e-04
3.757860667037293476e-03
5.696358863996990596e-03
3.573576759184804615e-04
-4.884910076825499207e-03
-4.279210196339570775e-03
-4.478937725738441240e-03
-2.760605560289181113e-03
3.074363763024928926e-03
2.513641786503492594e-03
7.043883228133350017e-04
-3.745325972887554133e-04
-3.472348318433342729e-03
3.272721980763777078e-04
4.692021082568777549e-03
3.572517372430887225e-03
-5.683486010050667727e-05
-4.360589588965649473e-03
-1.304206024150828718e-03
1.877770761637703170e-03
2.813718961719026781e-04
2.465654461783888755e-03
1.861390713717684005e-03
-2.643989427732026032e-04
1.970123307650313484e-03
2.292284540831462415e-03
1.619921183533099820e-03
7.006905573275339647e-04
9.458001748193229762e-04
3.156992503598781558e-03
3.853768587427282852e-04
-4.237064020595347064e-03
-3.012773552903802009e-03
2.327456473487520775e-03
4.123702048980782894e-03
1.854931963010993850e-03
-1.470478633606469481e-04
-5.372438186816640496e-03
-8.652297931524667932e-03
-3.977366450886899406e-03
2.502475041153679521e-03
7.949105729289061145e-03
3.656307423691123552e-03
-8.993195130157919867e-03
-1.012716441086836464e-02
-2.337734598978016658e-03
9.009669575023690653e-04
1.661879408500598586e-03
1.895313970247993309e-03
-7.832297243968665799e-04
-3.678700988572481713e-03
-2.834065919872389826e-03
-1.659388852215590282e-04
3.084167388470311980e-03
5.426988300269977063e-03
3.577699629473888969e-03
3.572681448513028227e-04
-3.356039669621683520e-03
-5.720696845117905285e-03
-1.538331038746822360e-03
4.499021472346424744e-03
7.231997338744330754e-03
6.219346952155779297e-03
1.638901158327476463e-03
-2.001747191015350140e-03
-9.503377440920628052e-04
4.260448728276401871e-03
9.366248580466713519e-03
7.922476887267184548e-03
3.824540339529270663e-04
-1.791597495424450404e-03
1.034981070765999102e-03
3.208689313347865587e-04
5.312715666583949468e-03
2.351034970773897143e-03
-2.091865171872224829e-02
-2.529333508395341032e-02
-1.013795289562356358e-02
-4.087571088518918670e-03
3.098290971168534119e-03
6.777574667809275512e-03
3.883608286844852757e-03
5.781470876954397480e-03
3.279215227238266653e-03
-6.648117114489765153e-04
-1.369245822262590969e-03
-1.508611753578076439e-03
3.664600362548203327e-03
4.842297749955738750e-03
-3.486568389723802603e-04
-1.435284400029197263e-03
-6.890441316388397873e-04
-6.243716987341517855e-04
7.219220122983730989e-04
2.735827069859497231e-03
3.065955639487090434e-03
-3.999471498015185183e-04
-5.603899892946513465e-03
-6.774821818014430813e-03
-2.457711155317835426e-03
7.410058561546633161e-04
1.782548849682677201e-03
3.511411681430160435e-03
2.366263496471874856e-03
6.776095732770296039e-04
1.570167931519014619e-03
3.026720402189083683e-04
1.149223572041793977e-04
4.027623590681775334e-03
2.712546647052338500e-03
-2.562947363793226328e-03
-2.426186693689076548e-03
-1.857595237481294691e-04
2.960608959511781650e-04
1.990357526898239556e-05
1.389833826151075109e-03
3.307174393192932171e-03
-7.540215682061792747e-05
-1.130886188536212034e-03
2.344872145368714477e-03
1.550889444863554588e-03
1.466457892717104670e-03
8.100780929791728553e-04
-1.933639849549090382e-03
-3.404660327835954889e-03
-6.141289536728104098e-03
-2.477431724586883540e-03
-1.061832752162097113e-03
-6.692559464641416322e-03
-2.731863735137226006e-03
-1.104560543250648766e-03
-3.501781682265198582e-03
8.241755988641067581e-04
1.062463396326971277e-03
4.669665961671274658e-03
1.019705105108756685e-02
4.170789629224198186e-03
-2.963251964955923839e-03
-6.787908642872746839e-03
-6.758271481944534351e-03
-2.524562655967817985e-03
7.110607512178668960e-04
5.138227590679049495e-03
6.862521126705031782e-03
3.003181659509709597e-03
-1.215651276984707841e-03
-2.814429474372695007e-03
1.360230798777273091e-03
4.657989396511053558e-03
-3.104959939179573647e-04
-2.573093071822216398e-03
1.692302459529152706e-03
8.251904373873622826e-04
-5.939886317806477006e-04
2.985219730404315049e-03
2.198511345736444897e-03
1.993890650381124668e-04
-1.934918751077794674e-03
-5.982019743647720537e-03
-1.688051144536856750e-03
2.434383612031583866e-03
-1.397927903316742567e-04
4.327259406513669264e-04
9.304471484771073900e-04
4.699801230777783797e-04
-1.469001673412617063e-03
-4.950772429195992100e-03
-5.284568966125710371e-04
4.003296528301955939e-03
1.241456317098073000e-03
-3.906964030383625053e-04
-4.164884681825336090e-04
8.375487321044391628e-04
4.054977746416266009e-03
2.903215066616515044e-03
-1.400662303190161996e-03
-2.656898625363081183e-03
-5.610858961076435267e-03
-1.023942727196547504e-02
-7.093342205593442321e-03
-7.826560033914001799e-04
2.811300707541398384e-03
5.641284297949285785e-03
5.210903869305934764e-03
3.829954852799503321e-03
2.624974035033571067e-03
2.261832521202061135e-04
2.251928143768600152e-03
5.278793661198822630e-03
2.447577106650572747e-03
-1.160766705070487162e-03
-1.785302856253709325e-03
-8.475181416038596186e-04
2.837053492214970793e-04
-2.593068624054233658e-03
-4.003530722264369776e-03
1.809457028680352573e-03
-3.602450228072984532e-04
-7.782206069004850291e-03
-3.461045933964505827e-03
1.309641244330345079e-03
2.899687127955561695e-03
6.543255184750778469e-03
4.459839012545169061e-03
-3.509208819985840935e-04
-4.287481578996847099e-03
-5.832301739092872646e-03
-3.305342530293127728e-03
-1.628021039140209632e-03
2.641257722226315798e-03
5.689429757841575272e-03
8.345880841989343230e-04
-1.898496807531641984e-03
3.811749295655715098e-04
2.541995505637524924e-03
4.043397873148900194e-03
3.729066975935228095e-03
9.946946710717948002e-05
-3.217511221686368637e-03
-2.892502982923146008e-03
-2.983231978795376597e-03
-1.683268842599797361e-03
1.613567865289202699e-03
-1.321128051112080469e-04
-3.488522221127911965e-03
-4.350413910176043064e-03
-3.008547178807334695e-03
3.391130340951502503e-04
2.795804660480173849e-03
2.482576640174447100e-03
-1.860950063543130931e-03
-4.185046878958783786e-03
-1.922014617326058645e-03
5.250289070328829130e-04
4.075859152991726311e-03
5.084836520008077093e-03
5.781536586521786314e-03
5.730287441012499663e-03
-8.518802152823275100e-04
-2.223101747649990859e-03
1.411504139976460168e-03
4.167083845560958302e-03
6.379041498286534655e-03
2.193221795507901278e-03
2.766864735249746025e-05
-6.028790609426892214e-04
-1.919597951333981093e-03
2.560134833133246354e-03
-1.019449416612492297e-03
-8.387003478351990476e-03
-5.505001702021233498e-03
1.392828204044110202e-03
3.413751851749735004e-03
1.250956371485257169e-03
6.150500164933305446e-03
-2.239531926048710271e-03
-2.352711484907333769e-02
-1.636966659703605054e-02
-4.534958949494973489e-03
-6.478323523585572709e-03
2.935774215839664653e-04
3.035219261477658127e-03
3.767236094843679113e-03
8.200382653816357809e-03
6.305174814149838887e-03
5.823292471260691806e-03
5.182935272840591759e-03
4.601922094332526643e-03
5.348142762357774305e-03
2.056410602627762631e-03
-4.546565814345239595e-04
-3.972560169656053075e-03
-4.467875184313620414e-03
-5.573645838961084099e-04
-3.558406201304425021e-04
4.035920478503910239e-03
6.939684022846738173e-03
4.300189945874324880e-04
-3.601169053535515415e-03
-6.511930063005577293e-03
-7.143994914344771636e-03
8.819718113645746505e-04
5.749517973568869615e-03
2.738919943955448778e-03
-5.825777479855449512e-04
-2.087914813249055947e-03
-6.770224682732973055e-04
3.471933992113736614e-03
5.279458781084488649e-03
1.178047753881457035e-03
-3.263928131813168595e-03
-1.875873238942764136e-03
1.501045966539771726e-03
4.038279785962482250e-03
4.047260490121846327e-03
2.329747736444577697e-03
2.604518833459307323e-03
-3.731670133704378164e-03
-9.575939426493935980e-03
-3.819120563899496175e-03
-6.013522943475675718e-04
3.835524359442736304e-03
6.879790389548120534e-03
2.918313282009234611e-03
6.457319113492380851e-03
-1.045709809159442102e-02
-3.356864079337795043e-02
-1.272218922640798791e-02
3.046459978890952731e-03
-3.187529678098579601e-03
4.882742503236234613e-03
4.484913349642839948e-03
-8.432809452729660930e-04
3.486218907626722607e-03
4.697246774039523856e-03
9.375674498267047921e-03
8.311507453122708722e-03
-3.022643833108526273e-04
-2.578159477166199354e-03
-4.679816687318086831e-03
-2.473223003476780583e-03
1.999969941575266419e-03
2.258278170501826915e-03
6.529720947393269879e-03
5.652421340785859956e-03
-1.481133278304416767e-03
-1.773484316678335115e-03
2.549115067842597226e-03
7.923175184343047087e-03
7.319443646072738840e-03
-6.106086081056522107e-04
-4.030630011151428195e-03
-3.040132546669767257e-03
-9.762213024498744883e-04
2.118503337077177247e-03
1.999956312756069523e-03
-1.679235874091136445e-05
-3.086579098953129430e-03
-7.839685703581870599e-03
-7.911864965237694683e-03
-3.106607551461726489e-03
4.429604345427278107e-04
2.749740292373467534e-03
2.396703917239171363e-03
-4.499564262635320127e-04
-7.618320744398395395e-04
-3.694430204951158650e-04
2.077199005653214935e-03
5.846965395800562439e-03
2.821752131088465457e-03
-2.683162011084236180e-03
-6.559346491456921786e-03
-4.718802780055438885e-03
1.820989070875975949e-03
8.489717384947860620e-05
3.858984559443195093e-03
5.274695838237170899e-03
-2.082148257800644012e-02
-2.747102470486083303e-02
-5.122183279862119144e-04
7.923362007056952011e-03
3.865660588554637681e-03
8.020299061931968065e-03
1.069131421803426636e-02
1.078879512368096164e-02
5.961048256571086466e-03
-6.366786470964269033e-04
9.829184727774629548e-04
6.853104083273190913e-03
5.679735961691046234e-03
-3.044108511842142685e-03
-7.961579310564053519e-03
-6.427317493539116793e-03
-1.646403882747727839e-03
4.612034538857646970e-03
6.957587406581845768e-03
4.619834377647052265e-03
3.074466384080393340e-04
-2.669308379819760289e-03
-3.396338662426869916e-03
-3.417581625721856104e-03
-7.908776712911814392e-04
1.974985497551332014e-03
1.565247472720565896e-03
-1.660471290882613955e-03
-6.090111789083270562e-03
-6.846499622830158789e-03
-4.254950506178633261e-03
3.647710030245073561e-05
4.608043581131604678e-03
3.422799557218212350e-03
-9.871817053579499523e-04
-1.711502305590205646e-03
8.903214377648443556e-05
1.038120771419699185e-03
2.975930845236189528e-03
6.364414006132746750e-03
3.801581931542302121e-03
-2.840789298072350037e-03
-3.684600914110679193e-03
-8.466519828282599342e-05
2.227530040694951884e-03
1.511300750437759386e-03
-3.357853502468643460e-04
-3.331678787839627547e-03
-6.820755313305253663e-03
-5.490479901425504919e-03
-2.190503896852862269e-03
2.050787196865209397e-04
1.710803957193447874e-03
-1.571670192513447946e-03
-3.239031819108117993e-03
-8.527477591163379854e-04
-1.296005588343804695e-04
2.777303136934979044e-03
5.885412897416141854e-03
4.980718253675854058e-03
3.114072271599823642e-03
-3.107842688784633154e-04
-2.357418993899472286e-03
-1.290278456313555039e-04
1.584694241667111226e-03
1.971956178228995334e-03
3.460174922274078177e-03
3.343882108019687657e-03
-1.772770115643091575e-03
-5.772689302547808106e-03
-2.246501027748849365e-03
2.159544846226487107e-03
3.308308827048391399e-03
2.282974258392107738e-03
-8.606614793115029008e-04
-4.862827551117735554e-04
-3.794566021338856873e-04
-4.219080482719495505e-03
-1.346079202148733975e-03
1.825888117938074358e-03
-1.804865765889378726e-03
-2.468843321550086550e-03
-2.977866307994174455e-03
-1.302345153553894751e-03
4.646138474846758445e-03
2.308419297648690340e-03
1.312369635857305473e-03
5.866377014587895872e-03
3.606811567960438360e-03
3.278987634799084092e-03
2.993752547962153648e-03
-3.599151446631689184e-03
-6.247498790214039803e-03
-4.745657835336734159e-03
1.160401758435417881e-04
5.950787673393186832e-04
-4.737757042154871166e-03
-5.810285898637872551e-03
-1.741139141269760007e-02
-2.131074252733499222e-02
3.745439166434369471e-03
1.074342262948358925e-02
1.697540638698852257e-04
6.917851910246707904e-03
1.015132066307917677e-02
8.054846728936825018e-03
1.105139680738658099e-02
7.606666022666262739e-03
3.783259251156841172e-03
3.038731509571707123e-03
2.884106784003906930e-03
5.821688251923971477e-03
5.758523716523626657e-03
2.094230400779189660e-03
6.164192799268709030e-05
-4.625253494985776285e-04
-4.653019329288621102e-03
-1.229954396820700548e-02
-1.248540343590360223e-02
-6.680705813106543357e-03
-3.496094709627774882e-03
-1.246218176313723279e-03
-1.085366322851346287e-03
-2.085841039531412602e-03
-3.862270337310002525e-04
1.692959684347625183e-03
2.153917570711723524e-03
-2.615484415089490942e-03
-1.049741696652841359e-02
-1.411456255502450095e-02
-1.367733859459290165e-02
-8.013157658255946197e-03
-5.106176253575608675e-04
4.761742304146734071e-03
1.425658486008275598e-02
2.361035923939991052e-02
2.940962653440360938e-02
3.433874719587962782e-02
2.843630236065660191e-02
9.486026838535065869e-03
-1.655934657822198328e-02
-3.733920653690403491e-02
-3.687928277845966413e-02
-2.822236234388025844e-02
-2.454246321646212647e-02
-1.495388427066115730e-02
3.243254585427665648e-03
2.188218595172978717e-02
2.804476087184980607e-02
1.607344613653818866e-02
3.131815985682660092e-03
3.882102416237120414e-03
8.344729590546660566e-03
4.772900483228118169e-03
1.699603249701882269e-03
4.489470914293604981e-03
5.201597462746591558e-03
3.513319485934278483e-03
1.215714357077139459e-03
-3.181929448284754377e-03
-1.133048385481671798e-02
-2.254905096515226123e-02
-2.538203936286723833e-02
-1.540726604347116696e-02
-3.523639633300638778e-03
4.490466569703693324e-03
1.046282988111022286e-02
1.288978612034059716e-02
7.262302145848728921e-03
-4.740189799468778192e-03
-1.015555177562715850e-02
1.117755083627877850e-03
1.444078322096317354e-02
1.362149543438666462e-02
9.487723968889255274e-03
9.289310835690959417e-03
9.010108651245879452e-03
1.047379768327781277e-02
9.782157734776416452e-03
5.697457943277811285e-03
9.383005597547474210e-04
-4.444899217620300672e-03
-3.314177971560147620e-03
1.571487402313729090e-03
4.505232464809241950e-03
7.947447541032114787e-03
3.255406150616230176e-03
-7.487418292832293161e-03
-1.321047474815397436e-02
-1.689908052886002904e-02
-2.079850523356039163e-02
-2.752396284406715202e-02
-3.190987985679935579e-02
-3.226696790618899940e-02
-3.788447111308287235e-02
-2.968246546862948754e-02
-3.741856773936546362e-03
1.375781036876619172e-02
2.186171202439046030e-02
1.807136769313617483e-02
1.053337982539000357e-02
2.410346904348673394e-02
3.962871578929495764e-02
3.296412179345381555e-02
1.582050698746779657e-02
4.604051288139209171e-03
-6.992215670246068257e-04
-1.117873310305025208e-02
-2.332429063260852559e-02
-2.784199410788536569e-02
-2.162805777093013831e-02
-6.557185460456860238e-03
6.670495988729607979e-03
1.424279713219575583e-02
9.355697213166315820e-03
-2.023166257044822346e-03
5.070303789478938783e-03
2.241662446222704441e-02
3.405440783049006742e-02
3.793475533969843660e-02
2.969603681024291300e-02
2.198985703334170594e-02
2.379244536321893991e-02
3.109301679025840148e-02
3.543496171942969730e-02
2.605463224113793372e-02
1.098348396587219174e-02
-1.853665038876049732e-03
-1.415563753534967648e-02
-2.655215966614189044e-02
-4.134645016218112257e-02
-5.524025237315275533e-02
-6.339809868127138648e-02
-6.187781349436632244e-02
-4.848209118403293272e-02
-2.190981985018864917e-02
7.943176833930360239e-03
3.323121456794815576e-02
5.688395398383772061e-02
2.282702597407978637e-02
-7.227033740006456874e-02
-1.080102339955034962e-01
-8.787797462270025006e-02
-9.110928119958701388e-02
-8.607147525943065203e-02
-4.338728670810818727e-02
3.853808212303610342e-02
1.272232388032994710e-01
1.437958414177993582e-01
9.292651365440547651e-02
4.327869444710914781e-02
2.349207629982961315e-02
1.543418970038545023e-02
7.150182224272400716e-03
1.397580471193324118e-02
2.718190582923109624e-02
2.998357644234916561e-02
2.101023580731466167e-02
9.574653479303845555e-03
1.271319827730619210e-02
1.798349084805897849e-02
1.937471689828357616e-02
1.811941796077914252e-02
-3.169752664967409334e-03
-2.334645166845775166e-02
-2.179904537378787865e-02
-1.348573185279783142e-02
-1.094038546336996084e-02
-2.341518480149203454e-02
-4.470935135257753795e-02
-6.118003194915335591e-02
-6.327148178492851549e-02
-5.091953595635394236e-02
-2.147348962892195456e-02
3.098825018573099152e-02
4.168973202641471087e-02
-1.123448954675922845e-02
-2.665194410666880953e-02
-1.085508584139625171e-02
-3.526871556969091853e-02
-4.603570825867245309e-02
-1.004165969584390472e-02
3.796698796407706883e-02
8.556091413531316525e-02
9.523516333165089887e-02
6.320780748114483705e-02
5.720699930759080842e-02
6.245152130082240460e-02
1.857660068379561949e-02
-3.800903568112704023e-02
-5.331137853942451155e-02
-2.800435402755598047e-02
1.885286753065276363e-02
6.453523834568000717e-02
8.611232768240995039e-02
6.692224583463349252e-02
1.675132572585317711e-02
-1.365067770234201956e-02
9.608967979051481756e-03
-5.744639963994318133e-04
-1.361133835630142508e-01
-2.915260109165114799e-01
-3.507452595551008301e-01
-3.227648083038823223e-01
-1.949935856064301531e-01
6.852293577291414077e-03
1.935457742221374788e-01
2.956245921057758519e-01
2.708043995836053042e-01
1.655970864972823864e-01
4.229693122404664524e-02
-5.812076072120365283e-02
-7.829700656041564677e-02
-5.538365490307612521e-02
-3.431606735127268326e-02
1.087019725961714707e-02
7.640993201512734367e-02
1.540209584564697365e-01
1.933757141432333737e-01
1.392231062208214021e-01
6.574561482380907040e-02
3.577238197223790717e-02
1.253605206683165024e-02
-2.266932037236683850e-02
-4.293647657665924239e-02
-2.540990847182842197e-02
5.966750053756256222e-03
1.802732538478790322e-02
1.745186947119427984e-02
-5.520401987831378629e-03
-4.348470663163828825e-02
-6.504070555557971145e-02
-1.279820056838940345e-01
-2.288460888129362214e-01
-2.538251046931567223e-01
-1.972141872209420554e-01
-9.986865529565901178e-02
-7.284604984207645149e-04
7.394108488068643070e-02
1.461413446650098036e-01
1.290637788901012883e-01
2.737150421060437558e-02
-1.262563662659261197e-02
-1.938415675378671321e-02
-2.695485928467424713e-02
-1.247456740689817725e-02
1.035477773830964293e-03
1.285448952282601531e-02
1.097255957399775710e-02
4.914325713657968081e-02
9.759510374187473081e-02
6.890340526094458629e-02
8.339012634037494542e-02
1.260987364814381839e-01
9.125484857410509631e-02
4.707756637865404686e-02
1.619689202982314141e-02
3.289453417452184447e-02
7.291338530559078601e-02
5.161397515514563189e-02
2.275080019664921932e-02
-2.902542148348959822e-02
-1.012670358001969695e-01
-1.183171240009309316e-01
-1.180163234741316708e-01
-8.965571662435291300e-02
-1.881623118455487409e-02
4.490888464313617934e-02
6.887050924488360981e-02
-1.106676144833295371e-02
-1.526044642008929919e-01
-2.184880468179386803e-01
-2.075512624124866423e-01
-1.842072643968442891e-01
-8.863413375726553189e-02
1.031990638449408748e-01
2.120398309763394107e-01
1.750664795851913647e-01
1.123977274522307140e-01
5.205808249113585279e-02
-5.348078182788564700e-03
-4.316842589758184551e-02
-3.862772247424553496e-02
2.070029336128943048e-02
6.096652600446229170e-02
7.228237814193040622e-02
7.787261193631973832e-02
5.181233502912394040e-02
3.001724668374716742e-02
2.388039608601935648e-02
1.474276212982951646e-02
1.373293744930838105e-02
7.236051839387802609e-03
-2.400455895107741957e-03
-4.660867413879377780e-03
-1.744587702510276908e-02
-4.248644945071763240e-02
-3.107920304458064095e-02
1.735727318334748595e-02
1.274741791547467050e-02
-2.815378424773225599e-02
-3.477355942187397575e-02
-4.406893824862403997e-02
-6.867515647904770537e-02
-6.527833452252131130e-02
-2.060512579462886115e-02
1.869298996612318506e-02
3.026779403043164743e-02
6.008808528184329117e-02
7.273199461588469861e-02
4.023170426190784965e-02
1.973859067638022644e-02
1.341706821914504660e-02
1.039588009767033333e-02
-1.654659910269330042e-02
-7.627944150537112333e-02
-1.218196178384150091e-01
-1.682696859853723415e-01
-1.655019464188901834e-01
-4.959187643650336819e-02
6.092911869188893242e-02
9.823182012812735342e-02
1.164947503224381675e-01
1.029447510472296518e-01
4.086997621404973163e-02
-6.055503119921134061e-04
9.186913191600216272e-03
1.422800412588925804e-02
-9.267262407200179894e-03
-3.859987578251817403e-02
-4.649996499186653115e-02
-5.220834414732124923e-02
-6.172889075311396856e-02
3.802131141853106605e-02
1.752066784654774390e-01
1.377553448240678713e-01
3.822301403267939351e-02
2.609027897364289347e-02
2.701581685258882398e-02
9.437867887247659848e-03
-1.420943244128349686e-02
-3.001231235630365604e-02
-2.893591536056341548e-02
-3.563901200550345649e-02
-3.699417989563823922e-02
-3.195210847888736716e-02
-3.009516679801349168e-02
-1.585608750469074887e-02
-3.870793290349768944e-03
-2.091673972972305645e-03
-2.874000073272695022e-03
-4.634872711177844863e-03
-2.327994826239299531e-03
-2.378428548206077027e-03
-3.811711590399999468e-03
-2.604943361993920705e-03
-4.014517838701422113e-03
-6.073790790974764771e-03
-6.192314510939789587e-03
-4.457024348937135665e-03
-4.037977367440406112e-03
-7.072931043511358762e-03
-1.147011146722478302e-02
-1.291573475654812959e-02
-7.131367798033006432e-03
-9.781863944859727801e-04
2.248280578287979205e-03
4.987374351997786101e-03
3.861404197819417669e-03
2.619577633356040460e-03
4.974062800649662469e-03
1.006638626876031270e-02
1.609443163929053303e-02
1.782041162055630207e-02
1.506123882497858307e-02
8.887421421599513496e-03
1.758377887912410250e-03
-2.087708233308992536e-03
-1.140733426521027159e-03
3.283434881613902980e-03
3.969546980885203802e-03
2.361633546275578510e-04
-3.593771192726536931e-03
-6.780616763830423117e-03
-4.833281827312201420e-03
1.450332562761619563e-03
6.270239641211493124e-03
9.744019109722201408e-03
1.067684955902833445e-02
4.546983549851011178e-03
-2.769120859561228967e-03
-8.341746819795957607e-04
2.009744068158673524e-03
1.990499081545404718e-05
-2.538808410183767143e-05
-3.800120588577341526e-03
-9.402368222757339841e-03
-6.644363085484844382e-03
-2.582829220764992252e-03
-1.876758057714974582e-03
1.086459349987475322e-03
1.886073642837303617e-03
-4.623970898844064099e-03
-6.366920026874656885e-03
-1.369546658823288590e-03
-1.038424684696913130e-03
1.565762152641794660e-03
1.795195269080527688e-03
-9.376963192121185592e-03
-9.308377159745539337e-03
1.587706681384345574e-03
3.613071969783003719e-03
4.125534045016645938e-03
6.048173378232758919e-03
5.062670841415412189e-03
3.434884672939736948e-03
-1.607258674245546845e-03
-5.440606616358647021e-03
-5.734394114617777588e-04
4.670349756095624333e-03
4.259684483370722481e-03
2.252204728623681193e-03
-2.731237802266069190e-03
-4.371988226754451416e-03
-3.252492137754814773e-04
-2.707649930674134887e-03
-1.265804337648781044e-03
5.371935473024858423e-03
4.411862075830090373e-03
6.877250198623339680e-03
-3.568760068526980779e-03
-2.609508035575639623e-02
-1.637964216548785240e-02
3.990399447989471417e-03
4.747931333658765053e-03
4.467291969459759836e-03
3.500928605283827773e-03
1.484203434023469636e-03
2.225822374915010626e-03
1.489172469308844369e-03
3.565767704352270154e-03
4.703772931875673143e-03
5.205248626546269504e-04
-3.328890759470677033e-03
-2.626968969490061073e-03
5.780694711644011798e-04
3.324476248430859905e-03
6.304359670474105753e-03
5.911291785367210443e-03
3.491940983434682448e-03
1.498425535834195001e-03
-2.952439639734772596e-04
4.494442049847587398e-03
7.198819166496821936e-03
1.056266255086428258e-03
-3.671650933436986820e-03
-5.180603035348750607e-03
-4.902703562357437969e-03
-5.979197133127567461e-03
-5.063626937115759882e-03
1.012575532270142391e-03
-3.926423752567803063e-04
-4.911369791320959778e-03
-4.263428307808100719e-03
-2.609633103170652668e-03
1.648570487796448009e-03
3.782098642414026286e-03
2.629051883090715875e-03
1.648443401802856048e-03
7.817969488088012415e-04
3.100342822193161607e-04
-4.670528946732100013e-03
-5.647738404589417761e-03
2.492303399413202999e-03
7.252444963668001551e-03
4.408875687334571671e-03
-5.464064660959945226e-04
2.663227281238840592e-03
4.167036592054400995e-03
1.073819081569048987e-03
7.315052016361935951e-03
-5.332644591412242195e-03
-2.502613683519958748e-02
-8.583346968234133872e-03
5.171686626536823282e-03
-3.922548275576071876e-05
2.892029797747908484e-03
5.711919377329783935e-03
6.453177127648387565e-03
1.593756828704793582e-03
-8.792529247121193617e-03
-6.725359935624792250e-03
1.762472680728923921e-03
6.193997260385506257e-03
4.364541707275863304e-03
-7.363018757597571086e-04
2.620274943752525041e-04
1.336491708767932780e-03
8.510199760687468286e-05
1.200523338283958569e-03
2.973580136320595410e-03
5.571999107446713208e-03
3.531845504724413776e-03
-2.929252360801960168e-03
-4.525176315692208164e-03
-2.248886170716162414e-03
-8.276592320612072848e-04
1.080304937086658300e-03
3.100974932780416974e-03
-1.518443484616142751e-03
-7.465516167190935741e-03
-4.524141166847550286e-03
-5.517777429741004686e-04
7.264707472482691232e-04
2.592861566780097372e-03
2.011817446837476688e-03
-1.409000419127589448e-04
-2.338528110482675833e-03
-2.134439008588352379e-03
8.337348591591063098e-04
1.831492239126257309e-03
1.214388321354750375e-03
-2.042607468082348592e-03
-4.328542510465696949e-03
-4.071942698597186012e-04
-3.751465209950350125e-04
-3.115095327386013715e-03
1.892166919457669537e-03
5.304078136799359432e-03
2.694017191335670337e-03
2.175197417607351285e-03
1.269495281135870485e-03
-1.170834276701812550e-04
2.672201398714477150e-03
2.919093945833679815e-03
-5.941481233431356902e-04
1.477089437338416464e-04
4.362860581788826405e-04
-3.641734427864756415e-03
-2.752179867951820656e-03
1.044821658522690835e-03
-2.264331102239058435e-03
-5.940662601464483453e-03
-2.923752398461896239e-03
-2.549731053848044255e-04
8.190011730474607747e-04
2.697389036308295903e-03
3.141314520623824519e-03
4.364299129931056669e-03
4.858143558296545809e-03
1.058667093857781037e-03
-9.437565304353727307e-04
-2.417456330004361359e-04
-1.252064476081615318e-03
-1.029651206018027153e-04
4.694836755404915678e-03
5.356006347242512483e-03
7.172732115810458576e-05
-1.517042998895275652e-03
8.970598105852195699e-04
9.412317927556148982e-04
5.631649676499193976e-04
-2.755623038879356779e-03
-5.708342827270120393e-03
-3.143779638480731151e-03
-5.854964589436325965e-03
-5.465925680582134003e-03
3.438146824351042720e-03
2.448814036962219855e-03
-8.218093024774101489e-04
-3.382944214417170792e-04
-4.801721962406801936e-03
-3.583106365075524897e-03
2.333911343444045050e-03
1.317121200021229704e-03
-1.028299116670879218e-03
6.874133920287848684e-04
2.754908045292374808e-04
-2.234404032138224971e-03
2.285235614494312683e-03
7.022885556121833892e-03
4.195651691000757376e-03
5.712029394911176438e-04
-2.840854819544806446e-03
-3.035515678966190910e-03
-7.047289968254299855e-04
-1.161420556888855806e-03
1.948100482375785284e-03
4.780664135731220975e-03
1.633727053386996829e-03
-8.433643288390590487e-04
-2.304702863295074802e-03
-9.722992262338040793e-04
4.871303420557530212e-03
5.351090412365929784e-03
-2.556868636225626554e-04
-7.875291914579288580e-04
4.788380193294188014e-04
1.812940393490026830e-04
3.499150284329138709e-03
2.350598233089154065e-03
6.985590726850212685e-04
3.044412942151399678e-03
-2.080066191288922409e-03
-4.789968020916516266e-03
-3.178165419752132081e-03
-1.546779160058470029e-03
4.090865640718449603e-03
1.525370061551597220e-03
-4.282676283584453789e-04
1.520121015929134459e-03
9.713122298201072808e-04
6.036268415661609314e-03
1.745789393067104451e-03
4.179044772415857652e-03
7.600398796750543542e-03
-2.190684401645292753e-02
-2.676689382923174571e-02
-1.253757196616194468e-02
-2.429890953556505112e-02
-7.467319803429343927e-03
1.752152436486610620e-02
1.038740410340046119e-02
6.361816913283694502e-03
2.567085989069567333e-03
2.339943153243863761e-04
2.651276797932889187e-03
-2.485925278555723133e-03
-8.267489422213842275e-04
1.943496995258288829e-03
2.062131369053852887e-04
4.669764534705137665e-04
4.499185953522717111e-04
5.884168976585371115e-03
8.294826489234304046e-03
5.660493887874325225e-03
8.216083085348309042e-03
7.795055667305575767e-03
3.957576942266081109e-03
4.049175458109249663e-03
7.395373616453405907e-03
6.805236138277473770e-03
-1.545833297403727876e-03
-6.173056582500243902e-03
-4.474264745004317284e-03
-3.631643918194321728e-03
-2.660835844196759656e-03
-1.557520490518802831e-04
2.633486684021987909e-03
1.281647561713370170e-03
-3.498605738224998176e-03
-5.547021411845086750e-03
-3.732804103387587277e-03
3.413634439891244550e-04
-1.160900797599969661e-03
-7.927794359924755091e-03
-6.725583408652069037e-03
-2.739454681047615546e-03
-5.259498047484851592e-03
-6.113148626006890962e-03
-2.065372226938882397e-03
3.896359010516193232e-03
5.320223173569472823e-03
-3.821086921286569182e-03
-1.028144738613454012e-02
-6.595788199083354834e-03
-3.718713571624706997e-03
-9.837118556285623198e-04
3.717746417339936552e-03
2.844251499491255112e-03
-3.473553730029702372e-04
2.043588081890015430e-03
4.775622000836944429e-03
4.939705222506870531e-03
8.511256773291489899e-03
7.542765280242538263e-03
2.167091613121728197e-03
5.748060902246327278e-03
5.010662297830779065e-03
-1.789542170875775421e-03
-3.015568269528455265e-04
-1.460612408552675653e-03
-2.659196896277455854e-03
-6.256470018547545314e-04
-4.575448339960843519e-03
-3.207209766661565757e-03
9.545963294441049641e-04
1.168593211259179743e-03
5.259188059779037333e-03
6.167887222856601598e-03
2.312789865880725618e-03
-2.985219380233195951e-03
-7.645710350274815235e-03
-2.751614596513801345e-03
2.571373122054498080e-03
1.835093264722766808e-03
1.460681467806989459e-03
-7.618448462447836855e-04
-2.587865912567553165e-03
-5.093100348644546103e-03
-7.543276796143397536e-03
-1.004949893734762402e-03
2.690155509561703660e-03
-3.224970162635185881e-03
-4.055524234424221809e-03
6.105696175990816188e-04
1.681997800652562441e-03
-2.880543253613157876e-04
1.917327223902391665e-04
1.729693945594005470e-03
-1.418615537108989036e-03
-4.593008353505217273e-03
-2.237886179442636660e-03
3.393468460635722887e-03
5.014943151975492959e-03
-1.831982384400997373e-03
-3.638118303815491943e-03
1.956209892882287190e-03
7.335498564062269741e-04
1.106036595058412612e-03
6.360212301333095265e-03
6.714038171417235738e-03
5.934116654099539853e-03
4.488774956601820389e-04
-7.122471582588729873e-03
-4.279081061667100797e-03
1.904116545634642254e-03
3.968541126713454742e-03
1.926325543386332457e-03
-9.659419449190454615e-04
-4.597338012943009153e-05
-1.034475101324291166e-03
-2.211899453872395640e-03
6.713055775469553262e-04
1.631437512635916694e-03
1.885460400870295769e-03
1.503913196652298997e-03
-2.073385021174649779e-03
-3.315665522273354530e-03
-1.281674600776750187e-03
-4.149760252809795184e-04
-2.895406681834373141e-04
9.917394887666464588e-04
-6.228684486346246219e-04
-6.402518909767823847e-03
-9.179377169539662540e-03
-5.758178896591539808e-03
1.454865924830831339e-03
6.325093284357329732e-03
3.262394968368221172e-03
-1.037856268940111478e-03
-9.960605441145088754e-04
-7.812925504997312491e-04
1.797961786486266134e-03
5.972125206308173673e-03
1.275145380648381186e-03
-4.962936892653005590e-03
-1.017868055670468784e-03
3.236378156937972424e-03
4.220559730787849101e-03
4.666359423242452502e-03
1.406445314271201818e-03
1.559579908986336244e-03
2.951735714288002046e-03
-2.263406959688722946e-03
-3.615601674387919611e-03
7.710093754110806030e-04
3.111047962929139668e-03
3.159243048884344002e-03
4.045944467327306513e-04
-3.246150488532936924e-03
-5.514715797193796114e-03
-4.992469548937961306e-03
3.114067964116617906e-04
4.302229814289332439e-03
2.867525434340561456e-03
-3.273385519021516541e-05
-2.311715671791483330e-03
-2.368145123355833680e-03
-1.682552467621961255e-03
-3.225003391625995246e-03
-6.029389197677826814e-04
4.315297307070760369e-03
-1.150299862930577064e-03
-8.569103262009122521e-03
-6.997079830110984090e-03
-4.311688879671374090e-03
1.945735628217523335e-04
6.566549300058619094e-03
5.312848232956467708e-03
8.940531257772726167e-04
-1.204812705129661458e-03
-2.516642110908931269e-03
-8.569289553500816694e-04
1.418025396329955241e-03
1.049702662744537648e-03
7.751765294306365173e-04
2.081801664204172442e-03
1.537186655327895312e-03
-1.027490459731920762e-03
1.163151955559220798e-03
6.848746124254569481e-03
7.774354076181438575e-03
2.178974717016232601e-03
-3.805891115792924776e-03
-1.998849545988454993e-03
2.208928026571534229e-03
2.449665192384874700e-03
4.054678450376944000e-03
3.390693195163996688e-03
-2.308375314952184005e-04
-3.496191188497112831e-04
3.769614168366164234e-04
1.245646348720520118e-03
1.696928134954533551e-03
3.566757967772682999e-03
6.755740780846770585e-03
3.894435322634732209e-03
5.061527758144567868e-05
-1.132475918117556261e-02
-3.098743946379355768e-02
-2.485445188722790535e-02
-1.167386097562177812e-03
4.177206424356999341e-03
5.121342247912440224e-04
1.270101553654649730e-03
3.713266558816581339e-03
6.090415042968826478e-03
5.192652931873801073e-03
2.023157773369040503e-03
-1.027432319874935348e-03
-1.952985200117607345e-03
-1.418463316528948250e-03
-8.220164353682844587e-04
3.634634983911640832e-03
9.005063806321246533e-03
7.595415741468827635e-03
4.551299744213776512e-04
-2.161093791485928228e-03
2.395077510573100088e-03
2.685556898164692761e-03
1.017493899386861817e-03
3.901898046455139647e-03
1.843898317273385363e-03
-1.970460628753768501e-03
-1.194385832290369067e-03
-2.502774944077806093e-03
-1.683923811649500144e-03
1.483462541678605895e-03
-1.333935836308345127e-03
-2.410231100919528035e-03
-1.441438226296654285e-04
-2.933322869153627901e-03
-4.944322339655608453e-03
-1.702632306761683043e-03
3.027596996202901874e-03
5.127826586068187295e-03
1.599821000124354705e-03
-1.542065279855093759e-03
-6.798362818056737002e-04
4.603180818223539931e-04
1.372528315266618396e-03
2.604366141694270352e-03
2.112488656183852519e-03
-3.440968191474864154e-03
-6.519561534110651646e-03
-2.570386739449027642e-03
-1.648199085466075988e-03
1.406180074632579127e-03
6.273110560476526446e-03
2.349221417035844955e-03
-3.709597878031275532e-04
-4.018421473906262642e-03
-9.550929600886357701e-03
-2.456532729018944591e-03
5.532438007277956649e-03
4.327997529659853397e-03
6.043131291280406025e-04
-7.416862868472906848e-04
3.003272183298033842e-03
1.638935503376693845e-03
-1.991928085423345061e-03
1.649235444356954858e-03
2.863016193004560054e-04
-4.340314951828235651e-03
-3.752241683255330695e-03
-4.514650612092700570e-03
-3.608532534272208304e-03
2.988137600078748929e-03
6.303372120974070833e-03
1.765255348279011613e-03
-5.876552932404091384e-04
2.928821049479468121e-03
2.694084186447212939e-03
1.448862195909881830e-03
2.383984539673473894e-03
-4.389974443218837546e-04
-2.566343111943396836e-03
-2.856838191932090012e-03
-2.600137957845214797e-03
1.635972628209881978e-03
3.234203636553339284e-03
2.024500396673265239e-03
2.148801709924596636e-03
-2.454841551946195053e-03
-5.823927246896578279e-03
-1.615650997642400274e-03
1.450609848197432052e-03
2.932356949634314005e-03
3.687333084065744487e-03
1.459439582297675448e-03
2.570254947675371885e-03
2.458692572320479372e-03
-2.393938547580552485e-03
-8.550940482681296554e-04
8.921600303815503804e-04
-1.994991577547983175e-03
-8.331745357612428812e-04
-1.863298830504881440e-03
-1.430693669126989519e-03
4.770332543803205115e-03
3.105039625978743643e-03
1.069428966421116832e-03
4.830095318796851075e-04
-8.163652954211638932e-03
-8.847985142425188881e-03
-3.304867149011840588e-03
-2.507519818445873728e-03
3.910996202996038298e-03
7.150747119260054789e-03
-1.706739647053918778e-03
-5.473199964019708451e-03
5.632211675975855292e-05
4.174373445087744758e-04
-2.335803969471970162e-03
2.358180849262021470e-03
4.255062718559142303e-03
1.966973647691180535e-03
3.092659853294346846e-03
-2.153892488281647019e-03
-4.693235763486222623e-03
2.586268655334381453e-03
2.602389413536392287e-03
-3.399903427552926566e-04
-7.136159738198505137e-04
-2.004027562948713058e-03
3.807185963515996086e-04
1.909177211121353872e-03
3.339110738382826838e-03
5.240669982464059642e-03
6.834400991687945978e-04
-3.229024765833767106e-03
-4.454405387388151762e-03
-4.489552460330355384e-03
1.308491346619286176e-03
5.920400196161692066e-03
4.360539136844084757e-03
1.117053064901736342e-03
6.742641775985114662e-04
1.812521001828697013e-03
-1.855410479679967667e-03
-3.651501759418272330e-03
1.942753506496425501e-03
3.490002457085282245e-03
-1.236427037707920566e-03
-3.614810528118744034e-03
-1.391250854054011665e-03
6.138390329696334548e-04
1.139849341880544127e-03
3.859489798506345916e-03
3.220062098732918206e-03
-1.876196824619437084e-03
-4.437321876946519021e-03
-5.337655825099384826e-03
-2.567423979358919150e-03
9.132613052257032831e-04
-1.503824794856222901e-03
-2.497705801619446841e-03
-1.282814678316826929e-03
-7.020182446892848926e-04
1.667429355008402886e-03
1.661485652733918654e-03
8.899397948030943976e-04
-2.415657715150790728e-04
-3.073989660101781891e-03
-3.161742291352082697e-04
1.333808871119287077e-03
-1.036717718352379468e-03
2.235050538047915394e-03
3.469714279974639003e-03
2.182420306277092249e-03
3.832993727983833622e-03
-3.799545070833553959e-04
-3.165748436449142365e-03
1.123594597044452401e-03
1.496758267344279253e-03
-2.261547391626312254e-04
-2.018662132217326991e-03
-4.151022432728594148e-03
-2.276033988675846276e-03
-1.052991756930474979e-03
-6.453218017403608651e-04
3.570744182398113802e-03
5.465938836450485311e-03
-1.202470899170755104e-04
-5.098580769017052421e-03
-1.639780538900951611e-03
2.447171093538882958e-03
3.993208163989253427e-03
6.709373633833901410e-03
4.563777619447201631e-03
4.552143617914622496e-04
-1.051571519296501476e-03
-1.883991964657643920e-03
1.852125964720327967e-03
4.616177672589773760e-03
2.544924343455006680e-03
6.040718001088331074e-04
-1.991105422847503931e-03
-3.209564781983361131e-03
-1.838573991168671691e-03
9.030557687827159199e-04
3.384396815309323545e-03
4.826332424648587145e-03
-9.301235378135568575e-04
-2.524911736743792184e-02
-3.617861977174592625e-02
-9.986722904892433514e-03
8.718802205851463802e-03
7.956291598119415859e-03
9.962961189290029176e-03
9.403122316735288908e-03
5.851008375004545202e-03
4.613135974861515710e-06
-1.949452277731982984e-03
4.957682102003992640e-03
5.285991135376952137e-03
2.886866059871043971e-03
3.277114176422919484e-03
1.933172097736043146e-03
4.361680038573649207e-03
3.790675205703752503e-03
1.290803646333891662e-03
3.419072457342306384e-03
-1.689304147690064584e-03
-8.907548450640656243e-03
-6.150676092834961826e-03
3.884908058760648027e-05
4.021049189201144833e-03
3.215040620225458404e-03
-1.902412178138609793e-03
-4.096149388158282743e-03
-4.513642983120355959e-03
-6.794928045953997978e-03
-4.552343685904424765e-03
-8.091063367919317743e-04
-1.927598681746940299e-04
3.844412240345140234e-03
5.133974547959429049e-03
1.883662353276840430e-03
2.589544425093497342e-03
1.163398183136967346e-03
2.168362410962923535e-04
3.104144816153852921e-03
-9.432557312758576250e-04
-5.441240585404050721e-03
-2.013757324432969339e-03
1.991761316197612677e-03
3.678739793614048490e-03
5.141676007410798943e-03
5.371857278594834549e-03
2.172712754598671563e-03
-1.497736475168354479e-03
-1.353884335086991868e-03
5.121450154175263966e-04
1.187265353369542894e-03
5.304430839613116615e-04
-3.574882583726091481e-03
-1.099757876142392309e-02
-1.083204564297155295e-02
-1.740406249612296658e-03
2.341049859772784646e-03
2.662594435564090770e-03
1.747411702986618933e-03
-4.062056564073512378e-03
-3.383276169053212133e-03
1.662984551835697961e-03
4.609214954784698719e-04
3.435032070368629082e-03
8.466405867103093952e-03
4.039139871278942841e-03
-1.013135821938650032e-03
-2.631261402249110079e-03
-3.817135404787598985e-03
-8.167875412309371546e-04
3.501606712170652301e-03
4.964010624214085406e-03
3.322580935689761240e-03
-9.217591015690483874e-04
-2.892865970393610625e-03
-2.006943451128508863e-03
1.268183865523503547e-03
5.831775306010839044e-03
4.223249753648570734e-03
-6.321575884983072135e-04
-4.761321754203978567e-03
-8.661849567842414693e-03
-4.720557098890969423e-03
3.892937486277660351e-04
-8.876270563144307568e-04
6.566746814249777454e-04
2.416088505849357023e-03
1.177728488911727574e-03
3.945127806830937660e-04
-6.001101876656952114e-04
2.834755050991075512e-03
6.583796213609462850e-03
2.822430002569574665e-03
-2.615454978460127287e-03
-4.697432753647600573e-03
-2.386432869356277901e-03
9.607619261274356719e-04
1.565303996961132449e-03
2.413241270177530519e-03
1.472561326750450317e-03
-1.917126014660978928e-03
-1.639782340824032627e-03
9.496260349524059509e-04
1.172917763446530703e-03
3.273834434810129730e-04
1.249074793502647027e-03
1.061530850691654038e-03
-3.549108361867887688e-03
-6.580220700509248170e-03
-3.471699159455112708e-03
9.542477803821336696e-04
1.787743405651377347e-03
-1.257191932048526200e-03
-3.989078694159929259e-03
-4.784766457449697238e-03
-3.330816837908423533e-03
9.819243761422088643e-04
1.830401153508554556e-03
2.447829075633189272e-03
7.465950231639813944e-03
4.774520597071541493e-03
-1.683320403657266985e-03
4.973959847746534015e-04
4.873798860724226634e-03
5.928834992976291483e-03
3.400793943502059945e-03
-2.198608048749557729e-04
-3.724117085615704075e-03
-7.514902553311593111e-03
-4.800970576531691202e-03
-2.353883998676952957e-03
-4.905304644984862482e-03
-5.811920700883597187e-04
2.699337881480683154e-03
-6.734564885359792599e-04
9.817059866701395056e-04
4.980914895713786476e-03
8.625903028503714015e-03
1.305742598515885304e-02
1.187218046742703585e-02
7.061915426057923523e-03
4.098601180481671602e-03
2.921802364593341014e-03
3.762873161803319353e-03
2.612472703358293714e-03
-4.326806082367504191e-03
-1.128427262299989964e-02
-1.446173162489463107e-02
-1.718732761550173863e-02
-1.772490371815938631e-02
-1.339876253149306987e-02
-1.196343709801249607e-02
-1.544121320409341108e-02
-1.212598972710371772e-02
-3.083526792635003268e-03
2.932471596588145067e-03
8.458885078779425012e-03
1.390397270489810572e-02
1.752784035051035624e-02
1.417635242270626206e-02
5.712335312425827205e-03
6.623176711211905925e-03
6.205840169645194387e-03
8.317038944625914938e-04
2.110240172252689748e-03
-7.165113024437572489e-03
-1.086756985063184154e-02
