2.768559794422160644e-02
3.036856301256548804e-02
1.286449484521680516e-02
1.802989095486532203e-02
1.162504287131899128e-02
5.290243903513193978e-03
2.174761754123923346e-03
-5.817316285589349371e-03
-1.191494272389262768e-02
-1.722962974828961408e-02
-1.376685651464505666e-02
-1.032465988602641362e-02
-8.658258775374887833e-03
-2.971094845751438146e-03
-2.226159465610676440e-03
1.126836558314113675e-03
4.906738715694490549e-03
5.219991725810196881e-03
1.074502208556578180e-02
1.572226404957865684e-02
1.515862236240323596e-02
7.388154890231521388e-03
1.282790802213774374e-03
3.051846325873566398e-03
1.537154792593631563e-03
5.879525372027573056e-04
-8.605985693336175388e-04
-8.526549058325701494e-03
-1.142862892210520440e-02
-1.118422751570183511e-02
-1.059540465130091348e-02
-6.905545742168870543e-03
-5.815519747097637124e-03
-4.872305050193809564e-03
-9.264408829300705816e-04
3.777968316961134135e-04
3.699828500749881397e-04
3.843648481254537813e-03
7.183866878159765948e-03
7.707622713909502606e-03
5.886745543639961692e-03
1.527528121183819925e-03
-1.446939100565751207e-03
-2.724582193049183542e-03
-8.226391173805489747e-04
3.478304539459371042e-03
3.406511706494983046e-04
-2.291483581252755104e-03
1.245109582177763782e-04
-4.056562363931710824e-03
-7.054660556446026333e-03
-3.210245831128386192e-03
1.346796025612534376e-03
4.639865435140618811e-03
3.343128113642263900e-03
7.614677929751186665e-04
-2.182597387495458993e-03
-2.887825133245515430e-03
3.494998666728003564e-03
4.960919204181667500e-03
1.344395724624278081e-03
-2.048628101747092126e-04
-2.498283328975709535e-03
1.507615722339501817e-04
3.941775904202334327e-03
3.608928834049111422e-03
5.174713874049292200e-03
3.366154993257056138e-03
-2.207875127984599249e-03
-5.577469622399475538e-03
-4.017999719100172167e-03
3.520509288013307439e-03
7.780175276828147496e-03
6.136581819088925485e-03
2.728440446438589601e-03
6.829099363801579723e-04
1.604902965966546833e-03
2.179215980382937130e-03
6.990985324779406401e-03
1.613044521691830687e-03
-2.159900599534148730e-02
-2.512915104386052520e-02
-1.030529094269136588e-02
-4.763830638966631489e-03
5.135603645479632504e-04
5.888053123172759182e-03
5.543647734824431843e-03
2.551198559890134870e-03
-5.648001233025200631e-04
7.184767260127588196e-06
-6.014030593396916093e-04
1.262618160486016477e-03
5.036446763369248868e-03
1.402141977877641252e-03
4.778615317483937957e-04
2.363382126390557551e-03
8.604618149294489824e-04
7.001758657880422084e-04
-5.735409044307004586e-04
4.158301026782693782e-04
2.242980626045729901e-03
1.330917878257577595e-04
1.725087693065036716e-03
2.065852845428950933e-04
-3.711912850228183802e-03
3.090644419417397110e-03
6.142604411843768583e-03
-9.524487967995101060e-04
-4.214466921900922834e-03
-5.208428990017559441e-03
-4.510099528007740013e-03
1.045083012136312174e-03
3.219392508697959798e-03
3.904537752233277754e-04
-4.656985224659795095e-04
2.434610471803101337e-04
-2.211690762100212461e-03
-3.428668219942278099e-03
7.167386112239694084e-04
2.640531038900461626e-03
1.589514311956870913e-03
-5.837186888906249348e-05
-3.286771002491072850e-03
-8.934501947231490151e-04
3.382996876301054816e-03
2.707786389582093802e-03
1.743182003809873662e-03
-2.649636227311619424e-05
1.117172833603814275e-03
6.509803488523001336e-04
-4.791362350642673282e-03
2.493535059701950263e-03
6.308731354071392579e-03
-8.263431753763549742e-03
-1.105794171015597738e-02
-3.891156374284320766e-03
-1.797218943494880697e-03
4.330192987304529000e-03
5.710885498393697586e-03
1.920639316390557010e-03
4.122095795222250128e-03
1.883194052852856567e-03
-3.010618128563332784e-03
-3.164875407793348396e-04
-2.196838682181071942e-04
-2.512229961220801243e-03
2.657630503190911483e-03
5.875761825145875417e-03
6.827843989496899888e-04
-3.838605596294582863e-03
-2.978981237913771486e-03
1.199891054110625290e-03
3.925600231650752843e-03
1.668683608249026031e-03
-1.540468773531744650e-03
-2.345851882507372227e-03
-2.033014431531455623e-03
4.571053207850483404e-04
3.279817595685872132e-03
1.112434883550653900e-03
-3.414800300381587179e-03
-4.719194347967803349e-03
-3.515863794307155354e-03
-1.909081493345467749e-03
-4.600272690739094263e-04
1.241399421975964714e-04
3.183943690504588138e-04
9.607841786041952442e-04
-8.411721803242069037e-04
-4.385862844623170803e-03
-1.475280218622555643e-03
5.792373531239763083e-03
9.438949150935186522e-03
9.202044496808279780e-03
4.115851843837870470e-03
-1.470409000631283649e-03
-2.614558911763861359e-03
-1.926299936246096082e-03
1.292478121660384791e-03
2.024788042077199385e-03
-6.946466493589372165e-04
-1.234742293722664508e-03
-5.584705291074507083e-03
-6.780048345583902965e-03
2.122398564311449136e-04
1.044176499565225517e-03
1.866342255571736084e-03
6.479024836614326321e-03
2.473969285701693981e-03
-3.205611788947992577e-03
-3.244246471096528649e-03
-8.222188299903476034e-04
1.522391486419762217e-03
-5.508717861142514716e-04
-2.148659329926863853e-03
-1.065475314456294093e-03
-3.336717147278711257e-03
-2.351548502682525993e-03
2.229649164654322509e-03
1.512924319172354037e-03
1.278739958600972129e-03
1.419103355129402132e-03
-1.979555301262100366e-03
-1.149224756759610611e-03
5.405951227979975161e-04
6.768094881220980841e-04
4.850174252917708977e-03
4.743057267519979435e-03
-1.108704971019969579e-03
-3.669941268388215213e-03
-2.642524549694563567e-03
1.180884570124281652e-03
3.734842903038402672e-03
4.128018839243334341e-03
4.408528799748504499e-03
-1.733668165839516440e-03
-6.425852131019827926e-03
-9.023783937923400035e-04
2.726811074800633127e-03
1.472944997992162988e-03
-1.241019950410418549e-04
-3.709843536904641401e-03
-5.739488880527268341e-03
-3.864805639605123442e-03
-1.198806954512527572e-03
6.439721577699910075e-04
8.860383320415337162e-04
-1.090264897043862879e-03
-2.709968520878613778e-03
-2.764722469883934119e-03
-3.332093432871162473e-03
6.406788879759720435e-04
6.146290087797933420e-03
1.505447009506595633e-03
-2.975267077507648059e-03
-2.283745979233501471e-04
-3.656686069557704569e-04
-3.979879352372482507e-04
8.605730063835728173e-04
1.533807408079165824e-03
5.225411833857049500e-03
1.472762519619870642e-03
-5.980734194256701573e-03
-2.168567981025456727e-05
5.916192730702337851e-03
4.076056487795943171e-03
6.436257427474957257e-03
6.287998656357325633e-03
2.874894824235110519e-03
2.727226838788836261e-03
-4.403980335388794042e-04
-3.868233046294570826e-04
3.255994487513413221e-03
9.058451525508069051e-04
1.371554899301538708e-04
-4.477536238140684965e-04
-4.971076611642768171e-03
-5.003353493282573956e-03
3.346832833004266365e-05
7.323738464220506429e-03
9.059373113291878388e-03
2.482471290097375792e-03
-7.008419141638089385e-03
-2.325275624296550825e-02
-2.987383075960644077e-02
-1.082836244632057188e-02
6.499410377392937817e-03
6.566649420299176462e-03
5.838685355781450016e-03
7.156999499096000465e-03
4.369934247689995915e-03
2.338540556677866193e-03
1.290432928245161068e-03
-3.409721382421713326e-03
-5.138613629451751347e-03
-1.930437500222556210e-03
7.130590326361630231e-04
2.341889406388361974e-03
2.916633354020977970e-03
5.788560434115593185e-03
6.898853079749484724e-03
7.512999021151662909e-04
-1.640549865498636562e-03
1.485096553167735778e-03
1.557918240971266962e-03
-1.701929619316331428e-04
2.013943241175113110e-03
5.013530756417691921e-03
2.653411221078619546e-04
-3.093260540740091179e-03
2.519410602789412274e-04
4.191428533865734904e-04
1.008849974120219414e-03
1.353296669556864522e-03
-1.151518479046019896e-03
-6.390202439024529396e-04
-1.455869268663248809e-03
-2.221591895403740059e-03
-5.889126694887323850e-04
-6.663904861631804542e-04
1.139450560835716161e-03
7.642365191588160406e-04
-5.300788532596070399e-03
-7.388670371845536960e-03
-2.477521509142782945e-03
2.366041096824432737e-03
4.048691290738102092e-03
4.477380923978586773e-03
2.494510048261163859e-03
8.548253385067469136e-05
-8.842832998803123448e-04
-1.520894910627187816e-04
3.858524206213028319e-03
1.414587440715676546e-03
-4.087950542953221363e-03
-3.906946556689249936e-03
-7.877995775337391995e-03
-5.507277524807830532e-03
3.568565559889824278e-03
1.734738132465474345e-03
2.732740860516545602e-03
4.269342500697566496e-03
-2.169544882612038823e-03
-9.717676159280801401e-04
1.116712078243847989e-03
-9.509622814154811620e-04
-1.174011034997117812e-04
-1.025562972600298087e-05
-8.377364206809499313e-05
-1.283774395278431193e-03
-1.527568763163218366e-03
1.078212095841373733e-03
1.702864756969752619e-03
3.852904353040033716e-03
4.042891894040408392e-03
7.424458567260436206e-04
1.060029249667506326e-04
-2.297299614383787811e-03
-2.343052034354225176e-03
1.963182689460238415e-03
3.428859840861370363e-03
2.052309078240790140e-03
-3.778992693264612932e-03
-5.991424658408445354e-03
-2.069672923443510726e-03
-1.572104115842117098e-03
2.799100497511311340e-03
7.037750339651742230e-03
1.790986859959127400e-03
-1.320673249081241816e-03
-1.526761943979711633e-03
-3.076343794161667464e-03
-5.067732726587678184e-04
3.697336361616414182e-03
2.302808180471258102e-03
-1.583861382847089093e-03
-1.920682088997803646e-03
-2.311450051569560737e-03
-2.273044229704901528e-04
5.864619100037832787e-03
5.212155894617951334e-03
-5.821872540878219237e-04
-5.037509156317052095e-03
-5.319989605922298241e-03
-2.436468455655970214e-03
-2.259411896361843489e-03
1.157300747217436792e-03
3.447758810011627637e-03
1.545412496949417891e-04
1.906838292813300625e-03
-1.029907104161083015e-03
-4.641273110844090430e-03
3.729266685491890859e-03
6.183354640447199027e-03
1.248614680654472776e-03
-2.274851279933729018e-03
-5.001821749395773779e-03
-3.110617183825723289e-03
-1.342818020668710196e-03
2.843775880566405375e-04
2.495220197881687415e-03
-3.780023999593131226e-04
-4.090981128074639914e-03
-6.024781725840406763e-03
-4.091286502408201381e-03
1.264667951550810070e-03
4.452183946372224692e-03
6.205793079112956016e-03
4.239008172968905530e-03
6.424871272360752625e-04
4.362262020322626717e-04
4.920545306184715946e-04
2.050181832203636610e-03
1.759823441912485541e-03
-2.399119952436513676e-03
-1.638908952490586305e-03
9.269619717086337134e-04
8.959113200309156083e-04
2.872495980938097326e-03
4.615924146331570541e-03
2.479359400435912717e-03
-2.061900018227149148e-03
-5.165213814515558395e-03
-3.884739199519984636e-03
-1.088573542252342435e-03
-5.261261501512319669e-04
7.820088222627116390e-04
4.166927699114269905e-03
2.552055760876597093e-03
-2.771723463055195125e-03
-3.585910737983099422e-03
-2.030256995038034421e-03
1.354752374854525975e-03
5.134565060910127425e-03
1.493506725455383613e-03
-3.532747933007151717e-03
-3.219884019396089883e-03
-1.741530602375148708e-03
2.626984482294309050e-06
1.440021185218147990e-03
2.881638080234742195e-03
1.333993951916270966e-03
-4.825473520763013703e-03
-5.190854831613500239e-03
-1.826152835076293212e-03
-1.551202949566191742e-03
1.779654903012443772e-03
4.471964013177753307e-03
2.275403969845614903e-03
-1.143507682714893828e-04
-2.937135980368342936e-03
-3.998824231880779116e-03
-1.202865281534214788e-03
2.907701094692777440e-03
5.253669576820172230e-03
2.856080206202719820e-03
5.642986840892487595e-04
1.355030022117098857e-03
-9.111099209606527988e-05
-2.289004743184612240e-03
-6.299424705537772385e-04
2.241605522390379465e-03
-2.500749391650462740e-04
-6.527264730883381230e-03
-6.388314729185342287e-03
-1.049440691577008342e-03
2.197528806633736610e-03
4.151361621028643555e-03
4.396558163872998568e-03
3.214211442392640988e-03
1.373168395576792374e-03
-1.336623857503367249e-04
3.296927596128238196e-03
3.844020729434989916e-03
-1.690409133875614943e-03
-2.765018647684284406e-03
-2.392537091247496240e-03
-1.152612491268617707e-03
2.060520089997262827e-03
1.078068765083492172e-03
2.452512402435897115e-03
2.303730509781508166e-03
-4.742939670231770093e-03
-4.975594311038821285e-03
5.781478548929621861e-04
3.464823259158455668e-03
5.860434817925867963e-03
7.605262583898918585e-03
-3.006996358392962070e-03
-2.365705830922073399e-02
-1.994362858321491530e-02
2.744829662862144793e-03
7.914399656410190873e-03
6.207550904394001576e-03
6.695079859935642273e-03
1.604373793536720359e-03
-3.551681681544586176e-04
1.138873126985825654e-04
1.666069670073697107e-05
2.284159238287555935e-03
4.819331665891322600e-03
3.476681778725940631e-03
-2.033055279932854433e-03
-4.619473647701219723e-03
-5.802711512345940306e-03
-4.908351983687120508e-03
3.034326993281240628e-03
5.886217558936932340e-03
2.282847101034997384e-03
2.351560891453461765e-03
1.557466138576163320e-03
-2.656909588264699373e-03
-2.434414460459831051e-03
2.578708166624663154e-03
2.386049911866222617e-03
-1.740474643250748774e-03
-2.762011988247988197e-03
-2.063019988509785883e-03
-1.488264291475367490e-03
-4.122979995445881680e-03
-3.563383186357616667e-03
1.755590988347726375e-03
-9.137471214810824818e-04
-4.172185826803754931e-03
-2.013380124986136836e-03
-2.228630659825381560e-04
3.839396200877730810e-03
5.165483937789872027e-03
4.208050711504355938e-03
5.283453397024484924e-03
2.211480121427953673e-03
-1.920985120767636396e-03
-3.844063300748784594e-04
4.474547217642953732e-03
4.982590428586824299e-03
1.901357355710421191e-03
4.473317124559246906e-04
-3.096338986950702716e-03
-4.163962013783433815e-03
-1.567534812230943404e-04
9.068739587835760677e-04
1.301816896603541756e-03
1.188237294218449274e-03
-4.531700588732097412e-03
-9.440924119650412685e-03
-4.621236863615019695e-03
2.443826786184610106e-03
3.228132344714718886e-03
2.843368200131970221e-03
-5.901362182775336373e-04
-3.255180647689460971e-03
-9.451742212304941161e-04
-1.053648396216218166e-03
4.976975465599625496e-03
4.912931872910290647e-03
-1.156074417748360374e-02
-1.113286378758451475e-02
5.924995855481510025e-05
4.697464312399656644e-04
3.407232493258296677e-03
5.379864812737666924e-03
1.845122104143760277e-03
-2.271648515751880683e-03
-4.714070767801989414e-03
-2.105883527325032981e-05
3.457224127370719935e-03
2.859266574229671256e-03
3.198318216578574860e-03
3.202084570674209067e-04
-1.172721579661101503e-03
8.102817872286306343e-04
4.150660706378143504e-04
1.380297910771591773e-03
5.395337862302343294e-03
4.274986762167564021e-03
-7.977901712140157741e-04
-4.439978882688868419e-04
9.462894084007956097e-04
1.985322051408077587e-04
1.446835934563703600e-03
5.620018227990326984e-04
-1.053856551870480020e-03
-2.383487669458253695e-03
-5.951320749117373562e-03
-5.879089785587076830e-03
-2.822276384094649180e-03
2.246890867974086353e-03
6.922804214365415459e-03
3.268654500383539468e-03
3.448352316454423986e-05
-1.256567542291262126e-03
-5.939053147988951516e-03
-1.631337031565633418e-03
3.681038232203207375e-03
-1.079721677701123367e-03
-7.939973045428381669e-04
1.854735302597388053e-03
-5.101444616948681279e-04
8.424213219294728701e-05
1.942737717790872032e-03
2.845032521681572450e-03
1.069359586300766161e-03
-3.848303793324475523e-03
-5.036342393848562346e-03
-4.479331979507060121e-03
-2.247087703927554744e-03
4.061507697492557425e-03
6.844852105790087855e-03
3.212812889791390094e-03
-1.705416704518010950e-03
-1.723562753005468406e-03
-1.525817661885183060e-04
-2.319553100654683179e-03
-1.602274306621298766e-03
7.177453112605368694e-04
-1.371420499242004872e-03
-3.450153042264390412e-03
-1.708490630231407651e-03
1.621914067790114142e-03
2.717895432595403629e-03
5.192027092350249076e-03
7.066569738822960252e-03
7.676007115972506437e-04
-4.118865790343383820e-03
-3.195434817661358794e-03
-3.310699032540387766e-03
-2.019525208363473056e-03
1.234844757208026014e-03
2.390145649283632705e-03
1.437451743505937553e-03
1.813488466154822407e-04
-2.769202570134171332e-03
-3.618713901518954071e-03
2.436995963216549016e-03
4.168770853857900645e-03
-6.800233735215169707e-05
-8.916346920668271128e-04
-1.542122937888060555e-03
-4.669326411434179054e-04
2.340560776295110869e-03
7.237563135521336800e-04
-2.934208190247910956e-03
-6.292576846777687277e-03
-6.839025160926771353e-03
-5.191500483899243526e-03
-1.236169567389872569e-03
7.070697333261517260e-03
1.159145706998803219e-02
1.088068775254265146e-02
7.520571813464752356e-03
2.800665848442266022e-03
2.266402531261868091e-03
1.844060341441348082e-03
8.232243869694310040e-04
-1.119181203087275204e-04
-5.554902952130090499e-03
-6.946791420303939993e-03
-4.168891177868028555e-03
-5.279654523023837726e-03
-4.221034000209129833e-03
-4.524675707246035529e-04
4.876621982548489873e-04
-1.664368222861199384e-03
-4.931688024850058687e-03
-5.135691710127423398e-03
-3.586799225262623549e-03
-1.257508763705092285e-03
5.638535712047042930e-03
9.688040847488272461e-03
4.112386928932065810e-03
-1.253516709041116277e-03
-1.263539388305287168e-03
-2.802576155437542377e-03
-5.063624658786299894e-03
-2.115724663915437200e-03
-1.182375290499546153e-05
-4.315175186112441517e-03
-4.722858260974967248e-03
4.512608929190214772e-03
1.448614099504285345e-02
1.825947750000491560e-02
1.579360767251785161e-02
9.502253784561985259e-03
1.254003836594455882e-03
-5.088476378767117260e-03
-6.202836967036330119e-03
-5.219571032778725153e-03
-5.653104292359606951e-03
-8.704972436032052535e-03
-1.068297835255709559e-02
-1.162217029472684647e-02
-1.363524230721856016e-02
-7.945810684258786116e-03
-3.446198360554313112e-03
-6.511506888851951481e-03
1.523390493760612158e-03
1.283710121370926736e-02
1.779017999709761252e-02
2.023221168559549005e-02
1.224589639085708025e-02
3.276966623389442144e-03
-5.888596701057668796e-03
-1.381428959285621073e-02
-9.545510604144094233e-03
-1.963820441579865878e-02
-2.776331677281451346e-02
-1.943248297723256489e-03
1.582910528529622371e-02
1.673747770371999607e-02
1.978098536090498044e-02
1.402734954416659172e-02
1.005709522533143434e-02
1.069663881522825606e-02
8.038696337960156077e-03
9.245688128534981440e-03
1.016343963387024950e-02
5.080102059614796141e-03
-9.610994789006944289e-03
-2.689335832420966521e-02
-2.771551164869140785e-02
-1.662519260053089629e-02
-9.164934443537929923e-03
-7.601818871462302264e-03
-5.281585760834740795e-03
3.950882540036457897e-04
1.572374270988058679e-03
-3.639829867220394153e-04
9.201034565299141561e-04
1.468771040205473291e-03
1.683564928999582472e-04
-1.621870430615449956e-04
-2.029419646018027238e-04
1.542628950247365485e-03
6.411036320706897836e-03
7.830878785456997504e-03
4.796021201861374976e-03
2.898902065271199979e-03
1.624844712491146665e-03
6.801771219952240308e-03
1.780611411043104761e-02
1.881297507661183754e-02
8.773420141669319161e-03
-2.033776116617837509e-03
-7.319238950246185170e-03
-8.092161084941314891e-03
-4.523344067696639416e-03
4.335082486140895419e-03
6.120931676927302001e-03
4.374262084467244252e-03
4.528586182227086095e-03
-2.538127876700947781e-03
-2.642883855318006910e-03
-7.826107440028566217e-03
-2.903782340029512771e-02
-2.352159622797021440e-02
-4.018737699918912415e-03
-3.849895424169835420e-03
-1.830147424920874595e-03
5.141967649875586180e-04
-2.787164739934697676e-03
1.466626235582738763e-04
2.779283388100092008e-03
6.167607089025549817e-04
-5.452575323171210582e-03
-1.031033270743139142e-02
-5.293662349544567963e-03
4.203282874602834625e-03
9.741702716594115297e-03
1.109082418788982782e-02
9.512455808512161257e-03
5.120241086620577232e-03
3.623185532704843465e-03
8.590138133447035307e-03
1.270148324473597580e-02
1.378466712349213016e-02
1.252326461116377854e-02
7.295246437446876488e-03
9.489692110624292805e-04
-4.571844727292023736e-03
-5.226166290142711043e-03
-1.087532813331791018e-03
6.372257201267422528e-04
-8.531648377367385191e-05
2.654500032859242616e-05
2.050188148244000180e-04
-3.675969290198164395e-03
-8.114667548555111812e-03
-3.663366063897616296e-03
4.267572105926981454e-03
6.428641572186284160e-03
3.007395405506433066e-03
-6.284889943898660722e-03
-1.770834065879569458e-02
-1.871170937472662471e-02
-9.866023452961752982e-03
-7.405817461311127621e-03
-9.539948812770374792e-03
-6.653707814725679306e-03
-2.480690436088541385e-03
3.050283174559407715e-03
7.675488307698394817e-03
6.593801590805664636e-03
3.033494695715982948e-03
7.382772194697001912e-04
-5.792194896446483526e-04
-8.105089067663285782e-03
-1.231201940840094544e-02
-3.614875256693978172e-03
-2.010858869069171145e-03
-5.151519947690931175e-03
-2.327296535558927466e-03
-6.505716660071383765e-03
-8.551198103545157997e-03
2.093236809934930810e-03
1.533007136596081094e-02
2.529604500876196649e-02
2.456524414215229338e-02
1.335016585189743518e-02
6.521525406535392394e-03
8.596750520623837669e-03
1.113374808508019176e-02
1.547870771042035923e-02
1.826967663052609867e-02
7.582033590989261176e-03
5.413317160718449789e-03
2.211014626001245667e-02
2.719594645651255901e-02
2.092439017580180124e-02
1.216570823780310263e-02
-7.338787520350304773e-03
-2.832582325764914852e-02
-3.773234606390513113e-02
-3.142825347507220701e-02
-2.867004224511589608e-02
-3.964047329731406472e-02
-3.445539759995722151e-02
-1.105137612725975299e-02
1.288848233535072954e-02
3.096442269144104517e-02
3.171693597108145996e-02
2.831410728086124901e-02
1.237128915858774422e-02
-4.428273558015406730e-02
-8.623137952984144539e-02
-7.098576964339974038e-02
-4.542914517010157582e-02
-1.728249065514517180e-02
2.547872213911433689e-02
5.966999226834340808e-02
9.389256796329772947e-02
1.042355909283865789e-01
4.799150980429531949e-02
-1.676265303441094520e-02
-4.819574615423264513e-02
-7.704944296013326033e-02
-9.972558915275440972e-02
-9.434662419785591614e-02
-5.304662798495071718e-02
1.258579589957917362e-02
7.409911448484400587e-02
1.051153487854730451e-01
8.925883202369623570e-02
6.140404533349513860e-02
5.291837906339295211e-02
4.331341536100526135e-02
2.839984987967512572e-02
1.793927538394500878e-02
1.924661285880778158e-02
1.531372815448119387e-02
-1.493661854406130168e-02
-3.140436198705291726e-02
-2.515203403981550179e-02
-2.553302154451958864e-02
-2.095656166685168700e-02
-1.059170741521946700e-02
7.450979356771443921e-03
2.623008683019304246e-02
1.034900495760357649e-02
-8.789118107062126803e-03
9.061360622605313733e-03
1.472405931792333811e-02
-1.621897322391001664e-02
-3.084183483912040363e-02
-5.288586602912920959e-02
-1.551568801086297966e-01
-2.542315918844847422e-01
-2.533103772972600254e-01
-1.960630985433568507e-01
-9.571140635875684255e-02
4.955770194199055068e-02
1.989949407220388544e-01
3.141401031430641755e-01
3.191743998992926934e-01
2.285268853510474540e-01
1.270681932354391364e-01
3.443214371019407902e-03
-1.091740646592131159e-01
-1.599293699337875629e-01
-1.904949244004570663e-01
-1.823902039007940790e-01
-1.024608376761668299e-01
-2.029417515097416917e-03
6.903225851833620641e-02
1.045221754622848720e-01
1.337468115482882969e-01
1.559438181696973791e-01
1.355468892832331074e-01
7.297052129072612026e-02
-4.518235159601174077e-03
-4.295440204999840389e-02
-1.723206810019728072e-02
1.881644442172471232e-02
3.718293470776241200e-02
5.759852970149960394e-02
7.304430104302096771e-02
4.244575401477979765e-02
-3.549494488667822439e-02
-8.608811937801030822e-02
-9.501227655268029704e-02
-8.749268523932861308e-02
-3.851488849771448481e-02
-4.548482529051221107e-02
-1.219005306223757967e-01
-5.523766709391163265e-02
6.615289142847755044e-02
1.001755533222637440e-01
2.203989450396159067e-01
3.224866544110049915e-01
2.240439675616400506e-01
-2.769407395953176702e-03
-3.481999711725067281e-01
-6.219147793816950376e-01
-6.671843064352471764e-01
-5.649754389218090145e-01
-2.821217773611686686e-01
2.888494267383404784e-02
2.905216155434637848e-01
5.676874479269614637e-01
5.579831050282566540e-01
3.334085396238907206e-01
1.973330864290898656e-01
1.926249483499783283e-02
-1.233896400946729865e-01
-1.145350744606128957e-01
-6.221855924902042201e-02
-1.259745606343348930e-02
-6.026843235521612413e-02
-8.549651602031432818e-02
3.484662479966298175e-04
-1.860591415233199195e-02
-9.632110294909812520e-02
-8.891058573168815482e-02
1.077371205946974636e-02
2.045905639020699773e-01
3.542380687617940893e-01
3.803294824854500100e-01
3.179865056377905730e-01
1.867356473628171976e-01
5.994027985429613986e-02
-9.257374220686256927e-02
-3.422635130773654666e-01
-5.575742696662752129e-01
-5.740093059362645356e-01
-3.863529815266900092e-01
-6.308659968590622780e-02
2.603468243397568105e-01
3.802894426159529884e-01
2.885909369039340033e-01
1.493533318190045922e-01
7.221940497604777132e-02
1.159167106917666501e-01
1.140843896641538791e-01
-9.479558267585208586e-02
-2.535023007699103714e-01
-2.493785641401462250e-01
-2.153393564045081587e-01
5.373375056361733536e-03
2.957789480927506820e-01
2.425031391198763098e-01
8.292864649585258985e-02
4.986668628351672433e-02
-2.011438117359912459e-01
-5.324818902712364910e-01
-5.525476205005586117e-01
-3.908328384147203849e-01
-9.844444653582039295e-02
2.820244512733153242e-01
4.336961003125904823e-01
4.195467570586517425e-01
4.358293717941685852e-01
2.570998162188203873e-01
-1.253439561770961497e-01
-3.355087327239659745e-01
-3.810624262478408131e-01
-3.683849416407145028e-01
-1.198769823288346470e-01
1.004906695164854841e-01
9.801474701936321865e-02
3.271606128197593333e-01
6.575575344943613842e-01
5.675072799520368694e-01
2.492941207027211115e-01
4.765029738648376284e-02
-8.315504189002998620e-03
-4.848195340184834057e-02
-1.393153817273735939e-01
-1.618792091641062525e-01
-1.500768122309149855e-01
-1.813115268188295048e-01
-1.722884342750952424e-01
-1.194112840310558726e-01
-9.855134761651854203e-02
-1.010850406430274934e-01
1.370588729705539584e-02
1.065919434558315754e-01
-1.113807304186770902e-01
-3.592198816768860659e-01
-4.052095779123608410e-01
-3.488173531877732381e-01
-7.623366321406632728e-02
2.025805245879480632e-01
2.100628288193553406e-01
1.896717171854151729e-01
1.898098557608556280e-01
1.350945889152934676e-01
1.328382119980500709e-01
1.171431786853224244e-01
7.925522157715926552e-02
9.244350319024659257e-02
8.069475917351361105e-02
5.384051549290123223e-02
6.126976090049951473e-02
5.149355210055096832e-02
2.560665928714850673e-02
1.634974081700552376e-02
5.166088829974642936e-03
-1.516343420342375348e-02
-3.230110604368494759e-02
-4.026734711441205816e-02
-4.146014428964385490e-02
-5.218469091490227779e-02
-6.280572721230380517e-02
-6.461826341175858079e-02
-7.079463599714352906e-02
-6.702418723503619780e-02
-8.067221543753941293e-02
-1.394765362014817878e-01
-1.675968581577245431e-01
-1.009845075607250647e-01
3.987091588850843332e-02
1.400777042527965865e-01
1.061846258676322485e-01
4.190598912826830336e-02
3.715628987685546530e-02
3.893022952146400067e-02
4.687612536452839124e-02
7.037861128870455396e-02
5.799457325237095118e-02
1.318593896993442219e-02
-1.668340131377088129e-02
-2.557640799303081275e-02
-3.158309120140337378e-02
-2.607640017097402271e-02
-3.999858958775321521e-03
1.120987302181447078e-02
1.010664703868235058e-02
2.785922933567653442e-04
-5.987566063182174492e-03
-3.972164191064376376e-03
-2.118136171756376113e-03
8.582507783043825597e-03
2.469511264852625176e-02
2.010051794807814554e-02
8.101075434712907281e-03
1.046900899692834036e-02
1.153898770295050391e-02
3.216449139473481940e-03
3.378247223159985954e-04
2.267822788991242632e-03
-2.833376655950063661e-03
-6.976385862032716788e-03
-6.233649947458767653e-03
-8.814517145886565860e-03
-8.288023225723027340e-03
-7.846587306359811137e-03
-1.260763893988964095e-02
-8.682325883847796452e-03
-3.146783383907817647e-03
-1.350468790779131697e-03
1.837369942881877981e-03
-4.326217596253381995e-03
-7.537835136795802658e-03
-4.008240893206426944e-03
-6.650418450913348281e-03
-2.554645936304254100e-03
-6.383537761049247711e-05
-4.212341980997236224e-03
-2.529967209496133702e-03
-4.721752606993595211e-03
-3.910095554081196439e-03
2.443450742470838506e-03
4.886611623234726753e-03
9.319432328383480887e-03
1.058214220067746694e-02
4.515287844548071874e-03
-1.271684821532774110e-02
-2.479355649246265531e-02
-6.008874273071226207e-03
1.278332215536803762e-02
1.375108552727810976e-02
1.212495665049109425e-02
3.585870840950324684e-03
-1.798037978563944662e-03
2.392088695623862012e-03
5.864197868590004421e-03
6.928435899289573513e-03
5.385317131428405193e-03
2.586326237923124681e-03
-1.723332249527005991e-03
-3.372298814880119681e-03
1.368939018533124261e-04
1.747951606728122362e-03
1.658553058972069309e-03
1.429946546255888044e-03
-5.344783412685947784e-04
-6.208896425318350190e-03
-8.788244165306564187e-03
-5.442959490197811414e-04
3.130437551512512545e-03
1.043347725109366564e-04
2.174308534415797002e-03
1.712996544974150492e-03
-9.416751420342654244e-04
-1.437492871152591320e-03
-2.132411665014626555e-03
-1.175546697022985740e-04
1.142887822180085281e-03
1.695038955915771563e-04
-5.808406659407845066e-04
-2.245041988750084982e-03
-7.742692441533128656e-04
3.981934963413860315e-03
5.911091401145517239e-03
3.418612599372365668e-03
-1.537362273644595064e-03
-3.881708086995399806e-03
-1.332248871564413158e-03
8.228462852041579408e-04
2.087423850092306153e-03
3.637197728108739966e-03
1.632778931068818275e-03
-1.407977195723698893e-03
-4.930231231951680282e-03
-7.273570145492824421e-03
-1.768875462164376912e-03
3.412959884853699125e-03
3.967546634740740617e-03
1.331633932170141459e-03
-4.528495041036044791e-03
-2.632181916042629268e-03
-1.520553998424696660e-03
-4.589321342360024383e-03
4.828501819578257491e-03
9.229524906109081231e-03
-3.777250937129986033e-04
-5.648311253611154256e-03
-6.058041113524343692e-03
-2.135822321155490984e-03
3.012157943172652074e-03
3.182267941245624752e-03
2.286493690805161891e-03
1.387845825885738668e-03
-5.325907136799596341e-04
-2.992147108952258362e-03
-4.605574998950178519e-04
4.655056362428805147e-03
1.722823713763387216e-03
-2.594027531552414115e-03
-2.826006537796913170e-03
-3.415093560955433918e-04
3.855019099852668996e-03
2.559604328096804545e-03
1.003051746750088444e-03
8.301077326152749361e-04
-3.649460963391725540e-03
-3.494203636327693208e-03
-1.990694128377510871e-05
-2.217128854764576678e-05
6.623994873142286140e-04
2.861534890787783159e-03
3.414399798240600175e-03
-5.703827969375279338e-04
-4.016043686354305378e-03
-2.969238502558622667e-03
-9.173639330102284625e-04
1.373781734513881926e-03
1.997326653439993960e-04
-1.518743272850698765e-03
-4.625745420280195745e-05
-7.813360746247556901e-04
8.631566272903148668e-05
1.726682041590210659e-03
1.894431434774676353e-03
3.102778466675410601e-03
-3.727691862351461931e-03
-9.881613581235732316e-03
-3.675431896001803839e-03
-3.194051843660124018e-04
-1.091175057892889160e-04
7.146989455024673615e-03
1.160421691931857666e-02
5.532055643742029433e-03
-1.455869718432771867e-03
-2.237011712609932989e-03
-1.655543119074294901e-03
8.730036604381527510e-04
4.744915796897635277e-03
3.886385996684311051e-03
2.457894259118215997e-03
2.051298046971744213e-04
-3.481429458539577262e-03
-1.824664806139239927e-03
5.348838887221569506e-04
-4.914179557663257442e-04
-4.712564512925996631e-03
-1.011996983949485854e-02
-7.373765112477736333e-03
-1.627839220476198995e-03
-1.093487533503669602e-03
-1.308930755502111967e-04
7.828001035887081948e-04
1.552307454329893859e-04
-1.294868970350498538e-03
-4.745169284368168372e-03
-3.276872474269711729e-03
3.769844669457019393e-03
5.841256727373209806e-03
8.143955892240983168e-04
-4.390883134172384947e-03
-3.637310002345289697e-03
9.982478934339410453e-04
2.596570335428401068e-03
4.153487423810896945e-03
7.326156772342035280e-03
3.784231836420251949e-03
7.075166749820555392e-05
3.235983719943147201e-03
2.808136418840745645e-03
9.486474316432128712e-04
3.834072695093853570e-03
5.733587017394180772e-03
4.896276663516000577e-03
-4.813558555081768209e-04
-4.011489618149577559e-03
3.658460636841779062e-03
9.248152302323470880e-03
1.610706237700520235e-03
-7.538252013403520108e-03
-6.900695473433447052e-03
-2.952996651801538357e-03
-2.663220257213091535e-03
-9.751922832618980380e-04
8.990624334797111704e-04
1.685054234420396138e-03
1.341511861933630031e-03
-5.160260866077429238e-03
-7.699488579743501461e-03
-4.589819300289344796e-03
-4.234705250312113985e-03
1.808960067423995505e-03
7.157502396802327589e-03
2.105463148820682900e-03
-4.195826920263558656e-03
-8.302565932391092751e-03
-5.951754041237472710e-03
1.270336790440782437e-03
2.420552650589103717e-03
3.441575490774457201e-04
1.821118839746884159e-04
-4.922683484109072454e-04
-1.480301827471030337e-03
1.345607987374415702e-03
5.584624714483571971e-03
3.891449386735156869e-03
-3.433897858887495730e-04
-5.057074314500338043e-03
-8.057388485227240729e-03
-1.260007685737418509e-03
5.215666453856017751e-03
4.609574516671282110e-03
5.066365321858355697e-03
4.310181796523529160e-03
1.981156151048267620e-03
2.372621031390847492e-03
5.893277129071203095e-03
8.797874649730856589e-03
7.105620452649787436e-03
5.562467276000838262e-03
2.301341959479612665e-03
-2.963471980233930124e-03
-3.591064878766310735e-03
-2.603978934096393399e-03
1.661770835682835346e-03
1.517940828866009423e-03
-9.287193362472641323e-03
-1.089045878993895669e-02
-4.973565012627267391e-03
-1.808208175670429543e-03
2.157473674669947109e-03
-2.857426332334504250e-03
-1.136016962669125947e-02
-7.641285099753648315e-03
1.643459382086947260e-03
5.095289956835043731e-03
3.606626921207326496e-03
5.777151687958043298e-03
6.231807059376623208e-03
-3.487591441595668516e-04
-4.157591966283717515e-03
-5.395786834305723104e-03
-5.533899564755346764e-03
-1.843797224823776233e-03
1.383751540071474426e-03
-2.517061839997246147e-04
-4.646849830937284029e-03
-3.379824098133233333e-03
1.964928685158065166e-03
6.960290125735240849e-03
9.000847569509742505e-03
4.396204117862121015e-03
4.397264090759932242e-03
2.657620981351407549e-03
-2.403091762602928717e-03
4.581950531983232204e-03
-6.463844641640930332e-03
-2.617847640044703578e-02
-1.118574107928816362e-02
3.108376194575589516e-03
1.242273806924468118e-03
6.302907550150195319e-03
6.293769461193214967e-03
3.015461997073917016e-03
3.652300711070163072e-03
3.222009529184697869e-03
2.289117168164543723e-03
-1.827347715010664390e-03
-2.519017274346183489e-03
1.028036942973495479e-03
-8.402209276173720504e-08
-9.741493015076667069e-04
-1.565560200588488873e-03
-3.737419623384999508e-03
-3.779835055970568944e-03
-7.427962972797255703e-03
-1.095613426517475994e-02
-2.813000834228658771e-03
5.668421449361278099e-03
5.933359403555332409e-03
4.145948714315245837e-03
3.149905988057316890e-04
-9.708043885927993477e-04
-1.403561668709248024e-04
9.913814276617460234e-04
6.811781260480501143e-03
4.593418809990390886e-03
-3.758448594364081127e-03
-4.440938760339911001e-03
-9.489931351779692676e-04
5.604098831829000711e-03
6.735303985672386369e-03
4.194093323662276968e-03
6.396077052090849008e-03
2.498421166961144364e-03
-1.079837085481231843e-03
-9.978106492865347101e-04
-1.006029851007897912e-03
2.508545042183209228e-03
3.322605506735766372e-04
-2.983602113327717673e-04
-1.920116253133492172e-03
-8.788173690523950338e-03
-3.855431214596772085e-03
-1.150079217974682433e-02
-2.685031808422405977e-02
-1.571404345803913485e-02
-7.724920760928955833e-03
-8.812665235020522916e-03
-1.456339208973302275e-03
2.960786339800733748e-04
1.592312624609302672e-03
4.299993739508395710e-03
1.265092832190273719e-03
5.569463809583470116e-04
7.263334455710527236e-04
2.423453518076851710e-03
8.149311851810225882e-03
7.364691564282366959e-03
1.998773901837152395e-03
3.508955176161955916e-03
6.899285479541291885e-03
5.781824154300767120e-03
5.047340226798222550e-03
6.316301981071035902e-03
7.123184642357964849e-03
5.881483789445356158e-03
1.596608711563872940e-03
-1.952949640027204677e-03
-8.731665674984376551e-04
1.846317213309065170e-03
5.856161380410979111e-03
1.096573706982632151e-02
5.526838913606480462e-03
-6.589427738725765586e-03
-7.415535825817411858e-03
-2.324396210437991526e-03
-2.141299647640166367e-04
7.933525673820259545e-05
-2.354663464185964301e-03
-4.691462366789867985e-03
-4.926775359991502311e-03
-4.124085074671882817e-03
-7.393752278600983392e-03
-8.457369984007740912e-03
-2.648065320732132053e-04
4.895261826803234528e-04
-1.113312645742098881e-03
2.656245741093905106e-04
-4.099267965999760406e-03
8.732593191709256191e-05
-8.583574509745088219e-03
-2.770415005564876715e-02
-9.931281746023467097e-03
8.628965698380845067e-03
1.767236974603202766e-03
2.068152142222971866e-03
4.868737165801361073e-03
4.642791879941663216e-03
3.007071121826768341e-03
-5.191520056892633567e-05
2.608889125223209926e-03
3.441774050145519123e-03
3.750392195766233481e-03
6.923675164348396666e-03
9.968964851692886653e-03
9.911967867842104429e-03
-1.806219553448697862e-03
-1.147928285605824723e-02
-6.726946346096248155e-03
1.193722206897734764e-03
7.155196593134623834e-03
9.440760781322372550e-03
6.512079382105492691e-03
2.846480569572304008e-03
2.228394535890457304e-04
-2.557914760925879272e-03
-1.191514240371705901e-03
2.181155587714045125e-03
-8.425295400178039757e-04
-2.272383182287676488e-03
-1.713906485507393903e-03
-4.728028567140646517e-03
-1.184057964242453756e-03
1.595439666591849789e-03
-2.451781388490966926e-03
-2.364750612766613590e-03
-2.759282809902929498e-03
-5.650528168900911634e-03
-4.570729773441305731e-03
-1.495721721371644697e-03
1.157818348791144966e-03
2.877836446409537310e-03
2.041959241317321903e-03
-1.796374247668649149e-03
-2.762778675695261484e-03
8.340385858810914167e-04
1.405677451146010665e-03
-1.156623324909818520e-03
-1.404278312381395614e-03
-4.617706646713891274e-04
-1.923203207278207250e-03
-2.334202830063840210e-03
4.496141339291783302e-04
1.006275669221279138e-03
2.396939668998613075e-05
-2.678714827873385738e-04
-1.608284283009934470e-03
-3.763446368938947687e-03
-3.552878507215799508e-03
2.641114073560741227e-03
7.285013417407094904e-03
5.510281218137167737e-03
3.724661873822743968e-03
1.934554678565977067e-03
-7.693243197931226964e-04
-2.252391434940818459e-03
2.085832993818559269e-03
7.309232831558651507e-03
2.278894706885385788e-03
-1.135241962074112158e-03
4.307933960347384850e-04
-3.507422877937500967e-03
-3.790633500373674202e-03
1.782189343531885226e-03
5.824911727672199731e-03
2.619925224874662239e-03
-7.502545429452871922e-03
-8.018295989913935481e-03
-1.598400253182180120e-03
-2.257822032663699043e-03
-3.018085581467493724e-03
3.054608957898462913e-04
3.590313721752197429e-03
4.333505294557274921e-03
7.977553056288752163e-04
-3.867757956173209499e-03
-2.668654992346406775e-03
2.344949948054404765e-03
1.390773818090606422e-03
-2.811211096552454491e-04
5.166853041247955686e-04
-2.628435271715944162e-03
-1.389404731717713013e-03
4.168497339162642590e-03
4.964071088613369702e-03
2.769977061066597815e-03
-1.171916531854894387e-03
-2.684811486650417068e-03
-1.771018950681551782e-03
-1.664999444155344571e-03
1.666575281710190874e-04
1.832211637429990774e-03
3.187023136627412274e-03
8.945195607497986780e-04
-5.029484101724793384e-03
-3.104231875302522568e-03
2.019756525140746148e-03
2.771428749674326349e-03
1.974313191868135205e-03
-1.091996982733920742e-03
-2.421512641953783330e-03
-1.285262628571639523e-03
-1.093242074367182463e-03
1.069159293713817238e-03
4.639157787040913000e-03
6.055973011501054534e-03
9.390887686101412769e-04
-6.531007107226912377e-03
-4.861254784000470196e-03
-4.072418918200796170e-04
6.490566478252791124e-05
2.299005251873981973e-03
3.038935988364336108e-03
1.164309275846792981e-03
-6.376348856643884407e-05
-1.135430606921267139e-03
3.091294196003810911e-03
7.183222235104934177e-03
2.936295325472458671e-03
-9.412078085988673367e-04
-2.768660679086046555e-03
-4.494709690073111011e-03
-2.866662323786839210e-03
-1.485250516982391166e-03
-6.531433923418820909e-04
-3.867649861505473969e-04
-2.941246399661652088e-03
-6.824064649327070756e-03
-8.616401547150296519e-03
-2.422276306672347789e-03
3.654985341539618553e-03
4.691754283846286989e-03
8.532735811524855621e-03
3.386061519127191426e-03
-7.714736408039666975e-03
-4.370259447466284114e-03
3.706546986994422622e-03
5.981306870891990070e-03
4.276038605104029618e-03
7.513793851778823637e-04
-1.568316481391283544e-03
-5.125375005740917013e-03
-2.318378203774023542e-03
3.424247003196492171e-03
-1.714281056892976449e-03
-2.127820307174227779e-03
5.119408938316880563e-03
2.838520266080700200e-03
-1.589754862039104676e-03
-3.294956853989263780e-04
2.237042277521499121e-03
4.124012263884013416e-03
2.657313452562825012e-03
-9.913992616467132060e-04
-3.074407518087911902e-03
-2.570580880976777900e-03
9.550666779421373986e-04
4.614930650332344994e-03
4.104187922957760158e-03
1.268774647466086895e-03
4.156681975411294014e-05
-5.103412283210756809e-04
-2.834457346885907881e-03
-4.041811000789638508e-03
1.853295516838520036e-04
3.187731143721278006e-03
-1.006575259789722725e-04
-3.749491899386330797e-03
-7.140645805810414207e-03
-7.183175115870384445e-03
-2.276676806035232096e-03
6.935259955116021471e-04
3.671101469371249298e-03
1.834020017793979189e-03
-5.796502054801087531e-03
-5.813123977099189654e-03
-1.847559798348033652e-03
2.967422512034851093e-03
6.062562189951827343e-03
3.254696637915051576e-04
-9.620305153358379166e-04
2.039617952436702068e-03
4.419226303595331007e-04
1.687225203948200004e-03
2.103259250269095063e-03
6.114959663170869888e-04
1.181374413167255409e-03
1.999970692267668865e-04
3.823126707896500032e-04
1.733633998427495894e-03
3.193826435242655155e-03
4.445133735474424835e-03
2.296694495928165887e-03
4.555451988521555702e-04
-1.500694280691556052e-03
-5.209164120536499687e-03
-4.151519546084021101e-03
1.631202792120209268e-03
3.387623484799489812e-03
-8.599486297165850023e-04
-1.576887219841097056e-03
1.211685658646541059e-03
5.983252323722035391e-04
4.597705706464613696e-04
1.139104618593731735e-03
9.697720612650745408e-04
-2.266649696509771654e-03
-8.898717208411961732e-03
-7.525444105732680480e-03
-2.424878021398150715e-03
-4.087672071434728235e-04
4.634359978400887439e-03
5.260395236933570161e-03
3.475295695488792632e-03
2.113461230458555089e-03
-5.350218140249426123e-03
-3.167356951352259201e-03
4.766492760751720945e-03
1.653506690325383345e-03
3.915938707118147991e-04
1.574019344493646786e-03
-8.592848944056455558e-04
-2.855737659689934309e-04
6.618891598680054760e-04
3.624472801271671845e-04
-5.052535970257143435e-05
-1.005955017696616742e-03
-1.561190353726323900e-03
-3.024717332172119355e-03
-3.926742202499615593e-03
-5.831989580709035859e-04
5.261414156080606620e-03
5.150129843380596949e-03
1.795278726395970208e-04
-7.726304911920751396e-04
-2.707455216220841683e-03
-4.351204998947298154e-03
8.005435599757052597e-04
2.530126738166818198e-03
4.893055157341736749e-04
6.587994479257222894e-04
-1.128268278400482334e-03
-7.767614436056338332e-04
3.953383325577174146e-03
5.856442019672242899e-03
4.485900756339466881e-03
7.760575258323535982e-04
-5.601794963003102826e-03
-8.408842720364243656e-03
-5.141138193102899080e-03
-8.389161998208726195e-04
1.815637105009164712e-03
1.130328684105013628e-03
-8.396088120108065106e-04
-7.982560821744207058e-04
-2.472567889463509524e-03
-2.058486679547476012e-03
3.433329659847363102e-03
3.651920614904751589e-03
8.402762994903056459e-04
3.368314787128359744e-04
-2.880681977483022429e-03
-2.176599373578890460e-03
2.703408861107608856e-03
1.648361119145628790e-03
1.768810415116869048e-03
4.692897259799691870e-03
1.291430165668093271e-03
-2.349577151710258768e-03
1.689412789185647116e-04
2.943602091172805007e-03
7.950560342343414213e-04
-8.452467463010592723e-04
3.290645719823612203e-03
4.567630763650504418e-03
-7.648081284750596516e-06
-2.868031368611408810e-03
7.099939741928393711e-04
7.503472929558289463e-03
4.886631032985681682e-03
1.294366511756204607e-03
7.955055551484280490e-04
-1.834135699002883979e-02
-3.019659124405505574e-02
-1.171688924736795714e-02
2.528339826184684141e-03
5.524340711862546320e-03
4.251021110341859574e-03
-2.805042935578237057e-03
-1.875333719064269144e-03
1.902270425703965961e-03
3.217286484646444261e-03
6.749339374172306887e-03
6.925186482162439157e-03
5.412457871782026635e-03
1.642320491934002062e-03
-1.766811181685668539e-03
2.402441649108235863e-03
4.977420688058333161e-03
2.559084645674132314e-03
7.130094737634439656e-04
-5.745424769181763265e-04
-3.840810917985810905e-04
1.775128395840090364e-04
3.236048749399832170e-04
2.972175657259993903e-03
3.823208001510335075e-03
-2.266766819453523620e-03
-6.920820573714691476e-03
-5.256642165049062697e-03
-3.464410228367538220e-03
-1.639271459695070508e-03
-7.506967558853064109e-04
-3.239076584991691828e-03
-4.638929090733077271e-03
-3.757489142531763443e-03
-2.180535598309571964e-03
9.599035887174993528e-04
4.960730407593471995e-03
3.834690193822200884e-03
2.421991267780191975e-04
3.630917110029874533e-03
6.414719340692368564e-03
5.222035699264532434e-03
5.298861559734196688e-03
2.044137559086860699e-03
-2.347175064818129119e-03
-5.561104757426556244e-03
-6.744897869155381046e-03
-4.024315509166176766e-03
-2.485573318968644068e-03
1.615434246286364143e-03
7.021440947953657731e-03
7.803717195669913377e-03
3.261701082675034884e-03
-8.299708805697542796e-03
-1.063630648281611163e-02
-1.525503869257802776e-03
3.026423547881029481e-03
4.630634634601418949e-03
-4.184940753949898881e-04
-5.513207133400066171e-03
-1.272312352536195817e-03
-8.577140651184101024e-04
-6.539357168260992578e-04
3.280668271684640102e-03
2.056021136770082997e-03
-3.390618440708891446e-03
-7.294757582262517519e-03
-3.644680112322786023e-03
1.200239008201689841e-03
3.327280025476928894e-03
5.678432332144290121e-03
3.649597744549786058e-03
2.192069620709493835e-03
2.074227911050125742e-05
-4.009505780919242479e-03
1.545911866337975932e-04
3.045842202076039056e-03
1.429408687617170735e-03
1.640302920791778278e-03
-6.821691261648735183e-04
-2.505987947228071472e-03
-3.592853345915960825e-03
-2.460004552927949097e-03
3.787028622889440557e-03
4.583901957653246234e-03
6.018747097422771745e-04
-1.989788064973367111e-03
-4.153221029530687267e-03
-1.355520628594667452e-03
4.578249838727474139e-03
5.691225048757179994e-03
2.550447410745581168e-03
-2.674074196673891608e-04
-1.802463374913939979e-03
-1.936666050808044919e-03
-2.902332993193027801e-04
5.027528725356946024e-04
-5.122791310079644923e-04
-2.510918354399336271e-03
-2.677465072319264259e-03
1.518412155441118110e-03
3.478475056383346312e-03
1.217856356034646877e-03
2.228460462875232805e-04
-6.582676423205659081e-04
-3.165704355988346961e-03
-6.069577303930330167e-03
-6.572564252302182976e-03
-3.560667601691815728e-03
-4.359155467910533969e-04
4.864515087959886256e-04
-1.197074350910837942e-03
-1.422744264654119024e-03
7.205784293477551956e-04
7.076443391986734924e-04
2.702908712201471803e-03
6.623913739733789351e-03
5.677268417952844280e-03
1.973891867405859132e-03
-1.317677974234980403e-03
-1.324730076880625438e-03
2.361754181801961269e-03
4.039104238764172454e-03
2.544416773263694261e-03
-4.395635224862691134e-04
-2.941704558818154791e-03
-4.472870273721324570e-03
-4.667425998855151588e-03
1.656169412651111068e-03
7.737004497182406806e-03
4.470085068274797652e-03
6.472805757208197281e-04
2.956361314922690046e-04
-1.651555596496397929e-03
-5.266895643697389398e-03
-6.447031758611950804e-03
-1.988911169608067065e-03
1.075491889936325838e-03
-2.553446531183207243e-04
-5.930754840380153808e-04
-2.356046918308455414e-03
-2.491245638036342080e-03
1.357809261638241315e-04
-1.503184693497828411e-04
3.114485322455236294e-03
5.144567837892442125e-03
-1.298528849665947157e-03
-4.026632425688813667e-03
-1.865298043116385938e-03
1.355397877247632330e-03
4.393867457814499070e-03
3.814434769516289025e-03
4.553106201574929832e-03
9.372279001275971369e-04
-5.228334158785871884e-03
-2.548728849410925273e-05
3.634855025979061988e-03
2.605220717154521637e-04
-1.263768619540037619e-04
-1.999262330429146632e-03
-3.254305866532600754e-03
-8.654019091568470462e-04
-3.627357638214590875e-04
-5.674870234773734569e-04
2.134686473138538119e-03
3.607343564752179751e-03
-3.437266402121622912e-03
-8.365207480690663860e-03
-2.585756627575894716e-03
1.529835740016866801e-03
3.226193995483025469e-03
4.097312791329912711e-03
1.807743229097699147e-05
-1.772543222239468270e-03
-2.230433497027338972e-03
-2.368794520429937881e-03
1.107850636015484920e-03
-7.129050409528449620e-04
-2.960597098338518460e-03
8.996883728966465540e-04
-4.247559306083923975e-04
-1.708785408347187652e-03
2.338548130578728575e-03
3.063851182032666098e-03
3.968458536855145637e-03
1.397331888757799264e-03
-5.122465770406025957e-03
-2.800351907891318083e-03
-3.103611537078977472e-04
1.027487224627273484e-03
7.617310615982457282e-03
6.223809259519355076e-03
1.191990015686179762e-03
2.249564736719289427e-04
-1.901301803437947021e-03
4.052656863429339061e-04
4.460009401706700044e-03
4.129506934522595395e-03
1.113167652449292703e-03
-3.689356417654838637e-03
-3.517034135556248997e-03
2.787500534182786160e-03
6.990314441610570237e-03
5.530263623657797820e-03
2.425030505381781890e-03
-7.968684564633302103e-03
-2.968466705351133217e-02
-3.087606174290855390e-02
-5.268907257940462149e-03
7.005439104490043811e-03
5.126520874849409791e-03
5.886647188972082834e-03
4.171051758270508288e-03
2.364943918209741307e-03
1.503823461461120886e-03
2.115244570898935830e-03
6.413074685556567622e-03
6.360355806481934014e-03
3.625880952566819422e-03
3.861455339152054279e-03
1.126687105015168784e-03
-2.530575459179875298e-03
-2.009451637550338466e-04
3.875809030026957074e-03
4.835531831046140441e-03
5.499085004436110244e-04
-6.383214868870352304e-03
-6.261610173398102219e-03
-1.272081069617750143e-03
5.657122585391791136e-04
2.571984547573387923e-03
4.658371165022306276e-03
1.513131237201310051e-03
-3.006519020833731473e-03
-3.204454006520258535e-03
-2.966107668766788420e-03
-3.668891098157720746e-03
-1.581175072322637230e-03
-5.997948931488008596e-04
-1.597377630822278830e-03
-2.589909050104291857e-03
-1.865464501478737280e-03
5.349183576068199629e-03
9.918258540914421870e-03
7.844715670974377122e-03
6.779893123688246655e-03
9.100586995169475607e-04
-5.036474245471138193e-03
-4.566487403920059876e-04
4.953936428959677604e-03
4.154553097766477271e-03
8.940595422432117030e-04
-1.807348414461542197e-03
-4.283296535700900978e-03
-7.228720131122850535e-03
-8.808816723245556021e-03
-6.466810601001409149e-03
-3.417626069925144665e-03
-6.473193687596945876e-03
-7.438654998622555581e-03
-3.261336232645298087e-03
-2.597664663309666271e-03
2.610387897077185142e-03
8.301854724778956474e-03
7.275627342788885607e-03
9.956197774658498770e-03
8.111797041422454460e-03
2.039010853548372561e-03
3.219046583803828344e-03
4.303648033729189776e-03
4.338654460840639902e-03
1.514418254603226103e-03
-5.250621598102447364e-03
-9.104583684392391144e-03
-1.234706546308864811e-02
-1.214292815608861674e-02
-9.713336592209536116e-03
-9.801885624157562205e-03
-6.412194794773273636e-03
-4.319956845774082510e-03
-5.411483778362671977e-03
-1.011181734906957223e-03
6.413999557830295066e-03
1.222610180918289741e-02
1.704108806454358166e-02
1.978377830340901158e-02
1.646179690668778464e-02
1.078028719702810688e-02
1.029583176103731484e-02
1.061312396115998008e-02
8.001741517220677460e-03
3.374683425516598369e-03
-3.257616018187721799e-03
-9.000234855041261070e-03
-1.314443556159427574e-02
-1.210269003056859208e-02
-6.800332935301203752e-03
-4.245973626881179887e-03
1.594541394911795206e-03
