-3.321692258534411982e-04
-6.659845508905488888e-04
4.818987604458996771e-05
-2.356270351541546459e-03
-4.074119245321236593e-03
-3.919892726736775267e-03
9.439290639034949443e-04
4.968274578782665846e-03
1.098730278076519729e-03
3.696428351858341158e-04
4.192428874747487766e-03
5.388843417456303832e-03
8.886873295041335108e-03
9.438003051771599525e-03
3.751175932259123887e-03
2.800114819789811804e-03
1.911691762440241018e-03
-3.265956852432920672e-03
-2.405374264320701665e-03
2.078168831236108186e-03
6.668650127718589752e-04
-4.602399639042221990e-03
-4.824954486800386681e-03
-1.784840375301202653e-03
-6.718009771214897979e-03
-1.190181472963419348e-02
-7.667336047424406706e-03
-2.578929765662767767e-03
2.928501623278498278e-03
5.525936550653053926e-03
1.549430513923346448e-03
3.143933052552250543e-03
2.657930902145882058e-03
-2.222417567306933170e-03
3.827959744877090266e-03
5.442381237587283656e-03
3.897154120855565469e-04
2.319076968994643849e-03
-2.891168375179697589e-03
-8.055674214564510771e-03
-3.284678068912339887e-03
-2.929281519116323004e-03
1.995390874692518275e-04
5.362378419745939505e-03
1.691505100123695191e-03
4.983161488815125370e-04
1.854569627005192697e-03
-7.396437421316004283e-04
-3.035661099286914889e-03
-2.425880498277590246e-03
4.484303195389324650e-04
6.307683491997583859e-04
1.232403635101544893e-03
4.928161458537898970e-03
4.599047579822941600e-03
2.089695383790873134e-03
-8.101196400495380961e-04
-2.587404198514918225e-03
-2.653772439387149483e-04
-6.731764917778564408e-05
-2.757108784476855522e-04
9.403300133699672063e-04
-7.327394079647884086e-04
-2.067833604936554232e-03
-1.749922029403927536e-03
2.273150459845353025e-03
5.169365389330234269e-03
7.885046358997100432e-04
2.050295986258987829e-03
5.120891998711262806e-03
-9.494290486924747549e-04
-2.378104709570534082e-03
-1.528478782982702327e-03
-7.245762279952392207e-03
-7.670003048333032779e-03
-2.153405581695085492e-03
1.615280822049544943e-03
2.625360897870143446e-03
3.226139666112499624e-03
6.080230097683683027e-03
2.416648084725211629e-03
-4.753544709280392404e-03
-1.091959406857419702e-03
1.381396970923499815e-03
-3.123585511539468673e-03
-2.561428387255224991e-03
-1.720491330627190330e-03
-1.221214828463666573e-03
2.691229720121578097e-03
3.666225527417484205e-03
2.835873928367513112e-03
-8.650147422260724825e-04
-7.057795340527840688e-03
-5.390687963348158966e-03
5.929983029677448215e-04
1.338757083752270625e-03
6.829059427702769206e-04
2.708293505891078232e-03
3.986271651143182340e-03
3.774147585763212073e-03
2.756460148529326498e-03
1.538596174630845522e-03
1.354655431162097743e-03
-2.801561764819025108e-03
-6.339666201066311048e-03
-4.334195276330335238e-03
-3.882753918030714887e-03
1.045092151675285031e-03
3.806965791654313546e-03
-3.013161353958715080e-03
-3.772257892923622843e-04
1.697524896401960423e-03
-3.628130656765541934e-03
1.033286734736977056e-05
1.132127500944350371e-03
-6.388727664518290515e-04
2.312481388764290203e-03
3.390767301117935967e-03
5.655431023441963474e-03
4.134276311015422714e-03
-7.439848677057107201e-04
-2.003455242101582177e-03
-2.161092657187319195e-03
2.050816686474095461e-03
5.539002408783367734e-03
3.654053182974095499e-03
8.908041256663844481e-04
-1.566728290110212959e-04
2.428320282066434750e-03
1.628472490282880433e-03
-1.683638063495241288e-03
-1.773963575845518984e-03
2.133239780284856141e-03
8.333805195778226649e-03
5.334850128049028334e-03
1.335509997349662407e-03
-7.625135513166637555e-03
-3.180993242798701992e-02
-2.761248670518683807e-02
1.534106328825251891e-03
8.046430881660984052e-03
4.496355763602915764e-03
4.006152819713828736e-03
2.645632664091631270e-03
1.610739549880204659e-03
-2.324056303008013337e-03
3.077287720423675416e-04
5.200524592000344351e-03
3.606681088754461282e-03
3.500801740691148172e-03
2.586736351408925466e-03
3.406918899661493948e-04
-1.766324607345071585e-04
-1.042594801384393293e-03
8.257439479587408947e-04
2.237691216937015646e-03
-1.238617995875308667e-03
-1.511298898811115924e-03
1.658864853908872342e-03
1.809953454234145193e-04
2.022027006380763131e-03
6.371569473825893989e-03
8.494132130297198753e-04
-2.768934690177663523e-03
-8.423480026432122883e-04
-1.735762602044299899e-03
1.365283156080293939e-04
-2.770092655253462207e-04
-3.520558174564948888e-03
-2.037339278236358422e-03
-9.269160656496295723e-04
-7.377126723835534172e-04
-8.171729088835287839e-04
6.942457202621265437e-04
4.915286040208080402e-03
3.641662763925387729e-03
-6.181813762793458530e-05
6.320986663139835805e-04
2.608398173242447785e-03
2.481437605238755780e-03
1.476559119446954399e-03
1.069750569703447349e-03
-8.390337078228834100e-04
-3.118045527928619935e-03
-7.247715169188704773e-03
-8.765659744318659088e-03
-1.617902940683331849e-03
1.699635241453987351e-03
5.188026967743798387e-03
8.639064486561752812e-03
-3.827262684678236528e-03
-8.398743520490144221e-03
-1.382785202255574087e-04
-1.068528444014972588e-03
1.090956809610830656e-04
1.058179829762337636e-03
-3.687854364353572011e-03
-1.079125467259988086e-03
3.716785415132766932e-03
6.227155288161931659e-03
6.462831199368842226e-03
2.973570390864717361e-03
-6.289272780521837532e-04
-4.725275605925460982e-03
-4.970689623057686531e-03
-1.249811253311621439e-03
1.184306396807031014e-03
4.348535905123640695e-03
2.417861580121632905e-03
-4.724754792374270644e-03
-4.297249268097191530e-03
5.816629038354833876e-04
1.551020287999412255e-03
9.595740827692983985e-04
-1.027995108652503958e-03
-3.305183562105286094e-03
-3.009698784559847098e-03
-8.959647391995161211e-04
3.827434927856489342e-03
5.712044200714975345e-03
2.037491204292350179e-03
6.908998352554219288e-04
-3.835988338487177985e-04
-1.649519858322562663e-03
-3.757605005294012857e-04
-9.671891614959483678e-04
1.344888410444795368e-03
4.996335328843486481e-03
3.834637118069153527e-03
1.786394943904876312e-03
-2.195285175714937337e-03
-4.421946757405587417e-03
-3.307138683905855824e-03
-3.968799063333348399e-03
-1.678151744082148882e-03
2.053146171846216995e-03
3.016906134082242025e-03
1.499138840555944412e-03
-1.047933068682284927e-03
1.575047083344797635e-03
3.035805261871333573e-03
-4.394643117883355798e-04
-1.440646657102336589e-03
-2.988015439469402824e-03
-3.473010122410388149e-03
-6.349995525976819379e-04
-6.547001517267871432e-05
-3.052529900609596454e-04
-5.295461686808844610e-04
7.232900201295307686e-04
3.434400816605428456e-03
1.346168654558304277e-03
8.347292068784308190e-04
4.947232443015097021e-03
6.061264890853181606e-04
-5.468253204755638835e-03
-1.862537570723244481e-04
1.571447659268363547e-03
-4.183563390187737541e-03
-2.823652242012923870e-03
-5.518670086491059203e-05
-1.886437066008603020e-03
-4.786514934376729594e-04
3.917282034753855405e-03
2.534509866929613928e-03
-3.652607736583912777e-03
-2.702195901986803074e-03
8.322331926740785544e-04
1.564791638476511516e-03
4.582965535506881502e-03
1.170249190953072957e-03
-1.751877812586184312e-03
9.437150506891156922e-04
-3.900731404210363695e-03
-2.217718796880513432e-03
3.007957889737611183e-03
-1.813044007651167661e-03
4.185116138679624353e-05
2.847960005964024488e-03
2.122897602125744555e-03
5.792940974401338157e-03
4.097896106581961316e-03
5.618304787456535054e-04
-4.463037051281762793e-04
1.602646352047722459e-03
3.701884610594541845e-03
-3.278632304074777151e-03
-2.331106728066962078e-03
4.315402335401692831e-03
-5.118161979438148835e-04
1.885113114009101423e-04
1.830690337544354064e-03
-5.656478799652723752e-03
-6.675967678550079505e-03
-6.346817739541211513e-03
-7.470192342349463513e-03
-2.593221972788608935e-03
-9.932315282950581088e-04
-2.149814178091635948e-03
2.237266082776799645e-03
3.808506774797505798e-03
-7.914356276434693707e-04
-1.016292434442513153e-04
2.202206243898127778e-03
4.975852777849609819e-05
2.355166854314420539e-03
3.589521862956454590e-03
5.615201299720943163e-04
1.213693901474402568e-03
-3.434962064966842190e-04
-2.784177747433438151e-03
-2.830511473273685831e-03
-3.282832498425865535e-03
1.848023962608815807e-04
3.308799558999956855e-03
3.387039502494063395e-03
1.743070758555848986e-03
-1.181472616028434027e-03
1.497318688389817675e-03
3.015351803635847421e-03
1.504611715768827283e-05
-1.365203813270859023e-05
3.095901303637578700e-04
1.703072529286527069e-03
1.420087012976515043e-03
-5.656790275356665936e-04
3.521344116656016481e-03
5.417688348391175648e-03
1.413305906639788102e-03
-5.067292962037248842e-04
2.089372041464581699e-03
4.779284290458097641e-03
1.471642583256629194e-03
-2.738725004558860247e-03
-3.922194976581018684e-03
-2.754449802820733897e-03
-1.044241125679932396e-03
-2.141951200787191138e-03
2.026964624014476832e-03
6.925759869749780959e-03
6.786192767414152109e-03
3.041784236889585272e-03
-2.032171608492359602e-02
-3.665725161892129796e-02
-1.547302987889969013e-02
3.490673400402295647e-03
5.453423352602864219e-03
8.809637490634320001e-03
7.684752873807924010e-03
3.530494552440971781e-03
2.351143994663346896e-03
2.260759756324210498e-03
1.433603459690888744e-03
-1.363323695405686863e-03
-2.834693302562939221e-03
-1.547276696161044600e-03
1.332393575752277527e-03
3.204840147375661186e-03
5.613664196089247251e-03
9.846332538288257025e-03
7.347609531704104961e-03
2.410515515969887269e-03
3.664605510917002748e-03
3.538357403881443701e-03
-2.384886834666458252e-04
-3.064700010953154679e-03
-4.365767435055628240e-03
-3.639757903183367047e-03
-4.571700289825057014e-04
1.096721030058110885e-03
-1.552298325579802400e-03
-2.818862909005046685e-03
-4.735462049035958632e-03
-8.389265328962187268e-03
-5.446840487065059827e-03
-2.536717368863148758e-03
-1.409219640103360474e-03
4.594924057148612462e-03
4.787637430711924429e-03
2.847870795550728334e-03
7.219283068241428084e-03
4.378080349191526728e-03
-1.679651869459391740e-03
-1.303301660750546924e-03
-2.561404202036069930e-03
-2.010299840888345613e-03
1.000853517641646893e-03
4.443136230367575475e-04
2.974941501504956530e-03
4.512472715295989985e-03
2.332374274022741469e-03
4.236351553571530808e-03
2.683087113054420658e-03
-3.231224290475218953e-03
-5.416207664358887487e-03
-4.962007727371316873e-03
-1.860717533583866991e-03
-8.377369556796310842e-04
-3.048213961366117927e-03
-3.931409335077927503e-03
-6.325861781791972636e-03
-6.085020744369242472e-03
-2.077688800559518260e-03
-3.099392582186465128e-04
2.086765503762115764e-03
3.951134367486871038e-03
2.350631485498148789e-03
4.704034593345798280e-05
-3.172249874104475249e-04
2.595393510244444445e-03
5.526992139056247089e-03
4.508300925919547439e-03
5.379228777548554843e-04
-5.561918120732938517e-04
1.026871511561049544e-03
-1.101430829951355501e-03
-1.554036165361210144e-03
1.765609734494201803e-03
2.120417200565104330e-03
3.385570575691696643e-03
4.894764655969718881e-03
2.273847397831327624e-03
1.630639342041530649e-03
2.183068162761609560e-03
-1.704927946641541592e-03
-5.465117116718905613e-03
-4.139189977974066896e-03
-1.536623219659558103e-03
2.647708428207238575e-04
2.583649574216320254e-03
7.505595065773953013e-04
-3.187913381576617210e-03
-1.910967577937554979e-03
-3.757902250205204242e-04
-4.745020780830371790e-04
-3.363482592798226409e-04
-3.801964418566284622e-03
-5.424775510745428325e-03
-1.689952534532701729e-03
5.831189159086399296e-04
1.432773053061038018e-03
1.413491296144170394e-03
-1.930614081486326785e-03
-2.347037708059248554e-03
3.141369726559336759e-03
2.972775421065360947e-03
-2.816640691846809038e-03
8.819853370949907892e-05
5.156199704878425792e-03
2.746063854636437984e-03
1.965403475176911822e-03
1.833556473859146874e-03
-2.354603754161802703e-03
-4.184167086074178088e-03
-2.226421585818805053e-03
1.616585781704193590e-03
4.699052720443935849e-03
4.137819723270131332e-03
2.705888033483977353e-03
1.660231468857141773e-03
-9.580316071118244394e-05
-7.704033654376692911e-04
1.371671664399380544e-04
-7.196646314513522116e-06
-2.620357959061292864e-04
1.970760811763261268e-04
-2.108064869341548173e-03
-2.554317899223628677e-03
4.596347401282526281e-04
-2.656260322491916875e-04
2.799085988548088858e-04
9.303074885291696006e-04
-5.229919721219591401e-03
-5.410410571720351662e-03
-4.826192642661258502e-04
-2.735061388463915985e-03
-2.387139839591847362e-03
2.040467708361178272e-04
-1.394978800463651369e-03
3.437043863021832686e-03
6.997565567284256757e-03
1.484248367099305459e-03
4.081550695462952613e-04
1.961561686593752134e-04
-1.397033882916747091e-03
2.128827829483002920e-03
1.115791906662670164e-03
-4.272206598760672734e-04
2.370790633061252081e-03
1.868555602625427900e-03
3.724944074429648207e-03
2.443927586179305868e-03
-2.069203795369177565e-03
2.797912527643990187e-03
2.576119743548464097e-03
-2.518837081737193735e-03
-3.363667227223418772e-04
-1.820661224688217795e-03
-4.959497439176814050e-03
-3.881894711442057493e-03
-1.498393661720519299e-03
1.582191675273976212e-03
-1.242184222547895061e-04
-3.881231374774546210e-03
-4.326028880404291128e-03
-6.123181434644176880e-04
2.848725508747135867e-03
-1.235072962859026270e-03
9.334797309696268126e-05
7.227499543240901124e-03
4.126635071937840259e-03
4.392853473400339386e-04
8.977064171080104170e-04
4.347476482848539980e-04
5.205722635342039696e-04
-2.466910425284779291e-03
-3.893661216425294003e-03
-4.352797755428839538e-03
-8.250226133910212173e-03
-5.731485948834339796e-03
-3.435321186194825803e-04
1.475547101680601452e-04
-2.127990671776071254e-04
-2.278761053136458582e-03
-4.149061515434584665e-03
-1.663678753537590864e-03
1.947099081739752432e-03
4.666347126671985777e-03
7.268136225104420041e-03
8.642226571009783975e-03
8.553295713916879428e-03
6.957245005309286787e-03
4.475304356792929664e-03
5.221294018841326524e-03
5.581159498692093296e-03
2.195714923967645536e-03
1.430062194816707427e-03
1.707864867052615433e-04
-1.232910762314447066e-03
2.701208524176209030e-03
2.635408858125382493e-03
-5.545819757036210421e-04
1.029556517785730355e-03
3.987517578192682419e-03
8.135155737276446308e-03
1.129141224924759546e-02
6.397259907568826273e-03
-9.170095143163629892e-03
-2.754893389915694102e-02
-3.504110094103861373e-02
-3.421990169504351281e-02
-3.137402177070854753e-02
-1.681478838653946775e-02
6.522813993301688866e-03
1.677902471766136785e-02
1.108912059589415092e-02
6.287269443199457880e-03
7.970275366511273343e-03
9.897346086545815227e-03
7.431364202439125557e-03
4.164453190071595000e-03
4.843380932172150662e-03
5.556654178662323064e-03
5.595566137830096896e-03
4.081053481280046483e-03
1.213719041464416141e-03
3.770273674135466834e-03
4.626522289344315968e-03
3.245746167201175956e-03
7.392490826060333677e-03
7.374597305777943861e-03
3.170488138372285804e-03
1.002796812468396840e-03
1.240512660434692324e-04
7.345557511808652488e-04
-9.924925374063700394e-04
-1.520979739738586353e-03
-1.932164494925634867e-03
-6.557417393556912166e-03
-8.108190123325961784e-03
-6.460671561516314644e-03
-3.407676454691966044e-03
-4.423271946060675433e-03
-7.032389317513937886e-03
6.726633684244526148e-04
4.109769280922734823e-03
3.624793221133229635e-04
3.573473766587638499e-04
-6.580659119158199788e-04
6.776899967841292860e-04
5.107473489405966668e-04
1.088293909353727894e-03
4.945505559067079303e-03
-2.792507156635590845e-03
-6.466456663450049006e-03
-7.999659507025629274e-04
-1.328894011967420496e-03
-4.424479847144883364e-04
3.170830013925048855e-04
-7.045338442886707941e-04
-1.427597572107406221e-03
-1.538248852005188929e-03
2.527491762749875179e-03
6.495516083592304526e-04
-8.268771229310105907e-04
2.070951215904810868e-04
-9.606128415381444104e-04
7.361671697904264948e-03
5.100758992029903044e-03
-2.608815655644773288e-03
7.225227436245811041e-03
7.285523904738509283e-03
1.316449520970468506e-03
1.642762612495997582e-03
-3.614909752454123232e-03
-3.500709394910127455e-03
-2.662568277910733194e-03
-4.799161055113160268e-03
-1.993330186039986556e-03
-6.722091611003717590e-04
3.117882329708572499e-04
8.681145338745417054e-04
1.385537320382400350e-03
-5.347784483902286688e-04
-4.566774877898356448e-03
-5.694538249330736036e-04
-1.180311060879478185e-03
-2.986122336479599734e-03
4.213116679838074981e-03
2.969903149024451065e-03
1.981285238442968659e-03
3.632145168677222615e-03
-3.244621364443718743e-03
-3.075937150514727360e-03
9.466868946032186481e-05
-3.215584941794532182e-03
-3.165393817578332145e-03
3.469626259913560036e-04
2.357491826022994983e-03
1.647874220694160122e-03
1.810960184892418130e-03
2.364498230174051294e-03
2.102452102722471034e-03
5.022184955070033326e-03
4.684472170123654168e-03
-7.662192514457867761e-04
-4.462398205148246713e-03
-4.321455610592165458e-03
-6.316753289137982692e-04
6.469498095758154186e-04
8.811209324857947368e-04
4.519110132060139527e-03
3.836389529999601009e-03
-9.552655714172192695e-04
-2.192359836989648657e-03
-1.924208577938954457e-03
-3.347757649809794331e-03
-4.360848877824307669e-03
-3.921300408127570761e-03
-1.243111759321312293e-03
1.036437391373196300e-03
-9.865919684442694265e-04
-4.610935108609025019e-04
7.645802158871654050e-04
-3.736002884548682550e-03
-3.045108412197859542e-03
1.344080533827516580e-03
2.301010016611751505e-03
3.768034141564397758e-03
2.801478837031389554e-03
2.347215719515195406e-03
3.148663343889734727e-03
1.015195924078533514e-03
5.537381328321709791e-05
-2.281653458933223695e-03
-2.767305720693235410e-03
2.526326224763278481e-03
3.792961041593686470e-03
7.807312335043210252e-04
1.112255738774801299e-04
2.407903364738862243e-03
4.064552622745188672e-03
4.018450565431090638e-03
2.487268925080065446e-03
-2.276016601833592140e-03
-3.938841811741854507e-03
-4.160842851974616390e-03
-7.260481319952378013e-03
-5.485351586070208278e-03
-3.345608692524849881e-03
-1.918871461914494229e-03
2.937649112291490852e-03
2.530239773013146648e-03
-8.866416639899806981e-04
-2.080866134521896452e-03
-8.854857371355194908e-04
2.777905213666363032e-03
2.655128239485838367e-03
1.630201481470334047e-03
2.652074111323081320e-03
1.548845395222905701e-03
1.975398583925798077e-03
2.770729894924489536e-03
2.363285995522582030e-03
2.728598946956815527e-03
-5.475145734434822909e-04
-2.900985140785412864e-03
-2.275764049383958727e-03
-5.169850659402883131e-03
-4.092095681194978483e-03
3.291377360231160067e-04
-1.607662009018763971e-03
-1.856476464836853604e-03
4.551384830136018852e-04
-6.186581389077441514e-04
1.516880606240768922e-03
4.562249512101258092e-03
1.482401444421188597e-03
-2.125690327529426282e-03
-4.795056089791286508e-04
3.285945124128402620e-03
4.649311091997353901e-03
4.114316701932272530e-03
1.360867307083869163e-03
-2.580815400630933135e-03
-5.203671482763768188e-03
-7.688859773844927518e-03
-7.238111369688447587e-03
-3.636404103978702583e-03
-1.305346740911438519e-03
-4.859481202374429844e-04
-8.092345497477345696e-05
1.438472746154225530e-03
9.808830016862261306e-04
1.017479884317929167e-03
6.032309799227769491e-03
5.843320759155413817e-03
9.636483470809177718e-05
-4.407668962286880390e-03
-3.535885079698405757e-03
4.820178667042531936e-03
2.115966780727458751e-03
-7.677876041959122086e-03
1.441681995524638415e-03
1.581646693230166420e-02
1.674870718523572069e-02
1.098490419730469361e-02
7.469637788645913656e-03
8.520278575946680158e-03
7.257866942552271446e-03
2.474959594511845235e-03
2.430650047731520037e-03
-8.904682529440002174e-04
-2.384887427695584275e-02
-3.632826466287693984e-02
-8.301057617566515862e-03
1.446849543560616881e-02
1.233230583663006211e-02
1.091397795995219071e-02
-4.543522824845755426e-03
-2.788239021062753273e-02
-3.703118871633780118e-02
-4.190977190238502625e-02
-4.147881019983957335e-02
-3.098812218037827818e-02
-2.409201232858549421e-03
3.747296335447532906e-02
5.255621684864235366e-02
4.299533812811283384e-02
2.726683760878849394e-02
1.168340817955798583e-02
6.176210047656714199e-03
2.658068280207274894e-03
-3.350592196551440815e-03
-4.591773807294572719e-03
-4.318575079306821371e-03
-2.947117519574701371e-03
-4.232197420545163839e-03
-4.746545537887648068e-03
5.719360423025904826e-03
1.512911096664150412e-02
1.676110758766333197e-02
1.510160983410914481e-02
8.642589562720466578e-03
3.543995699807944103e-03
2.012870579256697667e-03
4.596044151091229456e-03
7.704487671773983977e-03
-7.943949888514739710e-03
-3.020420841971418330e-02
-3.296917457599268103e-02
-3.305519586276299548e-02
-4.156646685932171431e-02
-3.675254158316050568e-02
-1.360550149667204799e-02
1.098923967632020604e-02
2.885381946163682529e-02
3.318596697999820488e-02
1.926480014135832641e-02
8.115284827398162523e-03
1.092846061191651841e-02
1.323677970518736223e-02
1.219969727611114156e-02
1.054667721456900922e-02
9.369684269922479852e-03
3.315928770494368932e-03
-4.831568491170654123e-03
1.578169399900817681e-03
-1.076448453475069376e-03
-1.810019828597973085e-02
-1.202756118067300865e-02
-2.731404108398220298e-03
-7.425129459510231011e-03
-7.533804154378711052e-03
-1.112696593428246124e-02
-1.391123979647213883e-02
-9.119501029988154664e-03
-2.109818247361157015e-03
6.629123776602015121e-03
5.018875253765376666e-03
3.419043774183171212e-03
9.516559873866591024e-03
3.463583600534923552e-03
-4.682799997901119018e-03
-2.129328687255546953e-03
3.815218045730173549e-03
7.491084972244062452e-03
4.406867685942616152e-03
5.939943814290627594e-03
1.423068481306452929e-02
1.561291354944500248e-02
1.178286106666652337e-02
1.126768920344334984e-02
1.937798776418788935e-02
2.231510726952463594e-02
9.722002809870480128e-03
-5.680151829598045245e-03
-2.242161888466349604e-02
-2.278850466563233854e-02
-4.394309459940697396e-03
-1.623996419859902868e-02
-4.540535173821080156e-02
-4.632610777717524608e-02
-3.381677878130384673e-02
-1.728862045495297220e-02
1.899116715488551391e-03
1.019965219348459816e-02
1.666235740871111967e-02
2.060320599926027466e-02
6.387919690019850869e-03
-1.321977081596798637e-02
-1.550484327539327495e-02
5.386390848100057645e-03
4.320521498195473847e-02
6.816398054767353054e-02
4.889736247312381767e-02
3.166332753754115114e-03
-2.266641783361909510e-02
-7.634620963077647961e-03
1.931152158789660803e-02
2.917020633893051620e-02
3.567279426485618632e-02
2.969142001976082454e-02
2.935177348785021016e-04
-2.904218176121323852e-02
-6.032961094442312877e-02
-7.222237854642672705e-02
-4.170338333291315203e-02
-1.277942772366595821e-02
-3.794977267455492374e-03
-6.036767994560591176e-03
-1.294089321306822818e-02
-5.589464471455256496e-03
1.987611802191676172e-03
-3.154497103060468176e-03
-1.589874338760808095e-02
-3.033865446128113097e-02
-2.386533243752416572e-02
-2.531324269605693834e-03
1.080078592286706253e-02
1.646160388539768399e-02
1.726534681330636409e-02
2.074691959288058399e-02
3.259467747686667360e-02
4.359241487428081041e-02
3.948938275964328226e-02
2.447466303483477462e-02
1.551853626134470227e-02
8.727443485533149803e-03
1.848653414730603607e-03
-2.731049505924752329e-03
-8.460897190330865861e-03
-3.523621914511218707e-03
7.542109039876824031e-03
9.899676608982692014e-03
1.312225336913086168e-02
2.100653318229944375e-02
2.469200896052390140e-02
1.596222542791581045e-02
-6.265890086003015128e-03
-2.490419495483820952e-02
-3.054833717946257507e-02
-3.865469944968359661e-02
-4.925489058754368987e-02
-2.743567273979673204e-02
2.492463834901290087e-02
4.062677661824269648e-02
1.041864641473350984e-02
7.770302322456607187e-03
3.093452800682454720e-02
1.792421124175121519e-02
-2.001088132393496685e-02
-5.067954529079906484e-02
-6.858211348659819240e-02
-6.449149730434884653e-02
-4.822061400228044165e-02
-3.834240161482778408e-02
-3.698566483681146183e-02
-2.940074351056871926e-02
-5.411984797236235253e-03
2.454447847707654298e-02
5.760705658605193291e-02
8.550403855529184471e-02
1.113546037755523133e-01
1.162092778816540412e-01
2.142861441699637701e-02
-1.103603143797714098e-01
-1.401685899149505976e-01
-9.972230776163527877e-02
-5.180529255287683044e-02
-2.666459230731827237e-03
4.815231724309785438e-02
8.603019944289692911e-02
5.150376713087297109e-02
-1.754111018884876513e-02
-2.481652901160683045e-02
1.229451277038004671e-02
5.430494810264641092e-02
8.392900240312724247e-02
8.128334621478983113e-02
6.341707793063761089e-02
5.888856725661375385e-02
6.209587910422791762e-02
4.224147386562671774e-02
-5.293544043959147807e-03
-4.974912412672286011e-02
-6.177720066294423856e-02
-4.305100965074812325e-02
-2.078106297838204497e-02
-1.937808530437990645e-02
-4.913410717823379903e-02
-6.827591844263294907e-02
-3.446119249091293690e-02
2.102566688180505100e-02
7.183068085291059723e-02
1.001487994954994437e-01
8.218270146779411978e-02
3.173579235446585128e-02
-4.342343024685495212e-02
-1.176348312354136977e-01
-1.510723870749832165e-01
-1.547663160755687051e-01
-1.282385395448346899e-01
-8.841578857686839543e-02
-1.217797563574240099e-01
-1.937961667937463661e-01
-1.391953566429867950e-01
1.820487248658655619e-02
1.131554084861896708e-01
1.618576174967119585e-01
2.425792336482416600e-01
2.870694932503051744e-01
2.100500334937397684e-01
6.725006477927505943e-02
-2.338738569204207307e-02
-4.042318910307442920e-02
5.211024922542864882e-03
6.463826033473715760e-02
1.287585623248238553e-02
-1.203246126981313974e-01
-2.056087824260592611e-01
-2.108989957066594589e-01
-1.531598597981091991e-01
-5.640157754870582518e-02
1.182359557069595363e-01
2.897647038819923249e-01
2.597164664347323404e-01
1.548040954682357306e-01
1.274375251070513915e-01
5.427757062567407920e-02
-4.246083824654649230e-02
-1.091280886162632330e-01
-2.049127649332651568e-01
-2.392706979019760538e-01
-2.003910376404630378e-01
-1.910623025836590549e-01
-1.222749865204522252e-01
9.620059377029841624e-03
5.943258915885601262e-02
1.214628605015488916e-01
2.679200855007341509e-01
3.521227335542420067e-01
3.331955909184510789e-01
1.999940787511428342e-01
-2.544056131937494619e-03
-8.117694265374975071e-02
-5.332004449588609307e-02
-1.482850230733881620e-02
2.289447789412541942e-02
-8.401803930152397515e-02
-2.994087799177039266e-01
-3.729451773077986920e-01
-2.979518353022396759e-01
-1.754356082885407397e-01
1.257494737725882959e-02
1.673911401165437962e-01
8.751891269724942912e-02
-9.945884419134422283e-02
-1.030430924117688440e-01
-1.766769708890571959e-03
4.065297464837119151e-02
6.895605116686663594e-02
8.360830084961057285e-02
9.612328892247685302e-03
-1.360602767744282238e-01
-1.947173245089475757e-01
-1.516716525685990469e-01
-1.044690881242025665e-01
1.138270668063063873e-01
4.169037295129954246e-01
4.085341049781515688e-01
2.296899495808455427e-01
1.754998228581010622e-01
1.465521767831087785e-01
7.641562308496405165e-02
3.780162193118300623e-02
3.885851166098537590e-02
2.086835056031842786e-02
-2.873543818242218703e-02
-7.393030408818919430e-02
-1.253924204750319626e-01
-1.408960353064672433e-01
-7.816880792554488366e-02
-3.117564042672008734e-02
-7.487474077804190387e-02
-1.589203689526050567e-01
-1.786923731205222743e-01
-1.357563141866215406e-01
-9.877370750383379638e-02
-1.878945368828065232e-02
8.499788132022303988e-02
8.950644528327145188e-02
4.412659446796884238e-02
3.514582778669966823e-02
1.985584990321626053e-02
-1.590078345084254899e-02
-3.886765163740982937e-02
-2.471008657971561842e-02
2.676611191412000060e-02
3.984763946371754767e-02
-5.833602783436673406e-03
-6.349451340149141372e-03
5.306976395601121360e-02
8.145448935696092407e-02
4.903893565990143089e-02
8.675565344998381959e-03
6.157234873389488480e-03
8.283018637016028099e-03
-1.047655961996265747e-02
-3.175706050524843699e-02
-5.169563200628612271e-02
-4.322887469318979770e-02
-9.401542561823673233e-03
1.008063246429565787e-03
-1.533163584564854569e-02
-4.211991281672668175e-02
-4.669087709403406394e-02
-9.811834247716828133e-03
3.229633809890184587e-02
5.947093308490789682e-02
6.661290734626275356e-02
5.740868002760379091e-02
5.016885286377795877e-02
4.298694096531954778e-02
3.807495777520082669e-02
2.502305399040647207e-02
-3.889779347555590537e-03
-1.759532513153993019e-02
-1.834758265183120823e-02
-2.112967926029659174e-02
-2.235278830131038480e-02
-2.886968855709969722e-02
-2.781860675222724844e-02
-1.792110591249312240e-02
-1.756982358481303658e-02
-1.552154717872558307e-02
-1.000875316991945915e-02
-1.002299720614375014e-02
-8.044991920245932876e-03
-5.448804605649477419e-03
-4.328925385473960871e-03
-2.091815337233888725e-03
3.638359634754824087e-04
4.977585846947804940e-03
5.539502333552101705e-03
-5.681711452386376503e-04
-2.426979356483263163e-03
-1.228440935091631211e-03
7.516296063664716512e-04
8.026134026819582018e-03
1.278313769934307127e-02
1.262885482341379213e-02
1.228223670798480466e-02
7.926347097351491705e-03
-2.185782369451134445e-03
-1.122060449765478925e-02
-5.732571130037441426e-03
3.536436321258947402e-03
-3.663262131468323236e-03
-7.372018441509873947e-03
-3.928164495559723079e-03
-6.925445616873387132e-03
-3.097045208631732643e-03
-9.609997010203130121e-04
-3.760680560597742025e-03
3.159534609859976188e-03
9.650473572028177988e-03
1.181065662113043799e-02
5.677457118311361912e-03
-6.816232186813163223e-03
-7.244462597780981956e-03
-1.938888993277065572e-03
-1.518744254929211895e-03
-7.880473414532782050e-03
-1.069088669954511642e-02
9.154386918848424681e-04
6.516670401726997602e-03
5.084768758056223623e-03
5.232511912384090608e-03
-1.990862698796181437e-03
-4.647925327147636038e-03
3.511792715152510578e-04
4.453551105506290374e-03
4.200258816943105294e-03
-1.874992299022374374e-03
-1.406586217515116630e-03
1.556823745646130708e-03
1.453551632098766099e-03
8.576593205615295058e-05
-6.645465669557606113e-03
-1.271957604025674305e-03
8.442225817642323021e-03
4.362373546625594734e-03
6.286660469596140090e-03
8.619803070607390261e-03
1.381690965641112516e-03
2.542938425700163609e-04
2.617471153954114334e-03
3.673800922593842971e-03
7.305276650235920967e-03
7.646453358114800071e-03
5.651901666603792104e-04
-1.282587961591857536e-03
-6.094264609365239102e-03
-3.090467299301024109e-02
-3.186367933889466125e-02
7.724766550303753402e-04
9.051487864166134906e-03
4.390432798527805071e-04
3.557443369173836009e-04
-6.053056578532219761e-04
4.292257834603923142e-03
7.277677350084030099e-03
2.588124024696499426e-03
-2.166291589730707937e-04
-4.470022267726457901e-03
-1.012112138950342893e-03
6.295013733967264047e-03
1.797953848728260553e-03
-2.341487424541101661e-03
-1.083354027772705057e-03
2.015090508159569742e-03
5.575346935370157318e-03
3.440490860221379413e-03
4.443980423653758061e-03
6.874935650490171697e-03
6.273865660487326938e-04
-2.416412991041528516e-03
-1.771563501689439428e-03
-2.758690238182311821e-03
-1.835855939092298722e-04
-2.271187164054850412e-04
-1.937821173819713775e-03
8.632776066539044882e-04
1.240203161060188892e-03
-2.052818080978018652e-03
-3.142128410220931551e-03
-3.314340839741484936e-03
-5.694501726418275608e-03
-3.916990408241114927e-03
6.999901923459946529e-04
-5.891999262430169587e-04
6.325852574952222631e-04
3.856196130891883372e-03
2.961113994537083356e-03
6.121691591258754915e-03
5.953071645101086148e-03
-9.843450423248729651e-06
-9.348553155555905077e-04
4.010326505642674471e-04
2.812798991681117033e-03
2.952905465488720078e-03
-3.064310095753946975e-04
-1.953754044132219401e-03
-3.263196300115025605e-03
-7.481551331507361189e-04
-3.128997981499554056e-03
-8.334262112690567215e-03
9.205500293074257495e-04
2.241340118880260322e-03
-7.143051545880854496e-03
-2.832428614514677541e-03
1.115397884796062332e-03
5.350829476432518309e-04
1.779655255568183148e-03
-1.676239063043295568e-03
-2.875393364980504112e-03
-1.511586651457042484e-03
-1.725939592231850268e-03
-8.647722717122797173e-04
1.700923616891055834e-03
4.852161882051944305e-03
4.167348923514225568e-03
3.911623712943681011e-03
3.362449844631917352e-03
-5.199361120106595676e-04
1.304283475527457953e-03
1.881049502976568687e-03
8.529264723138839117e-04
4.502778858149399446e-03
1.769357310857681874e-03
5.518686085973660343e-04
1.705251469900268728e-03
-3.940203523141867260e-03
-1.313843521525052179e-03
3.815601343439809640e-03
8.592289834770262379e-04
-5.717926520727382566e-04
-3.740504589782481064e-03
-7.278867567672616008e-03
-4.660692621086952835e-03
7.903300837331297545e-05
1.845335402377562290e-03
-3.082395971882134593e-03
-5.841339410692454950e-03
3.714171641077015337e-05
3.677803029904625539e-03
2.108558949135548328e-03
-5.027460788843364416e-04
-4.647124071863226180e-03
-3.714890708236048139e-03
3.267284047875458012e-03
2.705651092677269394e-03
-8.581247004852709560e-04
2.442649334450165341e-03
1.742478975625799762e-03
8.351936773399506455e-04
4.701315637697617983e-03
2.949959268187530822e-04
-3.905975113980518498e-03
5.112667980331232743e-06
1.204576644421107793e-03
3.799843825961475661e-04
-1.426051973311254521e-03
-4.008221927388949668e-03
-7.914651812538933901e-04
3.924699773546730386e-03
3.465027184614579130e-03
1.665522434355815756e-04
-1.968454042522029858e-03
-1.775796293192785863e-03
-1.589080151125449921e-03
-9.850812278069684489e-04
7.605914754098080065e-04
-9.820259227964171919e-05
5.599902708024037321e-04
4.124176230260974581e-03
1.470886070313783683e-03
-1.742652490717377239e-03
-4.980391791887933944e-04
-2.429933065604094646e-03
-1.313081546600266148e-03
2.644138665441856002e-03
8.181339403880412767e-04
1.413045033435063888e-03
2.706986461545022021e-03
-2.264087417145559545e-03
-3.644486235470877772e-03
-1.346231689537524335e-03
-2.911141519844401802e-03
-2.188177567466533750e-03
1.933500064521787758e-03
2.670884209800785791e-03
3.748739198311567319e-03
2.652652243567115396e-03
-2.545080653661876274e-03
3.029158137058825229e-05
1.797034770698654072e-03
-1.632177196740335892e-03
2.670387005201816169e-03
1.555238253204322329e-03
-4.508647783403463803e-03
-4.953722280963009615e-04
1.114832332387229565e-03
1.387949346436506085e-03
5.193953827888911357e-03
-3.795632745911042740e-04
-7.514892124525529224e-03
-5.258380846870956173e-03
-1.847331238988735285e-03
-3.493682180801452927e-03
-4.763093196359267749e-03
-1.486207609672616234e-03
-1.031973925775601762e-05
1.922316071884246037e-03
5.983088434642171334e-03
2.859251647192480750e-03
6.316673821306158145e-04
2.712856064840455956e-03
-3.896166085399474554e-04
-1.841532829147954397e-03
-1.081263391169405303e-03
-4.610069383626154991e-04
3.006980879072780957e-03
5.624196048901867508e-04
-2.539899923902280178e-03
-2.405126295911888794e-04
-9.883110721813342242e-04
1.260786975494583345e-04
1.641413924161549357e-03
-1.333850635823416843e-03
-1.941972552607925491e-04
1.761297896947149359e-03
-9.104117132475573375e-04
-1.274468676627440880e-03
3.358056423941899269e-03
3.368847634794224465e-03
-4.301946980258501176e-03
-4.375651230841108748e-03
2.892020268679659171e-03
3.508498648572478795e-03
3.486227967470536572e-03
6.438811351294563765e-03
3.297108151690124420e-03
-1.789339313059876233e-03
-2.442469700003292374e-03
-2.647803612457792170e-03
1.020440769834714267e-03
6.028440180045279394e-03
8.800204894095094675e-04
-3.670603024688183069e-03
-1.682168477696743001e-03
-2.089945133670782513e-03
-1.193705089720897361e-03
2.307162951416229409e-03
6.421467045907429047e-03
4.249039109599825337e-03
3.769365652808819153e-04
3.614858134831333471e-03
-1.580220301410207445e-02
-3.677301627478692797e-02
-1.376413445972381189e-02
5.087632327096392425e-03
3.252063209851362765e-03
1.049234653050009312e-02
7.479459964905060300e-03
-3.074465425163340048e-03
-3.997733733469079585e-03
-5.417428516684203626e-04
3.204981623434448573e-03
1.281871597058958879e-03
3.363157367539548357e-04
2.834843865406314403e-03
4.287358294057255770e-03
6.589841550186266265e-03
4.980630888684793936e-03
4.822892342216997426e-03
5.106600825793562205e-03
5.476532570109105154e-05
5.124215006363720855e-04
1.809426176683418160e-03
1.001745090452922128e-03
2.386014225431097504e-03
-1.217521110056417376e-03
-2.060745725313540676e-03
1.612297709864291429e-03
1.535618141853632289e-04
-2.350546854290047356e-03
-5.030888913399564170e-03
-5.532994027677580993e-03
-1.294902737180541339e-03
1.459214356318743518e-03
1.619126194105989123e-03
-1.552239193763903539e-03
-3.256053238922512923e-03
-3.968235293188334799e-06
-7.976927192261862223e-04
-1.157004167572714707e-03
2.783592821955678531e-03
2.029970030421694108e-03
-1.367415876827031581e-04
-4.225707452034323697e-04
1.207685657956599639e-04
1.684780055190093469e-03
1.404870913144885998e-03
1.155211953754156119e-03
-1.991038640096110326e-03
-5.727752249443124159e-03
-2.374415302332092033e-03
-2.625172808122788141e-03
-5.483439672792612095e-03
-3.880973573054568443e-03
-3.952142657092745301e-03
1.465935821779581908e-03
6.464945791657876993e-03
3.681429040894930080e-04
-2.748492174398351178e-03
-2.391132489900458982e-03
-1.890073431073969849e-03
1.957606994249740020e-03
2.866630800026297166e-03
5.442122482393243164e-03
8.255895994272600957e-03
2.081924013462764511e-03
-2.507405372222528284e-03
8.989593273835788613e-04
3.891391053915686706e-03
2.837943712354120459e-03
3.862037618444709203e-04
-1.035415665720253262e-03
-2.285370616455549911e-03
-1.505110912290807176e-03
3.519546352214891066e-03
4.569275341519027714e-03
-1.399743378794469483e-03
-3.910986958681972325e-03
-2.786953938634645703e-03
-2.989770166086003992e-03
-1.222468509022166640e-03
1.438458733267581626e-04
1.508137381576824714e-03
4.841795279732400738e-03
2.130093033027409370e-03
-1.879456646284095303e-03
-1.403760594605957994e-03
-4.192829237848887634e-03
-5.749801041647957349e-03
-3.138807311744810924e-03
-2.715075176881315104e-03
-4.141781350929851020e-04
3.292536209255427209e-03
1.685828383690579635e-03
-2.599720015412870008e-03
-2.407726948283475839e-03
2.746544610536489055e-03
4.710206356720656254e-03
2.092109992666634204e-03
-1.901851812124224182e-03
-5.101021045795988383e-03
-1.464170524988110591e-03
1.521629410018939628e-03
-4.769033026882467927e-04
2.825524867562483056e-03
3.967154055995971394e-03
-3.199334128483958249e-04
2.035027450558070795e-04
2.732224208076456133e-04
-1.284688175317716700e-03
5.942591838226178027e-04
9.735796693877111921e-04
-2.334987829196629719e-04
3.145894317488817562e-03
7.938477778834371335e-03
4.703961374451329745e-03
3.373375867832016173e-04
1.842133292091770289e-04
-5.068956170684935265e-03
-5.825575806338694970e-03
-2.312238443204747956e-03
-7.863851924290222312e-03
-5.185239152070935179e-03
3.511772704684040097e-03
5.088793479557740616e-04
-4.749132264862005468e-04
2.376535151922580351e-03
2.427094466193227117e-03
1.838761126473874947e-03
-2.520845004882065962e-03
-3.641504206241026696e-03
-2.084149088555389134e-03
-3.356379704232977535e-03
-3.617053395904324146e-04
1.157910161028499621e-03
-1.324843424669453059e-03
1.887704181405272183e-04
3.210093701122704399e-03
4.001726195899090940e-03
3.107972132758714907e-04
-8.255444400019509941e-04
3.566328357985375404e-03
1.600238664771784416e-03
5.967670808922467861e-04
4.843267552611265833e-03
2.628920589439749916e-03
-8.151042066412956351e-04
-1.954292282795784888e-03
-6.538726322914389369e-04
3.100236583126624815e-03
5.163624485120770066e-04
-1.303477064970519567e-03
7.413450058936920262e-04
-2.142167916276866389e-03
-2.121037891144143817e-03
1.874734125881487605e-03
-7.804743839467786625e-05
-3.897944156539587691e-03
-2.811272917424549600e-03
2.262137968552987435e-04
1.335380142889259613e-03
1.005411670675842445e-03
-3.254901002532291691e-04
-5.252482138915114595e-04
4.740867839233816943e-04
-1.350339247359977866e-03
-2.944064246026887807e-03
-1.998143967315649857e-03
-5.787204675002346121e-04
1.733612965587790974e-03
1.792680566615722278e-03
-3.245517097959012710e-04
-1.417872474338439112e-03
-2.106712180215626010e-03
-1.008708720625367842e-03
-1.630063236169689012e-03
-4.152842020322018712e-03
-2.515203537744935096e-04
1.812915721315967255e-03
-2.565189649592653810e-03
-2.557141340975832827e-04
3.338816636346744922e-03
1.761693077066266936e-03
2.930743565338267929e-03
3.312640743051855231e-03
3.404371124953626225e-03
4.859249446218973610e-03
1.424059483101907525e-03
-3.233109937439897588e-04
1.342585229234844087e-03
9.093063476798724388e-04
8.639334678053816685e-04
1.459886518401917396e-03
2.353554296659569195e-03
2.245003289419452569e-03
-6.439294873064678633e-04
-3.133585573169552548e-03
3.442407263267483093e-04
5.559078177000858698e-03
3.982297365698952442e-04
-5.368495141048244303e-03
-4.070800619177558470e-03
-2.631943742651127963e-03
4.312874436890996865e-03
6.761039750660872809e-03
2.449512976166143188e-03
-2.488499720958919220e-03
-2.365899929062838247e-02
-3.144749726519196348e-02
-8.371323707777383535e-03
3.790414158205489270e-03
6.991972183933629556e-03
1.152851996498348991e-02
6.157872841198868373e-03
3.337195491976866629e-03
4.038764821424838114e-03
2.266037880588987839e-03
1.658174176763166927e-03
1.486976635214994199e-03
8.980381569440891096e-04
-7.765430611213499333e-04
-4.864600460534594683e-04
3.769369740383456645e-04
2.202968238330132132e-03
7.081563706731661828e-03
5.455640739509612716e-03
1.284771922549200534e-03
6.888814277233680288e-04
-1.519748790699417852e-03
-1.472635019850677658e-03
-8.254395485250144140e-05
4.418734108954228460e-04
1.122237413898228512e-03
-1.901482087099944790e-03
-2.225729244161610276e-03
2.263581014270334667e-03
1.549473507209051665e-03
-3.913319779062883821e-03
-5.460600840945561800e-03
-2.557246859394748505e-03
-1.446370661579236914e-03
-1.816711525992208707e-03
-2.899917338466162769e-03
-3.469051669892680295e-03
2.352051402626539715e-03
5.151509757964444977e-03
-2.496964571045321660e-06
-6.736717938608052531e-04
-3.049288266770282013e-04
-2.484260334218003820e-03
-3.418681500849415997e-04
3.411039212454280230e-04
-1.784301542573473419e-03
3.096332315359968316e-04
4.062736714413667065e-03
3.432326535439292597e-03
-2.526502683826184394e-03
-4.430477617587918679e-03
8.728268464624505283e-04
1.867267957670164236e-03
1.757964124725159985e-03
2.365389563754162570e-03
-3.813203516719253141e-03
-2.173071297288256022e-03
5.352309874712980406e-03
2.912317068262850871e-03
3.604570894935597500e-03
4.039365346234074020e-03
-3.676277792878955564e-03
-3.976716890994003335e-03
-2.992876326437096321e-03
-2.565581314381360292e-03
4.648479916461768086e-03
2.415283167410206197e-03
-4.000549322371410761e-03
1.428487919228123727e-04
1.252043803182069674e-03
-2.809695600019319894e-03
-1.514882826366502301e-03
1.743407659442598821e-03
1.003340509792942153e-03
-3.427654730846393092e-04
1.579352281027335096e-03
8.031650165606696908e-05
-3.914625144171297866e-03
-1.698300224553860125e-03
-1.593566114481522389e-04
-1.617882518257622538e-03
-4.350093114959926099e-04
-1.622458658577231611e-03
-2.006119571331358743e-03
2.852972767207147698e-03
3.585503560993802061e-03
7.163597433417024448e-05
-1.642452026424328195e-04
1.512678588475973186e-03
6.917995986864694264e-04
-7.610549123485169879e-04
1.401360248331779768e-03
2.096589072761399601e-03
-8.845267236833027989e-04
-1.137647471201771055e-03
-1.559268960638208025e-03
-2.245285394243680746e-03
3.959310146588126847e-05
-5.122597712239838072e-04
-1.467780183129307851e-04
2.746706308487970646e-03
3.900708818406136173e-04
-1.314512172934862279e-03
8.345292264844750329e-04
1.452014775272315698e-03
4.241960054663417913e-04
-1.803763461403599900e-03
-5.841595627434509206e-05
5.298045712676042671e-03
3.404007517636187946e-03
-3.411591312559312042e-03
-4.950383696245923802e-03
-2.574038896784277761e-03
-8.201418304136478188e-04
1.597444946271466080e-03
3.072710081805032998e-03
1.838238325679816517e-03
2.357461551240629897e-03
3.054609268562700954e-03
1.059109361988370350e-05
-4.233191702956196588e-03
-5.690867321220533306e-03
-2.388774784866871340e-03
-9.269860924709786600e-05
-1.814903733755403531e-03
-2.577001112828461622e-03
-1.738775657806954653e-03
2.272437547586523795e-04
1.028455518446415957e-03
1.364376817410182770e-03
4.733050607314813821e-03
4.751956135591168390e-03
1.408538942378935715e-03
-7.529136339448269915e-04
-2.717091969222330469e-03
-3.417029076872316539e-05
4.064577114529353656e-03
2.259425225529726640e-03
-5.816746731005925306e-04
-1.926561799226592434e-04
6.976462528717232436e-04
-1.484145029345940040e-03
-2.719352397277540259e-03
1.376057365668944318e-03
3.346914705289025845e-03
-1.548144775025651020e-04
-3.767221136719199615e-03
-5.102804694451379061e-03
-2.196926859371204060e-03
6.645485351910714131e-04
-3.338026261695461322e-03
-3.856571211107950609e-03
2.023872963022056107e-03
9.266752533494023976e-04
-7.188337566666719129e-04
2.866329319520645978e-03
2.298931729213120594e-03
2.032673556896313384e-03
2.321703033618423631e-03
-1.463086077231737225e-03
-2.211035163023460700e-03
-2.136601035127307004e-03
-1.938879200275799757e-03
2.531658019122936740e-03
4.876931927007849103e-03
4.139150765139108616e-03
1.862390206387547036e-03
-2.710329063270906238e-04
1.688417908700779553e-03
2.482478898776031666e-03
1.708690178424838177e-03
1.071472936201948176e-04
-5.841824281661803057e-03
-7.162133957591126400e-03
-3.110700059365809674e-03
-3.022346427147623669e-03
-4.050564610639650377e-03
-2.730846952757013790e-03
-8.491252101919280438e-04
-6.552500426430128352e-04
-2.179063726869557020e-05
2.644156683054639696e-03
2.391518810516838570e-03
1.390336729370803166e-03
1.256127711164088234e-03
1.666286898976961561e-03
4.662767895544895139e-03
3.434243165905038423e-03
9.807594767158574287e-04
1.346464168892817391e-03
-7.040553952240899806e-04
1.815800343542070126e-04
2.297930540686995721e-03
2.008258368825443889e-03
1.596192536963885215e-03
1.207402804502912420e-03
5.167578038146581308e-03
3.609425276362286661e-03
-2.668042287657317047e-03
-1.291017788342462480e-03
5.400697175980484835e-04
6.175289738997242345e-03
7.104177242025523469e-03
-3.262884880867591292e-03
-8.958515385227653824e-03
-2.582593554223024113e-02
-3.593052924112896673e-02
-1.058825470658629302e-02
6.392500185928441658e-03
9.018481379977029075e-03
1.423510765799688819e-02
5.793889058566547429e-03
2.584851939532677016e-04
2.533945549493560150e-03
6.997471053909219490e-05
1.487925856726834842e-03
3.291575231173382229e-03
3.487463987606002729e-03
3.814236815546555130e-03
3.902769908811836493e-03
5.821864129781635470e-03
1.156937007529501137e-03
-3.365808680231898668e-03
-6.419993400868877730e-04
-3.232127882813536795e-04
1.836999184988634837e-03
5.416719545575198261e-03
3.093909451118551524e-03
1.822923027418195917e-03
3.189373645383701463e-03
-6.258311777879693293e-04
-7.342991679854967563e-03
-7.006693118469654695e-03
-4.827805432458787648e-03
-8.539470508816850158e-03
-8.642651338682647358e-03
-3.063561745340030815e-03
-4.694683205117128311e-04
-1.229776192233998601e-03
1.529948921229571301e-03
6.930790751822721307e-03
5.785236641107642692e-03
2.322463143572954612e-03
2.123879165961042176e-03
2.305251339838030461e-03
5.103024154790158397e-03
5.569003517260298283e-03
2.319423726762813703e-03
2.610925207665845509e-03
1.523746771128087251e-03
-2.885063949888704796e-03
-2.475160724739234892e-03
1.538247408306505975e-03
-2.948431031375377178e-04
-2.854363293035991692e-03
4.414942178702911560e-04
2.249939047308719287e-03
4.137011232277327914e-03
-1.108184888990254932e-04
-3.568444045502701042e-03
1.032659950274873728e-02
-3.541123735122453549e-03
-3.960585975237326112e-02
-2.798926377578983549e-02
-5.530544165907165478e-04
4.215098808962756613e-03
9.587769702531400567e-03
8.742226204687713470e-03
2.451635852902137123e-03
2.225873779411519440e-03
2.491346437830498171e-03
5.395469261186977387e-03
5.627052108224333583e-03
-9.336898199984120785e-04
-4.636682024993252736e-03
-8.064732154084479571e-04
3.972658781353039133e-03
5.181273163416073337e-03
4.923364040021035483e-03
2.903346451574259982e-03
4.542217184528669557e-03
4.785662839600727039e-03
-2.294748562968710812e-03
-2.351501176355987738e-03
-8.641430076597891950e-04
-2.072770784941919010e-03
1.536503843054087305e-03
1.166407311704330480e-03
1.373193289744382116e-03
1.163082970504404449e-03
-3.110576741074586558e-03
-5.394903495444778891e-04
-5.007610470441846949e-04
-2.074179676888494687e-03
3.746551282709102747e-04
-1.960312890058722550e-03
-8.638982419314276788e-04
1.235944469570295296e-03
-1.222224507658153632e-03
-8.368620146849869079e-04
-9.248992234430500553e-04
3.714446703049225870e-04
1.722905295035168224e-03
-7.384433664031562735e-04
4.588244316419063371e-04
2.268898127206343644e-03
-2.129742129224261506e-03
-8.357310739246148409e-03
-5.341424262961714901e-03
2.108752637152743088e-03
-4.134699353665702987e-04
-2.419162829260314805e-03
4.722051865454525974e-04
1.179902555886809491e-03
2.030405362104718055e-03
-4.733393009647925490e-03
-1.107060738872078093e-02
-4.761947615136234366e-03
7.927803754949295113e-04
3.328413752502678343e-03
4.409952066206435269e-03
3.434865448731814781e-03
6.259915771308637196e-03
5.716147655525243010e-03
1.973517223405179492e-03
2.129333550989815586e-03
7.027650675036488815e-04
-1.026023131693749044e-03
7.435335752900162519e-04
1.385015139818366377e-03
2.928862969241600783e-04
2.680072029630878403e-03
5.634180324600478358e-03
3.098323222016666819e-03
8.409258170072050160e-04
-2.696223119242346187e-05
-2.613960145480463421e-03
-2.293737584212426819e-03
-1.530208844880074455e-03
-2.924035183674662895e-03
-1.817811092511893451e-03
-2.752636120276355861e-04
-3.731650256367523115e-03
-6.847786088189287274e-03
-2.399136771409059090e-03
2.512121409382043861e-03
3.063349052388209155e-03
1.417424384448127007e-03
-1.793689640513396015e-03
-7.996115320151429709e-04
2.472368875917888963e-03
3.575415441866634184e-03
3.431877078936154332e-03
-1.094617318634608484e-03
-4.983060740372302622e-03
-5.049783626483907682e-03
-2.705748817684493907e-03
2.888093438703450734e-03
3.441630280189479033e-03
1.070253139855329534e-03
9.741469298336032957e-04
-2.572648593933538064e-03
-4.328087305791978104e-03
-1.081455077986265062e-03
-4.777609972765693019e-04
-1.964005765342577078e-03
6.173529500652485263e-04
1.283850381615138153e-03
-2.549841726054913847e-03
2.056326810181443882e-03
6.018066486240470497e-03
2.085686904274247177e-04
-2.464242362228278357e-04
1.083274559531699141e-03
6.322056057671731266e-04
8.711756295774805009e-04
-2.878579789170282108e-03
-1.427435591021515376e-04
4.288877380098567171e-03
1.981741449894989669e-05
-1.653591862185005727e-03
-5.490622107144360348e-04
-1.628391110462078586e-03
-2.286741691761500200e-03
1.306998196450795922e-03
5.545545140520828295e-03
2.902869657233773243e-03
1.497029157084796541e-03
1.648506290942661559e-03
-1.392492636708551066e-03
-2.012328006992370952e-03
-2.051249947365606317e-03
2.630751719705428249e-04
-8.670502473108055840e-04
-8.341483737984852279e-03
-5.505372017411719332e-03
8.171058991906163249e-04
2.285966904426567445e-03
5.325863088701462099e-03
5.483100524567957081e-03
2.788670689014553783e-03
-4.438730327376005642e-04
1.750166884352301290e-03
6.515673851804589141e-03
1.207647572052037311e-03
-1.161171646007134409e-03
2.640079129970758151e-03
3.442458179371298433e-03
4.585249853925358818e-03
-2.824166972096048538e-03
-1.415296826226687850e-02
-1.558143661521030170e-02
-9.993533406923328991e-03
-2.509407312453422467e-03
-2.791816297404164579e-03
-5.536918462765118808e-03
-3.921972727364637402e-03
-3.822514713424318700e-03
1.759772438833068350e-03
7.073980384585480327e-03
7.066398981592180578e-03
9.162092653745946419e-03
7.569560033271802331e-03
7.842828669540467812e-03
5.964185093008268941e-03
