1.085774616811575541e-02
1.086024047344046929e-02
-3.344167838118491162e-04
-7.708273571303652684e-03
-2.399898551259897414e-02
-2.924533995513922680e-02
-1.463641924710660548e-02
-1.012756887828230451e-02
-1.115695396154606570e-02
-9.136558997176653235e-03
-1.058681949928051268e-03
1.256788877243315145e-02
1.584792168667145673e-02
1.860555526581073385e-02
2.163467149506032028e-02
1.691192695384672109e-02
1.412531582189517979e-02
9.452909779745402585e-03
9.708787197278499065e-03
1.499108884510803180e-02
8.967930838675515146e-03
9.289383744460709674e-04
-4.796212536305451764e-05
-1.893838669766093616e-03
-1.101969982091105353e-02
-1.337858491363378560e-02
-6.243087171148669484e-03
-9.512006396627999474e-03
-1.201196036082373235e-02
-8.062043144286549362e-03
-3.000051146594660129e-03
5.245731829907760574e-03
5.856469783019875933e-03
9.617860139298094538e-03
8.450045685651046135e-03
4.130764971981666471e-03
1.365979667289829794e-02
-1.256808452007893151e-02
-3.804990003682829497e-02
-8.437989845618866502e-03
2.937592520030945110e-03
-7.675739555779930541e-04
9.350771468497819441e-03
5.162386658331029159e-03
4.834169725527970307e-03
2.727075090208779494e-03
-6.324145878476015656e-03
-4.408934965140441295e-03
-4.612270142696640873e-03
-2.790086778000470252e-03
2.316548299433714240e-03
3.495193806394682103e-03
3.440397323783732017e-03
1.061676035804383876e-03
2.751700688485808448e-03
3.806791586558145712e-03
1.954480799702141506e-03
7.786577174982333620e-05
-3.790558783665989601e-04
6.088198510881681104e-03
4.134022921680271384e-03
-7.304576326700257466e-04
2.412971699044768985e-03
-1.361668469766971323e-03
-2.689352479569949612e-03
-1.765693430759690975e-03
-4.079312386165470129e-03
-4.872763624656005856e-04
-4.283281836844654339e-04
-1.549100856636626954e-03
-8.146992170677830195e-04
-1.146417031642061853e-03
1.348649481983212181e-03
-1.136016406949761325e-03
-2.091561721622197789e-03
1.208760460855528782e-03
5.017389999151195077e-04
1.352761060838159881e-03
1.489630416130305161e-03
2.047967679352159093e-03
2.306813676767512263e-03
-1.585008515012920711e-03
-6.751645243502808758e-04
1.011111722484702574e-03
4.958537382743780303e-04
7.789591321127539714e-04
3.674907351666279257e-04
-1.468828970096219973e-05
-4.214240923115618841e-03
-3.676158999326593381e-03
2.225003197688022773e-03
2.422376342344504697e-03
2.372597634948008828e-03
-1.540751502099841665e-03
-4.371200379083161128e-03
7.616747583438451298e-05
-1.202574339004515956e-03
-2.944242996883303029e-04
1.395137185219298085e-03
-1.855914937260330936e-03
1.456349027105694003e-03
1.177377456024142561e-03
-1.057805843942891469e-03
1.647217758727896348e-03
-1.511941441641446277e-04
1.968958148862463408e-03
3.199966737032856022e-03
-5.085009728052336661e-04
1.810283755953154229e-03
2.140830549617666679e-04
-1.841177324028645543e-03
8.117848552958721771e-04
-1.949027934705272044e-03
-2.290034157023758832e-03
3.121012543360490330e-04
-7.800602059378829124e-04
-2.637551645167312935e-03
-4.290067040572793228e-03
-1.200853545196956147e-03
2.458382041813288784e-03
1.559132061963658996e-04
4.270492740556311451e-05
3.498859250266005399e-03
3.191557803937666252e-03
-1.068857246465709484e-03
-2.553254231726660890e-03
8.088112468519395972e-04
3.029426716289716336e-03
2.302050113600246761e-03
1.769708050087909180e-04
1.221742209249989351e-03
8.038471524236175461e-03
9.283224935344582679e-03
1.986179624001150040e-03
-3.085608821156953299e-03
-4.904613916425680509e-03
-5.460758442130860153e-03
-4.933044832849895096e-03
-4.543828834882433776e-03
-3.056731519149749263e-03
-2.535881991983120459e-03
-1.418216857344325012e-03
2.768199608417747006e-03
2.856473407734650728e-03
-8.541671761157881545e-04
-3.687750849651799494e-03
-4.882041791996047896e-03
-1.786488066563940533e-04
3.765608631392877801e-03
1.192689088304603028e-03
1.356933670682315945e-03
2.188083639102881683e-03
-4.196268559124574291e-04
3.428068758872656815e-04
9.377763539343631286e-04
-1.946820787126785123e-03
-2.062870673209155591e-03
-1.140236596857835709e-03
-1.012945549426448903e-03
2.150981948905158168e-03
3.949126158880009695e-03
2.001037747173374601e-03
2.786525513480725587e-03
4.113655983439899744e-03
1.162646413771692075e-03
-7.635854507428548260e-04
1.279395480031530596e-03
2.480275884118725814e-03
-5.371863480657840294e-04
-3.477949769262957732e-03
-1.254958129081481209e-03
2.352499594816426665e-03
2.980777513378681572e-03
1.046594245713327806e-03
-2.623244145953614482e-03
-3.602281690745561590e-03
-8.812883279388802980e-04
-1.377708122627883600e-03
-3.875714638407636806e-03
-3.282719140171756495e-03
-2.172802897586673544e-03
-1.843400783644032507e-04
2.287905533375008457e-03
1.881040800377357328e-03
1.308299200704677017e-03
2.565381947336495098e-04
-1.753911777932969270e-03
-1.101720477506541729e-03
-1.036692478467707160e-03
-2.209466935787490240e-03
-5.776456677268893003e-04
1.506947448817778316e-03
1.472907812583087919e-03
-9.251532822381238873e-04
-3.709742087830905123e-03
-2.724971176320759719e-03
-1.492981600966963472e-03
-4.247270458041918668e-03
-3.753654583999496263e-03
1.995577757366169894e-03
5.044072569654060173e-03
6.445360436886670742e-03
7.894048871805564235e-03
3.973177600222616880e-03
-9.802886746640565585e-04
9.171215819932178499e-04
3.825229080872830437e-03
3.913611601404597996e-03
4.643540400832753962e-03
-2.064668859885267996e-03
-7.847891061201808446e-03
3.987537231916978009e-03
9.872488372013949604e-03
4.604666784068494473e-03
4.852940588551329232e-03
-4.285354501424657771e-03
-1.204971627090709561e-02
-6.040730737239469357e-03
-2.676455861838820689e-03
3.816746811174548740e-03
6.055532425130505207e-03
1.759984086775711861e-03
3.610398103388202853e-03
2.672860539436238076e-04
4.011084480173217857e-03
5.284732172379652537e-04
-3.198322773118966039e-02
-3.153163156504538295e-02
6.341206987189148192e-04
2.793288274017357090e-03
4.351783920120692222e-05
8.615926878753982221e-03
5.844463516689454505e-03
4.435569504346458143e-03
5.996918623711495165e-03
9.344306537783511005e-04
-1.616102834011500606e-03
-2.982317981931552949e-03
-2.881115588542864682e-03
2.086155864303473537e-03
2.238568489277744430e-03
1.544414322500261552e-03
3.511621285157555481e-03
2.815645836406348128e-03
4.767479848095402747e-03
4.235501171437340041e-03
6.778958027122361724e-04
2.707045505219865880e-03
3.571414551540193043e-03
2.972811921338531192e-03
3.506458990746410750e-03
3.809164762674375343e-03
4.019967160619556008e-03
2.641784371784962077e-04
-1.718257341711391332e-03
-1.644511108204778230e-03
-4.250255538944182343e-03
-4.528436189086620760e-03
-5.874044183997381707e-03
-7.202753084914858238e-03
-4.507513707578182996e-03
-3.528869245255233673e-03
-1.631683669950095492e-03
3.906958297748598652e-03
5.190975622091890604e-03
5.245478408987566503e-05
-7.492560584021405561e-04
2.172757759510719928e-03
1.230092856402470111e-03
2.226999218100180616e-03
1.228074083269743103e-03
-7.755344121259025560e-04
8.479243573908379610e-04
-5.068665954240966602e-03
-7.457565770089220024e-03
-2.108324605749855186e-03
-2.112600391442386386e-03
-1.027006803982414510e-03
-1.068890645535229295e-03
-1.597900561595236866e-03
1.466514064250997893e-03
2.553203416605353063e-03
5.901124747797393232e-03
2.170626863656460303e-03
-6.144310540511194012e-03
-1.584561729280133200e-03
3.282834573411086074e-03
1.910287258401136305e-03
-1.277692228829103646e-03
-3.885998233334311824e-03
1.076240649742070025e-04
4.576787094063830205e-03
7.832741391440309689e-03
6.474918392691607176e-03
-2.095279584491167944e-03
-3.776186039044633798e-03
-1.037809584827908537e-03
-4.810746949674143545e-04
6.776775487232562963e-04
7.626098436086328498e-04
1.693102576688919206e-03
-9.265572380684290645e-04
-2.299352244663230380e-03
5.551510928066123035e-03
5.363394882550966830e-03
-2.313392072736987493e-03
-1.390096320413260330e-03
2.341672964351648820e-03
1.589097110892954360e-03
-2.460391211668830607e-03
-2.856717168401304990e-03
6.015045273283579474e-04
-1.090473404881769394e-03
-3.050975315782243711e-03
-1.969509082731561982e-03
-3.028387236307302291e-03
-3.918158834985130227e-03
-3.785414877167189978e-03
-2.582467984854635527e-03
-1.104486136094156353e-03
-1.764329477850784577e-03
-6.890480174525841304e-04
2.895249516052199584e-03
4.227080369361183379e-03
2.384607794657806965e-03
2.278612531371251426e-03
3.089329979539189378e-03
1.067349805866169357e-05
-3.376426991034205843e-04
1.364585605588084427e-03
-5.717949486439801365e-04
1.070503546848354786e-03
3.566762008354138792e-03
1.885703046681315139e-03
9.152538497994973593e-04
-2.444946047926371347e-04
-2.496915706600094133e-03
-4.647437861676814892e-03
-5.175681687427683905e-03
-1.847667907845620613e-03
2.329440183586542999e-03
2.489026002238698462e-03
-2.866328952659216072e-05
1.184833683039549987e-03
2.510073079346405132e-03
8.380253001205819783e-04
1.079002484013985054e-03
-6.912960241599033426e-04
-2.341609670671925686e-03
-2.041233751590577038e-03
-2.890081685947049235e-03
3.061240862423944553e-03
7.070357253120350405e-03
2.067614406379430277e-03
4.277538346960350641e-05
-1.726158316868902200e-03
-3.944128619760086003e-03
-1.525376846481985797e-03
1.887841045492946127e-03
1.336994905191694590e-03
-3.040312661903989827e-03
-1.040557345431864650e-03
2.476028298262222989e-03
7.609201781373910135e-04
2.192677984117903569e-03
-2.988893111050872119e-04
-4.250052453495686139e-03
-7.659749647722321510e-04
-2.584496055010640503e-03
-6.264267419298543381e-03
-1.200581505357028620e-03
3.044408428810750980e-03
2.232589077600019827e-03
3.416960178787608118e-03
4.122834100481665223e-03
-1.705408742890489630e-03
-3.961056931098323568e-03
6.528328742926808956e-04
2.390364780994796903e-04
-1.039123059467890117e-03
2.173760461844159546e-03
2.161219388792117672e-03
1.679381808621738606e-04
7.958187375569416308e-05
5.538502985687912637e-04
2.177787027428723828e-03
1.593552106119558703e-03
-2.152448436483514645e-03
-3.163539123478211097e-03
-2.609784363443059911e-03
-2.180335147477678766e-03
-7.654431709674473219e-04
-6.969970903752701827e-04
1.591638837777837104e-04
1.125273425821399611e-03
-2.999408360830096336e-04
-1.196229847041350080e-03
-2.697986026942697079e-03
-4.181080338456776707e-03
-2.383574788973275016e-03
1.267895473216270859e-03
3.593859572466039012e-03
5.198743166012220925e-03
8.211861251013953533e-03
7.853159078564734760e-03
6.476100939007802329e-03
7.243453866358586825e-03
4.452854223511652776e-03
-6.733284696608080218e-04
-9.761920731325965384e-03
-1.209603813948727929e-02
-4.070141978591196351e-04
5.115771836088300016e-03
6.556001866887585690e-03
5.019020005665443714e-03
-6.326534450593074982e-04
3.509312213070330585e-03
1.903697085172657106e-03
9.516281673038404221e-04
-3.260969804269898790e-03
-3.535798891241415803e-02
-3.721467634395876634e-02
-9.856745166875817399e-05
1.010939434523710351e-02
5.016441931975697960e-03
4.848407259105702929e-03
3.591220478740743665e-03
4.848742558329655582e-03
2.513540896274575262e-03
6.616501747646990868e-04
1.225337319921993148e-03
2.578877615987624876e-03
6.399024824610146343e-03
4.180908257393733604e-03
1.837636665865295324e-03
3.217843895953261413e-03
-4.069362918800996202e-04
-2.619921953260550673e-03
2.178186418608583756e-05
1.386028568880410313e-03
2.766187931416086432e-03
3.052720462866307435e-03
-1.048617947380345999e-03
-9.996269079258978622e-04
3.369838052759826456e-03
9.999631678790203444e-04
-9.950879693477760607e-04
7.831991369793969487e-04
-2.329177594760405839e-03
-3.932300489220690552e-03
-1.629169267250744077e-03
-1.093759767168230338e-03
1.644945933041812086e-03
5.233184299011518770e-03
3.225485518608790618e-03
-1.237777315345650001e-03
-5.680445526427609949e-03
-8.355273853605292220e-03
-3.747732620070039298e-03
1.643364629182968769e-03
2.399437572853035331e-03
3.455287037785638362e-03
4.099781954764905416e-03
4.476011609067678462e-03
2.470945149504993454e-04
-6.736329859116655522e-03
-3.109210859863442873e-03
1.582116229948040808e-03
-3.831987380782619326e-04
-1.710467696902926880e-03
-6.173389550562497332e-04
4.535124799765759447e-03
1.413225726800891330e-03
-6.787522159771025229e-03
-1.988599462137961762e-03
3.527423014215387348e-04
-3.361026582822392375e-03
-2.002111298378053163e-03
-3.291570292916358442e-03
-2.759930945688041613e-03
2.418424112545683024e-03
2.832966381014660057e-03
4.075739733859759300e-04
1.244169941719869233e-03
5.272008238707696741e-03
6.158755266192122296e-03
2.545396369126842924e-03
-7.221043213545103815e-04
-1.950230237507687191e-03
-1.939975170114537290e-03
-1.501400071314877138e-03
1.143143624981512400e-03
3.568023701560985115e-03
2.929497983782497830e-03
1.311630391956225767e-03
-2.010268549068972965e-03
-2.834264042538414598e-03
-5.427338629077463382e-04
-1.008958900050457679e-03
-4.037275065435800224e-04
-6.576967443326864554e-04
-2.970991652483632745e-03
6.921905130022191262e-04
2.446463676671297837e-03
-2.315360310259285850e-04
3.857469749835307216e-03
4.521432900528581100e-03
-3.721657553351789046e-03
-4.485395911729147568e-03
-2.382918386608048021e-03
-5.809548345271978859e-03
-2.130693411687664338e-03
5.206327180733106609e-03
6.207691658776417522e-03
4.144831593666414501e-03
-4.880667329649730031e-04
-1.411933557150339301e-03
8.686501604806674912e-04
-2.602360511811070264e-03
-3.480892146072323695e-03
-1.388467549127452277e-03
-2.057877030636628708e-03
1.373232028718703469e-03
3.865965123049364387e-03
2.572985263303947077e-03
3.186234328190399798e-03
1.194217014916012023e-03
-3.656725570359111496e-04
-8.490572607957561514e-04
-6.144097477360754497e-03
-5.707326522702778175e-03
4.347584217528573970e-04
1.558751915627016194e-03
2.908713093515765714e-03
2.987398344015085565e-03
-2.039615236047203316e-03
-3.915921015647111370e-03
-3.629451790979044967e-03
-5.005204003441174505e-03
-3.930770304075062969e-03
1.391499583208135249e-03
5.033563946354692974e-03
1.119025337329520057e-03
-1.028500853009649794e-03
4.160165402341258790e-03
5.115987623620636693e-03
1.973898567613342151e-03
8.654882218426863429e-04
-8.282894881706698601e-04
-9.979556920741412904e-04
-5.062694219919195446e-04
-4.217800288430646185e-04
3.658666646749608817e-03
5.474094457406666892e-03
2.676067701088055955e-03
1.176393448787694260e-03
-1.449427400882455797e-03
-3.943539937021327962e-03
-3.433315710532766456e-03
-1.788440108188153179e-03
-4.235116111027501136e-04
-2.864695314593713495e-03
-3.340501363171180255e-03
1.268461981017603548e-03
2.665097225253071356e-03
3.731635206686262363e-03
4.049006922632604824e-03
1.396663700104514971e-03
2.123705638712580258e-03
-9.506053876390848766e-04
-6.581611835119747025e-03
-3.205697323812030115e-03
2.607411141381438691e-03
4.053889608604939639e-03
4.811952728559868451e-04
-1.695994352487100853e-03
5.511885782855552741e-05
-3.096897504250158053e-03
-4.210149401494921347e-03
-1.337163116115182510e-03
-2.551666058115860825e-03
-4.208631352256553791e-03
-4.228461884532509069e-03
9.765781774284887579e-05
1.925013142068480836e-03
-4.158066542132789374e-04
3.666448421920364634e-03
3.007366282753511175e-03
3.208701578209867573e-04
2.597336987015272033e-03
-1.853715406302410039e-03
-3.324456689550487828e-03
3.293349033411371645e-04
3.200035143352990014e-03
5.509716516276284316e-03
9.367811692715871186e-04
-1.110735159068438173e-03
-1.061215008087449448e-03
-3.273606064649090854e-03
-2.269521591082044459e-03
-4.507481617771715542e-03
-3.138527567601034646e-03
1.863207958302633615e-03
1.972113296315823605e-03
3.702548947875701057e-03
4.010446466675773522e-03
2.657656574661814222e-03
7.563482334929318065e-04
-4.600449215085787016e-04
1.311667599176037429e-03
-3.557834726304180705e-04
1.979759874958244951e-03
7.176230235615349735e-03
8.115252090664062945e-03
4.647421776411956966e-03
-2.640421116652102041e-03
8.280401290768290255e-04
1.631629251654684179e-03
-3.439351588144792631e-03
1.422005710284010268e-03
-1.101937777726821898e-04
3.662705861947779251e-03
4.471791592514227920e-03
-3.539330990816135988e-03
7.043127587376904648e-03
-1.421568145248191042e-02
-4.463230434539591784e-02
-1.940596941224570493e-02
5.959048440602547061e-04
6.256580024498301258e-03
1.181309507986882945e-02
-3.389188810772770654e-04
1.870663619419498172e-03
4.764901398627102019e-03
-2.407412718952307677e-03
-1.486991673055882519e-03
-6.392043285798480398e-03
-3.425465029921097651e-03
8.551481398312002838e-03
1.337102950174518315e-02
1.332004459516728488e-02
5.521229450190075216e-03
3.961618895868797632e-03
8.250053543172633855e-03
4.121946302553589417e-03
-2.341152368274399681e-03
-6.021573353304529412e-03
-8.792319059401631229e-04
1.698640214789730665e-03
-6.390157462536429772e-03
-3.563529983098111774e-03
6.457785557463653105e-03
7.491887594835238383e-03
5.309191013478892912e-03
2.819760010055100130e-03
-2.475935082801927062e-03
-8.773328313349783997e-03
-1.259166008608220318e-02
-1.326732730384844704e-02
-1.240908785039480239e-02
-9.852172511508909200e-03
-7.383613520129297079e-03
-7.603795300025432448e-03
-4.173686327649456414e-03
4.819155657060757679e-03
8.396223876963081548e-03
8.453562173236629437e-03
1.253114560494444744e-02
2.066434524489297805e-02
2.824438221094195678e-02
1.732225154653705551e-02
-4.235161545337522843e-03
-9.925843241967172159e-03
-8.259573319520742418e-03
-9.227918699924177529e-03
-9.281720426432866697e-03
-8.646594715240584275e-03
-1.017937137179392680e-02
-1.766500187809567218e-02
-1.356428230942830805e-02
5.915396779584662298e-03
1.563676329859914338e-02
1.747270245449249540e-02
2.056667173145534239e-02
2.104368814237191423e-02
1.584123891681019081e-02
-4.162903792275220172e-03
-2.527626670234608269e-02
-2.494745122366283721e-02
-1.559837660676324615e-02
-9.811788728020685510e-03
-3.894623602872990514e-03
-3.341622820430721554e-04
4.401685860436254163e-03
1.083295277430553795e-02
8.168576538455842723e-03
1.949292237594721280e-03
1.626100197787915718e-03
1.131828021309322883e-03
-1.655763343575180225e-03
-1.087387162190107687e-03
1.794814008022531902e-03
1.286997626637616157e-03
-3.466305456767125354e-04
-2.719857764923081477e-04
-3.336485565040271228e-03
-7.529560056077929005e-03
-5.376086619812356360e-03
1.522619896331256842e-03
3.550172442423563373e-03
2.100743255840148947e-03
5.684136559928587226e-03
5.513752507952196166e-03
1.852035748433151314e-03
5.216856352299404677e-03
6.668285497693761561e-03
4.983473263933793640e-03
3.955000868052463425e-03
9.923354882064032607e-04
1.912640266075953490e-04
-2.431322413297612797e-03
-6.283882356587536591e-03
-5.875412666248202437e-03
-5.296252396849623033e-03
-4.018969850872891950e-03
-5.090806922913464205e-03
-6.530955539278443696e-03
-3.143188608672001141e-03
-2.037007905859903548e-03
-2.110546448418766131e-03
-4.156724624977709871e-03
-5.993660375523779220e-03
3.459136441046410898e-04
2.194080418977499124e-03
-2.161565955244796298e-03
-1.108816502678673524e-03
4.805159362900915734e-03
9.682959929648533165e-03
7.942567362509426326e-03
1.047722502019396255e-02
1.720575986236239779e-02
1.431779066345048070e-02
1.047639479263598634e-02
6.834663781333382045e-03
2.488841753780225187e-03
7.181453048593152040e-04
-4.548314988623370150e-03
-1.616890167467742532e-03
3.772877212741130269e-03
-3.482052846364493918e-03
-8.508612817042347440e-03
-1.421158045633205518e-02
-2.558665787131694097e-02
-2.878703480078864674e-02
-2.257418328198142199e-02
-1.177691517429240234e-02
-2.837444972834955552e-03
5.086774288215032205e-03
8.840935176322476871e-03
2.751307736084073613e-03
4.124677154025879061e-03
1.118215896056275367e-02
1.234587933626006030e-02
1.501965641054549619e-02
1.235234841359197921e-02
5.561292777869406706e-03
4.076391579943877165e-03
3.720185547982621070e-03
7.512688846594053546e-03
1.134977981904876539e-02
5.610720390433666764e-03
-3.389493596315496914e-03
-4.515889808587787366e-03
-1.408447223371152475e-04
-5.367237382717392896e-03
-2.093228985018052296e-02
-3.863347042882415983e-02
-5.478755478186749656e-02
-5.770882650679892700e-02
-4.225020362188277451e-02
-1.757049528809185787e-02
8.890846495819801007e-03
3.393167268362037164e-02
5.491254393383865340e-02
6.972842137745777213e-02
6.911296039557902893e-02
4.787937346497355556e-02
2.992655498735819625e-02
2.518096041352301667e-02
1.681678356400489321e-02
1.117800596387780350e-02
1.109376684221916216e-02
1.090700358495641335e-02
1.336118635780778746e-02
1.290094898581547328e-02
1.844056391727356622e-02
3.034518696161660548e-02
2.891081695056047646e-02
5.854816862041581881e-03
-3.951430193183573525e-02
-7.966598185024731382e-02
-1.004938630651699139e-01
-1.179145422305650920e-01
-1.129758302581108653e-01
-8.856871201003108096e-02
-7.045374546504340474e-02
-3.884698277266255412e-02
5.239035842285026841e-03
1.758159723924134984e-02
-1.017187403622132544e-02
-1.739924149234723869e-02
3.625962806409831207e-02
1.031641161127432177e-01
1.413475159993585195e-01
1.365439936799746345e-01
8.815636202636933927e-02
5.338262395006344863e-02
5.184370504908953486e-02
4.671031192432646695e-02
3.306358186655183190e-02
1.409364392421301460e-02
-1.190296985727544270e-04
-9.338776345168376541e-03
-2.903922039981910591e-02
-4.936438785918380312e-02
-7.343854565669573342e-02
-8.808917727675738552e-02
-7.562330496977748284e-02
-8.216790255029797485e-02
-1.163103176934857652e-01
-1.280001498820589612e-01
-1.011615735813888028e-01
-5.155629478720398506e-02
3.805600757727829395e-03
5.165917071563568691e-02
7.814346898374273376e-02
7.870503626881596160e-02
6.161312448865887553e-02
5.266278733324006311e-02
4.739003518207691307e-02
2.038621454962073060e-02
2.150847420837513971e-02
4.136688399802497529e-02
2.200523372015403614e-02
1.490870565635473918e-02
2.488299816117691896e-02
4.363494916921104722e-02
7.650809326167468116e-02
3.841864674733010826e-02
-3.107389991098548007e-02
-2.784453504692824613e-02
1.289371834931543441e-02
2.245751356652971736e-02
1.608171849944069198e-02
6.129315749631190219e-02
9.350947402550516263e-02
4.273596296045516219e-02
-3.335301870938173208e-02
-1.205259584522751642e-01
-1.787873174163391865e-01
-1.854094109397894929e-01
-1.538528375298862660e-01
-4.321427618983610108e-02
7.675436196161113112e-02
1.706369979430286399e-01
2.440517303283397388e-01
1.776908502896153985e-01
1.855192071976663817e-02
-7.964164337493311041e-02
-1.314091835595144198e-01
-1.590129964420232966e-01
-1.101250819318626284e-01
-2.123099038301371963e-02
1.999985498243489132e-02
-1.662470419800901253e-02
-1.625624998650851971e-01
-2.851875011585886521e-01
-2.212605842371587472e-01
-1.411286506217349079e-01
-1.637913875235742223e-01
-1.444983467325825499e-01
5.072333708297950550e-02
3.548120223411915797e-01
5.016559211709968880e-01
4.594740141552267620e-01
3.494979778565561190e-01
1.651505698937244249e-01
1.741003961048756196e-02
-5.426591675379656421e-02
-1.412118257808456234e-01
-1.869995966775855611e-01
-1.106666079760516980e-01
1.441219591633732117e-02
6.886276977216219952e-02
1.461282911546935293e-01
2.511247717986671568e-01
2.012215371813163289e-01
1.063571324757909553e-01
5.795030334860455656e-02
-3.429801572000373833e-02
-1.634383113196732906e-01
-3.181665482192982952e-01
-4.089683909225650948e-01
-3.841929445928397580e-01
-3.008772927703741717e-01
-1.889411402529780626e-01
-7.511261344875908019e-02
6.516545598778325510e-02
1.149158712211993255e-01
7.912063424566212477e-02
1.713446104187230090e-01
1.952715201838671477e-01
6.235588446931805001e-02
-3.028063007751247496e-02
-1.693889314593776674e-01
-2.494676179211766376e-01
-1.045431809436479925e-01
3.305699972925053853e-02
9.327804108980873588e-02
2.328323321075341512e-01
3.591710024106024579e-01
2.947614115923953837e-01
1.478393724576785306e-01
6.877119769965302221e-02
4.263678744890538747e-02
5.370138880989938635e-02
6.097598892720449554e-02
3.042568368606369741e-02
-7.134812080005178969e-02
-2.095332004044928864e-01
-2.198158197264981073e-01
-1.731486752305108345e-01
-1.420547314418443841e-01
-8.565197073066632694e-03
9.451386748193139897e-02
9.805140074193058330e-02
1.173451318247219072e-01
7.409174177947171203e-02
-3.271560960542946317e-02
-6.688839519320710636e-02
-1.775261120120032871e-02
4.109842889044108133e-02
4.292542166986603597e-02
-5.118944376829297205e-02
-2.200589963920776548e-01
-3.187452385070692062e-01
-2.729557823511760128e-01
-1.603996476915365288e-01
2.217672008112282420e-02
1.908582460590879104e-01
1.929400194506738497e-01
1.397096804585393759e-01
1.305073346583108529e-01
8.664733404160526731e-02
2.431383595534198500e-02
2.031486866026054570e-03
-9.919516815879837399e-03
-3.833773382088463688e-02
-6.697224889525789371e-02
-5.985450820738916905e-02
2.596956674211485863e-02
1.587150441244828125e-01
2.297502641853925442e-01
1.801610079253440910e-01
3.796705235492101038e-02
-7.548827104356679862e-02
-6.438071994590331693e-02
-1.514841252467374368e-02
-3.560186541213670574e-03
-3.934661077053393068e-03
-2.246125385349364775e-02
-3.826344431236974875e-02
-2.410387073378779388e-02
1.184179267290119989e-04
1.062635136802586415e-02
1.221727342263087372e-02
5.553795986137922969e-02
8.727644853814547909e-02
6.945736002065283632e-02
8.640345724305759090e-02
3.523192266725419519e-02
-1.509922837199287049e-01
-3.080078434923688713e-01
-3.174580256001419687e-01
-1.284404172425738788e-01
4.396436088774503120e-02
-6.387335472866195740e-02
-2.110710687901611038e-01
-1.068002403490643654e-01
1.417029033442901431e-01
2.552978396513577719e-01
1.428206790688672512e-01
2.296285949808107851e-02
1.048026030441931954e-02
1.991921621196791198e-02
1.411681587923554852e-02
-7.594811612079051255e-02
-2.646564585610097220e-01
-3.646410263299930676e-01
-2.321274435640029443e-01
7.007945284482666737e-02
3.901611847533311139e-01
5.223603256355233704e-01
3.892749987071525974e-01
2.069434547399968682e-01
1.164954568543966756e-01
5.818595278782622698e-02
-1.294564785577132296e-02
-7.361991366898182343e-02
-6.847646977520788214e-02
-7.185115801951341696e-02
-9.996574755483247920e-02
-8.629751866708283703e-02
-8.224769765612763295e-02
-3.109417054213147163e-03
1.083084699807541906e-01
7.342737731153199665e-02
-1.575190794115005621e-02
-9.358494766608203841e-02
-5.554427878731831719e-02
4.079710166252178971e-02
-1.355440463949295904e-01
-4.339133233067945516e-01
-5.016870809252874652e-01
-1.734179681042638532e-01
3.640987613962107239e-01
4.802397534907284493e-01
2.110421921688234170e-01
7.403440928445371993e-02
2.602130554646716817e-02
-3.516818145455673228e-02
-5.623548108604485563e-02
-8.066445652238458941e-02
-8.796775050932181816e-02
-4.837784683496516164e-02
-4.170674360476174514e-02
-6.817568832880679941e-02
3.709490637880057812e-02
2.420332513571419319e-01
3.016063955450055123e-01
9.191125388475349101e-02
-2.750668847009034579e-01
-5.042549166888347090e-01
-4.672495008791934246e-01
-1.830548483572193019e-01
2.654900194728974649e-01
5.117442076138868368e-01
3.993610734110114580e-01
1.734499843062682622e-01
-1.803033059983837755e-02
-1.476056628326131159e-01
-1.698684923134880231e-01
-6.313946744920830023e-02
6.491912252387826987e-02
1.094530071090245305e-01
1.042784856674640603e-01
5.317521086966445210e-02
3.130127163153590807e-03
1.555883613808992268e-02
3.739263253563236689e-02
4.215593543729591330e-02
3.003765345983356802e-02
9.715177602484244973e-03
-5.574272021617011907e-02
-1.749203540392527678e-01
-1.939551928801885594e-01
-8.391249529878790081e-02
2.298139905122941265e-02
4.109800519398414120e-02
-1.892717042362241850e-02
-5.306974703203497234e-02
-5.060692994276580481e-02
-4.576310291428593163e-02
-1.954025248724091529e-02
-3.237124919934269898e-05
1.560340169806492469e-02
3.418827098485899274e-02
4.065461123071488492e-02
4.761301261074618596e-02
4.571323609372659330e-02
5.158285271128144889e-02
6.353766046158081104e-02
4.810888381611203024e-02
2.470339728302986190e-02
6.390158578124755483e-03
-1.463207049474325901e-02
-3.864065281903793225e-02
-4.329624852181715444e-02
-2.133972318759907311e-02
-1.622849816116241767e-02
-2.524203781222031373e-02
-2.284359766191403768e-02
-1.997395754972374968e-02
-1.259118138092299097e-02
-3.034276129593445706e-04
9.735419005045474819e-03
1.661240402988028303e-02
1.826990068337832479e-02
2.279065853038148709e-02
2.619652482739327423e-02
2.375813971369434077e-02
2.276971694194200244e-02
1.848850229356375011e-02
1.195242189916897319e-02
6.148610978694582507e-03
-4.080994487241043633e-03
-1.066272705818347398e-02
-1.207056228570601436e-02
-1.626945727314166659e-02
-1.336246865486909012e-02
-6.193657838543819433e-03
-8.757619307564747449e-03
-1.181709042864137124e-02
-6.721620254951029237e-03
-1.650589185046297345e-03
-1.723426433877045527e-03
-1.510170569020368933e-03
7.720013195844776122e-04
3.965214506003979927e-03
7.732884689901357161e-03
5.033642220460461149e-03
2.294998587555161992e-03
7.841167443259888445e-03
7.190265746253679015e-03
9.539649880151415597e-04
3.138535876168010563e-03
5.867567451852465782e-03
2.396372704655437211e-03
6.297020021422836339e-04
3.284995055950743793e-04
-2.527724118998587750e-03
-2.178330682640244702e-03
-2.499807830177232671e-03
-7.124955239531488051e-03
-2.345285863400109125e-03
4.903186589121573055e-03
4.113689342448880034e-04
-4.793805095016526706e-03
-5.889198049998261610e-03
-5.505701017950328721e-03
-3.430136294781299493e-03
-2.914582309746783541e-03
-2.378737835739638210e-03
-2.229558055942280296e-03
-2.436872060889684870e-03
2.266334354771751909e-04
2.587220412791502253e-03
1.398312337415167717e-03
-3.336116961770511403e-03
-5.620648248547718655e-03
-4.351635242270889513e-03
-6.348321774036028500e-03
-5.766028097598232746e-03
-4.047600049944800838e-04
1.502567875963971506e-04
-2.540857955699901694e-03
-3.962574652671143434e-04
2.735478895229594403e-03
-2.159181029298258732e-03
-5.543497589787054793e-03
-1.946162602338289468e-03
-2.543467857093328378e-03
-1.197473168268921263e-03
3.417625298468787969e-03
3.009642526238056476e-03
3.690339265032367960e-03
4.234721318246250851e-03
5.928675596525647892e-03
8.516392131537074001e-03
2.036644014331574336e-03
-7.350728211319749409e-04
5.074982569585786106e-03
6.464200749872977755e-03
4.922474145371900749e-03
2.552882881424260210e-03
3.621836369629951886e-03
7.379193615755709479e-03
3.816909869227893062e-03
8.203104798227439133e-05
9.691353656213627047e-04
5.317657096655640679e-04
1.739597278042416843e-04
1.671223650908751921e-03
4.650386052845791388e-03
5.835113932887412563e-03
5.257939965307672874e-03
7.076310691823829713e-03
7.133576022903401377e-03
4.016762038481584349e-03
7.977405463807957665e-04
-2.612305797045334776e-03
-5.376333811081776895e-03
-7.236034095773989129e-03
-9.276415278807584319e-03
-9.674369501599170557e-03
-5.537095917616298608e-03
-3.533896973793821967e-03
-8.640998244473133139e-03
-1.215583851090902730e-02
-1.139792502664658223e-02
-1.107367735745846092e-02
-1.228272573446464663e-02
-1.196167608924806301e-02
-8.534997059565537295e-03
-8.068497950387226378e-03
-9.745873949759911725e-03
-8.833524710359454135e-03
-7.715626666462699866e-03
-7.080124839232503943e-03
-5.342640613068440694e-03
9.194635654187859313e-04
7.343233274759631071e-03
1.033263317942292869e-02
1.603337868351763576e-02
1.789344577901235203e-02
1.624281234718998393e-02
1.956912950225911385e-02
1.885617369572015894e-02
1.198265664812460385e-02
7.486861447659155441e-03
8.942804162518086172e-03
1.048760006023542052e-02
8.974950901447528370e-03
1.143128396997831683e-02
1.130693528512265005e-02
8.194357064017920508e-03
8.128173123190762100e-03
4.889596117687525917e-03
3.614612055840117372e-03
2.693021090947950863e-03
-1.722392472078557342e-03
-5.326002672080572438e-03
-1.155041108826361171e-02
-1.322630773483998712e-02
-1.089256710129495043e-02
-6.875721123441201274e-03
-1.330681735975570859e-03
-5.907372315271092363e-03
-8.743779648834366577e-03
-9.100318824305663259e-03
-5.840345462935236411e-03
1.795245233230513895e-03
-2.750611485325015967e-02
-4.899906137046437099e-02
-1.274850918784249491e-02
8.134872426347826424e-03
4.378941848627169314e-03
9.133240560207324041e-03
3.625514558886054010e-03
7.342182804230364861e-04
4.342710220832786579e-03
8.394465727482224244e-04
5.222942981966693671e-06
1.367502022977865311e-03
2.488711162213106017e-03
7.088573577698742065e-03
1.286567620534597584e-02
1.282462888702086933e-02
8.857149653590903546e-03
7.868744715254435973e-03
3.831634678590817647e-03
-1.007705989212604586e-04
2.499556631038862223e-03
4.203661508181811765e-03
3.505280716009952658e-03
3.668186284065899638e-03
5.222131719855898496e-03
4.064584701783876229e-03
1.625392845495711230e-03
1.775528232388029135e-03
-1.863268892572447115e-03
-4.967863130933779757e-03
-4.241007856243740604e-03
-4.965492089147527204e-03
-3.653620059888037022e-03
-1.986585875789863287e-03
-4.162714413254398017e-04
2.142540188099948013e-03
1.808043897930258206e-03
4.214144495752131583e-04
-1.942808613114234591e-03
-3.405649760659284434e-03
-2.374746935062502316e-03
-7.591990453997611056e-04
1.764744611574612732e-03
1.893281025118467333e-03
1.751049512939093942e-03
1.969425853321161470e-03
2.116398728910638845e-04
4.398600383560827753e-04
-6.294443314101929622e-04
-2.116750612796523736e-03
-1.921483375248211282e-03
-2.821507086430390197e-03
-4.264828212324275479e-04
-2.963530475257366691e-04
-3.836614487216584261e-03
-2.402920239803363160e-03
-1.812564487930201358e-04
-4.563701805920813786e-05
-4.155737598825021313e-03
-8.037638805153412419e-03
-1.391551983164545855e-03
1.586363820553812103e-03
-3.944351659392404848e-03
-1.493920108778357993e-03
3.506944597951981019e-03
3.179129204071424845e-03
1.720842347641148061e-03
-2.453439000721450644e-03
-3.527337311223318565e-03
-7.948480019732416014e-05
-1.317065357570169513e-03
-3.533331593883957001e-03
-2.544023608086682427e-03
7.064808999448485673e-04
4.170036430943132102e-03
2.167975616427728677e-03
-1.662388339849885533e-03
-4.387662841279370458e-03
-4.696632286684619684e-03
-1.338151875085413301e-03
-3.301280379007071573e-03
-6.049362925581659028e-03
-3.877417068989172204e-03
-1.917499085948978213e-03
3.935989599687256431e-03
6.857430591259245853e-03
3.058097390007559740e-03
2.214374686683775236e-03
1.622597841032991876e-03
1.114162508264397722e-03
1.204621697073237144e-03
4.883892157335604535e-04
9.406823907698281476e-04
-3.854493528060992246e-04
-1.459139563217294556e-03
-2.450258711881855844e-03
-2.597382766015185820e-03
-1.870516731037495748e-03
-6.523644661021735930e-03
-6.647195377895201082e-03
-1.418152827749681079e-03
1.142113151791603314e-03
2.842065173573462417e-03
-1.609314345639770638e-03
-4.517532371809812423e-03
-1.207956939716844967e-03
-6.462871955849731854e-04
-2.167236539340058627e-03
-5.479075846335891911e-03
-2.056380780093678470e-03
1.335228278035257513e-03
-5.066609009046135065e-03
-1.422820995905670419e-03
4.700232689741915861e-03
3.540822771029422493e-03
5.489272665991949858e-03
3.519390740293479140e-03
1.897573074713707498e-03
7.224991778021823017e-05
-7.215993462763753072e-03
-8.392827159899952927e-03
-4.741079223704290808e-03
1.030963791883143235e-03
2.750723823592063962e-03
9.097272047850534296e-04
7.608770364815422606e-03
8.408808425825272867e-03
1.760018194970614869e-03
4.448549108727107063e-04
-3.037995876815609200e-03
-5.719042273676052876e-03
-5.093708337541033061e-03
-5.235486350512935649e-03
-3.005369191689678809e-03
3.576645007794893244e-05
3.047021580270539102e-03
4.881205896335158445e-03
4.820309118033078155e-03
2.158391576106023085e-03
-4.116548798674487912e-03
-5.299274848873315041e-03
-1.592718190630202507e-03
5.583296921090737065e-04
2.856592893616773706e-03
3.030159051956163481e-03
6.353766545451638341e-04
-1.319995414804478982e-03
-4.627902976839599262e-04
1.366490592866925194e-03
-1.427075789882529915e-03
-3.789766071814434142e-03
-4.094494493797413287e-03
-5.667184385032967772e-03
-1.069052561097264594e-03
4.083036946197816236e-03
5.588602172341989444e-04
-8.256511590330928470e-04
-6.110721805844725532e-04
-4.889780525917050182e-03
-4.257992428445733259e-03
-9.920247435299097208e-04
6.954318850293350184e-04
4.011513005074158512e-03
1.434365950086368248e-03
-2.964637579087167109e-03
-1.594082784318537989e-03
7.218475823241119610e-05
2.795539536399021217e-03
3.148779294065878406e-03
3.156475811991257818e-04
-2.755048095984154177e-04
-2.680339566576322215e-03
-3.463276584554364490e-03
-2.350505557195236152e-04
1.457813069450854867e-03
1.275617025360450876e-03
1.176474318803819768e-03
2.312734565376350655e-03
-6.071150917260532704e-04
-2.033970098590983863e-03
2.365276233385832719e-03
1.469430208475461588e-03
2.075090677837707759e-03
4.158317112512419436e-03
1.412737947516200330e-03
1.717117030582893849e-03
1.322051014470297658e-03
3.751620316995763621e-03
5.813673119087996513e-03
1.145273149351235410e-03
1.648851148178074851e-03
-7.189478318184841553e-04
-2.197830173664760533e-03
2.879348511753678820e-03
-2.212392830311118400e-04
-1.710305192257049979e-03
3.148648532007930967e-04
1.389178542262302796e-03
-2.057474274373135648e-04
-5.149866242672517837e-03
-1.831806936982025881e-03
-2.222060551236218484e-02
-4.820092101943120044e-02
-1.981045323812048731e-02
5.782797016609685960e-03
3.081728924554898510e-03
1.107739036836120558e-02
9.708994423310902261e-03
6.178675100955796466e-03
1.034741943009345397e-02
6.785370354737551603e-03
5.213067275343775606e-03
1.057935728157232943e-03
1.361172834545762477e-03
9.556762145098044586e-03
4.776024684203897773e-03
-5.634499708690925233e-04
2.042584778025382467e-03
6.081607974901867943e-04
-2.381568644667338749e-03
1.007731136393926201e-05
4.245940589692737480e-03
1.805298630234963278e-03
8.121216188509601270e-04
3.275916060549723466e-03
7.884581118052255786e-04
-1.081522778199556787e-03
-2.477019109751961434e-03
-2.060201485304590137e-03
3.888358832115472734e-04
-1.286247416773371151e-03
-2.006871197249582902e-03
-3.625091710291745116e-03
-3.666383742534952417e-03
1.862272266272480296e-03
4.247893774102937982e-03
3.984192711459626571e-03
-8.851210629548112840e-04
-5.306389953209642192e-03
-3.467823856715335044e-03
-2.477760378537747013e-03
2.806518325643140525e-03
4.789893899861366773e-03
1.381678679920246089e-03
4.160412345070546407e-03
5.974314983436706736e-03
6.908877648002301024e-03
-2.563104973076208663e-03
-6.677120011225537791e-03
7.343410518263457192e-03
-1.940982589833612632e-02
-4.719243456114759899e-02
-1.297706186014325330e-02
5.584443329176439277e-03
-1.435871541517004437e-03
5.840678861358091813e-03
4.575502347626493951e-03
3.992408941624816555e-03
4.276749428358842149e-03
-8.834959613175984248e-04
3.505587011352983770e-03
5.715616309370463895e-03
4.996300606447016263e-03
3.606593286217128509e-03
1.366249343775568278e-03
6.239475035840174114e-03
6.706658244407974652e-03
4.812967901795113003e-03
5.666953428900707232e-03
4.707957741423271329e-03
7.437024793892063612e-03
6.739367340250566017e-03
9.960173288219951061e-04
1.105428103641559407e-03
6.002859182306979555e-03
5.172640188334540721e-03
-3.484054713432095402e-03
-6.147663883115435206e-03
-6.078432683788164911e-03
-1.095116700171241617e-02
-1.218712446216738306e-02
-1.176865847903980911e-02
-9.484462798443279302e-03
-5.494974151428513517e-03
-3.149984571426162235e-03
1.087341533786834852e-04
-1.805887760216983492e-03
-2.793803580870980741e-03
5.494064656435493311e-04
-2.010660873813603015e-04
2.551598420089520002e-03
3.283454201246148105e-03
-6.082809981357401811e-04
3.752706644554629038e-03
6.787002480027117327e-03
5.999217757656210605e-03
6.022379534980431930e-03
-1.548563487281990779e-03
-6.765756904056458541e-03
1.622211587261753959e-04
4.866660713576701283e-03
1.298910058706477522e-03
1.354323022402405177e-03
2.330846624978951103e-03
-5.909649863722580762e-03
-6.894491703535181489e-03
5.315279819564386853e-03
7.874927439961936990e-03
2.336413399245320256e-03
1.321291437107565032e-03
-3.468670390141163386e-03
-9.979951890840249584e-03
-7.053181351280404451e-03
4.465513094601226214e-04
4.319024277299128405e-03
4.164696916409691037e-03
2.221284628423847267e-03
-3.826289475992281802e-04
-1.660047305463571319e-03
-1.280953747127012207e-03
-1.268755745485025373e-03
-7.097132519077754007e-05
1.501494521134925713e-03
1.409997304096826786e-03
3.000855151734421224e-03
3.818331773031800359e-03
-5.515203337227536466e-05
-3.400323083668415312e-03
-2.232583194561951409e-03
3.758796974026056329e-05
-9.144952558629427901e-04
-2.532593760600374000e-03
-2.305285318228691028e-03
-1.664683319216184003e-03
1.894027681744171483e-03
4.114290351687087052e-03
6.016293799754014130e-04
-2.691058780782870077e-04
2.530460719785569473e-04
-3.515817909638205112e-03
-5.399857791231577747e-03
-3.449063590352435815e-03
-6.986358042052702704e-04
2.640119393586147847e-03
4.506128694304676989e-03
3.440349664241733763e-03
2.873403781049159878e-03
1.745691779496601334e-03
-1.885426380099127679e-03
-3.474730782346235848e-04
1.690655456140521731e-03
-3.111043429246603941e-03
-3.373014572212543541e-03
6.281616022589201626e-04
2.217331654019673824e-03
2.574064788861895117e-03
1.212240134524266572e-03
2.140582355704661720e-03
-4.328721630883412244e-04
-6.800894607127024906e-03
-4.672023144571164043e-03
-2.343574596914879682e-03
-1.491361435211597522e-03
3.381001743326171247e-03
2.701850381780016453e-03
3.930794220841402715e-04
2.425377798726565184e-03
3.121153673178916031e-03
1.552381109155593231e-03
2.057959960759668701e-03
4.477444424898183173e-03
-1.558138997737954249e-03
-6.225386154443950971e-03
8.179793554573366703e-04
1.983150767197364595e-03
-5.432725594131109664e-05
-7.739439320359304490e-04
-4.957239205662026041e-03
-3.264917008186775903e-03
-3.927325475143304649e-03
-5.691785902032013740e-03
-4.480707724987734565e-04
1.159327795919193977e-03
3.295653028778995196e-03
2.083747329276826668e-03
-1.504320889226119567e-03
3.775374388758502564e-03
2.742495344582924870e-03
-1.821349863578295889e-04
3.442026344193415029e-03
1.573664231210752809e-03
-2.300911861503736940e-03
-3.469333112421590492e-03
4.018375890785556240e-04
2.871346440341501858e-03
6.366450763941436429e-04
2.583139203927979459e-03
3.433894849176059492e-04
-1.059138237811920163e-03
1.717555982603129238e-03
-2.542451494513943509e-03
-2.726732046683757061e-03
1.068984515071036423e-03
4.890087605337220880e-03
5.802436652574329869e-03
-2.349923140344407826e-03
-2.882296679929148477e-03
-2.410974645377838600e-03
-7.906295184840704190e-03
-2.988303790308640892e-03
1.751122168518699351e-03
9.356436540239615343e-05
1.310718572306503833e-03
5.204827839712287962e-03
3.639275607310569864e-03
-1.863954177495116393e-05
3.644047069699199188e-03
2.320438382117012265e-03
2.668237652146546353e-03
3.755604590437665400e-03
-4.325880991001126476e-03
3.398052470280949096e-03
-7.879656322722363229e-03
-4.122335827966288474e-02
-2.118592176811277122e-02
1.238237309405250570e-02
1.197510068286643595e-02
1.222647511020721368e-02
1.077047930439043767e-02
6.498260247672000590e-03
4.692644684144747953e-03
3.978071717417233221e-05
4.015116262366247432e-04
8.707388680772199397e-04
2.140500348844120732e-03
2.134336209336494018e-03
-3.036378029606651933e-03
-4.549954096753193065e-04
-1.737423218686798797e-03
-1.110703467443645114e-02
-8.730375789864125782e-03
-2.734054558110735663e-03
-1.236712793167380788e-03
2.679306486716507164e-03
4.111104088633426093e-03
4.331038861550691628e-03
7.047907790251078941e-03
4.728126006098121170e-03
6.026970936241518540e-04
1.074247272495507458e-03
9.802871453005623412e-05
-4.285526645820483468e-03
-4.855768186673845542e-03
1.320870843806875531e-03
5.630728464134263783e-03
3.826823239603054008e-03
1.893492310970892141e-03
1.231043403481357724e-03
1.011991622792422297e-03
5.088977927727694316e-04
-3.113147437299641513e-04
-1.676557079044628876e-03
-2.537487334116976002e-03
-6.309949753588167806e-04
-2.431859332655304969e-03
-1.410797199672789029e-03
3.987606818816453319e-03
4.104968644698620515e-03
1.062248643214037079e-02
-3.984784639796794432e-03
-4.099868016146634986e-02
-2.912745949248590760e-02
3.831883857769969107e-03
6.035650721386932871e-03
9.008951745054453314e-03
1.185564108130351436e-02
7.300040102543860383e-03
4.431697124436361455e-03
-9.790364883284627048e-04
-2.217802452675066160e-04
3.692588076335558654e-04
-1.750322275918278362e-03
2.832149920826222082e-03
3.622883239120233082e-03
3.585796218981556231e-04
2.807354065994848661e-03
7.973915837241224089e-03
6.059618916416228615e-03
6.055819833081678557e-04
-1.194538298825672032e-04
-1.672964795324746474e-03
-3.025714257376703811e-03
-2.682138982996614806e-03
-2.052700274556875683e-03
1.716731028953148350e-04
-8.816241898155681173e-04
-4.458732760524093436e-05
2.140791884836343046e-03
-1.089262549680340654e-03
-4.835012598189083848e-03
-6.941866560407111003e-03
-3.224485505516372710e-03
-8.504199494136012211e-05
-1.617911924680613201e-03
1.124999713968126598e-03
1.544825097881426593e-03
4.336730225497980977e-03
8.168499642861247814e-03
1.346945730570370692e-03
4.849918243609136707e-04
2.098299297194014274e-03
-1.829996026382805846e-03
-4.522837050396454734e-04
6.948617879327364860e-05
1.275141844641585658e-03
2.456030046609723131e-03
-1.096549289398704918e-03
-2.250575267574707501e-03
-4.140620268427769833e-03
-2.812622735977893078e-03
1.051867838437429026e-03
-1.993403024482950751e-03
-6.060990693819059971e-03
-7.339166359187069243e-03
-1.693033798851454859e-03
3.386761246219746700e-03
-2.235959164136083180e-04
2.165760262241517211e-03
6.283024874876097683e-03
3.737442645812843849e-03
6.191288063184521503e-04
-1.587773102858332751e-03
6.918580901713091693e-04
-4.376834399304168201e-04
-3.925546200152560568e-03
1.046276826965780856e-03
2.699379924188896000e-03
1.388789812477814059e-03
1.615340527448436538e-03
-4.149364096474714506e-03
-6.888111806490665630e-03
-1.986183574322009093e-03
9.953831718723864068e-04
-8.984093794992125152e-04
8.406181704243619675e-05
4.785452518330675191e-03
4.487109508657875778e-03
4.690747847524791986e-03
5.736394068633604570e-03
1.197010352248496952e-03
5.558614266395283353e-04
2.897311722224113484e-03
-4.884914036478238473e-05
-2.853084938711183526e-03
5.029853187942412863e-04
4.776452936604752564e-03
3.878754565430207746e-03
1.666634913733075051e-03
-2.200855706262781156e-03
-4.581259511665062602e-03
-2.554271116601394224e-03
-4.886871342708494492e-03
-3.742101246237626057e-03
-9.892027201815941631e-05
-2.375374972245208795e-03
1.453678980998860185e-03
-7.668516524984288034e-04
-1.057457786607256776e-02
-6.286720017595464130e-03
-1.183181237108955463e-03
-1.660629383851306047e-03
-1.282643701449069380e-03
-1.480924508552586109e-03
3.480915352212410070e-03
5.978045965656967123e-03
7.026629778971896917e-03
9.060691160640380395e-03
-1.173006699993516802e-03
-9.171470198308724620e-03
-6.177980875105308113e-03
-4.279410853913029680e-03
-2.018402522679852394e-03
-3.474031943001383506e-04
-4.333119187897196793e-04
-1.879244130365158305e-03
-1.271514685694542443e-03
5.086516325546221184e-03
5.172310207827439561e-03
1.911338890370189092e-03
4.715037548578407574e-03
6.158197787667968846e-03
4.158606595534945598e-03
5.366784823107547710e-04
9.138366430129473686e-04
4.415527766897930396e-03
4.537067542462407121e-03
5.669757122201569272e-03
2.891624049897072342e-03
-1.721327373841025988e-03
1.634460565476910428e-04
-1.159740829828595195e-03
-4.968925574156705591e-03
-4.955486926131696772e-03
-2.029368320449860368e-03
-5.152452392393767943e-04
-1.816225200055499381e-03
1.589290070124612644e-03
1.619356183588570525e-03
1.787947128233649844e-03
8.218401802491689598e-03
3.674223342112206518e-03
1.007549487548689733e-03
-9.647530547844543683e-03
-4.060865113445598362e-02
-3.322032685139889724e-02
3.303750309253590881e-03
1.168770952764760541e-02
8.391460053630474952e-03
7.003825763138999891e-03
2.324060338699208191e-03
7.519352035630123832e-04
8.894822571820296120e-04
1.420434421759393618e-03
2.289539015823217460e-03
3.551695984180270379e-03
2.460756255914521486e-03
2.152659570705191348e-03
5.557005774549021553e-03
4.345400755734094358e-03
3.574389402655115278e-03
2.340465552888376481e-03
-3.994544192769945018e-03
-2.915485938804260671e-03
9.259030810295695033e-04
1.037219669055401174e-03
3.758967325605949098e-03
7.229029130136976379e-03
6.046993886579376393e-03
-4.161166976874277538e-04
-2.483101472229636182e-03
-2.862818271111609338e-03
-6.977273414553959718e-03
-3.525463656676521701e-03
-5.069650068977174864e-04
-3.249668673067246730e-03
-1.910921469231731265e-03
-4.890901021187232757e-04
6.865160894747348837e-04
1.373731717225541975e-03
1.164535814246215988e-03
1.115061420184340754e-03
-3.760667195377348938e-03
-3.715781050302923751e-03
2.159549597550715697e-03
3.356447079104255514e-03
5.026721381527868814e-03
4.760320356522343074e-03
-3.044275133091156084e-04
-3.197841356469885172e-03
-5.032172001518436105e-03
-5.391809341694067149e-03
-2.815215747399759955e-03
-2.847358095692453014e-03
-2.877580868832747309e-03
1.765471830315120706e-03
-1.130020245105083391e-03
-7.774682887584013005e-03
2.726313095726885143e-04
7.151231219858664341e-03
2.741653745594682928e-03
-1.416344289911617869e-04
-3.082578044564138284e-03
-1.992964517012843408e-03
1.910910693836610167e-03
2.124391592628940492e-03
6.522897636979742113e-03
7.528839576668010930e-03
3.269110506742080573e-03
1.898571970083335865e-03
-2.861481369463883886e-03
-5.550847379403149769e-03
-3.958782466831198797e-03
-4.146288304214945479e-03
-2.462269786475852762e-04
3.813087568116690571e-03
1.341082380849229058e-03
-1.818803101602034207e-03
5.536126604592750368e-04
3.226040196871518117e-03
-1.864770766716038230e-04
-7.233258066663555432e-05
2.007643968184795718e-03
-2.652406280121767310e-03
-4.303564662530243515e-03
-2.426884294032979634e-03
3.754555416656426398e-04
5.767385339052532450e-03
4.498776704774387625e-03
6.306362913290123034e-04
2.456953315394570054e-04
-2.781751667674655856e-03
-2.828413360028462879e-03
2.846044196266855463e-03
6.014322245352561082e-03
4.544298964768035860e-03
1.433920799501855765e-03
1.329154533390361102e-03
3.606014841754185719e-03
4.830989830588372979e-04
-5.421013058080157571e-03
-5.297798232267016648e-03
-5.393468031669266388e-03
-9.626301443348824968e-03
-9.908417809774401272e-03
-5.909082217581118450e-03
-1.492505951636438144e-04
3.510461987816500349e-03
2.867406756889517502e-03
3.860287237110578140e-03
4.165888611012687030e-03
3.017754903059144053e-03
3.468476460700441188e-03
2.516532648543677239e-03
3.625257100394903981e-03
4.241732938856468058e-03
1.470415302880640797e-03
1.625125033968970048e-03
2.803819527811916281e-04
-5.909058770211152688e-03
-1.209173332921759970e-02
-1.179252637295686440e-02
-6.821848747258631857e-03
-9.457350798451244142e-03
-1.237669977844610067e-02
-6.394758622117948689e-03
-4.763339829983732465e-04
3.354117907555856197e-03
6.794095318032791070e-03
1.033873296101256792e-02
1.396402316270115018e-02
1.545026961030475376e-02
1.377220736357051556e-02
1.287042014379756981e-02
1.786880653215206644e-02
1.640406525853101843e-02
7.638184929855140921e-03
3.487742401654678973e-03
-3.887495143415573614e-03
-9.305354823716681725e-03
-1.096443153406934448e-02
-1.451749276985802098e-02
-1.208958818962804771e-02
-1.429189595217416654e-02
-1.268419550646382454e-02
-2.987530969786503232e-03
-8.354095693571391909e-04
1.553852875132499291e-02
2.036361737125057247e-02
