4.294696528440935732e-03
8.144315887126033285e-03
1.024741196200954114e-02
1.406335437707169171e-02
1.455156155208382242e-02
1.416501128958787617e-02
7.715472545315876784e-03
2.133228619353273129e-03
1.430094940744862787e-04
-6.546844212642032035e-03
-1.141123754666914167e-02
-1.384730948421501913e-02
-1.449703712153027277e-02
-1.356329383767684339e-02
-1.494758218664855344e-02
-1.360689814331535186e-02
-1.479069523236433217e-02
-1.535985902142806940e-02
-4.821797566054075203e-03
1.711037666111425238e-03
9.897277672222017098e-04
3.196074302135631321e-03
4.112727566255944961e-03
4.229965626277633513e-03
7.332971552906184139e-03
1.060028766704161803e-02
1.022871869861594583e-02
6.769649919244875511e-03
3.609871968747728043e-03
1.446006747667522843e-04
-2.417848054354972565e-03
-2.531936717287660080e-03
-1.859192847609793730e-03
-7.986030588925143977e-04
-1.911779233509736673e-03
-3.182249348802024865e-03
-1.339654374598520190e-03
-2.239790345956622040e-03
-2.035793870854471586e-03
6.019976950399852367e-03
9.817524812112867622e-03
5.235567343703478871e-03
2.469381547892645409e-03
1.673736374343994925e-03
2.007089244817141915e-03
2.710444616091358706e-03
5.137403545216624040e-04
-3.271589903770676284e-05
-1.889098391303255502e-03
-5.908097073118638923e-03
-2.217935798393704753e-03
2.992286874531161498e-04
-2.852726786711237694e-03
6.193139644392907698e-05
2.292241632380454842e-03
-4.972809324107390141e-04
-1.687404940867452945e-03
-3.354095108840954558e-03
-1.868100424989163144e-03
1.804218960876161201e-03
-4.376297584867169365e-04
-2.736883164407800592e-03
-3.154775551207695660e-03
-4.477917801199459737e-03
-1.449710023577967591e-03
2.515473776472868482e-03
2.003450212635143370e-03
3.446223179632606961e-04
-1.827919366889235253e-03
-4.038659158925048467e-03
-3.504890064818506554e-03
-1.721761801549052213e-03
7.676590887243097631e-04
4.622729664010599877e-03
4.540952006806014962e-03
1.555799351608884440e-03
1.897997262636595423e-03
6.600251784626182290e-04
-1.464420878333199056e-03
1.125965650111263473e-03
2.028512768199609070e-03
9.116595106508346537e-04
2.166131287684973025e-03
2.440181434749065775e-03
1.236840163389735020e-03
4.180639884267486916e-04
-4.880850997172077712e-04
-1.524367682981785056e-03
-9.542594265752253916e-04
-6.374665738059060545e-04
-2.468671845405143433e-03
-2.031970538719499262e-03
-1.130190426122492644e-03
-1.242208945681605795e-03
2.496364771298582668e-04
8.578268263711000578e-05
6.527868543101859964e-04
4.981739646561427013e-04
-3.191479223785807263e-03
-2.084391041313363429e-03
7.983540884167553966e-04
8.652512673827704795e-04
1.073152726811171863e-04
-2.460326192853355774e-03
-1.650049700822120392e-03
6.487110921129703037e-04
-4.880451697203892119e-04
-5.212447805945987509e-04
2.873646248942784889e-04
-2.758308770563657050e-04
-7.567827136125676981e-04
1.971486868265771505e-03
6.035655464462923864e-03
5.567313042492819976e-03
2.107570789453009057e-03
-1.753019033167113345e-03
-2.743517417176995644e-03
-2.531834859884980662e-04
1.201940288944264865e-03
3.455257079028909058e-03
3.721301178402694736e-03
-8.528390340150856543e-04
-3.584848341053522083e-03
-3.012211111390341277e-03
-1.042244250820801308e-03
2.285847874020304241e-04
1.693161427038335351e-04
-8.627724643632570878e-04
-3.473897982800047170e-03
-3.245383077484532367e-03
-1.898272738475962999e-03
-1.273959780287662463e-03
1.304961976992155461e-03
1.206427881732715854e-03
1.518837300139864880e-03
2.486614314189131147e-03
-3.041856103040580309e-03
-5.401597496618668233e-03
-2.103657439216829181e-04
3.151151268791069302e-03
2.608170707390680687e-03
8.695440638446399507e-04
4.552682034077307552e-04
-9.429556994933320588e-04
-4.541490599964125713e-03
-4.211891188802446492e-03
-1.764816362287947903e-03
-2.040213223822645236e-03
-8.866789322939100512e-04
9.176877663274717869e-04
1.958705367680584476e-04
1.746657782135057659e-03
4.110147366305729431e-03
3.755774362208188274e-03
3.894081454013963769e-03
2.674026115536296162e-03
4.437923441166632065e-04
-1.333896299472250055e-04
-4.925470429115034240e-04
2.311035389767963043e-03
5.018557186643838285e-03
2.498686733656059911e-03
-3.497723768500591180e-04
-1.719474681021539641e-03
-1.293342493628104163e-03
1.637384805003797971e-03
2.145983628977447127e-03
-2.938588709080936553e-03
-6.758362962884617055e-03
-2.534260542571246163e-03
1.575953119570391294e-03
2.546700671137949734e-03
5.955092803491468176e-03
8.066223595214434133e-03
7.789632545063651659e-03
-2.211194377750236566e-03
-2.285832514132685525e-02
-2.591649008505156337e-02
-9.180739235710944079e-03
1.037038950470296761e-03
2.779112095020607517e-03
2.558895817624771540e-03
5.639667397156313596e-04
2.902742456778291879e-04
2.639417576772891405e-03
4.723270940903611867e-03
4.016617224565556359e-03
2.517602448186127828e-03
2.521803439592742394e-03
2.279511515897639402e-03
2.673277376647694315e-03
3.613139469282342173e-03
2.018615417828435558e-03
-7.716186016374756355e-05
3.899834547971890546e-04
1.800581068835228199e-03
-3.609174400217032109e-05
-4.751454011347230021e-03
-4.637068357859794147e-03
2.588120923340611612e-04
2.959437663197433260e-03
2.391742619107528785e-03
-1.373217553594543398e-03
-3.932696929338649720e-03
-2.926204310065968518e-03
-2.954982754804212283e-03
6.763689981599409857e-04
5.512454398587485031e-03
-2.770423352680605146e-04
-7.663863333977553004e-03
-4.393082642357578997e-03
9.576872004834935566e-04
1.294976384429733039e-03
3.792534005084688062e-03
6.303365525443096161e-03
3.829071174240943152e-03
3.677180012898743217e-03
7.448773878781980023e-04
-3.703213219410405113e-03
1.113007052533618790e-03
3.305677466323440287e-03
2.055466411523816043e-03
1.880982369273194281e-03
-2.099835443991829396e-03
-9.109325942101269974e-04
1.931751313655844784e-03
3.293741420936985125e-03
1.244983047663062153e-03
-1.561196934587760939e-02
-2.073342023945375090e-02
-4.773143034165521631e-03
6.210311857279895986e-04
-6.501453355996054820e-05
3.814466320774922981e-03
3.637187090474265291e-03
2.031334691442021351e-03
2.049044544227640249e-03
2.278472461405638659e-03
2.669367864663705400e-03
3.713232370233220721e-03
2.296440319184937014e-03
-1.997743187261596595e-03
-2.436124246276112799e-03
-7.066435123683373907e-04
-3.026615978612320055e-04
-4.706689749799477834e-04
-1.141301148929214828e-03
-1.587670750608806945e-04
8.901212756031731069e-04
2.218679795110502489e-03
3.886634566159226194e-03
2.165213725608865561e-03
9.474780253883061196e-04
1.246962697948254860e-03
3.730711530388131688e-04
1.330395969206606848e-04
-8.187356779958403653e-04
-2.367260127424406467e-03
-2.190024721058179361e-03
-4.206784075653647171e-04
3.843790176794997511e-04
-2.365197718488039769e-03
-3.807531527052718159e-03
-2.748621009532855111e-03
-2.857840601418936734e-03
1.285229768854640256e-03
6.766380218920424114e-03
5.132147445473649386e-03
1.824577363450932731e-03
-7.617265094388789987e-04
-2.048156955422548997e-03
8.210755760087808152e-04
8.757061547980669099e-04
-1.050274442794860369e-03
-1.836451359255315667e-04
8.522881778600044844e-04
2.115613704502775690e-03
-1.224802136341145500e-03
-5.047669511997848919e-03
-1.160675476116709327e-03
1.461354630382832517e-03
1.878522051319447047e-03
-3.797593867143520766e-04
-6.277878958869108003e-03
-3.874824313351685114e-03
3.758182875069943259e-04
1.590757580727795756e-04
8.697353480329217705e-04
-2.024485691993562625e-03
-4.363106109113500629e-03
-2.320232768819475728e-03
8.048872081239385546e-04
2.365346516405498166e-03
-2.662189126837623114e-04
2.505228449994597109e-03
6.308166586060959778e-03
1.948270568667087588e-03
2.479795333773844417e-03
4.588368777631971623e-03
2.327415994338880544e-03
3.458647446686777434e-03
1.719770307264229491e-03
-3.130625756574607812e-03
-4.076846222654293729e-03
-2.609122034123043977e-03
-4.697001638869249514e-04
-1.859431874956370958e-03
-3.469027353213588113e-03
5.834246164813438685e-04
1.936461302484080533e-03
-2.129254947597220872e-03
-3.090398591791796833e-03
1.043589707577780154e-04
2.610337437673079103e-03
1.737431779363287233e-03
-1.088383010946654232e-03
-8.773035708497980544e-04
6.593526483182599561e-04
-9.997317906838940234e-04
5.090959308530483866e-04
4.778918984816860061e-03
2.734037064672849467e-03
-1.015989482934596521e-03
-2.560779690598716241e-03
-4.619801206606535468e-03
-3.224920943394908243e-03
6.995056410833719405e-04
2.193017185337716758e-03
1.718288842066797691e-03
5.078255039060574488e-04
-5.411454170998739911e-04
-1.137508508132987475e-03
1.518015888776537122e-03
5.793439090310859539e-03
3.759597387068176495e-03
-3.924283395098607133e-04
-3.148103138452742079e-03
-7.856543635961098573e-03
-6.557849370053867900e-03
1.072693554509575407e-03
4.434488042915263675e-03
2.657275320035793181e-03
7.944169142923241875e-04
1.153846241129142516e-03
-8.828445530380059402e-04
-3.051745400181860978e-03
2.263790209589973640e-05
4.510543842966472879e-04
-8.986337104669497302e-04
-9.681764997143523172e-04
-3.660564305545250391e-03
-3.132333584367036263e-03
-1.033047611024245352e-03
-9.532983150074526239e-04
1.326201529770254951e-03
3.190561253899893042e-03
2.773566768585152865e-03
-2.969724928492305043e-04
-4.869405983066698836e-04
4.568343596048273988e-03
3.651086880238969823e-03
1.294871752501763386e-04
-4.110622657781459808e-04
-1.582443761080881911e-03
-4.040405975818950877e-04
-1.120179291716704134e-04
-9.540226451850672721e-04
1.970297533475162243e-03
4.293147999676502798e-03
2.944547696686262983e-03
-6.983512542060735587e-04
-2.526864389130904342e-03
-1.913700142675007175e-03
-1.000226860208994640e-03
9.219872756045187877e-04
3.683803980073957138e-03
6.889256740239075617e-03
3.139794477083533708e-03
-3.403023205180086275e-03
-2.269341431342893501e-03
-3.017244678166609330e-03
-2.510455380757135218e-04
-1.290987255353234059e-04
-1.890855086445777586e-02
-1.872115845207321036e-02
3.001270617484794526e-03
5.521882076415496853e-03
2.889493426430569598e-03
4.201704594071075001e-03
-1.006394752446384579e-03
-1.572549281074075815e-03
5.369781905033290618e-04
3.802046304674023321e-04
3.021290903005141408e-03
5.266373876944964970e-03
3.960725534710051420e-03
2.223225208641659185e-03
1.547931574711508638e-03
5.352254368176913519e-04
2.217163497906673650e-03
2.572943153540216410e-03
-1.948408082390482889e-03
-2.574952292319299335e-04
2.301684011512556555e-03
-2.168044906818011354e-03
-2.287724150460886900e-03
-3.355966900444690647e-04
-1.410044191804759629e-03
2.753527418372121857e-04
9.524697365941453022e-05
-4.599392808655142738e-03
-4.433127034420418153e-03
7.858400850123773438e-04
1.830970957151359596e-03
6.575425929642417277e-04
1.268635551502035174e-03
-2.562064409916085523e-04
-1.521114731468980064e-03
-9.943509604282911151e-04
-1.003516785843746283e-03
1.637744294891496644e-03
3.801294625894277579e-03
1.069118495175922163e-03
-5.505652316487442792e-04
2.926258776880016747e-04
-2.257062738880443484e-04
4.495172986211101252e-04
2.237730095581580252e-03
1.713575522857825129e-03
4.354645421352341017e-04
-1.412196988271835789e-03
-3.589366024772958942e-03
-3.476739823483509639e-03
-9.133293277091463283e-04
2.714745657510988976e-03
3.134162414964909889e-03
5.780593008092519813e-04
-2.402871134471293042e-03
-6.160231987441259355e-03
-3.838990114818092991e-03
1.446418985966002949e-03
9.948924518544683803e-04
1.590679113650428703e-03
1.956683644181343110e-04
-5.196030708284078876e-03
-2.134380762556164005e-03
1.922356868137856372e-03
3.725600442667390075e-04
3.507657348894734246e-03
3.507124183441547027e-03
-3.856116072122261866e-03
-3.031611392097301270e-03
1.094746921935861378e-03
2.627716898572892085e-04
4.180224640311705313e-03
6.284549534701634917e-03
1.252697227712620993e-03
-1.665267958213508871e-05
-1.396123806370310350e-03
-3.273624073001778385e-03
7.029214261962308825e-04
2.827526706179490229e-03
3.274561339510896445e-03
4.563333409225525140e-03
3.872008531880558827e-04
-3.581235675000505464e-03
-2.254384458620411081e-03
-2.287070560561305262e-03
-2.122380908354691478e-03
-1.969408330477302933e-04
-2.115202402066898926e-03
-2.496158387553408693e-03
-4.762301402511124942e-04
-2.479538794813752889e-03
-9.056619630763023971e-04
2.736323506498501701e-03
5.851646973294758435e-04
-9.152038266632893208e-04
-6.766651246057923865e-04
-2.691068080891537194e-05
1.646706261327259262e-03
1.949476419606839626e-03
2.070259982967559420e-03
3.409285250179666009e-04
-2.485723376895253734e-03
-2.955873985107055311e-03
-1.708935377350191426e-03
7.782923493825691895e-04
8.713765686312764918e-04
-3.773781296157681419e-04
-1.098121671260062588e-03
-2.259192241668440179e-03
5.438016988530318743e-04
2.287634415597948612e-03
1.066341253284646675e-03
2.991139308752773646e-03
3.640538599651381522e-03
2.368102888937809614e-03
-3.998753908868399884e-04
-2.644863001402535108e-03
4.171298733203854876e-04
1.163793253317638122e-03
-1.854150199820717420e-04
-8.585438731077662308e-04
-3.749974281756818066e-03
-2.454433783722782640e-03
1.540661285949257355e-04
7.014100044219531141e-04
2.227962099019078525e-03
-6.985333182133587546e-04
-3.808417374352562543e-03
-1.170594631840417938e-03
1.914651042122584570e-03
2.011162077050005631e-03
5.716292272279568671e-04
3.080708141116209140e-03
4.716899677101157352e-03
-4.594866329105131136e-04
-3.525256195995802970e-03
-4.204611526334649935e-03
-4.449895013127157933e-03
-4.704061213366081146e-04
1.317015505463609601e-04
-1.667249171916249020e-03
1.942100619445960227e-03
3.011374359719484490e-03
-8.640651186640089729e-04
-1.830503884902708652e-03
-2.412679697593333344e-04
5.893683859062296597e-04
5.667196634770770231e-04
-9.457869879762992424e-05
-5.422826321013074361e-04
1.546069966880571009e-03
4.986455329670272732e-03
4.663003755904717058e-03
1.642317362113398420e-03
3.158003347857962859e-04
-2.985074334321753762e-03
-6.969330329189413718e-03
-1.541726327038195560e-03
5.246721676019196548e-03
7.119277338778274341e-04
-3.937477041736559512e-03
-1.246638668032407603e-03
1.409941045982418236e-03
1.908499523817410804e-03
8.817784360732426737e-04
-6.218907497694044911e-04
-1.808181391194235710e-03
-1.977169483693344901e-03
-8.238326749048893900e-04
-1.207374802742288648e-03
-2.669656847684037399e-04
1.756152418169660114e-03
4.948011378708999262e-04
-2.748066685359966876e-04
-1.753276791681091353e-03
-3.876882980254199758e-03
-1.301548548798965718e-03
1.555532698543582015e-03
1.244186964126553106e-03
-9.013961960277533294e-04
-3.226760498687530464e-03
-3.182914612203268778e-03
-1.110986953844009858e-03
1.736048553036666177e-03
2.560857050045787977e-03
2.297729417783318882e-03
3.372675554566781711e-03
1.663843445141476767e-03
-1.552037783412757877e-03
-1.254820839442468035e-03
1.649484172269243681e-03
4.697651377957119331e-03
6.154991462797091729e-03
5.834710608511599512e-03
4.584738621733674621e-03
1.605544094300735388e-03
-2.643366695333957805e-03
-6.521804471936531273e-04
4.864438923800847026e-03
1.395960946089021271e-03
-2.804150479287295661e-03
-2.334521807195529160e-03
-4.902197037146624817e-03
-5.961096005184980846e-03
-2.282961294304252427e-03
4.609400035386935178e-03
-1.273041396484089413e-03
-2.102200829330134677e-02
-1.604573881495129084e-02
1.993736847219482796e-04
-4.168595306295186029e-03
-1.630462140637598629e-03
7.608731770190776261e-03
4.704500185225855835e-03
3.269554773227476008e-03
3.379293588269791180e-03
6.556088716195146437e-04
1.879715320972543367e-03
5.571381549377140384e-03
5.177967741598157349e-03
1.547792411804504867e-03
1.220465973877517100e-04
-1.323768398822561688e-03
-1.387991532284414990e-03
2.730965052593308309e-03
4.009642715861593855e-03
4.600370594928680432e-04
-2.391182231995736367e-03
-6.476842071030888435e-04
5.846526718232291676e-04
-9.215876664145224943e-04
1.032161950984848350e-03
2.925012147684575344e-03
2.674436576166575909e-03
9.610528886441256245e-04
-3.271228554566686132e-03
-3.915905003051272683e-03
-2.483855905624359015e-03
-9.271000613669480193e-04
3.776687733740384241e-04
-2.575356160166730572e-03
-2.752938368435674243e-03
-5.108853950737998317e-04
-1.029059947048789787e-03
8.411799711496571698e-04
4.034170248713930644e-03
3.375169781448032497e-03
-8.878415260958637039e-04
-1.021394079819100669e-03
1.587119738349897832e-03
-9.720774691894084728e-04
-8.917232869264313721e-05
3.723067132704968585e-03
1.695660919701374178e-03
-1.527766280233728863e-03
-1.728750190636188077e-03
5.526983224941686441e-04
-5.868165985905727123e-04
-2.293550008336492189e-03
-1.887731726177982678e-03
-6.736368485701880147e-03
-5.119776026268437440e-03
2.534636906507956641e-03
1.891414995908812348e-03
9.267616917527771430e-04
-3.096663316273859249e-04
-1.298406986055311617e-03
7.858390575386321525e-04
-3.243366166036701879e-03
-3.706435292257292263e-03
2.138264766557458965e-03
3.132086451447929458e-03
4.645718138638404646e-03
4.454469810446441691e-03
-1.089678403282276237e-03
-2.843074158577342352e-03
-2.758122312769152162e-04
1.946865047965746923e-03
2.570020602587386356e-03
5.310727265352879322e-04
-2.057195620728924802e-03
-1.319435304129556487e-03
-3.206248537588555353e-04
-7.481169847789539713e-04
1.888131239839101845e-03
3.887622676405967561e-03
2.612413715231446613e-03
8.122611199003835613e-04
-2.132863149607019948e-03
-2.395014336802822174e-03
-1.044226543820768569e-04
-4.456470897240891313e-04
-1.144747550250723453e-03
-6.057127157426561194e-04
3.164226349087666886e-04
7.003451784633947822e-04
-1.207101219963306171e-03
-2.778126365218830558e-03
-5.473403854559249918e-04
2.719798023989179400e-03
2.467599413162643862e-03
4.962928820612319547e-04
-1.476867676168321184e-03
-3.591465442774167873e-03
-2.022790737498490667e-03
2.263403244320257371e-04
-1.227447798475862903e-03
-1.990965864986028906e-03
-1.705881386224537182e-03
-8.618653671668695697e-04
1.415865402335426135e-03
2.295833325992489675e-03
3.782913986624062558e-03
4.697264590003294958e-03
9.095131837427437079e-04
-1.125596375728473699e-03
5.178493897027574991e-06
-5.065592329949384059e-04
-4.813437662791774426e-04
1.338432015352673148e-04
1.975655015118346614e-04
-8.234417236586078154e-04
-3.546532764567342840e-03
-2.013438719826393143e-03
2.396268260831016083e-03
1.730085117436452619e-03
-9.819731020522259619e-04
-9.451079101675302543e-04
-2.890175586625122212e-05
-7.538182478843130771e-04
-1.505631591824843803e-03
-6.901432130768919010e-04
8.665185336039655248e-04
3.307946702983316934e-03
1.955878973836644441e-03
-2.261352993696873811e-03
-2.372525499774503794e-03
-2.530708904560089595e-03
-1.821304281391187196e-03
2.025414935303396918e-03
1.383299744385961452e-03
-1.585252304404983527e-03
-2.620490714474441041e-03
-6.354325187177643905e-04
3.731262311087200217e-03
4.023203852493674113e-03
3.621196969428695008e-03
3.946193711001508286e-03
6.490407634797093917e-04
-1.525454885651923850e-03
-2.031515240173595218e-03
2.480155679826563805e-04
4.737834871197254757e-03
2.456753752302362221e-03
-1.610486540065566869e-03
-1.034107518685664986e-03
-1.724858306532305518e-03
-3.873743688224853647e-03
-2.769657189626173292e-03
5.287057703743851342e-04
1.206690502848940067e-03
-4.329065818457989638e-04
-2.595340244860021382e-03
-4.503006354679979333e-03
-1.610682938721159181e-03
1.943229916731685231e-03
-3.725465246824517492e-04
-3.389396798379139090e-03
-3.032456121948895206e-03
3.847308315652285798e-04
2.764967903359018351e-03
1.648661188008380615e-03
3.533800758525464797e-03
5.620808370020730776e-03
1.072862646310678751e-03
-2.192641339346519582e-03
-6.972625425456593115e-05
1.271483985856816223e-03
1.029393413665949343e-03
8.917494091038888435e-04
-3.576896238279564247e-04
-1.887472893434622573e-03
-2.415976269123375295e-03
-3.643239207141631911e-03
-3.573766666159355031e-03
3.497690373424964367e-04
2.518845272254607772e-03
6.078969423778750845e-04
-5.041753872032440128e-04
8.052402368418680933e-04
3.821406866584228703e-03
6.111190546820813307e-03
6.436728546336486535e-03
6.987404721554855806e-03
5.675269881847211720e-03
1.627462835222399365e-03
-1.603555743842886155e-03
-3.427489904565238395e-03
-3.137431849053433884e-03
-2.208683028803690683e-03
-4.128153807188658653e-03
-7.563895279354245632e-03
-1.012424462903077291e-02
-7.795673656944102775e-03
-1.860530347996117162e-03
2.032285589754045940e-03
7.474396809542995478e-03
1.077680959931882204e-02
6.578650053938851772e-03
-9.308798717095718381e-04
-1.327712538051325358e-02
-1.315451933944988480e-02
6.093969867380215691e-03
1.169664278783420948e-02
4.084545442119728170e-03
-1.221726539444420575e-03
-8.338034146820997444e-03
-8.955647988083891356e-03
-7.857167724450091900e-03
-9.371593199691986148e-03
-5.219878705688098079e-03
-3.687552971968796438e-03
-3.755851240036124812e-03
2.946822944266310742e-04
5.895168293407923935e-03
1.121008511828218077e-02
1.178941727963318635e-02
1.004873826216422066e-02
1.458208660260619516e-03
-1.181312460654992784e-02
-1.035355463540625805e-02
-1.289373944052517058e-04
2.607764583397214481e-03
-1.432130789197087013e-03
-2.548469134354264514e-04
1.394751458981729163e-02
2.414512214528486550e-02
1.965986643367030606e-02
9.258803024409826068e-03
-1.815087027082649225e-03
-6.330256337668847127e-03
-3.098763992296202710e-03
-1.548869270058554539e-04
2.800097084352130405e-03
9.981899480658019269e-03
1.857920742954743271e-02
2.289620186249781419e-02
1.866179022365203541e-02
3.727464929040459791e-03
-1.398805522159230971e-02
-2.230688370273871055e-02
-2.446722951927466499e-02
-3.249539764191110292e-02
-3.546153885497708991e-02
-2.601883855704602636e-02
-2.785122214419981715e-02
-2.652660307875306239e-02
-9.933223524006937373e-04
2.405069305437053731e-02
4.916741197170858280e-02
4.955459898629376719e-02
2.919368605709164667e-04
-3.421004596642441414e-02
-3.538071176789919087e-02
-2.747939527974404064e-02
-8.130324436896391865e-03
-3.216603793198262343e-04
-6.757336047134443989e-03
-2.229282514156876935e-02
-3.944739726729276641e-02
-2.271389909772539295e-02
1.051790831381936575e-02
2.296217124105357985e-02
1.696568434492317853e-02
2.142489166986642074e-02
5.930786282592002273e-02
9.359707145673099027e-02
8.664208408508583537e-02
4.167058259319108421e-02
-1.604727961675871117e-02
-4.883418166134768923e-02
-6.184544324097114576e-02
-6.430580586699674583e-02
-4.447299663528887781e-02
-3.892004429549942614e-03
5.174583277397912934e-02
7.983575018417941871e-02
6.909416947433953682e-02
5.636676860962033103e-02
2.866230634555370221e-02
-9.756163819683269815e-05
-1.331062800735362782e-02
-4.728620984629774288e-02
-7.761053472255237395e-02
-7.649324390443476562e-02
-5.505381640158690804e-02
-1.106716400450939719e-02
2.608421060481207893e-02
3.471810113091315653e-02
2.495936341211139539e-02
8.889465470055955137e-03
-2.288963975757135063e-04
-2.059547837360467537e-02
-4.361837064563391791e-02
-4.372113804042007668e-02
-4.486312132318372864e-02
-3.475693504538581585e-02
-1.512777155248807431e-02
-3.061223224336826268e-02
-4.082829411765884903e-02
-1.417346474678598221e-02
1.759195638263381239e-02
4.320341611285069550e-02
4.564787633720453208e-02
3.336010259220126284e-02
2.677288820175289380e-02
9.266244111917163340e-04
-2.876443565126124771e-02
-2.003375837069306872e-02
1.290341691053862282e-02
4.161245272068816309e-02
6.053121711070346550e-02
6.498864424956792007e-02
5.123502451504231142e-02
3.980141712993932879e-02
4.299193726411747879e-02
3.790715336002013769e-02
2.020235457411360958e-02
7.154310523118992231e-03
2.084951165754821145e-03
1.293970779080689257e-03
-2.637975136956008902e-03
-9.168402192439042975e-03
-1.305566922066315680e-02
-1.870004201941118105e-02
-2.291276782054925062e-02
-2.597988637056318495e-02
-3.022231991140450144e-02
-3.384069656139612053e-02
-6.081606666806501499e-02
-1.067974425230912572e-01
-1.288147713308239461e-01
-1.245402840173303188e-01
-9.194551991024679793e-02
-1.327077618798262401e-02
8.448536326130941243e-02
1.416352319778272917e-01
1.197054348320652217e-01
5.651490649355200152e-02
3.027609085582127005e-03
-3.641888667342145502e-02
-3.989442531535118686e-02
-6.319921717142413208e-03
3.059606387022890603e-02
6.009727160135049789e-02
5.556636230832550510e-02
7.893201662936864121e-03
-3.095489275538869725e-02
-2.828455083865537636e-02
-1.228671213319428891e-02
-3.467450772041769450e-03
2.140067236932215178e-02
5.014135286539535968e-02
4.410732631327494296e-02
9.643583336303050355e-03
-2.610182100024432614e-02
-3.873946228622673210e-02
-3.301501239038120983e-02
-1.961410705086317000e-02
2.151570730161864176e-02
7.049661335765362857e-02
7.395903736617714941e-02
2.805059806485370524e-02
-1.681376616799683602e-02
-2.813841750968334998e-02
-1.772997776534765771e-02
1.897586272868808863e-02
5.998066422655358443e-02
3.976498568028425523e-02
-2.461375642619868104e-02
-5.144239178384204386e-02
-3.164759862847614513e-02
-1.738076141597458962e-02
-1.148134514177420393e-02
-5.499641676741276290e-03
-1.967924507948981203e-02
-3.913140335400647901e-02
-7.167032962760876147e-02
-1.301844450160024591e-01
-1.610993741961505576e-01
-1.320650548229106991e-01
-6.116086324128373886e-02
6.498424679535887670e-03
6.253747762026747037e-02
1.297037050718522488e-01
1.545633991738322166e-01
1.179390657520655999e-01
6.683261193041416248e-02
2.064671279270974963e-02
9.740692811602072454e-03
1.320166820330451012e-02
-3.019113554205704684e-03
4.957334577426367010e-03
3.469700460001429870e-02
4.228376189747398706e-02
2.035354501315367673e-02
-1.651404662415406274e-02
-3.541940837458986552e-02
-3.274969503220011985e-02
-3.864301384840389958e-02
-4.128767816454593370e-02
-1.960689632388526796e-03
4.496924322498377369e-02
5.054287404488450042e-02
4.557476058728444218e-02
3.770167503975418999e-02
2.436196546105363209e-02
3.356010965893150427e-02
2.278779138404174107e-02
-2.942902257598118895e-02
-6.217476317575038741e-02
-4.911545574805243480e-02
-1.502141364927185758e-02
2.449927361638221286e-03
-2.988055514045223800e-03
-1.333375294302705308e-02
-1.765685106629413456e-02
1.009749803644332915e-02
7.342593389451937402e-02
1.156432384908947092e-01
4.853652023910315361e-02
-1.177075817177478390e-01
-2.553492403324821303e-01
-3.245615877954712847e-01
-3.092778282688667946e-01
-1.776791053324103531e-01
-1.569847786026583314e-02
1.845945225783440780e-01
3.889918049083892493e-01
3.293537095110637969e-01
4.027973793832226312e-02
-1.652130070722972743e-01
-2.202414821857350269e-01
-2.089887071244780625e-01
-1.410204812734993929e-01
5.107141098339381541e-02
2.893240027471806752e-01
3.283927942053169735e-01
2.123229992772524277e-01
1.702177542673525279e-01
1.799089556060319561e-01
1.520565402483596562e-01
1.059957699472939552e-01
4.966675755638047529e-02
-4.084218678927145629e-02
-1.491546504926206385e-01
-2.107860114517898231e-01
-2.135696223251925818e-01
-1.672845239171004972e-01
-4.357613820837147323e-02
9.758040183526062172e-02
1.319731158801656645e-01
4.673570634143293934e-02
-6.433698088066952536e-02
-1.265607305480022649e-01
-1.194738566377803318e-01
-5.619408247353709779e-02
-2.174664613374348646e-02
-7.275622965419097088e-02
-1.311111742929814139e-01
-1.596461605158059904e-01
-1.693728676199768579e-01
-8.467795506826647500e-02
8.915053634994987708e-02
2.055968939748191171e-01
1.743685874825073867e-01
3.888686977467437772e-02
-7.689598666094855928e-02
-7.074187479854662786e-02
2.857686153411556976e-02
8.326640629361109491e-02
4.089785878783671474e-02
-1.603899122497609228e-02
-2.875833050217098050e-02
4.391141195188944663e-02
1.865382576448274543e-01
2.512769245761776737e-01
1.943812911815976097e-01
1.106969993123767954e-01
2.710129328051134531e-02
-7.596370035004780530e-02
-1.694675700861590362e-01
-1.761113229127259650e-01
-1.157139507284339203e-01
-6.357121116726863197e-02
2.218272864532679078e-02
9.453679012765504874e-02
5.520603021502563240e-02
5.417450054185125007e-03
1.101745752176935128e-02
1.588139948257874870e-02
1.338519260337346292e-02
1.332187688433900292e-02
-8.300502533559662999e-03
-7.999649753935018925e-02
-1.503393143693344813e-01
-1.510122702937420347e-01
-1.182990016343216100e-01
-9.396379003822447062e-02
-6.758466839382963609e-02
4.854586738442840548e-05
1.066845516786973230e-01
1.529308448112464969e-01
1.113800192421703222e-01
5.195658507522650515e-02
8.782767451852661542e-03
5.726873417211980621e-03
3.160372678756118159e-02
3.657237246275973908e-02
2.487069160755755667e-02
1.489390037166821515e-02
-7.232474014477644798e-03
-3.533576963244530050e-02
-3.953962108136226117e-02
-2.308084559612354550e-02
-1.226809120986712721e-02
1.668395970683090798e-04
2.147392775219138933e-02
2.826227559712779155e-02
2.007372474058850831e-02
1.463961854886798933e-02
1.063439930280061368e-02
5.150673137616893285e-03
1.628509605907226725e-03
3.530065018218152230e-04
-3.723017799398889438e-03
-1.369899693491774019e-02
-2.063842162857698961e-02
-1.906354488569532782e-02
-1.603489987164724226e-02
-1.611544044945783724e-02
-1.752372080717500696e-02
-1.410268926801845103e-02
-6.525181901558485542e-03
-2.451839765146726288e-03
1.959488478890293421e-03
8.703072297612439098e-03
1.270317830924782600e-02
1.473369135817856161e-02
1.247551647505765714e-02
7.026530948168427035e-03
5.930007722059259766e-03
5.202764835181105177e-03
2.144924935612580450e-04
-2.032503974851568567e-03
-1.595878548617829561e-03
-5.312131222161091057e-03
-9.882506644120783723e-03
-1.019665694884616322e-02
-6.210635581400153656e-03
6.909958251254583227e-05
4.253700259193251947e-03
5.332053026587258229e-03
3.644710787110104749e-03
3.078793483177581954e-03
6.931466706831225337e-03
8.342904054056361762e-03
7.226726360445735915e-03
5.515765350576245715e-03
-5.558586224135993962e-04
-4.634129528283712635e-03
-5.884863122272341283e-03
-7.995428506177140737e-03
-5.757552026978840151e-03
-3.219824993513715344e-03
-4.505829012452392673e-03
-5.783813810685492322e-03
-6.210633168135967080e-03
-3.497293795748620485e-03
2.972533262882886326e-04
7.863070807217277828e-04
-9.522468741600155495e-04
-3.257797853528400511e-03
-2.935369245519135143e-03
-1.895651592033754853e-03
-2.320850637639397616e-03
-1.854673435762720383e-04
2.299995965816224730e-03
2.359171061346409907e-03
-5.114093251238676025e-04
-4.006224578629159414e-03
-2.155185167810884546e-03
4.519683390221591076e-04
1.654577104046518537e-03
3.960013410176280169e-03
2.962124986289523584e-03
1.973138346908897590e-03
3.352226704763198572e-03
4.053074130871983649e-03
5.255892356757565186e-03
4.415534447007003066e-03
2.866128977090949288e-03
3.070029331789886091e-03
3.580612950306976934e-05
-3.644552446347417481e-03
-2.226504426626387239e-03
2.591490880059408816e-04
1.294994946612039888e-03
2.092593625267984321e-03
-2.738532505360414659e-04
-1.257101441513534118e-03
-5.108958617053430736e-04
-5.730350856145389332e-03
-3.683017062578960912e-03
4.559915773429549894e-03
1.998280773132378712e-03
1.048390828222377572e-03
1.017430727824381867e-03
-4.521447297159693172e-03
-6.221553190152025528e-03
-1.464994662906175457e-02
-1.920253689142983541e-02
-5.171937059305204559e-03
3.462980923302085880e-03
4.127324403424469969e-03
6.894008526481429713e-03
5.525710266115845155e-03
4.396163197116281438e-03
6.782892406955036077e-03
5.026104009149504059e-03
-7.693466992631751034e-04
-1.239711421531089876e-03
1.755940963657391402e-03
2.483229281942003590e-03
5.155409881328247915e-03
4.775200756549910670e-03
2.650681381464245609e-04
1.437502868236667031e-03
4.959694677338463698e-03
4.993530946176711130e-03
3.129904453380287933e-03
1.575580025266467123e-03
-1.551291871376516080e-03
-6.793131385861360221e-03
-9.686592576730893023e-03
-9.942984634281370679e-03
-5.419762610507515045e-03
1.096869595404141454e-03
2.201762521471457498e-03
-3.945957256031539222e-06
-5.099914860113643165e-03
-6.062190664440884544e-03
1.232049546985364372e-03
7.465141864370274799e-03
1.031534846870250065e-02
2.492056711428202679e-03
-9.443958311199877192e-03
-7.483116870392296158e-03
-3.301162856642993800e-03
-1.523814163890008190e-03
4.268588471859011309e-03
5.481888087330175942e-03
1.965559332503543331e-03
-3.754881178619467585e-04
-3.785648429143501515e-04
6.460412405153297425e-04
1.604884138932279958e-03
1.112141829250138042e-03
-1.286686681597741131e-03
-6.684493081615621281e-04
-8.740855997694894214e-04
-3.221139819400135017e-03
-2.649055935111454835e-03
-1.942375251882526863e-03
9.944378903159959825e-04
1.017893200270132041e-03
-1.225712679738863182e-03
2.993209703408643112e-03
2.136296209821408713e-03
3.410191875352307916e-03
9.226155338364083053e-03
9.269124884992248001e-04
-3.655881182475263346e-03
4.344289599362590034e-04
-1.106053331335137349e-03
1.324387236379918247e-03
1.674232137172697787e-03
-2.767515059962066468e-03
-4.929321369713513239e-04
5.703115773171356069e-04
-1.288843677573218039e-03
-9.467879804431782913e-04
-1.173708455616628930e-03
1.245303856583256704e-03
5.151758720001023417e-03
3.131922513975867167e-03
2.773321263254949123e-04
1.148847507795333059e-03
-8.503332976245965092e-04
-1.594196723170389438e-03
2.703210444263774367e-03
1.645354223528357630e-03
-2.887101924513103216e-03
-3.783416333621355751e-03
-4.511738606585978008e-03
-4.582726373470601307e-03
-1.875580601313277772e-03
3.618291769926142848e-04
9.302084459722516092e-04
1.163242613407385528e-03
-1.408975900676056551e-03
-3.802327772723067701e-03
-6.264110219803439806e-04
-7.155523366676986522e-04
-2.620660538283583422e-03
2.190166424458199392e-03
2.845435870851413009e-03
-5.130637707087190840e-04
-8.346985182989835215e-04
-1.562209484068998811e-03
1.688884781359166259e-03
4.143758105594037844e-03
6.906182134524419675e-04
1.827170619143064919e-04
-1.224422284060236238e-03
-3.282714274040991233e-03
1.847180266549436085e-03
5.579225423317044769e-03
2.742016755562945874e-03
-5.581475354759485698e-04
-1.849491470809658386e-03
-1.738670441772160406e-03
3.801236351940182664e-04
2.400542801887312928e-03
1.456997869399261373e-03
2.696580558450737113e-03
4.622799090332369541e-03
-2.043076277523207004e-04
-3.618062637578356878e-03
-1.284041164455018052e-03
9.411933338686151538e-04
2.853003545396137763e-03
9.654224192191508897e-04
-2.694447915604657184e-03
-1.382027065880207404e-03
-1.239496129446927657e-03
-3.381097904107132485e-03
-2.604539555538095460e-03
-2.013382601250269383e-03
-2.018093106030957769e-03
-1.216075999779449171e-03
-8.288203817402831249e-04
-5.946369843432817472e-04
-4.670492827184081802e-04
1.170869561493553639e-03
1.583557385445304990e-03
-1.452016978130322815e-03
-1.144184180049225875e-03
-8.737869671526612200e-04
-3.380810883915611863e-03
-1.150287707473932058e-04
2.538447868020569150e-03
1.240242706707333619e-06
3.847516372955078865e-04
1.462174838759481036e-03
-2.241048036279842887e-04
-2.471126661365721008e-03
-7.828779819212175863e-04
4.299506296584034055e-03
2.172403618323077469e-03
-3.356348002369055790e-03
-2.027034943414228723e-03
-5.358467754398188888e-04
-1.447047434695683879e-03
1.434501823206130785e-03
6.113810893348025667e-03
4.507015927934781598e-03
-1.599203319150664876e-03
-3.203774535673971271e-03
-2.944042255945466657e-03
-1.348113264859145642e-03
2.596955119337684015e-03
5.403647039484822884e-04
-6.203210449526467066e-04
2.212204381815440976e-03
1.932583382379120425e-04
1.415450674959017018e-03
4.233405012584729246e-03
1.831975542490681726e-03
1.405159895428730954e-03
-2.030033251743025991e-04
-1.876073992100224042e-03
-2.108961085063536906e-04
-1.693255941541979212e-03
-1.208375426620796229e-03
8.210612943307918268e-04
-1.775798729552854199e-03
-3.429610962023293529e-03
-3.726619923054448873e-03
-2.664890739654164793e-03
-2.016112391274928499e-04
-1.358393506539804191e-04
1.126544873362739056e-03
2.437929417558777189e-03
1.887885382151125368e-03
2.552314557281880336e-03
1.360145915245455916e-03
1.456021262539598619e-03
4.559971763161300116e-03
3.374178592142861467e-03
1.482497578758204928e-03
1.405361322700276593e-03
-3.329612868391533401e-04
-6.409216094665785217e-05
1.843675592019937545e-03
2.879334319237467511e-03
2.448825871675703366e-03
-1.363823552809147101e-03
-2.931826431976139978e-03
-5.895518029672160544e-04
1.440670407502406400e-03
4.557052092370068863e-03
3.888658202344712732e-03
-3.702778184687806166e-04
-4.620360071190929459e-03
-1.757379189878085016e-02
-2.447725797804392589e-02
-8.431621576263774800e-03
5.893524396121170399e-03
5.727815475148846300e-03
3.703383389053830146e-03
1.254153098120674385e-03
7.105539962719092072e-04
4.883690716079849489e-03
6.933753640405942650e-03
3.400797899824078204e-03
2.603445631686317641e-04
2.243370749942116826e-03
2.147620037734227459e-03
5.360376588550781925e-04
6.698929499630672940e-03
8.492492311064872568e-03
-1.761152961148815038e-03
-5.674773811982568132e-03
-3.143957233375543783e-04
9.938996539246738697e-04
-2.604974531320196959e-04
2.880562549846111924e-04
1.635808303465411751e-04
-4.861163359997416260e-04
-1.660756430279960527e-03
-2.794758143876109862e-03
-2.139036001581275017e-03
-1.582163185984116491e-03
2.409729421524404243e-04
4.387908214097366831e-03
3.413016691558075182e-03
-1.679130581936017202e-03
-1.704712614934957493e-03
-2.380220974875810018e-04
-2.574922346833962588e-04
2.311564164494571503e-03
1.701456276597074300e-03
-2.413607833733758153e-03
-2.557249837126365343e-03
-6.605641353578436265e-04
1.758046306720117925e-03
2.087536091754589682e-03
-1.188172410383648431e-03
-2.319845059060964085e-03
-2.627871526220648592e-03
-2.871343450409270370e-03
-2.371805849051733268e-03
-1.265077782752998354e-03
4.155681825817578862e-03
5.664041555485074472e-03
2.002085911665777394e-03
8.595399453566400678e-04
-2.541745105864537391e-03
-2.140495348690533116e-03
2.884534889150454015e-03
2.262205754519601517e-03
2.118863458986796830e-03
4.236710151107121909e-04
-4.778773892699129076e-03
-2.915589786104959454e-03
1.548988085335776914e-03
1.640616385858094080e-03
6.111436770220575292e-04
1.918017262823974549e-03
2.304703359203116864e-03
-1.202314508314033560e-03
-2.739345776890060764e-03
-1.845119548666334253e-03
-4.737424356144701466e-04
2.408198017987533187e-03
2.616475741089276368e-03
1.104321566414218168e-03
1.017597126671783599e-03
-1.482276206867208404e-04
-1.451528941616564991e-03
6.639093923880420509e-04
2.736943897396380224e-03
-5.985127904368738776e-05
-2.110292336557834710e-03
-2.085128414578779187e-03
-3.320867586653961437e-03
-7.924924148982263449e-04
2.126894233359084927e-03
9.069034373594957611e-04
-4.103816315357617555e-05
-5.913619167887394258e-04
-5.791818606834784906e-04
-9.811026052227492765e-04
-7.837148894181287986e-04
2.894561713342051583e-03
4.671567865677558017e-03
3.258834503149731464e-03
1.902561625423047052e-04
-2.350724879449252788e-03
4.960752137302478111e-04
2.644670373187798813e-03
8.222261302300892024e-04
1.128765255210841770e-04
-1.026949575211081548e-03
-2.867244820508036210e-03
-1.794693067619992487e-03
1.165309018536397900e-03
1.979446617881115353e-03
2.923562639279856583e-05
-2.068760152694815776e-03
-1.569367452748633837e-03
9.958759015741434819e-04
3.515670686326659604e-05
-1.437617177099976802e-03
1.548331499634341942e-03
2.260745407158530184e-03
1.489602294858931352e-03
1.456449284992553279e-03
-2.053435422316254606e-03
-2.488166841186338022e-03
1.332032627774247220e-03
8.549291966904222365e-04
-1.595873425463663689e-03
-2.222718722413251444e-03
-2.176128713127873423e-03
-1.184806899761129155e-03
-1.072753111632321300e-03
2.747592131218680434e-04
5.622308765819203531e-03
4.416965918743890121e-03
-2.868684077169085175e-03
-2.159153630464889090e-03
8.611682643599671231e-04
1.890297927537599228e-03
5.887627044530956491e-03
5.234522455321525408e-03
9.312005469842623293e-04
-1.100907516681336315e-03
-2.740918134728221808e-03
-7.555182337589857458e-04
2.431161411392848866e-03
1.461289373270308924e-03
-2.025957659373269198e-03
-5.389232521817087680e-03
-4.991953116629747889e-03
-1.913548631169136862e-03
7.484647859022242750e-04
2.100815864933447581e-03
9.484178065132326191e-04
-1.349380384185376071e-03
-3.493062311613370427e-03
-2.455598387257935163e-03
1.341734948590731598e-03
2.203641127840662208e-03
2.325779620025492794e-03
2.614210673365053444e-03
1.075769989061631715e-03
5.749658537535568459e-05
-4.579346713282951022e-04
1.742299079682682649e-03
5.610867020252058128e-03
3.729581207705983097e-03
-7.373505538070138175e-04
-9.019448670225000287e-04
4.465583901299548198e-04
3.263063051268559134e-04
-6.318946457174661282e-05
-1.353428123818637904e-03
-1.948779870848198334e-03
-1.872881733614606848e-04
-3.890604128915545971e-04
-8.051667265909204143e-04
1.360903208961806738e-03
1.442059387593876141e-03
5.567503003196785840e-04
-9.532058164802374159e-04
-3.535644851956470328e-03
-3.236661929592369279e-03
-4.124781185987606499e-03
-3.649361683782293645e-03
1.715431489439253566e-03
1.203205424898681070e-03
-1.326076608429627461e-03
-4.751794334342010180e-04
-2.003397447500480325e-03
1.401866645563495549e-06
2.288290495258808038e-03
1.121745321631150073e-04
6.728917429228454270e-04
-5.361773098858743257e-04
1.755407555046222315e-04
4.405996646406849619e-03
1.527276280865590705e-03
3.189891018711669621e-03
8.366187447669598196e-03
3.847949736022631979e-03
1.635062866428989379e-03
1.645775510162470140e-03
-1.342832844857819305e-03
1.186354584272170500e-03
4.193615171622274915e-03
1.144800711285752807e-03
-2.818088008986965095e-03
-2.176454228575033008e-03
7.863924971191588956e-04
2.419795045104701416e-03
7.637442184296782191e-04
-5.221970704667393270e-03
1.190158037877407995e-03
1.030321004359389253e-02
-1.030706050775528210e-02
-2.528867358579366120e-02
-7.903373410492508036e-03
1.494292750929212188e-03
7.210834269171025480e-04
6.092354920696122986e-03
4.291146324038074174e-03
-1.169045878569622502e-03
-1.612488015957041273e-03
-4.521699550133157571e-04
1.908030175193139305e-03
2.821571830577176629e-03
1.010765365532400413e-03
-3.568479465735485820e-05
-1.059848896781082506e-03
-1.735044724809633142e-03
1.481536242385317424e-03
4.601425769292824888e-03
4.326529533470854262e-03
3.305056736267369781e-03
1.062942958542673283e-03
-7.723531182732743493e-04
-8.381908169011767452e-04
-7.283746730164988165e-04
1.034738464444783521e-03
2.900191419305335559e-03
1.891453497119255020e-03
-3.291354814795910996e-04
-8.976351456371000704e-04
-1.052215171992999278e-03
-9.905325118870996794e-04
2.124599591095850670e-03
2.138334557722503144e-03
-2.216903291610866633e-03
-3.560925760205147905e-03
-3.284960952869515893e-03
-3.163607661916928958e-04
3.169462945176486617e-03
1.429614737170504602e-03
-9.997326500911793770e-04
-3.201638681170978704e-03
-2.122629605564236351e-03
2.401675171411052703e-03
1.487862343434789023e-03
9.050695322436935536e-04
4.836603577760024801e-03
4.431234905445229251e-03
-8.420300236994389094e-04
-3.265756525608677109e-03
-9.089580160236945990e-04
2.647573916840788473e-03
5.568952611735347551e-03
-4.769651496618593873e-04
-9.852947805790449043e-03
-6.355334665246467965e-03
-4.154536634530686147e-03
-4.744965196534434854e-03
3.565245733250129324e-03
5.627527423608506135e-03
3.801705390641420962e-03
2.577312506416994282e-03
-3.789073863761193220e-03
-2.774347542737872364e-03
1.319380772427536201e-03
2.234456721193627503e-03
4.299777173688096310e-03
-5.761882351754260556e-04
-6.773204681363852175e-03
-5.968683047719864319e-03
-2.707829343403738744e-03
1.356819683434979610e-03
3.625111168658411761e-03
4.042062250983930599e-03
3.081899252509022295e-03
1.861186707441862386e-03
1.940057661075176828e-03
-9.313634327038201963e-04
-1.671929188453385009e-03
2.802487410165502898e-03
3.621054916191994519e-03
9.734614288483340238e-04
-1.894496682209930545e-03
-3.229644089739439668e-03
4.288298658432662626e-04
5.096002581029397856e-03
5.405916121813780610e-03
1.434083652404780865e-03
-2.589503435946911326e-03
-3.264347926487296946e-03
-2.406160575313682180e-03
4.256475592510089185e-04
4.015708402050307754e-03
1.600521299730446557e-03
-3.741650923002768844e-03
-4.080808881478339978e-03
-1.763170320725571203e-03
-1.473481015991579381e-03
-1.847296244998197301e-03
8.160086106792487168e-04
2.088361836365775197e-03
-2.734020862101108149e-03
-3.550880786801549008e-03
1.149083166811306050e-03
1.860769488165608812e-03
1.710795828864978803e-03
2.458233388218493583e-03
2.485047654918330282e-03
2.280029999199327268e-03
-1.622850519260487373e-03
-2.792532717903012992e-03
2.528396169679400767e-03
3.670498773362693232e-03
7.829992388605967095e-04
4.607175783921049089e-04
-1.756166235649979704e-04
-2.445838305757331438e-03
-3.329564741197217018e-03
-2.036776865193109989e-03
1.693610459367395158e-03
3.381017869680592348e-03
-1.188206076903755310e-03
-3.542914551277149236e-03
-1.185501206352469880e-03
-8.456237450410028413e-04
4.236934820534691334e-04
2.521390384508956448e-03
1.598571348496053215e-03
6.874430553194907801e-04
-4.645522140337878924e-04
-2.077581980579321953e-03
-1.006980906846352553e-03
1.051531987826015944e-03
1.091277687087008038e-03
1.379266177732420067e-04
-1.380469153343717986e-03
-2.973580357693482012e-03
-6.464488746519086136e-04
2.266083886200699529e-03
1.475692342716558277e-03
6.245025874141488763e-04
-1.547898318602563194e-03
-2.646606592253912277e-03
1.192711772093354040e-03
4.228758383068575988e-03
5.989550626898362817e-03
5.995249388152254499e-03
3.156243664172435348e-03
1.018861444687770360e-03
-5.262829573483757996e-04
8.425483337196782319e-04
1.749205368659163947e-03
-8.703904838102394497e-04
-6.510331864330218786e-04
-1.601433123283856844e-03
-4.017973598721726047e-03
-2.748478615114951975e-03
-2.069844034639392420e-03
-1.808459916769782809e-04
1.922512535963741840e-03
-4.749280943953153528e-04
-3.893456631939616087e-03
-6.654689327152733813e-03
-4.730147295284948053e-03
1.718073419820539526e-03
3.851783445783210809e-03
3.895128833513250045e-03
5.284721999977616373e-03
2.103102129341042573e-03
-3.519814215869315061e-03
-4.162143986909457027e-03
-1.262422875328364719e-03
7.832201351410800205e-04
1.480249220557914918e-03
1.476978980075321565e-03
-4.427016691508354790e-04
-3.642617181615126921e-03
-2.491391427374898410e-03
9.010287724314304568e-04
8.619803431334008541e-04
-5.173824651439774673e-05
-3.136162455910764067e-03
-5.342695991753666773e-03
-1.069926326790844508e-03
2.361663509466322818e-03
4.463772815141215343e-03
7.045394006591544113e-03
6.653119962294312684e-03
5.979045096673618435e-03
2.650729065709512156e-03
-1.112600862773956058e-03
5.777142579537417055e-04
1.601536185648149823e-03
7.706340935143991540e-05
-2.458703921287863723e-03
-2.680853929843815629e-03
2.489676504539233871e-03
2.407102226316654159e-03
-2.118151496937642920e-03
1.833507911428891189e-03
6.386166327467334043e-03
3.249056559882188520e-03
1.518815975918405082e-03
1.699101436909571843e-03
-5.125454588694661803e-04
-5.598409399723579261e-03
-1.762837508871453046e-02
-2.031233419120929279e-02
-2.162638128858283999e-03
7.192242003612254325e-03
8.155226925766478896e-04
1.880300235307190296e-03
6.224174680249497209e-03
4.293405611612725881e-03
1.079275399071127472e-03
-1.258694419932266132e-03
-3.030215709578002858e-03
-2.373546890665574963e-03
-6.707077000929338078e-05
-6.050025777948426706e-04
-1.103213670138879308e-03
3.441184917710993479e-04
7.255847573081557851e-04
2.180507945366446515e-03
1.597247219990086033e-03
8.474610581373034392e-04
4.904026900981694331e-03
4.472854811052816987e-03
1.083048588222073564e-03
1.648543544444178470e-03
1.179946712440058413e-03
2.094483296836975963e-04
-2.572889249222807401e-04
-2.456647102125673107e-03
-3.690060399148297962e-03
-1.523420158900585120e-03
1.201177987131638904e-03
5.024565990360558686e-04
-7.537087904374091714e-04
4.100111395961067570e-04
1.740008022680896577e-03
1.013686177332619696e-03
-2.314658262197832710e-04
1.210097113169315538e-03
1.312236964146403385e-03
7.327400508209488570e-04
4.177595851050842739e-03
4.072201607925939743e-03
9.980992768358965591e-04
5.494329720262211038e-04
-1.521863398919925340e-03
-1.384738695019349089e-03
2.253241469345428852e-03
8.502447318507505743e-04
-3.239690056014464265e-03
-3.308463004730497880e-03
-2.210958175972687657e-03
-2.049218869845012645e-03
-2.122234986514233337e-03
-5.282067855344466795e-03
-6.195013939962829008e-03
-1.836375935961652483e-03
-1.179095088501403051e-03
-1.966205229442703067e-03
-3.826561247055813549e-04
1.760601400721850110e-03
5.976223389747747222e-03
5.737464768166871537e-03
7.124264826161290799e-04
-1.735089813450249856e-03
-1.878685263977047633e-03
7.510281743347127286e-04
2.639395900386026263e-03
1.619202708591587457e-03
1.378759495824499314e-03
6.687173222629215225e-04
7.930551323180217490e-04
3.822028903396288433e-04
-1.101569330815039801e-03
1.725189992016221792e-03
3.979348910230206052e-03
2.964034428040124985e-03
9.275481136754128771e-04
-1.720789053002258311e-03
1.294642468413422128e-06
1.772338930134885167e-03
5.191958399152419223e-04
1.396092814683391531e-03
-6.235571579655548686e-04
-4.100069022850316713e-03
-2.052423165630748968e-03
1.250012167069708977e-03
1.823106863975915235e-03
-8.405366681611734338e-04
-2.630000447421506488e-03
-8.387067338649357691e-04
-4.320223930079543102e-04
-1.086108096306933040e-03
-1.118920369616926286e-03
-6.209356721764020806e-04
8.550164818040005598e-04
-3.655542751009423826e-04
-1.341095945051543363e-03
-3.782488860310036943e-04
-3.308420858536204653e-03
-4.127962071140950547e-03
1.975947072635015657e-03
6.006566207775428448e-03
3.804666974975787121e-03
1.220625088550351652e-03
2.254727739846884484e-03
1.434928693882761390e-03
-1.542446337637378394e-03
1.059188410316999097e-03
3.087535414967295094e-03
-1.295788208204201467e-03
-2.720513189998015075e-03
4.396663126170389873e-05
6.315588680151480944e-04
7.839774847131859761e-04
1.884142931026398446e-03
4.870899065941354414e-04
-3.207613446655094205e-03
-5.368440667407731876e-03
-3.260559484798764181e-03
1.415322701773329660e-03
3.973242520119652302e-03
3.886906148255543994e-03
1.795752494221378517e-03
-2.656404976328416781e-03
-5.379765597790036984e-03
-4.465503826290362528e-03
-2.465350189681621371e-03
-1.920180671779082458e-04
-4.907995675349325574e-04
-3.295087724293370435e-03
-2.048143043189001953e-03
3.546733853635882297e-03
6.557495941035714621e-03
6.211386087808243479e-03
7.403201960603591342e-03
5.506234152948255231e-03
-1.547874473887816005e-03
-3.279593350767843942e-03
-1.588364054303516640e-03
-1.962123672873439337e-03
-1.111286470791335128e-03
-1.636358241704936097e-03
-2.675542443012246183e-03
-3.128875986055681263e-03
-4.516139986254504891e-03
-2.555624052222648778e-03
8.184851909871289789e-04
3.555646688613710305e-03
4.478426052312666980e-03
2.479693962234098652e-03
4.179905202722394679e-03
6.811555696123568031e-03
7.677944655599075810e-03
9.839245163362951574e-03
8.818815197242192011e-03
6.139899897717541674e-03
2.169325281039202920e-03
-4.405882311807706245e-03
-6.800738357504870074e-03
-6.602545860894969490e-03
-8.696868245964526484e-03
-1.170668327519071295e-02
-1.442770429140297073e-02
-1.714494163515874886e-02
-1.613047931281223063e-02
-9.492962713532528823e-03
-5.040585244938240034e-03
-1.015669458951986084e-03
4.895055711826902696e-03
7.183146296769513106e-03
1.020664601911947314e-02
1.223797852222421358e-02
1.378594669125084680e-02
1.550759389743238195e-02
1.060268671621516882e-02
8.421959632079345157e-03
2.961885566169647661e-03
-6.830589807633915232e-03
-8.067213443767203701e-03
-1.754161877923869628e-02
-1.419978640967054125e-02
