-3.787720429901907104e-03
-2.362994326171149757e-03
5.249274611194352895e-03
2.083743582637384399e-03
2.625753163706412451e-04
4.110134437910722104e-03
7.474327477969984132e-03
7.279052346644799935e-03
8.437973724885538401e-03
1.047000328675660140e-02
6.190066329542951232e-03
1.687346929850113515e-03
5.918078077542190561e-04
5.798699730599619255e-05
-1.069682049947220373e-03
-5.418187245757425351e-03
-1.316865729467599742e-02
-2.141133918057455676e-02
-1.993541099044890408e-02
-1.119836459065160286e-02
-7.026926356581949043e-03
-1.728496374619461909e-03
1.659752201149625401e-03
-1.982400744263626904e-03
-2.677014872075945007e-03
1.354629819224446516e-03
6.265265556568729369e-03
7.184996541104309714e-03
7.936569035139562356e-03
1.114557882567188130e-02
6.951957291602353303e-03
2.272515440815458913e-03
1.973292312924312519e-03
2.516765911272412365e-03
5.116790068426132349e-03
3.224171497488814535e-04
-4.347995733968008231e-03
-2.813915789117582642e-03
-6.198088542037556367e-03
-3.647179793780387733e-03
3.264732295119344117e-03
2.926379164827498224e-03
1.992166685842322246e-03
-1.610785312110363807e-03
-4.199559124017846617e-03
-2.309890040954250181e-03
-1.063473101237232248e-03
3.985567272436230449e-03
3.655122240553530018e-03
-3.545123802205111217e-03
-1.757396204060358283e-03
1.386918646701508322e-03
1.519985868708370060e-04
2.266389316157547788e-03
3.143356135348429007e-03
-1.172154976888589782e-04
-3.827425764105221121e-03
-6.374007870124906265e-03
-5.558467752704287015e-03
-2.054096007151192012e-03
7.773099784522735298e-04
3.256061367372972953e-03
4.701058822625698609e-03
4.547827235713986904e-04
-5.629992093496706367e-03
-5.635510054397902674e-03
-1.717765973094262074e-03
3.743521361296823710e-03
8.133853751561124015e-03
5.527308600525482514e-03
4.648382954240196899e-04
-1.741958111378301378e-03
-1.976427493777537306e-03
2.584141849958980237e-03
6.933357771115791247e-03
4.193389050454548149e-03
2.216531244678045394e-04
-3.246926301072901224e-03
-4.264970626612376442e-03
1.557635163877533644e-03
3.341515467227389787e-03
-5.296273104256746028e-04
-6.047277802280667509e-05
-9.574501317087633512e-04
-4.640351161421524609e-03
-6.247400937769704947e-03
-6.536506812760692169e-03
-1.682534634028347255e-03
3.016818664301047868e-03
1.348229128302134159e-03
-2.638217923295709520e-04
-2.263006132803619796e-03
-3.973056469183642442e-03
-3.421581259657429492e-05
4.583199514863561981e-03
3.271598929138395690e-03
-2.505480975925651090e-03
-5.604351326123815924e-03
-4.325946935487319338e-03
-1.828904216669015965e-03
2.886275017544680764e-03
7.569787477055359322e-03
7.573713705536532989e-03
2.740502229751487061e-03
-2.764027935712743030e-03
-3.295912794992715122e-03
-7.655042802410523366e-04
1.322087003792078415e-03
4.193975879325928004e-03
5.034705806135779220e-03
1.176839781584841172e-03
-4.073431684264752252e-03
-6.122949469472091337e-03
-7.312184547249848303e-04
7.672193190233727970e-03
6.239394412574400528e-03
-1.423263945722886854e-03
-3.264386365669923358e-03
-3.333277377448930993e-03
-2.269819562261292389e-03
2.228066648192734197e-03
3.373953688821299327e-03
2.571977644116331049e-03
1.096385215713414511e-04
-4.521833137008004176e-03
-4.175951289996479750e-03
-2.145297405209421141e-03
-1.039151965035489764e-03
1.369619751235626529e-03
7.825315999768441867e-04
-1.477507423807916361e-03
-2.994985221811119740e-03
-5.243038131503862699e-03
-3.826760090828055811e-03
2.735392364579218062e-03
4.611336845855737616e-03
-1.529655090063418194e-04
-1.434469969919139861e-03
-1.470082330051213299e-03
-4.660227784661964169e-04
6.324689543041467354e-03
6.556556355761554607e-03
2.804850331668612071e-03
3.285652986724723647e-03
-1.484936840340646963e-03
-4.289061722300402044e-03
-1.782003250857400493e-03
-2.302175218407525193e-03
1.273758144304572250e-03
2.686458005091518862e-03
-2.832001022835276428e-03
-2.636121652940397013e-03
-2.498516954645427484e-03
-2.211637135710003803e-03
5.514571858275512523e-03
5.106652162869617685e-03
-1.874988516266099707e-03
-1.257193518769662626e-03
-1.077715012695340578e-03
-2.723747282308915281e-03
1.025652344564907149e-03
6.366230034751718496e-03
7.349317154815726387e-03
1.657918923423073445e-03
-5.446742515939891581e-03
-8.196059805926492539e-03
-7.433889463972468033e-03
-4.313230205741822379e-03
-1.327564417820466204e-03
-9.615712261827213557e-04
-1.809800195557010119e-03
-1.790857843351265207e-03
-2.200936753594552337e-03
-6.001036784942618022e-04
5.799587186138811107e-03
6.780375840331104124e-03
1.900035672503139986e-03
-7.427900131012634636e-04
-3.232446262024847930e-03
1.061336408332580900e-04
6.783025394648705027e-03
8.016705195630717193e-03
8.035718900804879328e-03
2.907704511064304696e-03
-4.039207162226807896e-03
-4.398611101922734329e-03
-2.143704501303222640e-03
2.345853061210430995e-03
4.999444254752859022e-03
5.547911773175422979e-03
4.733650820391708397e-03
-1.783809894669005245e-03
-4.596374164843470764e-03
7.222239863128649589e-05
5.799217008582477351e-03
4.650093937259044789e-03
-1.896681088492710443e-03
-8.276168701683217152e-03
-2.759977144582079905e-02
-3.355834370626805535e-02
-4.311551573615940609e-03
1.054804838578321004e-02
7.874135065237819475e-03
1.000447299547498059e-02
2.177726969634349863e-03
-1.222456205412881820e-03
2.863682556521649717e-03
2.354697112645380650e-03
3.317960383383239224e-03
-1.852089289468336142e-03
-4.868826724248772643e-03
9.427892466063308172e-04
-1.610120408431389119e-04
-3.545347612449411515e-04
6.237459568350091701e-03
7.779141694422739631e-03
4.692036174518853485e-03
2.354017673826625488e-03
-2.771032231504627413e-04
-2.129601729169609305e-03
1.072457707764789886e-03
4.211478097979690603e-03
3.429400263602411583e-03
2.059419425621027405e-03
-2.430598009152665131e-03
-5.444008734002475300e-03
-2.669643200456647564e-03
-2.967657047247985319e-03
-4.201340238154529540e-03
5.105273616426936421e-04
3.164052488244946740e-03
-8.442486147514418346e-04
-3.637446402004806522e-03
-1.308041816403731749e-03
3.256875021567047848e-03
5.021210808768439282e-03
1.172059888074901846e-03
-7.491191991784749505e-04
-3.705278492120577416e-05
-2.008613138832472233e-03
1.212353497440135089e-03
4.981404773980457022e-03
1.370516817981447342e-03
1.650820517343987094e-04
-2.349427112738503281e-03
-6.555823007289289517e-03
-3.415635506004328047e-03
-1.956646074934753534e-03
1.472221479871231196e-04
5.109277355041541915e-03
-2.827883612477029816e-03
-1.290298315973970739e-02
-8.122193890554236032e-03
1.659499741385403850e-03
6.931663399088689413e-03
5.876891231249285752e-03
6.822888876325698465e-04
-1.864697517410804752e-03
-1.107732803402753990e-03
8.404093553971482035e-04
4.822192058824152465e-03
6.532722017670369863e-03
3.254518270338803941e-03
5.299525778447412242e-04
-2.512200287550669930e-03
-5.434243843131235895e-03
-2.316428963885609500e-03
6.013923670409476209e-04
2.754073654796766399e-03
4.733236244389819186e-03
-7.773980891107132741e-04
-2.475830099985713764e-03
-1.658125472450014100e-03
-7.239823711329775729e-03
-1.661758490663822448e-03
6.598716793728267270e-03
1.359654871452731879e-03
-1.714194087195196857e-03
-2.005038921470202011e-03
-3.577983595625653691e-03
3.368110580513568645e-04
4.953806422568159985e-03
5.938066797241429648e-03
2.630729596626141774e-03
-2.363473413862395359e-03
-3.752969214896567651e-03
-2.741459619412242761e-03
5.313119254812991498e-04
4.063319849006059165e-03
3.063256807242931666e-03
9.409917401312530147e-05
-8.768510909638743429e-04
-1.078666637540427395e-03
-1.784743352348645796e-03
8.646627593604344327e-04
4.546277087163346463e-03
1.689504612148337321e-03
-2.479413333261349696e-03
-3.388609264213493857e-03
-3.648598449589907262e-03
-1.620772700601723858e-04
4.106701544313173455e-03
2.942269484276708105e-03
3.042392679497121538e-04
-1.943489465870777569e-03
-4.625063692739255286e-03
-4.781678959218345522e-03
-4.163874923636287813e-03
-2.865281070745160502e-03
2.463196437870055280e-03
3.671751910924265713e-03
-1.738503521092572921e-03
-2.921306301128866450e-03
-1.075040088476309592e-03
1.691570280278995638e-03
6.626928601048522396e-03
3.576452485283784441e-03
-3.579526364373109785e-03
-3.727225589694722983e-03
-3.452794565319475175e-03
-2.261973892090145700e-03
3.939780273624704857e-03
7.278648482950598325e-03
5.254356850953157722e-03
1.973140141718286158e-04
-2.983298401077932264e-03
-7.929915183710590197e-04
1.042627008701892469e-03
2.196265942652434605e-03
2.429602356369174512e-03
-5.731189984157371948e-04
-3.544720334019488945e-04
-9.782429030568326987e-04
-5.257981618922064754e-03
-1.581039111673671407e-03
4.531633148715431651e-03
2.189156507555909889e-03
-2.648876787358235563e-03
-3.983956835335158986e-03
-2.674146614959631903e-03
-7.551966603945283124e-04
3.584448530226004223e-03
6.689923112164981693e-03
1.283028753951371897e-03
-3.306093543100503771e-03
-1.671120276792580506e-03
-1.665877916042647839e-03
-1.165288174761008834e-03
7.953961136172096880e-04
9.167391201170747806e-04
2.269679070483758998e-04
-2.812137038839728452e-03
-4.399516904061626793e-03
-1.848786915853482512e-03
1.048324041438170604e-03
4.892295059616251669e-03
5.408021710346190558e-03
-1.823097955002822568e-04
-5.584387745401150210e-03
-6.809485765022035841e-03
-3.983475759346921490e-04
7.388253969095006507e-03
7.600545066366267734e-03
5.780874139776273103e-03
1.404893905249586603e-03
-5.294494643719434811e-03
-4.189352969465527307e-03
-1.095230626479503028e-03
-9.799490961736846088e-04
2.142981825167928744e-03
1.799192424436492268e-03
-3.438394501162847765e-03
-5.060980645507428405e-03
-5.490667605095680449e-03
-3.471798143243916626e-03
3.246526494253252487e-03
3.988967734692386302e-03
-9.982428503146471323e-04
-3.961839599633584959e-03
-5.697347475410638983e-03
-2.302615171919463952e-03
4.962517333063460982e-03
7.356063647361706266e-03
5.343196952389139484e-03
3.479162183779653766e-04
-3.424084144657187686e-03
-5.570570375317399937e-04
2.560250213657432918e-03
3.106597233555635773e-03
5.966309089186161430e-03
6.802276557095735324e-03
4.129064059196600744e-04
-4.933399862002338203e-03
-3.132037587906342374e-03
2.189241484280060688e-03
6.713251982603900096e-03
2.880841454809361050e-03
-4.214213604536162089e-03
-3.455778596950132616e-03
-1.850231678141516390e-03
1.447524242928373327e-03
5.453908938935403752e-03
3.743744936438588369e-03
6.933506459668482835e-03
-3.129784802233581253e-03
-3.006942984321452766e-02
-2.722429489247770590e-02
-3.825840461681273563e-03
4.546991076285400099e-03
7.680151418552163059e-03
7.859384436613351885e-03
2.079418634774127337e-03
-6.653348264151476147e-05
1.427999453951009270e-03
3.354242005603622501e-03
5.248294171844689222e-03
4.672263248360400238e-03
5.158099706376952131e-04
-2.080899842513083374e-03
-2.130408206696740754e-03
-8.513976060268722878e-04
5.505280346573337286e-03
8.993203732432534722e-03
5.189732790073199424e-03
1.742953564928006061e-03
-2.098650990051604583e-03
-4.180379243156336772e-03
-2.667857846740403095e-03
-1.889594123450828419e-03
9.049498190302040623e-04
2.736988374187204320e-03
-1.932115175022287119e-03
-6.490008957733463951e-03
-6.337811375655299888e-03
-2.652359115312999133e-03
3.664045994412386958e-03
3.944609003530490099e-03
-3.415910281460608159e-03
-4.381540799125369784e-03
-2.429912784023767133e-03
-4.010665630529572194e-03
8.814785575201229424e-04
6.045598573986225854e-03
5.616648460412351600e-03
3.726647434245987291e-03
-2.026990262319595081e-03
-4.175546858615048450e-03
-1.571939872575663696e-03
1.237259728234157974e-03
7.427717966165535944e-03
6.866466588902006910e-03
-1.977775044279019554e-04
-1.079273704269735146e-03
-7.527099351262918369e-06
6.534068324454449716e-04
2.191641775879245649e-03
4.699362690597134280e-04
-2.803741184546677204e-03
-5.773592829844918610e-03
-8.819351825708742279e-03
-5.448341417272398700e-03
3.811709265681653257e-03
6.270226020683896707e-03
4.772458225046953550e-03
4.006376566700489347e-03
-4.356592372698835612e-03
-1.043418472159984324e-02
-6.284564330685411641e-03
-1.127622141608373030e-03
3.928989765972380928e-03
4.392807320227063925e-03
-1.145316850165866915e-03
-3.231679440583002695e-03
-2.027149263470617076e-03
6.042704373990003333e-04
3.845865806432230416e-03
3.828220784748641737e-03
8.781484270216565694e-04
-2.619917889053971754e-03
-3.457930547469383314e-03
6.212787404408081509e-06
4.989768872542895903e-03
6.065542164194274652e-03
3.845239284022779116e-03
3.204565974057295256e-03
-3.113795115045475410e-05
-4.422906291508181195e-03
-2.690697820593470485e-03
4.418830029760039487e-04
1.831845586550251209e-03
1.069014488205517104e-03
-2.744999784579872995e-03
-4.926858744597042115e-03
-4.756209264478245685e-03
-1.479164525491438167e-03
4.452303433100586114e-03
5.832818086473802975e-03
3.273568716306758403e-03
-1.225754433967735459e-04
-5.064184352945332035e-03
-5.291981601295641172e-03
8.303281795544632804e-04
3.948132368455207347e-03
2.858572639906667781e-03
7.881804719039638011e-04
-2.813146041900520256e-03
-3.655299220517138712e-03
-3.632958718252281803e-03
-3.977617391756832835e-03
2.438334119079215139e-03
5.541026198833506194e-03
3.380236051318474756e-04
-1.545187782423442825e-03
-3.182465756706002319e-03
-3.680719946796462243e-03
1.611683915408806305e-03
3.210303515263920795e-03
4.511973913685503844e-04
-1.528886671034762178e-03
-2.078778135844510429e-03
-2.036072093032354597e-04
3.002746542649319724e-03
6.275096848800914943e-03
7.041856989528722834e-03
3.325680903703143263e-03
-3.147569229000078250e-03
-6.202398945997516892e-03
-3.164726373033248906e-03
-1.649184361395976449e-03
1.237828731603922850e-05
3.095782682302517051e-03
1.241362049034217419e-03
1.850500673109148862e-03
1.276244037191555554e-03
-4.160942136793593753e-03
-8.468052034849988781e-04
1.579182289708356635e-03
-1.904324036081491301e-03
-1.098101850134357424e-03
-3.099420070131501167e-03
-2.687607662943201914e-03
4.044837377034419222e-03
4.825272264446576857e-03
3.695391701025270512e-03
2.345831938358258761e-03
-2.227250415721462092e-03
-3.912794025201324355e-03
-3.576175523907089166e-03
-2.413557757554507174e-03
2.897479354021043280e-04
1.930224306678566572e-03
1.507792754274388160e-03
-1.410109682293040744e-03
-2.487688710973194866e-03
7.604327324603700391e-04
3.443792799693203791e-03
3.127818860633691574e-03
-1.543164911467528704e-04
-3.082658766675825095e-03
-2.763836433209564993e-03
-1.415416899427020345e-03
5.164295357946317505e-04
2.519588541238376722e-03
4.566718690370625243e-03
4.242971560865154562e-03
-3.095620624333792880e-03
-7.185092248927454732e-03
-1.717064955501598333e-03
1.222746387879562052e-03
1.161476886340829769e-03
2.582325507288078196e-03
1.215134735032189720e-03
-6.612821424959341218e-04
-2.263477869798228518e-03
-2.321853773650279281e-03
3.834710185738192476e-03
6.295477209154079316e-03
6.959260506138109171e-05
-4.990472213165651066e-03
-5.288333287052386297e-03
-1.882679051902715148e-03
1.190865861001541483e-03
2.358936772654407748e-03
2.523996632334283598e-03
-2.579578059892151908e-03
-5.466022075963623481e-03
-1.698799385863896576e-03
-2.145294862006023266e-04
1.792832780861130376e-03
5.167536296169649053e-03
6.346393567157609591e-03
4.753467361119212593e-03
-1.180242420966989099e-03
-2.592293853296683600e-03
1.233128941619075249e-03
3.810022196354936365e-03
3.569229890539216306e-03
-2.293502958403032064e-03
-3.328808218269350885e-03
-7.963398132996691138e-04
-3.292925204914155888e-03
-2.203570887270730159e-03
-6.351522372818601148e-04
3.352829498762680341e-03
7.432183468976174059e-03
1.646732503263140723e-03
-1.153131494746047463e-03
-4.735532978890347015e-03
-2.675879399603310442e-03
5.938169463565513319e-03
-1.377151104222445153e-02
-2.706224347404365474e-02
-5.953341171175845215e-03
3.835230019939097918e-03
3.370209402290101717e-03
7.641149502158030293e-03
7.727115989582495487e-03
4.671960362262149273e-03
1.306370194217509808e-04
2.744453601831745027e-03
5.203780362706743844e-03
2.252507940308297752e-03
3.901553508848300180e-03
2.793772806492735798e-03
1.227670093859977449e-03
5.253741950574692017e-04
-3.433784204444388123e-03
-2.530281094406318376e-03
-1.551418543990512296e-03
1.193782396317774174e-03
5.608981274087773174e-03
1.102935941118739346e-03
-2.968331400752310511e-03
-4.691410522099846887e-03
-5.491479956125855204e-03
6.981051009665570264e-04
3.318245238913479760e-03
-9.089443292039945397e-05
-1.328829672222533401e-03
-3.003575224270647274e-03
-4.973934112704667815e-03
-1.909882845423036815e-03
3.036085787084267986e-03
4.249295860514960659e-03
2.959091417796631991e-03
-1.832015800617116321e-04
-2.066502840421005800e-03
-1.585348840583234407e-03
-2.793424532545515145e-03
1.035313518177737643e-03
7.271314568512725687e-03
4.822943525411708607e-03
1.574279900112589758e-04
-3.413341133068162250e-03
-4.168086313610247680e-03
1.901261478519153782e-03
3.167837895439721239e-03
-2.590062839657499959e-03
-3.842781767177212791e-03
-3.019369382079423701e-03
-4.295429559681191063e-03
-2.258409567470556940e-03
8.233648993117270156e-04
1.956709352999197200e-03
4.919973814441420783e-03
2.983340498339293566e-03
-4.318393073703115891e-03
-4.475219627040771635e-03
5.994721129552026823e-04
4.113581348074314865e-03
3.293641226005800376e-03
-1.692489972535722023e-03
-2.063784508556031853e-03
-7.383047668491547440e-05
-6.570461411195737062e-04
3.833167723907905580e-03
6.983689206519395724e-03
4.688304209949837155e-04
-3.488311296615469615e-03
-3.101249757834016827e-03
-4.636989042742530216e-03
-1.811854739261122699e-04
5.949059225514099179e-03
4.339526574623074617e-03
3.472693110255791697e-03
8.043356621236541796e-04
-6.636920327473135560e-03
-5.225613106376796740e-03
-6.605741438035338947e-04
-1.534978368228715525e-03
1.338763827787311112e-03
2.754274479349901484e-03
-2.208703123953827466e-03
-4.138929497885790280e-03
-3.718831276534175900e-03
-8.324591250610875368e-05
6.614637911608894742e-03
4.458681040285022643e-03
-1.329265645344253561e-03
-1.889740566340978234e-03
-2.345886407332471290e-03
9.800313770470616727e-04
6.301481308109938874e-03
4.244722748403391595e-03
-4.916291626331206668e-04
-3.528984672731697806e-03
-4.171068962585618850e-03
-9.762701836073681355e-04
1.555085451835428335e-03
1.142462150673535619e-03
1.692176414560623557e-03
3.028695294425907784e-03
9.238568233947934275e-05
-3.654626697675685248e-03
-2.153331981840034270e-03
1.735339623416557982e-03
3.726849286604980160e-03
4.357135247759139204e-04
-2.942374241324958919e-03
-2.454388311898040870e-03
-4.913386552882640333e-03
-2.926760465616345432e-03
3.454512161267312299e-03
2.333071891988495149e-03
2.358973672421965217e-03
5.287004306253726034e-04
-7.727622548316271690e-03
-5.546170652433309207e-03
9.903924758554211345e-04
7.630494355616865634e-04
1.243109867760984651e-03
1.275817981586807115e-03
-5.914969718288192038e-05
6.596650713588226396e-05
-3.568592106149902441e-04
1.122524246780123207e-03
3.583387708404503838e-03
2.106743056317440625e-03
-8.708481324755813074e-05
-9.494781588211452733e-04
-1.126074109953089514e-03
2.773091600973445151e-03
6.983495456824264334e-03
6.044038229612976910e-03
4.051618294743744055e-03
1.656411764951759482e-03
-2.758151064090124185e-03
-4.278821525849382627e-03
-1.881068767580166157e-03
1.700055954469437960e-04
1.998000587658500631e-03
3.241076150020451643e-03
-1.064657302430173673e-03
-7.201056342545952491e-03
-5.698819621275124161e-03
7.036235250874078081e-04
3.631491303382574851e-03
1.372245836221613457e-03
-2.694006638140249935e-03
-4.012591324990528660e-03
-3.064643514539232977e-03
-2.591224347661540660e-03
-5.359608630537674888e-04
3.208800244132716147e-03
3.050011151700944383e-03
-2.147641392999100757e-03
-5.859598998648459650e-03
-3.498675122136631673e-03
8.881609483128648469e-05
-9.203866574712150916e-04
-2.930830556193941535e-04
3.277309561469646769e-03
9.571306908372428186e-04
-2.040925647397597194e-03
-1.271853964143416669e-03
1.095448719421166471e-03
7.059633332363979275e-03
5.880842074854598922e-03
-1.824844315960966971e-03
-2.221834504312476116e-03
-1.993491382375593007e-03
-2.083642396255286095e-03
1.054316048205195715e-03
1.177247872316352804e-03
2.648462817553033383e-03
3.520923459480105027e-03
-1.340758690773040385e-03
-4.237431505626338378e-03
-3.402728423715468357e-03
-8.245946098347971352e-04
2.682123964667783821e-03
3.197793654262384710e-03
6.192043621972632191e-04
-1.354390528452009278e-04
3.216054942714701315e-03
6.513254714848340683e-03
7.518517934496710652e-03
7.762940363317484029e-03
5.444732694262288154e-03
-2.327835273330877783e-03
-9.596040498687936557e-03
-6.484309244855299831e-03
1.419960836580950623e-03
5.800510945456759798e-03
6.491827076856479875e-03
7.989462376697001409e-04
-4.588286868032570749e-03
-4.405555023876571961e-03
-3.732957334428782265e-03
-1.095087356606539450e-03
3.557207748800418103e-03
4.143709003847808985e-03
-7.453770605383254130e-03
-1.656144957896561049e-02
-6.000288431557531353e-03
-1.052219202777684645e-02
-3.140070766402386360e-02
-1.919150085378884540e-02
9.811738764004186708e-03
1.873105012421375296e-02
1.144246881921530748e-02
1.155668897587975620e-03
1.110291752103979802e-03
4.598150654521159994e-03
3.771249342732098300e-03
2.771359796897084060e-03
-3.040772627084180335e-03
-7.232340598395865273e-03
-4.797212363366290533e-03
-1.224465776792753053e-03
4.027454646317985866e-03
6.090411362690891645e-03
6.453893053581859045e-03
9.427491450222849970e-03
9.480507987805603803e-03
1.067650397750009340e-02
1.403116552700109029e-02
9.975600291774730510e-03
3.407679125880161593e-03
3.843955881005851200e-03
5.563104712509148175e-03
2.442562598101008509e-03
-1.401376503468497979e-03
6.572986445916800076e-04
6.161965184948794277e-03
1.214471415922494749e-03
-1.384733665851248068e-02
-2.325407680855290371e-02
-2.360538297866354371e-02
-1.704355051619304076e-02
-6.309105581636197287e-03
3.551239965392778502e-04
5.363580297327697572e-04
1.402526868793920400e-04
3.825527306242909945e-03
7.907179138625677201e-03
1.143040034080946253e-02
1.194109494023393690e-02
3.740299210949300877e-03
-1.417750059912384255e-03
3.049268974188463783e-03
1.178289139161406429e-02
1.584446558902995877e-02
2.976076863475810626e-03
-2.862100419719211877e-03
7.598653509656331378e-03
4.385483992253381806e-03
8.405874252935343380e-05
-2.523896379103226974e-03
-1.575335739590818379e-02
-1.523924261281020542e-02
-2.171103197938037063e-02
-4.410969040475561098e-02
-3.887679865548494818e-02
-2.253353054526191848e-02
-9.905202848917826763e-03
1.226914534089811222e-02
1.625203592595329122e-02
3.691959446594935378e-04
-1.715106804411134500e-02
-3.279332059126361526e-02
-2.028076104880183889e-02
1.411673017804907990e-02
2.925660990375615264e-02
2.909542773717069264e-02
3.662803576032364755e-02
4.041501505451771531e-02
2.321224927807453292e-02
7.714413432613255808e-03
2.545852466262046865e-02
6.145915588425938936e-02
7.024261541116172403e-02
4.681298161392544871e-02
3.571535539616310651e-02
1.570848972511196262e-02
-6.449128895804537298e-02
-1.199863015772680425e-01
-6.848912828211842219e-02
6.748491296234900017e-03
2.903974354103674299e-02
2.254241471633479724e-02
-7.410470584934405330e-03
-6.182492112663173778e-02
-7.668529343965012346e-02
-3.929954139553588216e-02
-1.034950747337405434e-02
4.082772746739203595e-03
7.770710476419869818e-03
-8.011463899738559182e-04
6.958200635807944810e-03
1.606533181568414390e-02
1.364509189795995101e-02
1.044208363248866518e-02
2.888775220636334183e-04
6.712095761595674066e-03
3.466211587877765510e-02
5.167451743900262906e-02
3.964801588496330575e-02
5.140486675048116030e-03
-1.295143426545393439e-02
-1.429074637981389215e-02
-1.729735261086581821e-02
-8.923680625035741720e-03
-4.629581290803299969e-04
1.370425433999161551e-02
2.078050443440418449e-02
-2.460945471289391340e-02
-6.486509890538620648e-02
-3.965225698528745263e-02
7.059725588664649346e-03
3.252875474311930221e-02
3.255257172954943018e-02
2.090215110153495481e-02
8.290028136411598664e-03
-2.943408611768975978e-03
-7.530251938331997130e-03
-9.261352820224479088e-03
-1.315061345226593674e-02
-2.195332787542353045e-02
-2.951805845095679601e-02
-2.844573573501321673e-02
-2.511533232921566577e-02
-1.160488837388050191e-02
1.118663856277377945e-02
2.990457905358219481e-02
4.493947615287642583e-02
4.978859191666776957e-02
5.109701187252448096e-02
5.179524900825220601e-02
4.053301184382310240e-02
2.721024557843210526e-02
1.174222736184255683e-02
-1.024347183853361286e-02
-3.320086224835514660e-02
-5.303655323765087137e-02
-6.497280746851770428e-02
-7.233519493280769763e-02
-7.042577851498901809e-02
-6.781419143068859179e-02
-5.994553741188293067e-02
-2.580036028044042570e-02
4.970618108326283272e-03
3.419920656974102108e-02
6.618943195015238035e-02
7.678731264070151608e-02
1.058785372773573957e-01
1.487402630442108409e-01
1.679780471916975382e-01
1.423390081374748539e-01
4.563928432414430386e-02
-6.153002021810834860e-02
-1.553132638537977617e-01
-2.443412650771732142e-01
-2.640493238108083673e-01
-2.096267823579678891e-01
-1.006153036267705553e-01
1.561613049435180318e-02
4.319974709747653741e-02
6.018765115903511320e-03
1.109168816880893443e-02
7.209209487791058690e-02
1.079279454037756630e-01
1.159872025916453414e-01
1.368739729360424762e-01
1.509449898808535862e-01
1.483384967843505153e-01
1.269769893040998410e-01
1.546990686321539077e-01
1.598699633797368291e-01
-5.317319835122931437e-02
-2.852870796111564577e-01
-3.310911628213701330e-01
-3.014603733954506204e-01
-2.120714738965357171e-01
-7.494775592236980338e-03
3.150794350419393597e-01
5.192938885080830014e-01
3.442779698744823924e-01
4.157467174705114718e-03
-1.863666830164314447e-01
-1.338308766111543924e-01
9.066928057686964720e-03
-2.439917916968412873e-03
-1.549048041462265934e-01
-3.591134964859682976e-01
-4.980860155855506011e-01
-5.244252788417731459e-01
-5.077921167667688307e-01
-3.284338689026152225e-01
-2.861581203812264829e-02
3.205966228800426476e-01
7.402610512428907663e-01
7.885443363027930808e-01
3.553216579004265241e-01
3.764742758428580964e-03
-5.181900791803665390e-02
-4.765190584234022149e-03
1.039585430229550932e-02
6.312587471027537867e-02
2.141450129123510238e-01
2.920716190748476326e-01
2.217481512598459548e-01
1.312381222277863579e-01
3.474800256963026662e-02
-1.562613951374166310e-01
-3.352070301320187462e-01
-3.623327958390566428e-01
-3.537226702218947971e-01
-3.088771772777018088e-01
-6.958628612437887939e-02
2.480816213670326287e-01
3.927383448370519448e-01
2.577474479342107827e-01
-3.180322427934139523e-02
-2.285381149929553990e-01
-2.875872765971520528e-01
-2.656880366346774935e-01
-1.119077073041052361e-01
9.471285619991146043e-02
1.748561304192280952e-01
1.426401964799733357e-01
1.361673722069866310e-01
1.627250602184150963e-01
-7.448855722622929262e-03
-3.216114114751043584e-01
-2.978885782364231183e-01
-4.946053227935588020e-02
-1.985065207464071797e-03
4.144784947470209896e-02
1.626062259423825540e-01
1.560330852241506860e-01
6.160301076724837566e-02
-9.473961109648980361e-03
2.615677746038468782e-02
5.691733820084318024e-02
-3.923702043557635022e-02
-1.702340539319426027e-01
-2.867713029053163831e-01
-2.299836237525377247e-01
-4.817347694873725522e-02
-7.870934578058276510e-02
-1.321288884040201783e-01
8.680387876738086816e-02
3.650577596544701264e-01
4.724404440808858685e-01
3.989227111163029527e-01
2.452647797659232298e-01
1.168416363386670792e-01
4.781001355289814236e-02
1.947250285387434193e-02
-2.234391730829356215e-02
-7.914925610530551547e-02
-1.046412823889343036e-01
-1.069765863992283433e-01
-1.075362357019951226e-01
-7.840447498041994145e-02
-3.875446794345885348e-02
-5.937743653960713547e-02
-1.648292526223404109e-01
-2.930099037743325030e-01
-2.106443147860248555e-01
7.700632063385735859e-02
1.384202037842158228e-01
-1.142751540741427339e-02
-1.246977895871305073e-02
4.020735915463958393e-02
9.472467724745581297e-03
-8.980066123867388658e-03
1.723185060093796600e-02
5.712191794602510669e-02
7.638337192352676053e-02
9.681076374676711449e-02
8.467159117279883518e-02
-3.668451315822976455e-02
-1.465721673723832663e-01
-1.198207291603102104e-01
-2.300921893605068283e-02
4.609560570135581847e-02
6.628223347074939376e-02
7.005265421266033965e-02
7.097718104454650567e-02
3.657222983816431350e-02
-6.573517994647927465e-02
-1.657767890302584701e-01
-1.370479915706060980e-01
2.624453833622128474e-03
1.239663427358511510e-01
1.307301686487953030e-01
3.876550523740123627e-02
-4.486963320810740535e-02
-7.350268395134040844e-02
-4.931280543226911756e-02
6.992734139198293099e-03
3.894777863019413533e-02
5.034731570572349019e-02
5.730343686801685904e-02
5.391614568105234512e-02
5.435789662123553106e-02
4.854344973836428878e-02
3.668576287289445487e-02
2.923500306433263890e-02
1.862807870395997642e-02
9.659958352695565201e-03
-1.551249266739598495e-03
-1.752189926472976292e-02
-3.183444604811037221e-02
-3.652260707083766073e-02
-3.032888801890840091e-02
-4.009084641692770706e-02
-5.730262602530052790e-02
-5.401224886464221775e-02
-4.038387614746241638e-02
-2.809530546735043363e-02
-2.313250283049430450e-02
-1.334483683835664680e-02
8.433369917060047280e-03
3.038943194771337106e-02
5.052811576080012274e-02
3.892456591017538770e-02
-4.071370988942013720e-03
-2.609831887516817980e-02
-2.157558739324961367e-02
-9.094983726887781797e-03
-2.498087903093478435e-03
-5.085670980628155535e-03
-5.699804752772198030e-03
-1.115676937309660957e-02
-1.631710910376533638e-02
-1.397761507654290969e-02
-1.100345093580932035e-02
-3.148714706046033211e-03
4.961045532705123801e-03
9.149611842123282768e-03
1.122900447096254750e-02
1.052816441438730530e-02
1.113928925085636013e-02
1.178433598832447776e-02
1.521545669745630325e-02
1.825486992242029982e-02
1.457793470294836864e-02
1.172546539283893588e-02
9.873091602536885475e-03
1.231443578549224101e-02
1.530571339635753564e-02
9.056476879139661179e-03
7.121475227656444418e-03
4.008023792247706989e-03
-7.702274700492344958e-03
-8.919393568433358829e-03
-4.955727629695591725e-03
-5.429852152978302537e-03
-3.531723099868570078e-03
-2.372396624844216872e-03
-5.900812142722952451e-03
-1.136598985638220642e-02
-1.242844743564947702e-02
-5.765031219862610211e-03
1.514744279547727791e-03
3.223686443868553370e-03
3.023418370299750003e-03
3.795606439208716251e-03
2.005925390573727856e-03
-1.216134236790409337e-03
-4.459592809690235068e-03
-8.722465961664581727e-03
-1.004422617966456953e-02
-1.046081588699515966e-02
-1.241522314211033172e-02
-9.588283356840383159e-03
-3.709280339985377654e-03
-5.387235003673914672e-04
2.798261373904499614e-03
4.379792279330392557e-03
1.344205020241052984e-03
-3.047049576584499788e-03
-1.111003772391658088e-02
-1.295938401482090926e-02
-2.296104196332441390e-03
-1.115423759166261474e-03
-7.315891840574146460e-03
-6.014562437228846217e-03
-4.929203748659402758e-03
1.842252498687688698e-04
9.703659131904070895e-03
1.522920485337822018e-02
2.006309386780483553e-02
1.912488481983882355e-02
1.210762100368223924e-02
8.654655693393933230e-03
9.426964176280833163e-03
1.152532378373380927e-02
1.260483245328629376e-02
1.146398706297310603e-02
7.070747660830514932e-03
1.147539388223894159e-03
-3.842907106547545967e-03
-6.830830891225060306e-03
-6.460558193204643182e-03
-3.681274536943454547e-03
2.719855802609357637e-03
3.177667414057743726e-03
-4.389490198351076247e-03
-5.991949898878261641e-03
-8.802696245207217857e-03
-7.235996325957903211e-04
1.773538332242414681e-02
-4.198456786868330626e-03
-3.964009787891949188e-02
-3.508851545895423640e-02
-1.834561384622914251e-02
-5.304343892916586582e-03
6.429441857615330463e-03
3.980661191899165750e-03
-1.424785466965838854e-03
2.334291011421781113e-03
5.352283633229467340e-03
6.383186273412108820e-03
1.216397383825242214e-02
1.098045475731298723e-02
2.189573468581350150e-03
4.254143186292482469e-04
-7.016358474781807719e-05
2.072639698642031632e-03
8.978520182210694700e-03
8.994214841626302012e-03
6.301667797371348148e-03
3.392706570240805204e-03
-1.320476998810575595e-03
-4.272944269675770304e-03
-3.612158071803466680e-03
1.591794522638651432e-03
3.401462003368975300e-03
1.653623070124261114e-03
-1.475334461007209641e-03
-6.866801899449069546e-03
-6.397379398922344723e-03
-5.080516783708060452e-03
-2.641879466315897977e-03
2.573786303830120567e-03
-1.501402251152125561e-03
-4.495263539597568227e-03
-3.676590678833677617e-03
-4.882302780486469547e-03
1.068510814817118888e-03
4.452121052502746798e-03
2.984562989555602022e-03
2.913590093073857839e-03
-2.891310048910121413e-03
-5.003574840936165537e-03
-1.141095523452296222e-03
-1.583792893760453766e-03
1.295778634055852344e-03
6.814288408767884067e-03
4.940926064405175636e-03
1.307665101463987341e-03
-3.008781581348820623e-04
-3.497417768419648718e-04
4.517507129618656553e-03
5.113327352595949810e-03
-5.254894161097578120e-05
1.035326674938574689e-03
2.860656263471123006e-03
3.012547529353424777e-03
4.363465562048365713e-03
1.740274845936548879e-03
2.909395135519261127e-03
6.543729830242447573e-03
2.951486256205870448e-03
-4.841126342417357122e-04
-2.136221816300080695e-03
-2.850267398911741825e-03
8.586686553644127346e-04
2.596063886686904038e-03
-2.017664234828459371e-03
-7.370492461076202581e-03
-7.884932168035610478e-03
-4.929903569872697011e-03
-1.398846002711525045e-03
5.296098611805481011e-04
-1.878419719933177405e-03
-4.035880518466083804e-03
-3.459491150078304253e-03
-3.490792225344345120e-03
-1.513425913569893663e-03
1.903636904277038232e-03
2.720390490997988409e-03
1.598185064568256137e-03
-2.061532279157195658e-03
-6.553228996944408455e-03
-6.858381266909480828e-03
-3.320981694261933292e-03
4.042907110399511679e-05
9.466411559990907257e-04
2.545080676397686471e-04
-2.561339776796724859e-04
6.371993349509842350e-04
3.636426104382659528e-03
5.940785405717962341e-03
5.546528471955753346e-03
3.566289732559597882e-03
-3.277038163430244727e-04
-1.187126342964584620e-03
3.074408292480643266e-03
3.682206685564778492e-03
2.457432454142404084e-03
5.804288502272687313e-03
6.533074266753751726e-03
5.512218962242260850e-04
-3.587464872580750554e-03
-1.890189396565314242e-03
-1.978410413861027371e-03
-2.250210512069309582e-03
2.050722175258991396e-03
1.001692150066075442e-03
-4.060546896980548812e-03
-5.471532884031201846e-03
-4.942215260086597894e-03
-4.093922210163815877e-04
1.942612798199607567e-03
-2.288372977495598242e-03
-5.703237673290689584e-03
-5.248302954709568174e-03
-3.064590678849869396e-04
1.979345080857887202e-03
1.007775572867845642e-03
2.626608296964623359e-03
1.026295741418692918e-03
1.044477550907172347e-03
2.133901078008594056e-03
-3.020719218574665146e-03
-2.434765619424905658e-03
2.910529479507272237e-03
5.070763795778848899e-03
6.164221915521908395e-03
3.268267697249038935e-03
-5.208255275323758434e-05
-1.303361002790465076e-04
1.756789208811795466e-03
3.084911260991993285e-03
-4.321987724201982895e-04
-2.600047242135652536e-03
-1.921458882323223835e-03
-2.497241623337408470e-03
-1.395447535570268870e-03
2.464530425422523747e-04
1.965463118543563179e-03
1.192117652809979817e-03
-3.861884929947277494e-03
-3.739377048657061345e-03
8.692860454771390204e-04
2.149976678996663206e-03
1.753318473204576672e-03
1.158245077618566760e-03
3.806955559854687779e-04
6.530546250369321766e-04
-1.580531124336406442e-04
-1.986171185002004284e-03
1.130838233979881372e-03
5.541317101278999541e-03
2.194824936262525141e-03
-3.502762869909487736e-03
-6.175481520380681280e-03
-5.775183142894264703e-03
-9.325438739159347141e-04
2.785122799436764301e-03
5.112825025424287337e-03
7.251052286455507770e-03
2.168511841885976867e-03
-4.353435231294349242e-03
-4.730328595892400317e-03
-4.392552109632227864e-03
-2.555519051889731247e-03
1.532589110294149898e-03
8.655382732791823842e-04
-1.317599522084543810e-03
-3.240520075447009957e-04
-3.451964100425228103e-04
-1.779552377307566430e-04
3.432040788136660994e-04
-9.627319776717557093e-04
-2.026555645299197954e-03
-6.308925922603501359e-03
-8.306877764897769093e-03
-6.623838897164887468e-04
4.936434072397871513e-03
7.291974204535491520e-03
9.001647821918845258e-03
3.482483652504097821e-03
-4.905826644171607616e-04
-2.622104674122926527e-04
-2.288160582163846068e-04
4.579338109531243088e-03
6.840509974939483137e-03
2.945106915522379982e-03
7.262491915041251580e-04
-4.469056113531168846e-04
-2.383462839014544130e-04
3.553531541628904885e-03
7.148332837396079859e-03
4.847089141959914048e-03
1.065289569304100903e-03
1.034003072484935941e-03
-1.774323516948190160e-03
-1.973079118419360234e-03
1.923991977869833397e-03
1.960491871449605589e-03
5.290083152751411458e-03
3.054651738245989321e-03
-6.530472920543040072e-03
-1.234820309828706976e-02
-2.712448705336132498e-02
-2.857617064337405685e-02
-3.472117187971115494e-03
4.037621391752072540e-03
-2.136224903575605766e-03
-3.989842696121865943e-04
-1.639732767468301015e-03
2.460638230588373283e-03
7.624505570106323432e-03
3.461034156354806258e-03
3.092673578799144674e-03
2.939865924090257279e-03
7.493270258647277216e-05
3.172041438185447572e-03
5.605398358907416091e-03
4.839692267278040451e-03
5.193490583803688811e-03
3.049026829985650340e-03
2.948386951494913130e-04
1.137496757519526266e-03
2.105276069492583672e-03
4.027052341530825905e-03
7.970174427869979039e-03
7.039742081188227890e-03
2.197565743710990643e-03
2.183967286917910854e-06
-1.872565268800769050e-03
-3.484078964467079379e-03
-1.416784616587553076e-03
-1.550440230580906083e-03
-6.211003166569898162e-03
-7.869139930839930130e-03
-3.685876115669323768e-03
2.964593521873352868e-03
5.117204279928733168e-03
3.060534883752248636e-03
3.063604724656657317e-03
-1.333397322887623811e-03
-6.208847075698319118e-03
-1.033718143337959867e-03
1.889033974746176384e-03
6.423375592875606947e-04
2.481901308456297729e-03
8.343644210130757299e-04
-2.369077454725751226e-03
-2.433462872743589588e-03
-1.632075449933909550e-03
6.706877254410366666e-04
4.298040019503797382e-03
2.934840512421690775e-03
-3.639072832185342912e-03
-4.472423422233330441e-03
-4.573671084285442848e-03
-6.416113263464435362e-03
2.146009321145060569e-03
7.179161873004168831e-03
4.153187663495031511e-03
3.413267145117139002e-03
-4.321212891442918237e-03
-7.698246180684536512e-03
-5.735936896026810113e-04
1.837822430326011068e-04
-1.105995717062321356e-04
7.227195974304471580e-04
-1.770138513169211428e-03
-3.344667101836209556e-03
-1.926998361281356906e-03
3.903982855916016299e-03
4.812422171813454316e-03
-3.182956276981665166e-05
-1.252824919404048158e-03
-2.674149832122384250e-03
-1.227198835971182560e-03
3.646643723447619712e-03
4.184755423722559715e-03
5.323235297040991576e-03
7.159009355134932778e-03
3.199191805995607162e-03
-1.878932763359189269e-03
-1.036980689220496493e-03
7.847680194474729613e-04
1.435148813515890363e-04
2.905305167549372333e-03
3.934023709987170651e-03
2.017306284993899100e-03
3.092990875916309425e-03
-1.363885688120220158e-04
-2.336955951364123700e-03
2.693762528261362324e-03
1.515584502305837925e-03
-4.228817142584512072e-03
-5.336640504334206475e-03
-4.271328254228994210e-03
-2.159993767783660677e-03
-7.964134173975457188e-04
-1.244909049192727355e-03
6.920374938093153258e-04
2.244573291034391172e-03
-2.995014899627560651e-03
-7.001963571500921177e-03
-3.724216426515021897e-03
-1.434623306741504480e-03
-7.822923269501268814e-04
-6.452271404288043889e-04
-2.591155813616328758e-03
-2.657898813038594033e-03
-2.054861790790315449e-03
1.753601667220248267e-03
8.000949288038699050e-03
5.341653430084978942e-03
-7.310000534681710673e-05
-1.211138731858343517e-03
-3.536411967715659497e-03
-1.972465717320181621e-03
5.150342641515037734e-03
8.239584517133059782e-03
5.920290524623755823e-03
3.775460300059193652e-03
1.447782618060431932e-03
-2.684793618285611933e-03
-3.181953911815319815e-03
-1.466077104086920815e-03
-1.884714682937958579e-03
7.870601249466287978e-04
2.419874999751665812e-03
-2.405265786571967029e-03
-3.895596570161115237e-03
1.045282464886814183e-03
5.649364739096731335e-03
4.885717821080451384e-03
-1.506854397388581205e-03
-4.517918879750179931e-03
-3.518683283530775561e-03
-4.842482463036978935e-03
-1.044242634140690826e-03
5.435171016783747061e-03
4.370817684867917517e-03
8.173297093047926292e-04
-4.289530343793855963e-03
-7.647678738956045427e-03
-3.453045603431125453e-03
6.115334186023072644e-04
3.871906278714888020e-03
3.721691076211244408e-03
-8.575083672002479541e-04
1.588954748037680253e-03
1.703925882943591085e-03
-2.910940009042082503e-03
2.911535474210904736e-03
7.753825851468357407e-03
3.017193354467297139e-03
-2.442598902876257083e-03
-5.584128545185296916e-03
-1.453436923306145306e-03
5.875306963539543570e-03
3.510934997130227622e-03
-3.151426432672169500e-03
-2.849424333460330670e-03
-6.428854325160978560e-04
-1.887281074023493049e-03
-3.012177388455383308e-03
-2.652469199134512446e-03
7.879200905072751820e-04
3.626725511144803481e-03
-7.567623936715268170e-04
-4.194571388785069480e-03
-6.678881391511393411e-04
3.693147772937089689e-03
6.179050603926732575e-03
5.118196720886621434e-03
-5.192543939974688999e-04
-5.504682893062105495e-03
-7.041672803302740855e-03
-6.395034142491294767e-03
-2.231926166645436561e-03
1.992422396185013819e-03
2.622599826019113983e-03
1.130036925180426905e-03
-4.365271390928563387e-03
-6.074057183366662026e-03
-7.343360319447902757e-04
1.120770073060496337e-03
4.789464074934482452e-03
7.211294020374704565e-03
2.375352337909447014e-04
-2.036616642680600352e-03
4.066531736607935203e-04
2.308804332341643593e-03
6.381233128111027907e-03
5.443022983220528917e-03
1.481494716365028795e-03
-8.839105954544903068e-06
-1.908834450549630034e-03
-2.473657409684760708e-03
3.133566207510568146e-03
1.028093938927199247e-02
9.977856911344973670e-03
4.790152677180456453e-03
-3.496488640249887682e-03
-7.324586904974603185e-03
-1.105208493392989761e-03
8.010940220287925519e-04
4.316220977599914167e-03
4.819369439761035309e-03
-7.932816795986974770e-03
-4.268783923046763108e-03
-5.244915976955284199e-03
-2.727058684823443699e-02
-1.808218204279492605e-02
5.395413562599992580e-03
4.628602991342599046e-03
3.645516447819525073e-04
-1.241354371740200106e-04
7.150167162450557371e-04
3.628303847709577271e-03
5.430524954233723230e-03
6.061678434924749892e-03
2.474486741567021031e-03
-2.359290171815730912e-03
-4.873321593469578071e-03
-2.162254462137058828e-03
3.270876014983793972e-03
4.569726536374705585e-03
6.598452424667031017e-03
5.203229982397932288e-03
-9.317736986235223120e-04
-2.251714821483541060e-03
-1.835594279229140749e-03
2.990453410298008798e-03
7.540026348485125325e-03
1.949540197704732617e-03
-1.780574290437174356e-03
-2.408301008289106225e-03
-3.275921547080653563e-03
1.151115926056255848e-03
5.119922873201338334e-03
6.614799660488116656e-03
3.899504733392093400e-03
-3.998952686099635501e-03
-5.860104130158598837e-03
-3.891277941271779547e-03
-3.293925204816703593e-03
-1.809381503412503078e-04
-1.534327666875524789e-04
-1.155193013039375240e-03
4.139985856430846486e-04
-1.907645609471051882e-03
1.299075491711575658e-04
7.671848930637549871e-03
7.996065302647794096e-03
1.514334098921430501e-03
-7.610418593132176057e-03
-9.217696879195476020e-03
-2.687706762929372665e-03
-1.521569731278427963e-03
1.159317074595471713e-03
4.916206053724131268e-03
1.491584021308310810e-03
-1.986663290062725632e-03
-8.938953045943401343e-03
-1.061034362147340697e-02
1.261687898718817083e-03
7.133053754972967266e-03
7.204915301541406532e-03
5.116217212360492199e-03
-4.300536010875747120e-03
-6.505582130412309629e-03
-6.133648715182082184e-04
3.328106814169083227e-03
5.121435009068000394e-03
1.080784859685323361e-03
-2.391550470519203560e-03
1.199722270244261638e-04
-6.481972431101170945e-04
-1.011060223259540236e-03
4.221792272740398227e-03
5.937247423242864031e-03
2.759778178842534156e-03
-1.763314425972089617e-03
-4.835892007211135823e-03
-2.151693399184934768e-03
3.929613947684527844e-04
1.547077073595795149e-04
1.844559222611467193e-03
2.295135690264422674e-03
1.541909133363623095e-04
-3.882978795768545280e-03
-4.858236045974387643e-03
2.470484743835821718e-03
5.642204911658467957e-03
1.878242784118744780e-03
4.614633644997299423e-04
-1.932748181425603031e-03
-2.209258386340824751e-03
1.992689548871705209e-03
4.140767024769197169e-03
6.134154216742765398e-03
5.198126734826714196e-03
-1.382305609123640538e-03
-4.429146844706720494e-03
-3.195040057299033693e-03
-4.170766190864706215e-03
-3.385224720301035443e-03
3.536333630571374749e-04
-1.617508089009372929e-03
-4.006284661490930321e-03
-1.021517412764353511e-03
-1.359781118518214296e-04
1.747039362576128553e-03
3.820394940140830163e-03
-6.361562509630638873e-05
-2.958292453310316754e-03
-2.460335014195554146e-03
5.985290953745606678e-04
2.011141915371111085e-03
-1.164671183477687189e-03
1.163388058587333995e-03
3.466239680131716003e-03
-2.677214789831715031e-03
-5.568220174625338088e-03
-1.579687199344528056e-03
1.840387778517651356e-03
9.702730426762772378e-04
1.721699648092944257e-04
1.141650639805753863e-03
2.309384424660719233e-04
9.476717574456008973e-04
1.437406694950669073e-03
8.532140621874622450e-04
3.132790547576562099e-03
2.325678391158680827e-03
-2.276507083967764099e-04
-2.382793822182043171e-03
-4.425151426571100922e-03
-6.955950275313579683e-05
4.641887806247785471e-03
5.457131315313138928e-03
3.899297303359914799e-03
-1.927960440833928219e-03
-4.766440126959456229e-03
-3.498308011367942932e-03
-1.126841710476742930e-03
3.298508957399712803e-03
5.096833619848461887e-03
2.839823035520898289e-03
-2.796135323674940523e-03
-5.926863068715749333e-03
-1.366937635198241588e-03
3.097545325990124377e-03
4.559105115254491643e-03
2.266694829415525064e-03
-3.481444810252466888e-03
-4.431808481561446723e-03
-1.655066412438131350e-03
1.479526365145487736e-04
2.532736219891154605e-03
5.124734116303279220e-03
3.557179769009859854e-03
-2.463237535402072135e-03
-5.408521562432007553e-03
-4.061089750426016831e-03
-2.016478755037237960e-03
-5.870148020413568459e-05
6.542974836209718018e-04
9.475204469943720531e-04
-8.875032767716510519e-04
-2.456017291536189730e-03
2.004824584046819528e-04
1.300409799082576567e-03
4.838463857865593978e-04
-1.040491599026153709e-03
-3.524313462296480015e-03
-3.041128746827590369e-03
-1.194590918469034700e-03
2.111147483461701946e-03
5.154338719461477002e-03
5.898405236501572460e-03
6.577655081127834445e-03
2.934967657798526934e-04
-7.049428373970848156e-03
-5.256632496741011837e-03
-3.917987846110083418e-03
-2.992316551446822306e-03
1.067143363956145927e-04
-4.428447794405477396e-05
-6.390946577383480433e-04
-3.125310188246937636e-03
-5.235475379623735076e-03
1.179080567322956076e-03
5.979284046886538563e-03
2.994554743786524090e-03
3.643460031154312044e-03
4.637815944305696131e-03
8.675668765473697978e-04
4.277971443398258418e-03
9.557140362297161448e-03
6.379171797512081868e-03
4.296226610459678678e-03
2.565179346176297594e-03
-2.515541373179167733e-03
-3.969617590442310433e-03
-2.077825295742211260e-03
1.748740481362559118e-03
3.183483742298741110e-03
-1.875984316531618002e-03
-4.145413533617533543e-03
-1.147807567686963881e-03
1.258983320316067484e-03
3.288380828951774013e-03
3.046303037274457164e-03
2.888356469239827893e-03
5.125404195166669355e-03
-9.127599807392371839e-03
-3.702758113347189711e-02
-3.385301258263108404e-02
-1.313930482999518682e-03
1.195889207456883249e-02
5.812444436612129207e-03
3.511827710209490527e-03
1.233587452865935689e-03
5.151923394260805953e-04
4.686083813157134251e-03
4.691197982555190236e-03
2.378990033765667877e-03
2.529609291528104546e-03
1.291208612742661150e-03
-1.304883860917237627e-03
-1.185382807589828794e-03
3.437724673511997550e-03
7.985106625043189577e-03
8.288734445581201135e-03
6.443774318339243190e-03
1.140637113475133054e-03
-4.256294533797117495e-03
-1.118720278028944399e-03
4.838800139896997504e-03
5.271351771507765301e-03
3.339802613690348761e-03
1.782010794871906247e-03
-1.752584978131495677e-03
-5.919501862046552820e-03
-6.563037009998899142e-03
-6.124443908371130299e-03
-5.022607725918422708e-03
-1.550629845832391957e-03
-1.364990438277281174e-03
-3.353214721414185528e-03
-1.327197797815310573e-03
2.685340906782433899e-03
3.637378295244244990e-03
1.502743013682874889e-03
1.634880458461582730e-03
2.597434478641909121e-03
4.197199940283806961e-04
-3.421862658424207966e-04
3.108936613788657564e-03
6.490034658299488265e-03
4.557431659003497414e-03
-2.323384957418962748e-04
-3.883720065868076846e-03
-5.034402483056660098e-03
-1.874009810121222757e-03
-5.351266331466026640e-04
1.748262783030194063e-03
4.041927078850735683e-03
-2.589444266909991278e-03
-1.665409472064323685e-03
-1.969361659921386402e-03
-7.818278494803194631e-03
8.656046140012214202e-03
5.425818823829906858e-03
-2.502999619370033929e-02
-2.060506203710424714e-02
-3.927079663858859364e-03
3.343361752158714208e-03
1.344432224135996834e-02
8.437254255578861828e-03
4.025835369428434202e-03
6.650943167918668859e-03
4.183536505563514082e-04
-2.073950911028300727e-03
-1.114212475804349754e-03
-4.469856251237659607e-04
2.553479659542625801e-03
3.224772013951893342e-03
1.890766440599089219e-03
-5.447455575169539519e-04
1.154381340197889287e-03
5.118140230301834216e-03
6.872649483666673324e-03
6.795207225516136304e-03
-8.724917151832464789e-04
-5.578269670654311015e-03
-2.290824304246219262e-03
-1.544720928949360438e-03
2.918225103764700485e-04
1.975729208304454702e-03
2.796417321610459011e-03
2.006255857683329497e-03
-5.376290972970416623e-03
-7.017969799916955360e-03
-4.124046084515727018e-03
-4.376495569632182780e-03
-1.082775903985337121e-03
1.219392431850238210e-03
7.148435622208490318e-04
-2.384280808336933320e-03
-7.323968603252966822e-03
-9.434182456455490534e-04
9.376300747989218046e-03
7.069859088173799377e-03
-1.689228648670374660e-03
-6.304471069100396272e-03
-3.851307470545112851e-03
1.354906777052748658e-03
2.744426297242615401e-03
1.171573241467797552e-03
1.404286575215388591e-03
1.851627870012007102e-03
-1.001848184098953591e-03
-2.210141308214645314e-03
-3.447478254977947524e-05
7.509345351254954328e-04
1.645643371667055441e-04
-9.152110059288203988e-05
9.133782790715145499e-04
1.757781531606020849e-03
1.050584160195202612e-03
1.103047035190126432e-03
1.983046661270344933e-03
2.532560477803584131e-03
1.409831488545299329e-03
-1.813789009776643150e-03
-4.939056753831103271e-03
-5.364684056044605361e-03
-1.343192873654881292e-03
1.604470972465435854e-03
1.150614916154268875e-03
1.363133809671810814e-03
-6.963045833270092204e-04
-4.458053011952288784e-04
4.346407432457956646e-03
5.647632969990218008e-03
8.330414306138723274e-03
9.442988753201472796e-03
3.371177558268655637e-03
8.325443063135161675e-04
-1.551496218934600023e-04
-1.794494189074032466e-03
-2.310216316000538697e-04
-3.851775343231133176e-03
-9.207067121090154599e-03
-9.273408160488804883e-03
-1.241036245949183811e-02
-1.517504166757304741e-02
-7.634579315277890445e-03
-7.405237366806839954e-04
-2.849142161029541518e-03
-3.089716379304643414e-03
-1.899217454055349011e-03
-4.191106067222793302e-03
-1.295022850853639609e-04
8.649280498249535890e-03
1.343414492586556853e-02
1.457997965186386830e-02
1.055084495463052587e-02
4.330593435891878784e-03
5.260219091529215636e-05
-3.062265272178270586e-03
-1.876161133445883138e-03
