8.850861468645217917e-03
1.445565475029061617e-02
8.967393420768002624e-03
1.140760237983922884e-02
7.845508441944357148e-03
-1.814006496220167339e-05
-5.598649994864514368e-03
-1.022437424485177736e-02
-1.387274849129939425e-02
-1.392853682124689171e-02
-8.573657816284992877e-03
-9.476909253879449088e-03
-1.325162494287128803e-02
-9.462210977867577255e-03
-5.405222967260303428e-03
2.557681100240460480e-04
3.837461446748443271e-03
2.125804226372869470e-03
7.133832497977157447e-03
1.176650410790086587e-02
1.106235216585491933e-02
1.308923947048270392e-02
1.220459092120986314e-02
7.411858135023565580e-03
2.887149735438963513e-03
-2.427688775021573722e-03
-4.879386130850310067e-03
-4.381736877549139049e-03
-5.953765191634236009e-03
-6.296137268406440564e-03
-3.070638232020337505e-03
-5.724649887972562724e-03
-1.106407149366385456e-02
-6.968377096770991819e-03
-1.709146535825251502e-03
1.382563793251350901e-04
2.992003946736021634e-03
1.420738083507673381e-03
-3.658911213548188507e-04
2.242769049964491238e-03
3.706218250948914699e-03
5.003837476604195908e-03
5.403682835582318544e-03
4.231306835808999051e-03
4.317725875921797456e-03
2.296989683857169392e-03
-2.047129141929822458e-03
-2.709074468729326304e-03
6.232129415617555877e-04
1.349208812271089110e-03
-9.951573143135588359e-05
1.235798442612756750e-03
6.115147732137060210e-04
-3.512213084018841937e-03
-3.798666128478941917e-03
1.472913354509448880e-03
5.072779338583557375e-03
2.089193908649834668e-03
-9.252489746409963160e-04
-9.252280344056332349e-04
-9.315961252522840519e-04
3.917444566655726751e-04
1.450502380292128949e-03
1.096424819475820675e-03
-1.717931531389665359e-03
-6.183425430964086672e-03
-5.411359055252630730e-03
-3.436775488096296439e-03
-2.424527162113291646e-03
1.976807925745030677e-03
4.244390092865385315e-03
2.500496848849880199e-03
-4.775321862793712358e-04
-1.518438503331126770e-03
-4.365322975584158419e-04
-3.024162860620602288e-04
1.847125042996981652e-03
1.289217037713760554e-03
-1.538567026254325119e-03
4.527782910476840891e-04
-1.004946314779475974e-03
-2.908688055149283996e-03
-2.076342314036419261e-05
1.629543870260463092e-03
4.497154432377603941e-03
3.872304819733078749e-03
-1.235484437876261526e-03
-2.419404097358611623e-03
3.118662137279465808e-04
4.397604638351765814e-03
2.983979231943120411e-03
1.773849074646463900e-04
1.092412748221978803e-03
-7.123085319671749929e-04
-1.676655735406549119e-04
-4.672310368414942915e-04
-3.205773913529850593e-03
7.006332484143819317e-04
7.558320140112464915e-04
-2.079757141897953677e-03
-1.386378124462830192e-03
-4.007604095284500456e-03
-2.788075016223808857e-03
7.006410356969545094e-04
-1.246346173757818040e-04
1.170754055509977724e-04
-5.978280611630184529e-04
-1.206141736472581471e-03
-3.987134797896708591e-04
6.494277692136285040e-04
3.707223311020150115e-03
2.525972625273165736e-03
-5.612916646992933316e-04
-3.608544577580272009e-04
-1.012851607203152284e-03
8.211343292702889341e-04
2.987326888603710796e-03
6.625710962565522447e-04
-1.681306637507591671e-03
-4.539186002437627966e-03
-4.614594173603871370e-03
-3.588743288299100446e-04
1.236696693300718287e-03
3.962584225733609654e-03
7.202278407937611968e-03
3.435013971548204516e-03
-1.341581674021545935e-03
-1.367646818890712324e-03
1.344737106466327870e-03
3.100313470167058872e-03
3.375888863109105520e-03
4.071807264601925644e-03
1.987053270246252803e-03
-8.902545771336154660e-04
-1.134966082776393652e-03
-1.104162791911104296e-03
-8.530803367713954768e-04
-1.976752117830662785e-03
4.941394752513289523e-04
3.926417192487370415e-03
-1.410346238408603878e-03
-1.701118033942926972e-03
2.176576861677132369e-03
1.670240801084489895e-03
1.835560232610003928e-03
-1.490078381283300481e-02
-3.008860781315018940e-02
-1.232602671991891476e-02
3.059042262159823895e-03
4.035451827367923100e-03
9.516180504982332811e-03
9.436789318372849900e-03
3.860099290912332500e-03
-7.921501216950714835e-05
-1.938972418943727110e-03
-1.893105319390884144e-04
2.976143801676983582e-03
5.112590249210033008e-03
2.024510164630621833e-03
-3.663300372905896676e-04
1.239060258173196091e-03
-6.914442187317445653e-04
6.193285607075423981e-04
5.332810447597242584e-03
4.013000611697003020e-03
-4.636033631224322827e-05
-3.132573807767045568e-03
-3.074082211265576764e-03
-6.454599392647263545e-04
1.694167020856896400e-03
5.049182594858612171e-03
5.330248374635315062e-03
1.336897887928015054e-03
-1.553410549963795285e-03
-2.033592490503308842e-03
-2.136981240566486039e-03
-1.840950808101880602e-03
-1.686004906585520258e-03
-3.730595728911779204e-03
-3.370793055477149316e-03
-9.352237283926726754e-04
-2.132487224937845878e-03
-1.206728376998085321e-03
1.295336980486855132e-03
1.790374258637497554e-04
8.010371692247208195e-04
2.330653297090125309e-03
1.848367385545363062e-03
1.950238456865382520e-03
1.014393223850908231e-03
-4.029925158211650985e-04
4.311275809418729571e-04
-8.973862833470878887e-04
-4.306893566567877689e-03
-3.512858213480451412e-03
-1.898207846695080213e-03
-2.164279623249060073e-04
2.264177753795078903e-03
-7.610543653795528345e-04
-2.311204915430365488e-03
-9.688608009742070894e-04
-1.033186728214085127e-03
4.279964325148944045e-03
5.946142899772134151e-03
4.301116695127141405e-03
5.005753344704374358e-03
-3.231121472904737064e-03
-5.344981167163317427e-03
8.076224875081072611e-04
-2.250645093071936345e-03
-8.283712144807883282e-04
2.788042971277273144e-03
-7.982581543312698095e-04
-1.566190285956385814e-03
-2.521697695565078452e-03
-1.879047528390651771e-03
1.565721530438489526e-03
2.095237974494660541e-03
3.531927822096564244e-03
2.062167426983705504e-03
-1.920228645968642895e-03
-1.886021706720721535e-03
-7.577523415765210742e-04
7.061311622326564867e-04
1.855916542741046322e-03
9.223695639210149509e-04
-2.443786382817950392e-03
-4.950108342233875726e-03
-1.269672216481366371e-03
2.884923627059903743e-03
3.188013142625043678e-03
3.641080107899794232e-03
4.015567494426079340e-03
1.115201258053208485e-03
-2.921176885861124627e-03
-2.216438502433576343e-03
-8.130314618136796120e-04
-6.062196402819796347e-04
1.522407906147160055e-03
-5.547749208513910821e-04
-2.239574676362173552e-03
-4.909917311553815486e-04
-2.197833370164017659e-03
-1.755632453407640669e-03
-3.132197600385026176e-04
-8.663578066320003429e-04
-8.750906645602385707e-04
-2.187613318457484052e-03
1.217945274627894002e-03
3.982599365963982070e-03
1.017061398647343528e-03
2.709091350579144117e-03
3.957614885837288862e-03
2.132327798601392314e-03
1.026742214618665318e-04
-3.016701912362959159e-03
1.434469509405720904e-04
1.411581999533417266e-03
-3.167296924339602689e-03
-1.683941362199545527e-03
-3.756879264339749820e-04
-1.654787604260371352e-03
5.228912139229262941e-04
1.906837530180355983e-03
1.938380665386735474e-03
1.572414669378427964e-03
-4.252894632176641774e-04
-2.431939075357131708e-03
-1.832639875290955440e-03
1.066591465031794302e-03
3.500686223484056597e-03
4.874034309791982177e-03
1.977081401449143783e-03
-3.429844427731790126e-03
-3.299574593291816713e-03
-9.198035178680238162e-04
-4.297685211456356747e-04
6.539115293716434929e-04
1.011065317661204860e-03
-1.927286332652161736e-04
-1.567397140620450284e-03
-3.056852439034242648e-03
-2.823972938215395245e-03
1.013907185461741974e-03
3.565735068639407524e-03
1.621226712935626684e-03
-5.938360767426791986e-04
-2.846508782974645387e-03
-3.472241161419314590e-03
-2.053118840833979472e-04
1.846913247298308291e-03
3.102815619240332709e-03
3.261166984147335478e-03
-1.973076477554492410e-04
-5.170247121683279332e-04
2.298020270915203042e-03
3.189298369628587853e-03
2.719146379632466932e-03
-3.865454368303021483e-04
-3.138022393922100528e-03
-2.341860124394622069e-03
-2.105592411845621723e-03
-1.953436163105339799e-03
-2.353538973687646315e-04
1.227164227583435593e-03
1.269412691384686192e-03
-1.297823156364430117e-03
-2.917312402972575477e-03
-1.851050288911602459e-03
-8.685014854382526765e-04
1.373842425590849356e-03
3.852371150322829105e-03
5.393044725694608188e-03
4.653588788215112272e-03
-5.702642826438507210e-04
-1.695305467331907146e-03
2.401856026093816734e-03
2.416168652813024779e-03
-6.146309146371039178e-04
-3.209574569645493296e-03
-3.992680566553221191e-03
-4.082942635213681129e-03
-3.680700888359504305e-03
-1.234621846171950416e-03
-1.161096022959761179e-03
-7.530063748696448405e-04
-1.716073671242771578e-04
-3.565634122654332688e-03
-2.489434494523991639e-03
1.215207416036008915e-04
6.852503097789838099e-04
3.788800155149018786e-03
3.637385992210986040e-03
3.369430467269075944e-03
4.075609875289731322e-03
7.122550731116925526e-04
6.369086019887417816e-04
3.435514171979437391e-03
3.803823170952858653e-03
2.597282078053301472e-03
1.191679398167220291e-03
-9.019181746312991471e-04
-3.419285110089565708e-03
-8.980751055280165786e-04
1.442114439283127868e-03
7.309587847767461686e-04
2.163550919962869967e-03
-3.947122909506940096e-04
-1.104787666487629929e-03
1.375933391483952217e-03
-3.062729603674757897e-03
-2.102949039376454145e-03
4.685982836204999336e-03
8.234470630390833311e-04
-1.367872158161591301e-02
-2.124288627505527965e-02
-7.012526883114254296e-03
6.877370410831121564e-03
4.239363754921325438e-03
3.165900913613971940e-03
2.476061280103648930e-03
-1.027102047899226041e-03
2.052637076819410159e-03
4.202021233039316371e-03
2.844568515246045926e-03
2.961259761065799297e-03
-1.258147422538573074e-04
-3.584614355380219032e-03
-9.895231314283102573e-04
1.690070190229479418e-03
2.542493330284638017e-03
4.607157957132117232e-03
3.917620205374696546e-03
3.094390108304361821e-03
2.852941502391396610e-03
-1.561931703203836000e-03
-2.239316758778092317e-03
1.284894928248911947e-03
7.575371576074377018e-04
-1.447372067261165976e-03
-3.684630849935562839e-03
-3.589945809773888337e-03
2.987977391156992598e-04
7.772401396528874585e-04
-1.770908333471577249e-03
-1.133679687436047389e-03
-1.148668249612961689e-04
-1.247679029679020328e-03
-1.385508231280365441e-03
-1.375236481196640643e-03
-9.669722613685721550e-04
1.928061525077817608e-03
2.287488316713682038e-03
1.244501173600029388e-03
2.912984787966598193e-03
2.006756168691024855e-03
9.261363899019058304e-04
2.636947039197795779e-03
8.039769078758021801e-04
-1.097291737319691434e-03
-1.388835020045349217e-03
-7.106622295567788065e-03
-9.122787517650757586e-03
-1.133287854544898351e-03
3.047394042115918536e-03
2.674461451149213846e-03
1.609975815732594354e-03
-4.299825835575138769e-03
-4.826538423647460871e-03
2.040161700733841203e-04
1.848040114782566927e-03
4.653561070127453826e-03
3.408812885127831486e-03
2.200037333866615408e-04
3.060053554864646495e-03
1.852022760439930252e-03
5.911024584457538322e-04
2.516026517687905764e-03
-8.319189935085790754e-04
-1.987925517996958456e-03
-7.143900556552149972e-04
-1.049409584930872680e-03
1.452443577330624590e-03
1.745714602168705297e-03
-1.027528440919080752e-03
-8.644457066257116469e-04
5.078799735079911597e-04
-1.672449816207424245e-03
-4.206274840656167371e-03
-9.035446978452217615e-04
1.522176574725281123e-03
6.237268652108913332e-04
2.719984826671357613e-03
4.155348470605746761e-03
2.125246103717141986e-03
-2.766969398276553863e-03
-5.288160595180587190e-03
-4.353634252542477488e-04
2.341856191985644629e-03
2.794586633117738953e-04
-2.435817677509557848e-03
-4.924385777915156644e-03
-2.711157688767602911e-03
1.079902706258389867e-03
2.740497763109845872e-03
2.006546943598884903e-03
-8.656771491294675902e-04
-9.504499433757573066e-05
-4.551348569694952002e-05
-1.439855081913256427e-03
2.314769140913635736e-03
4.369607933084978385e-03
4.386927437714947288e-03
3.568249904314164250e-03
-9.051747016989105830e-04
-2.417199413696446975e-03
-2.265184752135143177e-03
-1.249155522910598288e-04
4.448380854164385098e-03
1.724788460095038776e-03
-1.223043726522243021e-03
2.656106270429360204e-04
-8.944905601794830505e-04
-1.325725676143670170e-03
-2.319679349480051941e-03
-3.777076777863673518e-03
-2.594231597477481346e-03
-2.574945627797655800e-03
-7.383286574891847424e-04
3.254272761387620163e-05
-1.513928095762770215e-03
1.859702557771247561e-03
2.113213596491995191e-03
1.738501249764904982e-04
2.104166176729768602e-03
-1.146586696984922037e-03
-2.679187973068580548e-03
1.188186326651389244e-03
1.606129601434313570e-03
3.612723032778152564e-03
2.911133897143531116e-03
-3.256063223476603988e-03
-3.276213631136439160e-03
-3.998971855745058184e-04
7.372204390493899626e-04
2.353269836663220323e-03
2.060991871471214935e-03
-7.322206878398592952e-04
-2.334839068490199201e-03
7.491334722482112648e-04
1.867787739775454313e-03
1.090061758203960361e-04
3.061256919225661781e-03
2.798055099791619225e-03
-2.646307709233879178e-04
3.139254017311156591e-04
-1.939898105527846023e-03
-1.452028973022333885e-03
1.800094477822102761e-03
-1.167077608814998612e-04
-1.560650432889381257e-03
-2.850869735112588656e-03
-2.115508146129128648e-03
2.166040011704534196e-03
1.057374007793385109e-03
5.958081613363719678e-04
3.292010567102762048e-03
1.068999674282475180e-04
-3.609205203523881654e-03
-2.600987082850534076e-03
5.187943910714930534e-04
4.085789113863933300e-03
3.446140194029727061e-03
-2.049634794720040475e-03
-4.547688886160979917e-03
-1.935666875577069998e-03
-7.671881624103729386e-04
-6.309938094478458222e-04
1.443160417341159433e-03
1.430562009549343110e-03
5.749248333864175877e-05
1.038779826214810851e-05
-6.583262027522215724e-04
-1.387019881868231403e-03
-6.802857625387504414e-04
3.111839223366960920e-04
-1.807491577896651585e-03
-4.630123534323825514e-03
-2.719977513637845522e-03
-1.165345995769541398e-03
-1.462651444454676547e-03
9.490801497449568181e-04
4.234131117275144809e-03
5.874284110273681261e-03
2.392132127124106753e-03
-7.677443051457530669e-04
3.281160577998182715e-03
4.469910525782554329e-03
2.451178695660318450e-03
3.172197125200395922e-03
1.809747902613614064e-03
-6.987244319967270871e-04
-2.407243693951570569e-03
-1.856911712215839842e-03
-1.373460703148641159e-04
-1.793127294259379387e-05
1.405241132190497479e-03
-2.784941842048565402e-03
-6.279523711154816855e-03
2.426745848989662110e-03
5.672507121668497569e-03
4.005506558621132682e-03
6.981798883150417377e-03
5.311766852449472873e-03
8.570440535308064718e-04
-1.164743887107261462e-02
-2.440127091054356337e-02
-1.298662527546611684e-02
3.142418886565748019e-03
3.658126966780043867e-03
9.392068690008678394e-04
2.110995710851816596e-04
3.355609685033196358e-04
-2.284570179349903508e-04
-1.210515165089038692e-03
4.422228426333313107e-04
1.630269884098678543e-03
8.066218045511847762e-04
6.360694379378064190e-04
1.995927864586034481e-03
3.279889905543326763e-03
4.535835343245224124e-03
4.921728946811316195e-03
2.143853763592939131e-03
1.155863161800213231e-03
2.137036358166604592e-03
1.936135722783457721e-03
3.663539701848402257e-03
2.893341715813693271e-03
-1.162251306935442987e-03
-2.721700774580508748e-03
-3.099816626410276978e-03
-2.509290821967532191e-03
-1.844493167697100998e-03
-4.016601994059796569e-04
2.614382230057222568e-03
1.497195566430769903e-03
-1.800081077116379505e-03
-2.853388380784780982e-03
-1.879526744637198543e-03
1.520486955262186286e-04
1.179554485429027896e-04
-1.450044337506340309e-03
-4.139231705608259482e-03
-4.505703461481831706e-03
-2.961587402576177155e-04
4.010355311629679371e-04
7.824501147900976387e-04
4.499751994404547172e-03
3.901613548475907009e-03
9.276148324937575230e-04
-1.835159911422052682e-03
-2.722083213445869194e-03
-8.433664822568275867e-04
-7.841156822264590785e-04
2.024130029554272185e-04
7.619987688118232908e-04
4.670920986647850615e-04
1.349430585077686156e-03
-5.352096566213028483e-03
-7.500037046019707339e-03
4.296004118451624346e-03
7.956992142711498406e-03
3.018535428018770308e-03
1.232278057864655838e-03
-1.661840315730399439e-03
-2.549956429162888744e-03
7.682408967292705948e-04
2.865557750831277273e-03
2.629179236595312504e-03
8.230606502100728736e-04
-1.278125355371706852e-03
-2.065552857984973879e-03
-1.322648987225180130e-03
-5.586781328038207357e-04
-2.625294153888425702e-06
-6.045315741040241430e-04
-2.273182174583866788e-03
-2.826202321788087051e-04
1.585967463655841344e-03
-4.162401147796909186e-04
5.925399380549114170e-04
3.820817058592124865e-03
3.697938249692491949e-03
1.932813784424314806e-04
-2.810260219454114791e-03
-7.818186187847461950e-04
2.993658840473866021e-03
2.509701526524968623e-03
-9.674019603442996374e-04
-2.383676471644124734e-03
-2.751052667262634827e-03
-3.974981909655714296e-03
-1.986427789557450047e-03
-4.489937758865773874e-04
-2.122303718478606768e-03
-1.900973826584864169e-03
-2.713739338232533729e-03
-3.303016605604646490e-03
8.599072179532260291e-04
2.681558428510156730e-03
5.672719266030147459e-04
1.558440812184106123e-03
3.386179555238258594e-03
2.567814505178503057e-03
3.809097413938991594e-03
1.965283985251991931e-03
-4.135247949666700194e-03
-9.963503438196817229e-04
3.678387220582722637e-03
8.776073229476271656e-04
5.542510251822779918e-04
1.857419967274924781e-03
1.894934199247754174e-03
4.466946203505452141e-04
-4.958600194615277526e-04
2.802585738530432354e-03
6.143236267223730609e-04
-4.065562418039577776e-03
-1.572183712369453357e-03
-2.933999567034706367e-04
-1.112550717121946805e-03
4.592727660560332135e-04
2.088082134503157095e-03
9.255985387583974024e-04
-2.664273928567555735e-03
-4.165537820715575767e-03
-3.820949348676925140e-03
-2.449203219147530475e-03
-1.528341741049034971e-03
-1.967074806984284597e-03
-5.019530300909402884e-05
-2.914519941548262497e-04
-1.313052111132458153e-03
1.325542214823590640e-03
1.868301936006596395e-03
2.615234634149686890e-03
1.665675984550133619e-03
-2.440245209747230609e-03
-6.087920641516903972e-04
2.248429682266701174e-03
2.277106047957667880e-03
3.565087232473209723e-03
4.374308113890406149e-03
3.593772708863391882e-03
2.507212285933559689e-04
-2.191776543039557212e-03
-1.153941375429870693e-03
4.660247339745283946e-04
2.104887154691412621e-03
6.231795397376033163e-05
-3.941217883318488130e-03
-3.184618407436957607e-03
-1.019065144038439584e-03
-1.038593445359206309e-03
-3.762212198156097672e-04
1.736641009285459477e-03
-2.459133345653092152e-04
-3.880725760703113147e-03
-8.948242470079661743e-04
1.227741956133489949e-03
-5.629701296146075520e-04
2.255783122376456545e-03
3.285555950164295667e-03
-9.622389151961043647e-04
-2.701566888725382646e-03
-3.141247925063421053e-03
-4.971810766470801442e-04
6.024850507061126591e-03
5.313831656807952407e-03
-8.927106472198088980e-04
-2.638240523427639369e-03
-6.363517821185181228e-04
1.716711686925551268e-03
1.613331878380898365e-03
1.853026823028316745e-04
-7.414710184748982092e-04
-2.647691344919184120e-03
-3.183604230650601951e-03
-1.696608841255289879e-03
-4.804081613584191245e-04
-4.864482017543573090e-04
1.169731357254992325e-03
4.832298336392377124e-03
2.452085314144647043e-03
-2.001796093980956828e-03
-3.390593692129665118e-03
-4.831853600253895736e-03
-1.821657064051248427e-03
-3.313027908846201712e-04
-6.714274707174678735e-04
3.958089756233410667e-03
2.405554396111797728e-03
1.250496950197587743e-04
4.071321883765882665e-03
5.015283328819217235e-03
3.882513276614937316e-03
-3.687132582299344026e-04
-2.540100483559550905e-03
6.957996642918647719e-04
9.213746220053650520e-04
1.005106547285568612e-03
-4.820617502411425311e-04
-3.147043924906761398e-03
-1.168687979224304358e-03
-5.840610163759334637e-04
-3.579885994347684584e-03
-3.866207767284992030e-03
3.029966270789356039e-03
9.597266066792033406e-04
-9.434443396071990132e-03
-1.722685456524388880e-03
-1.881578326942939155e-03
-1.729147993719564597e-02
-6.862104914636614657e-03
7.885629878427065365e-03
7.293380416329492931e-03
9.066624758954953262e-03
5.119270581231738504e-03
1.625995249740137512e-03
4.994335909288696342e-03
2.729668639372093662e-03
2.130039746177913099e-03
3.261402923794465888e-03
-1.587797369051481382e-03
-4.764942646525592053e-03
-5.129980554421494955e-03
-5.392339651774156681e-03
-3.333526719053762563e-03
-1.025225811449010467e-03
1.807612351700370757e-03
5.628688641039001142e-03
6.522740188912619017e-03
7.964413194025040874e-03
9.854676028531966434e-03
7.715083045824306339e-03
1.079187003495938810e-02
1.830798388745030411e-02
1.283302486739432494e-02
-5.871310585657985026e-03
-2.266690157429486138e-02
-3.044312636246262332e-02
-3.192794441822924961e-02
-3.066701687329238118e-02
-2.488091423953710940e-02
-8.805938599961805197e-03
1.594537729522841479e-02
3.844984682630162021e-02
4.695237548003350359e-02
4.065759333107060031e-02
3.225669722046046323e-02
1.069968319385824693e-02
-3.349126965304926457e-02
-5.756393280090112835e-02
-4.985908542241818814e-02
-3.797235127127365079e-02
-1.961808011142887262e-02
-4.691556490780029835e-03
1.079762875046191319e-02
4.313619816207999585e-02
5.334941582537314209e-02
3.268462183546114175e-02
1.307132119729530195e-02
-7.156213290371343967e-04
-2.265430456076742479e-03
4.197612448320398038e-03
7.336219815193062085e-03
1.186677875136554934e-02
1.697764718857117799e-02
2.252468522159921382e-02
1.499074269840947396e-02
-1.507060626567326839e-02
-3.305035861066582537e-02
-2.039842240280553484e-02
-4.080106840728660311e-03
1.593368296024561589e-03
-3.946110498866115587e-04
-1.984812682061785905e-02
-4.879484405645388018e-02
-6.278543937665190255e-02
-6.600949599127088618e-02
-5.969745394400486488e-02
-3.371234781845361406e-02
1.808405401730028492e-03
3.510903238070680471e-02
4.852875122312469425e-02
3.345658251402187228e-02
1.989866256597148594e-02
2.719529032607979901e-02
3.090969439930697435e-02
1.442385802275277830e-02
5.080128954397590199e-03
1.483961529883193534e-02
2.510545107580724328e-02
3.220306122228612511e-02
2.883226851234584748e-02
1.691825830495675281e-02
1.795192365433664807e-03
-2.671492711754969510e-02
-3.979868854100342829e-02
-1.797524922790222357e-02
1.640605473391696864e-02
4.544862508397604778e-02
5.010048010363134935e-02
4.179620300109301856e-02
3.618606710317406189e-02
2.854406255668714282e-02
3.698425447821977741e-02
4.149706301699736949e-02
-7.649084483098064595e-03
-1.026477398007673986e-01
-1.824545117130251248e-01
-1.876152054314365603e-01
-1.187177125479878387e-01
-2.740009031624035529e-02
2.019958700206958210e-02
2.176733441625183091e-02
4.425391067521664001e-02
6.603794987560188123e-02
3.469760025559859296e-02
-7.910172222517296292e-03
-1.572525489209480876e-02
1.937089430882935753e-02
6.349861035699767842e-02
7.990961332217350055e-02
8.502442304570445586e-02
7.628221466100652826e-02
2.974950479272562773e-02
-4.281618939395740592e-02
-1.058220984810284010e-01
-1.166014783022659429e-01
-6.118905043506289027e-02
7.113510036326676014e-03
2.772923405793314283e-02
2.766935920418203687e-02
5.709076004600361492e-02
1.066208071141415414e-01
1.283316835316227478e-01
9.159495806789255679e-02
5.653800989494848356e-02
3.997083738417300108e-02
-2.042838329812008552e-02
-9.123961539168820578e-02
-1.673427045804464219e-01
-2.523797391709447502e-01
-2.423918514776523259e-01
-1.512243317354995953e-01
-7.120127955540331288e-02
-1.113137268596665203e-02
6.554355856453529527e-02
1.783443283302616200e-01
2.455059238294521051e-01
2.142146955590279733e-01
1.340002133937380768e-01
5.410351510488740912e-02
2.302213032043035762e-02
1.269287202193771294e-02
-3.684053374551940485e-02
-1.019795350262946987e-01
-1.335960706584181368e-01
-9.401854736761705578e-02
-3.139080066643411965e-02
-8.656242946760697374e-03
1.615562442120869330e-02
4.997435232324092674e-02
6.205715960508622481e-02
5.451702356204444350e-02
1.979537460292627588e-02
-2.440989633139805520e-02
-5.258986820881623309e-02
-6.300209979951182371e-02
-6.112221416306350824e-02
-7.077834799826002166e-02
-8.339276439810262842e-02
-5.355612185162936245e-02
1.029824432568834068e-02
5.395874298555124876e-02
6.101342163694978976e-02
5.765951644607983373e-02
4.740568774038119576e-02
4.678261377810787394e-03
-4.061939659513592871e-02
-1.664894602382692435e-02
6.446784593124835205e-02
1.326863952991423901e-01
1.645112607836582974e-01
1.523566827104376187e-01
6.277315767303971727e-02
-8.253905583734175155e-02
-1.644593447294255550e-01
-1.381382393987367063e-01
-8.091767796097211474e-02
-1.353616471590240490e-02
5.707361267559526302e-02
7.176423516055663310e-02
2.310601384052461682e-02
-5.048620141090368746e-02
-8.866870130636364533e-02
-5.157523660826079936e-02
1.547710127221183819e-02
3.863028635767438990e-02
-3.478718502043828820e-02
-1.674964241221157391e-01
-2.136081530179050059e-01
-1.181394437772302630e-01
2.308922518987077677e-02
1.278541875459485999e-01
1.723902483009519537e-01
1.507000998455277352e-01
6.359727146689983512e-02
-3.764265934730429142e-02
-6.097646067363100136e-02
-1.554157064720984235e-02
4.086102457603835864e-02
7.871650714834696472e-02
4.381939567253986118e-02
3.167405535346890823e-03
2.046894994061292453e-02
-1.180338191987188347e-02
-7.900967828568829232e-02
-9.889459011806536748e-02
-5.940727224271491469e-02
5.100254789772894898e-02
1.127316202469976630e-01
9.797473079021516706e-02
1.127162025835910519e-01
6.568861492136068847e-02
-7.836725881834545604e-02
-1.843045732261842373e-01
-1.743964898722968615e-01
-3.864856354227403507e-02
1.236862919557344259e-01
2.296126602749119505e-01
2.662254192485268289e-01
1.757432694253759087e-01
3.483422842594592617e-02
-2.969095323258822208e-02
-1.126049979980819210e-01
-2.810632237775455011e-01
-3.724617074098288128e-01
-3.155792686180979301e-01
-2.124054926844062829e-01
-1.482918276062108499e-02
2.663552618645410597e-01
3.655820430087109996e-01
2.721987914892398108e-01
1.643966557178856147e-01
3.691009786083002120e-02
-5.920373339118825684e-02
-1.360017050699486585e-01
-2.670930732929252538e-01
-2.398308534716347140e-01
-7.257333435715870862e-02
-6.212109795923551059e-02
-1.016456264525159164e-01
-3.553991544389526608e-02
2.897081570616235474e-02
1.014929244284581977e-01
2.088330844084140270e-01
2.306069507999720658e-01
1.202005689914699138e-01
-2.860053386196994077e-03
-3.372193156806031072e-02
9.572070209622712648e-04
4.997844653671327381e-02
8.879875908297683862e-02
4.125770680784838357e-02
-1.467245905143471085e-01
-2.946040741288580289e-01
-2.076962945669329763e-01
-7.010109012700005589e-03
1.569452435668612089e-01
2.127625857356356398e-01
1.142032597914265785e-01
2.677145939883790113e-02
3.523155538046943147e-02
4.079883201509732632e-02
3.152965601346861824e-02
2.298678002148364240e-04
-3.967905391272562310e-02
-6.229773395068510800e-02
-6.137041207608467247e-02
-4.584414798532730588e-03
2.611160472037427419e-02
1.268850484669364551e-02
2.733581849048836651e-02
6.973658969760212871e-03
-1.556005267731282865e-02
3.413130629490961770e-02
7.112801282138327130e-02
1.691899727129424214e-02
-1.547879830978318438e-01
-2.877745255168269733e-01
-1.804808260817288845e-01
2.191009822079494421e-02
1.444732449165949673e-01
1.749259447290117397e-01
7.934916603534661328e-02
-7.005933454609441016e-03
3.082977899289543813e-02
1.073609845896701942e-01
1.528870608056989988e-01
1.824004697799746361e-02
-2.009973855784270291e-01
-2.030363020653052908e-01
-1.510626170310502281e-01
-1.557898399197058803e-01
-4.601806920428942738e-02
9.165909761003523948e-02
1.581902459757673907e-01
9.381810866481027356e-02
-1.235139766584575777e-01
-2.903337386260595454e-01
-2.434087613953610230e-01
3.898119905167707344e-02
3.223668160487575540e-01
3.334529772350904864e-01
1.879688606125080041e-01
2.173766071596057795e-02
-1.212890452253065632e-01
-1.411529384095452366e-01
-5.850056539629479302e-02
5.703010989702456818e-02
1.324885331713391012e-01
1.453345204148005776e-01
1.413975636349310561e-01
1.046496836250058876e-01
6.797607753107626216e-02
4.699594757769336856e-02
-2.227344945573501642e-02
-8.515975114658257128e-02
-6.337049892120996675e-02
-1.505001306386081344e-02
-3.410937529566251264e-02
-8.521282245722323900e-02
-9.201453996696436211e-02
-9.250248781380600305e-02
-8.770802028253552041e-02
-4.917484607638918093e-02
-3.869039808655160700e-02
-6.464745697275317560e-02
-7.525079790458069628e-02
-6.115328424905602800e-02
-4.000964470672411372e-02
-2.109701899277615852e-02
3.827640835517697338e-03
2.252684188498232931e-02
3.545297324942552064e-02
6.855185821008111247e-02
9.544347084744886356e-02
8.942442115243699752e-02
6.777558048363170606e-02
3.632295979081489462e-02
8.025759803584470164e-03
5.718470196391317942e-04
2.382961397501425719e-03
2.160825674217555815e-03
-5.422317640680412651e-03
-1.682997294430339102e-02
-1.661439252518550139e-02
-1.361027342927453518e-02
-1.373136973504414729e-02
-7.936680694083923793e-03
-2.549962849315425082e-03
2.994095524477788459e-03
6.542832395278848877e-03
6.739364434902501456e-03
1.084852238374801187e-02
1.173209953558536356e-02
1.482740214217221318e-02
1.792743841746346350e-02
9.258877265950980415e-03
4.984836734270321930e-03
5.481470336365569518e-03
8.980697040429798774e-05
-6.571674544269674040e-03
-1.339007694635737690e-02
-1.691248243033140891e-02
-1.591597373361344422e-02
-1.564715532137511342e-02
-1.659843204247380202e-02
-1.312204310336599795e-02
-6.944012036794146997e-03
-4.892515359182334107e-03
-2.851636911472468089e-03
-1.292422912710071469e-03
-5.857957666022131984e-04
3.706589711479777588e-03
5.283640914030607316e-03
6.324824905794332493e-03
7.366968526297490612e-03
2.563406745690582043e-03
-9.776283803283351490e-04
-2.464048543061708816e-03
-2.812729133488353541e-03
9.778279518604157249e-05
1.902380475269220854e-03
3.981929282853284568e-03
5.736295563335049377e-03
4.761332432135014468e-03
4.252982761728644340e-03
2.604889954258114790e-03
-2.440826330794622703e-03
-4.739516248520861917e-03
-4.031362791347387932e-03
-9.029296617039611270e-03
-1.174110703155096906e-02
-7.265042715801632578e-03
-3.258556902580372980e-03
2.557954439336819399e-03
2.339248329460059863e-03
3.369873797417649933e-03
1.330374110103601376e-02
5.883256087530312761e-03
-3.741815158335480909e-03
3.427452247477525988e-03
8.166219607169972888e-03
1.111671852229666538e-02
7.912321409491874374e-03
1.606124406315648234e-03
-6.947797518102884727e-04
-5.556738427283291516e-03
3.865323761405325444e-04
-1.826714970949840392e-03
-1.511696260551942568e-02
-3.649594599115785123e-03
4.913908736980196305e-03
-6.450198864720699428e-04
1.444011632630376940e-03
-1.151615362632123912e-03
-2.769415644065727298e-03
-2.826013674377952402e-03
-7.645773534070582703e-03
-6.122201365274490201e-03
-5.099775432442560895e-03
-5.099960122902431024e-03
-2.102592996529340733e-03
-7.545350579382095399e-04
-5.541205253364289403e-04
-3.629728947592505799e-03
-3.162871428073033009e-03
1.834439238406517176e-03
3.356214813373385730e-03
5.848875606215928925e-03
8.574517646342006208e-03
7.711756456209722076e-03
3.616300134270623509e-03
-4.362725682618352925e-04
1.663408412220346516e-03
4.250867230386752398e-03
3.180938788846531841e-03
2.001975488936889695e-03
-6.299198390810752893e-04
-2.650189996272991465e-03
-6.666454192356191999e-04
2.317091473052477254e-03
1.923392854001583540e-03
-8.608355799389720694e-04
-2.352491308193621188e-03
-4.014357613737002707e-03
-5.191761376592763516e-03
-2.192214797510687319e-03
1.893579424855010166e-03
2.900029575705147331e-03
2.618476940773050397e-03
2.969438216500842453e-03
2.259163401300358191e-03
2.090984426570496424e-04
-1.081167661842509899e-03
-6.584735831906160476e-05
1.101996644021117086e-03
-9.935445640222939981e-04
-2.497067798647501381e-03
-5.453509932577711716e-04
2.515286419612375920e-03
5.112334261274976976e-03
6.960411708646123343e-05
-8.845388172905178925e-03
-6.445025685343620456e-03
-6.425152667225594817e-04
-1.646571075150341130e-03
-1.846454876730032734e-03
-2.687213654985490252e-03
-5.268927733536744873e-03
-1.945879491268560956e-03
2.957995096331548363e-03
2.919499129180167744e-03
1.123706762740361680e-03
-5.185766060929413688e-05
-1.052533699399003312e-04
1.112433710091740961e-03
1.037435325389725544e-03
-6.966451205521009306e-04
-9.683184742707478046e-04
-5.498179917387527771e-05
6.211386844634850506e-04
2.028567379917839593e-03
2.737583891261548535e-03
2.468313290737116431e-03
3.299727634933789268e-03
3.218765868657011940e-03
1.016524737202490012e-03
4.133765607245538324e-04
3.095758855485248717e-03
5.753796934960774857e-03
5.552319080526511678e-03
2.309465443027159792e-03
-2.591627508299780731e-03
-3.917253295983709645e-03
-5.212454632196321814e-04
8.594968009608357001e-04
-7.168906927220969989e-04
-2.276966305748571052e-03
-4.500142959533985632e-03
-6.479206881093638529e-03
-5.679922052848639970e-03
-1.212497544571492815e-03
2.637028157172798676e-03
2.323086468986733811e-03
1.098267748139893562e-03
-1.255271229175742263e-03
-3.203569118357926619e-03
-1.776584972013861541e-05
1.321700569146250399e-03
-7.220149998755806499e-04
1.756821886605357914e-03
3.105387488561020017e-03
-1.436831863935075687e-05
-5.125670070698252079e-04
9.040568471981104718e-04
2.074989899769360321e-03
1.858655497384996544e-03
-1.832931538420031750e-03
-3.624363334410038960e-03
-1.816919360378335853e-03
-6.665936560293442845e-04
1.311658298650697973e-03
3.158231859282446038e-03
1.660453607987788906e-03
-8.885550184136821114e-04
-1.792934034457028094e-03
-3.371696901349640523e-04
5.022121499799079777e-04
-8.849821188887140640e-04
-9.303114591412101498e-04
-4.566843372698174415e-04
-1.134180574027291236e-03
-1.282846306956017491e-03
-1.893428386931668298e-03
-2.480856718366841740e-03
-1.083829913844268399e-03
1.514702065915404794e-03
3.782725605955686472e-03
3.818027325289403365e-03
2.584234678569352975e-03
2.683883986994317628e-03
1.659419200867267349e-03
-2.133651992117390384e-04
4.508168475619299701e-04
-7.526060293029834987e-04
-2.702232327159686219e-03
-2.536304827885701042e-04
4.849033830266310987e-04
1.427833738495123007e-03
5.473089841180993342e-03
3.667601297555420341e-03
-7.550082309251517142e-05
-1.705842999376135398e-03
-3.432302275779516767e-03
3.232355658765900027e-04
3.854451587630236629e-03
9.998063613532665386e-04
-2.394441291381119944e-03
-4.117523596598461275e-03
-2.618180110385117179e-03
7.431001327102578326e-05
-1.074682915517650821e-03
-2.278984148357393168e-03
3.462563592844875639e-05
6.996944204655102277e-04
-1.887633369830695254e-03
-2.342910645568071354e-03
-1.772502528308392928e-03
-2.164735144584801422e-04
4.362482407465695725e-03
4.282863048277000921e-03
-3.341775230169449209e-04
-3.167694165925932694e-03
-2.407395181089016286e-03
2.720509704921025059e-03
3.595757492556285462e-03
-4.064610365447622218e-04
-1.330741708414686373e-03
-3.341743050317799724e-03
-4.760295866372154898e-03
-1.877702072852530405e-03
-1.026996575494377052e-03
-1.092572317539233177e-03
1.668550948145273646e-03
1.720905142510841890e-03
-2.496857409903767942e-03
-1.773063904624554371e-03
3.582785375246249661e-03
4.801689211543144591e-03
4.466831519103577931e-03
4.169801611704919246e-03
2.347350933833396679e-03
1.543393057749541802e-03
4.738321319353511933e-04
7.402955455695237746e-04
2.921551197406500096e-03
2.895783146333099148e-03
1.918221658572716879e-03
7.875918236160449142e-05
-1.687983630215088770e-03
-5.743452896160810943e-04
4.722705417469254263e-04
1.334539114045385803e-03
1.398423907939580491e-03
-2.446829228976267392e-03
-4.044193227728981252e-03
-1.471848554034478444e-03
3.816533227928184890e-04
2.967787373019741774e-03
2.972578050140145100e-03
-5.355167241083156129e-04
-4.835654453473299703e-03
-1.568527067169572103e-02
-2.064668909806762626e-02
-6.954213372468568029e-03
5.762498036486213802e-03
6.191763214626958868e-03
2.089807264058541909e-03
-1.351848450725132026e-03
-1.558968994104015238e-03
-6.942019146686091670e-04
-4.243440854010417629e-04
3.546561348881388672e-04
4.549676073396309757e-03
7.914111576146203378e-03
3.353420127081834391e-03
1.142098775679017139e-03
3.308169574720746815e-03
3.736144934891898108e-03
6.465578631467131659e-03
3.834203471371624896e-03
-1.480644151974068023e-03
1.636593571155729471e-03
2.861823235476601644e-03
8.445426309436384737e-04
1.102878785614449641e-03
3.870899828323450973e-04
-8.526772980743254574e-04
-3.159470717071060676e-03
-4.435831829558069261e-03
-2.571432180191162570e-03
-1.168036327071942564e-03
-2.702546967885302944e-04
1.564529113404845026e-03
1.597504448866988091e-03
-3.558898013036724921e-03
-7.397129412665696437e-03
-3.981162296119740603e-03
-5.270259431332721938e-04
1.012177556011429561e-03
1.956110606985543045e-03
3.529587332717999465e-04
6.433361439882493782e-04
1.808298442562628972e-03
1.517715071940824818e-03
4.288319574670030818e-03
5.348979475929069825e-03
1.424207532241849152e-03
-7.650634162653967892e-04
-2.202327467422830060e-03
-5.918286316015087395e-03
-7.055268475157311023e-03
-1.841471341826169707e-03
2.927235451292246014e-03
-2.341200494045714373e-03
-7.936240345090011042e-03
-2.955958124401775189e-03
1.675789197763417416e-03
2.969042021062248595e-03
5.801493699418176601e-03
5.537190804331804279e-03
4.349463928500793206e-03
3.572061397306223150e-03
5.241395027757997978e-04
-5.849170990822450235e-04
5.510939704866729075e-04
2.075128882555165970e-03
1.414507162836531112e-03
-2.730035980631529986e-03
-4.051881683439640183e-03
-2.241792648948015380e-03
-1.470905049358936642e-03
-1.754595969570452857e-03
-2.806037035363318551e-03
-1.629458898621259514e-03
6.606633125197170549e-04
-6.623845514162936135e-04
-2.081211469808638085e-03
-1.475980357258332401e-04
2.951675436629626077e-03
5.259725478934908043e-03
5.266695964721602140e-03
2.574028252565173109e-03
-1.129622739172685348e-03
-2.558683512176080591e-03
-3.272737548562404441e-04
1.463163517146837686e-03
2.962890900193323020e-04
-1.200186313557889510e-03
-2.566890526261947705e-03
-3.871482081805177090e-03
-2.144801615271326508e-03
6.951061755339269345e-04
2.500886951581400038e-05
-2.075726840539673414e-03
-3.025662819771904582e-03
-2.103723734973143595e-03
9.707741510247722095e-04
2.556382669726111646e-03
3.379396061206407353e-03
4.629828547015050338e-03
2.718852743245843244e-03
8.811069892682260292e-04
-7.416916642284229668e-04
-2.845931605206808174e-03
1.785690642836620890e-03
5.779678134945476567e-03
2.289434630857593508e-03
1.036379714283044420e-03
1.085274903505276676e-03
-9.862246875078977890e-04
5.176709409140678193e-04
2.914956682606699261e-03
5.922472914918943798e-04
-3.066392772222386980e-03
-2.660239602594449172e-03
-7.025888675310110881e-04
-1.634359763241816478e-03
-2.640523441574145393e-03
-1.551467213462598025e-03
-1.704474414462519303e-03
-3.929428800572766500e-03
-3.433538040029719858e-03
-2.166606705474580404e-03
-5.535964130445601358e-03
-5.159743859006622399e-03
2.739938213500088190e-03
6.546617365783683092e-03
3.351747551313520417e-03
-8.701687921848235384e-04
-3.410184110994012290e-03
-1.903027422498250422e-03
2.160533342761243938e-03
2.037604074864502336e-03
3.541593288496202186e-04
2.367106304623465673e-03
1.645733263249449718e-03
-1.119253512261197449e-04
1.975204949027540083e-03
2.387128146205245039e-03
4.214591790608841586e-03
5.675607967286411606e-03
1.067716261740263815e-03
-2.182751455512067546e-04
2.071216338932841718e-03
3.512856430141027362e-03
4.761224295836996058e-03
1.791702102222810997e-03
-4.408633837884643305e-04
2.744068369681974817e-05
-1.922286252384341554e-03
-1.978887749911080202e-03
-1.156101927961483136e-03
-3.067907647588284138e-03
-4.858986865048658607e-03
-6.008799661054685382e-03
-5.175976461347252602e-03
-3.044509542641138551e-03
-1.267958391459287964e-03
1.138464788737562515e-03
1.013562119423042172e-03
-1.448826939490699493e-03
-2.030172210916979421e-03
-1.666785583954027115e-03
-4.664231715593343281e-04
3.300792343151499712e-03
4.937051499551399839e-03
1.133804876421943891e-03
5.058495754258862491e-04
2.532017080673773339e-03
-2.693363977062083418e-03
-4.426778557382426808e-03
1.162422430708420079e-03
1.198542911484047450e-03
1.777609482939892594e-03
3.843901177491426766e-03
5.410891479014821003e-04
1.006283328012225198e-03
5.965174605011958238e-03
7.700368293589571027e-03
1.050435585642196584e-03
-1.025326851545343108e-02
-1.037358094199604744e-02
-3.776849085657870211e-03
-2.810492334518015223e-03
-9.188403676705792899e-04
2.424534333625051954e-03
3.002088598586697115e-03
2.774895440918536803e-03
2.639403260402006400e-04
-2.422983733436812667e-03
-6.562343605644502644e-04
1.012917517552094828e-03
1.420636757737155217e-03
4.393887497380864759e-03
3.722087052432689492e-03
9.634804109356771536e-04
2.396972455568507649e-03
1.530689376982410140e-03
1.891601304942270353e-04
1.743637259829592008e-03
4.207280039817485121e-03
6.255745332612591171e-03
2.991976869701079740e-03
1.802866109520224244e-03
-3.036331132210947021e-04
-5.554147747901174749e-03
1.833216780899351618e-03
-3.545996233626354417e-03
-2.559615333975196957e-02
-2.000041617125202301e-02
-1.816147312589052243e-03
3.010288798192119024e-03
5.442464424221328360e-03
4.815734993002886849e-03
1.888997813190815582e-03
-1.754753892446412353e-04
-4.123120207881170694e-04
2.062631026684290728e-03
1.876160701795393263e-03
1.230248947597610380e-03
1.808821050403737127e-03
1.615104095805523689e-03
-5.706847474873193420e-04
-2.769490830884482630e-03
6.987163886765136592e-04
4.247060828579526590e-03
6.225396330152722230e-03
7.257514422404017645e-03
2.561821955988367178e-03
1.651674708644249240e-04
3.912439574303964605e-04
-8.800005604232877775e-04
-5.759248509910306919e-04
-1.830602523588293782e-03
-1.604173005327099409e-03
-5.068335901300846007e-04
-1.583413151204108140e-03
-8.196895843817781756e-04
5.130200544158711054e-04
3.607282548350749640e-03
8.620089415125616441e-04
-7.707547173312670127e-03
-4.998637409267042350e-03
-9.194482743067141804e-04
-1.514256205483834657e-03
2.616919812546465544e-03
2.477575424901139970e-03
5.737381389258384588e-04
1.777602799435197382e-03
-1.132657894475957354e-04
3.989276572502432547e-04
6.680245172274070897e-04
-2.684188700634069970e-03
-7.296304906432215728e-04
1.686393339935806724e-03
-6.420377623026992959e-04
-1.526001869256129236e-05
2.471998056894234540e-03
1.838944630960558449e-03
1.120161792287944613e-03
-6.040209630021769506e-04
-5.455335922076132854e-03
-6.321892246359965377e-03
-9.111366710231339752e-04
2.211454367497808510e-03
1.793217894360335518e-03
2.332307336693556325e-03
6.233300742786716028e-05
-3.727988860688292994e-03
-1.669142756880525030e-03
1.403895869878032943e-03
7.285124154706720334e-04
-6.781355719027038625e-05
4.231872799611818945e-04
2.552331645681903474e-04
-2.347733931789003445e-03
-2.755738737757241347e-03
2.588344292823579204e-05
2.878953746104500082e-04
1.600589120692343624e-03
4.157558239419042317e-03
3.189294548432319160e-03
2.528476848309312106e-03
2.175233259705286731e-03
4.927477583860695237e-04
6.010800006811645819e-04
2.374458456460336406e-03
2.167565447841664564e-03
-1.071517917964037812e-03
-2.472858124684811608e-03
-2.611079580059065541e-03
-3.239050334469317956e-03
-4.302902168755908387e-04
1.028257481417076428e-03
5.230199448004676805e-04
1.950439364694500502e-03
-2.179073886540624507e-04
-2.490381552167337739e-03
-2.129936732323619740e-04
2.369230688254479397e-03
3.823231507112739673e-03
1.218762106262782832e-03
-2.320415249700092785e-03
-2.054527004895514118e-03
-3.089677187659123792e-03
-3.004317813587949887e-03
8.645846063304397965e-04
8.268256903420361393e-04
-1.855971816662667709e-03
-1.611482277520016318e-03
-6.497646076105987657e-05
8.586112688866580659e-04
-1.512665585577195517e-04
-2.610949506894868957e-04
1.140218585291332028e-03
-2.502531463319439785e-03
-5.797235998500262916e-03
-3.414533692479623100e-03
-1.547855990257600419e-03
2.686531374913982053e-03
6.532980887738343637e-03
2.625733997453833391e-03
-1.484343256929552396e-04
3.504165367811932255e-05
-1.209194157482019907e-04
3.499248950748825096e-03
5.650329988588983186e-03
2.430432572917359986e-03
-9.434468635715982567e-04
-3.226681648960822053e-03
-3.853375022938447178e-03
-1.256434380319798073e-03
1.900000562756405057e-03
2.181317202683484471e-03
-1.310677937580650380e-04
-8.227390634941877294e-04
2.136494447720293632e-03
2.051939024809158654e-03
-7.403120020747919671e-04
2.012116596996113560e-03
3.288126207884288499e-03
1.189055730189367852e-04
-1.005597113220022334e-04
-1.799889544789001934e-03
-3.715446704275792485e-03
-1.684667899847089572e-03
4.969449279854283325e-05
8.473472100134541406e-04
-1.415583773264775984e-03
-3.028969023989318190e-03
-1.456920182806372040e-03
-2.243454480101224596e-03
-1.021597881986269349e-03
9.314660215925830164e-04
-3.047199708230676147e-05
-3.152721704086670082e-04
-2.054741525171316710e-03
-3.982870569141024357e-04
3.665647216193832110e-03
1.349432682363241017e-03
-1.125423731974517635e-03
-1.597809023864893083e-03
-1.287271152765638018e-03
-2.468178103002748275e-04
-9.725754562457836032e-04
2.429067314554984088e-03
4.329141663517122214e-03
1.109244190570262865e-04
6.958891456650712504e-04
1.517163861247972437e-03
-1.397245546167649819e-03
-1.040415860602333801e-03
4.608199204804998804e-04
3.143423614296931472e-04
-9.602745971199706039e-05
1.151259342662069472e-03
1.638172724388553721e-03
-2.287354660264657742e-04
-6.993069645811462553e-05
1.153383380609555170e-03
2.337085141289307541e-03
7.984239968303840067e-04
-4.430249696885935062e-03
-3.842413940316441717e-03
-3.307184822274523333e-04
3.830051146216309900e-04
1.663480694192119753e-03
7.532437012699999806e-04
-1.529423668615176486e-03
-3.847744045951151035e-03
-3.975813468958073679e-03
6.218863217931017021e-04
1.296637307605523742e-03
6.631771749081252386e-04
1.859306088239942069e-03
-1.638961285563313641e-03
-2.552945802633387311e-03
1.093948159639105777e-04
9.580849643722562023e-04
3.381153120656076299e-03
5.943512208996891595e-03
6.419704084305494045e-03
3.820252759093967047e-03
1.491682266235541026e-04
-2.433057600798256060e-04
1.247963808196441999e-03
2.767819494621804374e-03
2.784409033579641514e-03
2.542294933760169944e-03
1.755246438691731832e-06
-4.908699758665840095e-03
-6.357323609121352977e-03
-1.378580005415388186e-02
-1.758380667014563387e-02
-2.305050202389747217e-03
4.473578301392046493e-03
2.707536315813463459e-04
3.628020946777207011e-03
2.858180549509376465e-03
6.267433313547356687e-04
3.089345549188019131e-03
3.421721595660801030e-03
2.124734629815171888e-03
-2.127635179009559029e-03
-2.769140317374870104e-03
2.382911309234588600e-03
2.456433272296196062e-03
-3.023065983657045484e-04
4.125286751245435687e-04
1.561930726031885222e-03
-4.528708156742116244e-04
-3.403849501197041033e-04
2.095400262723542874e-03
-1.613803726059563409e-03
-2.348986617895152968e-03
2.647253810939265845e-03
1.286904598683468424e-03
-4.495810593040418246e-04
1.212849194980363888e-03
2.286732814779581999e-03
3.881135709069324490e-03
2.952686064203664893e-03
4.619672928801126085e-04
-1.234795245989090112e-03
-1.145938359528896446e-03
4.389754383579688246e-04
-1.475991984598899222e-03
-2.048254790202624475e-03
-4.623300413119816677e-04
-2.398116486926564223e-03
-1.543289580411267431e-03
1.117266989817104587e-03
1.936369670626031120e-03
2.370046932469498536e-03
-1.031405113765686103e-03
-3.215803823194576892e-03
-3.384559727763485418e-03
-5.100162510404257152e-03
-2.170688949650648961e-03
1.446176393844086656e-03
2.225252801207739089e-03
2.198694000988711018e-03
-5.360847097053710085e-04
-1.741030565535476487e-03
-3.374291438278485301e-03
-2.196777939959534704e-03
4.969447950504746192e-03
1.353567443154004885e-04
-7.148774413066372874e-03
-1.043833577052794307e-03
1.120790961462790657e-03
2.293952495361180604e-03
6.317530394514958049e-03
2.561665551578234338e-03
2.301732893766646540e-03
1.461410728356307351e-03
-6.271499885255538836e-03
-2.587827856496004338e-03
3.730732873161843668e-03
3.959723785974629193e-04
1.973784954628814061e-03
5.224914363508861674e-03
1.593909225803847966e-03
-9.974961012560680431e-04
-2.167825439495709317e-03
-2.072518585570354982e-03
2.556638472054804066e-03
3.902127436799474221e-03
-1.399372002847043637e-03
-4.125591590425499791e-03
-1.452770829361190331e-03
2.613176725018542855e-04
-1.583404556241110634e-04
8.808086332123782163e-04
2.367353179723443151e-03
4.702477075421485943e-04
-4.887586872525531180e-03
-6.966211019535614377e-03
-1.843837678534762095e-03
3.236525299612600000e-03
3.545773508263287254e-03
1.169474993919348942e-03
-1.968813015160504609e-03
-1.921554190952769019e-03
1.539341743645916607e-03
2.748790954824356821e-03
5.189670817107928154e-04
7.112831874011464129e-04
3.451489653317604735e-03
3.676549143323540520e-04
-4.867676397017138383e-03
-4.102489477694155895e-03
-1.958157580047414047e-03
8.965340120833802410e-04
4.372779567520129231e-03
2.247749609710298583e-03
-1.602997616937605705e-03
-2.519687014527517265e-03
-3.014266278766206987e-03
-1.135989588520835373e-03
3.745589484240681531e-03
3.976142360861930833e-03
1.275838104082557627e-05
3.556602502983812440e-04
9.229012349330089791e-05
-3.603530848045876766e-03
-2.395874114168312051e-03
5.340032194411580783e-04
9.556702328340909184e-04
-1.937858237374821444e-04
-2.633239680331245225e-03
-1.391261777711825468e-03
9.528923904670281737e-05
-5.292488332315340750e-04
2.939816496209593424e-03
4.946966951496462039e-03
1.634104708936625922e-03
-1.502470689615912876e-03
-2.834362145538939400e-03
-6.162766069301726978e-04
3.552036148551462099e-03
2.803715818961283364e-03
-2.085502472510145089e-03
-2.530154162405917010e-03
1.721055982954492521e-03
3.378929973712466693e-03
3.243337745953303684e-03
3.269697896582137320e-03
8.422367609860544491e-04
-2.721603861707710785e-03
-4.834603132791495499e-03
-4.081816134646141722e-03
-1.149450065711712324e-03
1.070687210478562384e-03
1.747555011361591167e-03
2.735245608275390099e-04
-2.989001958629767391e-03
-4.573491433998056084e-03
-1.507421300408176091e-03
3.196695686821656671e-03
3.651047691505178786e-03
2.597552128121919691e-03
2.748373447896492166e-03
2.521533478616625672e-04
-2.390800852117237665e-03
-1.956425232021676095e-03
-8.513993965583142604e-04
-4.486852182237583905e-04
-1.457129472466621965e-03
-2.486061281767022388e-03
-2.242646201828300920e-04
2.767290705382763859e-03
3.423111186922981383e-03
3.644728823183465260e-03
2.894652878591708663e-03
1.254079975435947250e-03
8.531164954518065976e-05
-9.086132579533545955e-04
4.886885556363685474e-04
7.123586768737191419e-04
-2.753086808358122702e-03
-3.245581781287937111e-03
-3.190280720792767685e-03
-5.908139978478657225e-03
-6.623170047291794885e-03
-5.272773869608238413e-03
-1.815770752870149224e-03
2.506395360556318980e-03
3.450449892189367488e-03
2.855655938277714984e-03
3.234805725655723763e-03
3.840470189487929596e-03
5.125389131919053966e-03
7.308991005934502815e-03
7.898770919008066965e-03
4.880326064157512571e-03
-1.385227280718805999e-03
-5.247332638152169514e-03
-2.553094985097557022e-03
-2.513796613549514145e-03
-6.048923420505914264e-03
-6.516243338976956435e-03
-1.072936629848204697e-02
-1.376784446614475604e-02
-9.275633666628540705e-03
-5.874236679154148412e-03
-4.288862002763257561e-05
7.469908365747079254e-03
6.689747382161734778e-03
3.532741924156329420e-03
9.011135833375859619e-03
1.890921580200744315e-02
2.010255418648792050e-02
1.777630488736468839e-02
1.699792688387202072e-02
8.679251381533310827e-03
7.046113160031992548e-04
-5.473099682299672857e-03
-1.954322738330442621e-02
-2.565177705834393446e-02
-1.168640857309754914e-02
-1.611483342522701534e-03
-1.157188332847461885e-02
-9.117060258734882225e-03
