-3.690239217928343446e-02
-1.461894809872439464e-02
1.472850522144891414e-02
1.076966992292768648e-02
1.331714732626215411e-02
1.024146857362658210e-02
7.973560558855796038e-03
1.234310229059741755e-02
8.040649989070395437e-03
7.542118495830787452e-03
1.065339163875904729e-02
1.222225681833843426e-02
1.324093450154426206e-02
6.836024143590415172e-03
-9.727495784567980960e-03
-2.442405519836076191e-02
-2.563510208557268771e-02
-2.226514375602243329e-02
-1.266120507488347792e-02
3.261086169048627264e-04
1.503325757623998494e-03
2.241688558076840310e-03
1.402337904459300018e-03
-5.130454743745573379e-03
-4.082551727549813166e-03
-2.856354588807632176e-03
-2.744366388833126540e-03
1.245889902531152052e-03
5.218496684249698120e-03
1.176917805553719804e-02
1.553605696342424958e-02
1.476938313415391418e-02
1.739561071357531227e-02
1.587853359396728531e-02
-5.065346819478705465e-03
-3.306299634148127109e-02
-3.813663364779081716e-02
-2.222233897456128704e-02
-3.568927164436042423e-03
6.291037680468515927e-03
3.147685008498723319e-03
3.058232889811497192e-03
7.658694281262245877e-03
9.637338543622472192e-03
1.312080530839253301e-02
7.310863846642533768e-03
-2.272665199962642466e-03
-3.180000039516742844e-03
-4.062347639268261597e-03
-1.325653036458390114e-03
1.101017476948974163e-03
-1.044774698812776575e-03
3.259639925652561051e-03
1.527403786074569680e-03
-7.769592264981138238e-03
-3.945220603881722556e-03
7.689501762137509848e-03
1.299356220026856926e-02
1.362036452833548066e-02
1.563484505080534048e-02
1.488720817040522192e-02
4.347078674661904348e-03
-8.948966255763617789e-03
-1.439714883592861476e-02
-1.158313955997437861e-02
-9.156140542362564694e-03
-1.095913041492771293e-02
-1.065908464679286155e-02
-7.629864818761359149e-03
-2.319133034352571700e-03
2.831017623122561271e-03
2.076640120303197782e-03
2.198764974688387046e-03
4.270926640573879940e-03
2.211266304168854960e-03
1.648178438761562165e-03
2.288168533161639116e-03
-2.278861213421239963e-03
-4.717758303240737056e-03
3.166713653174576312e-04
1.696751542926996741e-04
-4.002040072568865958e-03
-2.112425043780575759e-03
-2.757525853976604963e-03
-1.595635607414060001e-03
3.280930888299694696e-03
1.603667063209788775e-03
2.714982134606761834e-03
2.488575439773094058e-03
-5.956326881080780235e-04
2.774306109962201491e-03
1.708771960113279016e-03
5.367977307440555124e-03
1.200951573057180803e-02
3.869150671408464869e-03
-3.808591143638766522e-04
-3.362919963438980742e-04
-3.549359253027116381e-03
1.051208537483325298e-03
1.536058603405065148e-03
-2.741268378055649550e-03
-9.575889145488361781e-04
-4.039741241005830323e-04
-7.313607536574878352e-05
1.680437793944701552e-03
-1.001182460982011444e-03
-4.517830214183153441e-03
-4.193350708175258221e-03
-2.564665704846036398e-03
-2.016207568840547477e-03
-2.268138798194211520e-03
-6.213383941729194899e-04
3.482799724533255405e-03
3.078534966270474182e-03
-2.358797184583350057e-03
-6.062412134854875193e-03
-6.093384157685777062e-03
-3.665152462233038817e-03
-4.852574379063077925e-03
-6.073638747031750822e-03
-7.728509593741895219e-04
3.498578514617867868e-03
7.493025814108303720e-03
7.895434434529009782e-03
-5.016606257304394864e-05
-2.848806494454927257e-03
-1.524460826953990579e-03
-1.341501450603322168e-03
-1.712356625872231159e-03
-4.515565796439025871e-03
1.305489273447169810e-03
1.012201913539444685e-02
8.910486497984699064e-03
5.997531014842703845e-03
2.822672826985500073e-03
2.546161261565598518e-04
1.016316251438429720e-03
-6.786102611027800859e-06
-1.531727581851295532e-03
-3.536439999555768612e-03
-3.929258926840193712e-03
2.213516577128919749e-03
9.698460343087144525e-03
1.463234183297433197e-02
1.782442534814378254e-02
1.705670618819657425e-02
6.770733867231213191e-03
-9.791617263881115599e-03
-1.917802392965371056e-02
-2.192555010527634171e-02
-2.511025066657211410e-02
-2.246567927898060479e-02
-1.256108210663441256e-02
-5.382976769319607621e-04
9.672351032143399960e-03
7.460795931234501938e-03
-2.008232861918340939e-03
-3.357262799218189639e-03
-1.574455886940072380e-03
3.454999919342654352e-03
9.541159087498883584e-03
3.442396330259828510e-03
8.596766351831083678e-05
5.017261139834804616e-03
1.872626226623259936e-03
-1.643508522185835004e-04
4.537304369417498144e-03
6.502472933190235616e-03
3.516075274962302075e-03
-2.489632221211455707e-03
-2.668230837182475421e-03
-2.547906275683625840e-05
-2.321705142702573579e-03
1.023061770028635712e-04
4.231013299128032722e-03
3.589192018478043911e-04
-2.419993940217828130e-03
-1.605253260183337068e-04
2.735643886361261953e-05
-3.098028400012387430e-03
-4.832820455301391899e-03
-1.757142263192947203e-03
1.652009560249836397e-03
1.436390923813523355e-03
-3.232421791634822877e-04
-9.787306913808541814e-04
3.414884208017139947e-03
4.503933454623490658e-03
-2.882335601614985886e-03
-1.688468409139838372e-03
4.189970481254073377e-03
2.427646306137755654e-03
3.112009562279295823e-03
5.843620085580600657e-03
6.928017782750455454e-03
5.064215134568199848e-03
3.208451862605166084e-04
1.018642130073603306e-03
2.169688378850248393e-03
5.736434166911990630e-03
7.061171771295629562e-03
-3.399104387248893556e-03
-6.929023088537212584e-03
-1.755760198709257341e-02
-3.304781355116986896e-02
-1.474571704645494599e-02
4.514754972056484947e-03
5.306144003376518301e-03
7.761336966023822323e-03
-3.155711621103877377e-03
-1.556312629499476997e-02
-1.162314689524363009e-02
-4.325894931312128811e-04
1.137893953667212278e-02
1.079926744154409250e-02
6.499655939091427900e-03
8.808231320709004192e-03
4.695621714496519758e-03
3.987929156559180850e-04
4.550219332625207204e-03
4.153253864728608143e-03
-4.443614791392312170e-03
-6.224466434312044341e-03
-1.215339978505794796e-03
-9.998422023144175243e-04
-2.861799862148430278e-03
-3.139019693175503813e-03
3.405461905818704151e-03
1.240495580353318146e-02
1.493266812908690920e-02
2.196503531021606545e-02
2.290863850732446222e-02
4.734669050451178335e-03
-1.167433719250213914e-02
-1.665188649696524095e-02
-1.833058226506560640e-02
-2.467264394294926139e-02
-2.471153124139867027e-02
-6.491719229670948020e-03
6.858840508186516902e-03
4.425288063336397203e-03
2.580538580619631643e-03
6.256885678762839562e-03
7.695993864062822092e-03
5.908256665249704033e-03
6.539685905486400212e-03
7.992036424328455941e-04
-5.870949994572204414e-03
-1.001718741627207745e-03
-3.676713851753052494e-04
-1.243541274719765517e-03
2.208726448416302186e-03
6.238721687607503077e-04
2.692608438821393699e-03
3.484199088536518718e-03
-2.303682640803006616e-03
-3.112296929003246365e-03
-1.109904560440238153e-03
3.932717705275476871e-04
5.798810905956405543e-04
8.224307312378344691e-04
6.573373681923390562e-04
-3.269142457406479501e-03
-2.160370598175203379e-03
9.326884059309166865e-04
4.619372817300596836e-04
1.954411949927372955e-03
-2.965707584540497321e-03
-9.623765085584656820e-03
-3.787647253080598901e-03
3.912246409301088656e-04
-2.785658328854940125e-03
9.599954971622006762e-05
2.011185793954930849e-03
-8.633112097422281040e-04
3.128056411097768393e-03
6.726271122282431389e-03
6.029220136827689869e-03
8.543633363272679429e-03
9.954325026552298533e-03
9.529924893195200475e-03
5.125492453881809463e-03
-6.714362757404981159e-04
1.730847057113542612e-04
-3.956390224083230871e-03
-9.063491088997685866e-03
-4.369324749670324901e-03
-4.155210991997304940e-03
-8.208386741558474156e-03
-7.600800016561029895e-03
-5.779311428185841468e-03
-4.955706742138191005e-03
-2.947842981198596762e-03
1.785945769681304522e-03
1.659309837453927690e-03
-2.504655457163800468e-03
-1.643056208257725678e-03
3.584335207045352776e-04
2.218252787642902273e-03
5.677578571463396534e-03
4.753491011739024996e-03
-1.502842755778521040e-03
-2.411389794646941892e-03
2.679698374388889571e-03
-1.692480054652563837e-03
-5.345160879113371351e-03
4.157038367614231643e-03
6.823062513381095845e-03
4.047652365882640699e-03
8.062148843440730336e-03
7.441735263465357707e-03
5.955532781942755264e-04
-4.523083198949730613e-03
-3.348634164924454374e-03
5.117691809304856371e-03
1.262457687627259462e-02
1.295921013706709951e-02
4.060205019927909907e-03
-1.109787867493555041e-02
-1.753957387883012600e-02
-9.344476072750764611e-03
-2.497387837343314262e-03
-2.853878399953894453e-03
-7.026994445164343921e-05
8.925359234835850315e-04
-4.076566638997131467e-03
-6.086729003325789221e-03
-6.492149114875105965e-03
-4.600778168331716433e-03
-5.360780063657561746e-04
-1.491360858927436722e-03
9.841148416281423044e-04
7.657353101544711431e-03
5.907755821397689226e-03
4.099718737983281498e-04
-1.116785691001105857e-03
-7.914772467198321303e-04
-2.663738172957921552e-03
-3.440715220703649373e-03
1.791517710313132380e-03
2.779947146147942767e-03
-1.382045987675774865e-03
-1.982118272980729328e-03
-2.253937284578725730e-03
4.857151932812458876e-03
1.775495971712293466e-02
2.299668158645960803e-02
2.416873743397385602e-02
1.027915289510367321e-02
-1.794241596093262489e-02
-2.728567110994950876e-02
-1.674533934279979694e-02
-3.470339314724406495e-03
4.165492323793637541e-03
-1.233821091042177883e-03
-4.301672635047695294e-03
2.570639870273116589e-03
1.703232904506458067e-03
-3.817541209138296341e-03
-2.251892231182288720e-03
1.096656332535340516e-03
2.961377046049531656e-03
2.062140717712274661e-03
-1.449447061068818597e-03
-1.421590378193149460e-03
-1.784928551451737868e-03
-6.157776591275765550e-03
-6.540296573440963247e-03
-1.680166208488026187e-03
2.758528411639796143e-03
2.536970149253553464e-03
5.090448674220707497e-04
3.410847031143100956e-03
6.693753694397067827e-03
5.074819708418125755e-03
1.740490647588965444e-03
5.907500149517879839e-04
1.632168057627350621e-03
4.422701801531005866e-04
-2.417737966453978467e-04
1.837468530858883198e-03
1.249723762728082409e-03
-1.069005197208001273e-03
-4.187363031361925579e-03
-4.677711474120944089e-03
1.744661571706123630e-03
4.365461289885948747e-03
4.219448157513081346e-04
-1.620496928606961424e-03
-5.145222141713898072e-03
-7.975610601233648969e-03
-8.294533664054950985e-04
7.742542715342313857e-03
7.683555193528849962e-03
3.644509315401712763e-03
-3.601821041059506006e-04
-2.494862721111927584e-03
-2.774190821421143073e-03
-3.998971917488327969e-03
-3.921793398990016180e-03
-1.890606312831864984e-03
-1.283324520611272808e-03
-1.134365719734723886e-03
4.057601312762872982e-03
9.634149092051172078e-03
5.594749422102870441e-03
1.017175099269552584e-03
-5.246583408653588917e-05
-2.686228730227746141e-04
2.692337155119391232e-03
-1.135333091893962407e-02
-2.842644152679982966e-02
-1.117777472432895935e-02
7.874988164264002874e-03
4.150894927870569032e-03
2.362327439414353431e-03
4.943874960461126442e-03
4.487176956497931045e-03
1.571753025764541060e-03
-1.615089662761136336e-04
2.224032477021375010e-03
3.923300540765791745e-03
2.767691627129545417e-03
-1.010679646758308806e-03
-2.480005777733639396e-04
4.003015709463941113e-03
1.194661183066601882e-03
2.647791377699599494e-03
7.716206798223923351e-03
3.840402742281615652e-03
3.231943596835528624e-03
4.582642942238695540e-03
7.315083513594412877e-04
1.535687973758892953e-03
1.297450917513027265e-03
-1.997436107893078589e-03
-1.714179969830362097e-04
-1.762849117761782023e-03
-6.514894540304505370e-03
-5.479044502462489773e-03
-2.097702259516239127e-03
-2.646360051695601521e-04
-2.817619506755137792e-03
-3.750930128231160909e-03
-1.163538961745706307e-04
-4.240489141476033209e-03
-9.130458768006414691e-03
-9.332826675796827148e-03
-1.365684648832145992e-02
-1.237553619271252424e-02
-7.727489133694756367e-03
-6.515891603691873618e-03
3.222818666102533498e-03
1.560711519255074745e-02
2.020568935802327659e-02
1.639468970588314756e-02
6.526476535936224024e-03
5.198905471387346017e-03
1.085513522591045193e-02
3.897089102594406777e-03
-1.011958546092610843e-02
-9.536215817762474720e-03
1.332029819435262032e-03
7.021382510144168719e-03
7.617937573227658021e-03
1.308287380166764597e-03
-3.686476323756585939e-03
1.908474194431721005e-03
3.831106491795082552e-04
-4.698518915878167196e-03
6.554065995670642700e-04
8.906162954077389594e-04
-3.674025790394616110e-03
-3.139426374443799600e-03
-4.115558560135252480e-03
-5.359008628434518140e-03
-4.353458546107728637e-03
-4.761810697311357095e-03
-3.574065444953594770e-03
-1.190321497012579357e-03
-2.642194733425830538e-03
-5.294793476862867882e-04
7.391638367688869657e-03
7.607042150704144100e-03
4.772727276675314649e-03
8.147684613542965221e-03
7.374586099539851003e-03
2.139168462241759945e-03
-3.433916931849693294e-03
-1.156823048509619638e-02
-1.452629889122592811e-02
-8.789903804064368859e-03
2.980353002155120088e-03
1.293904838646926792e-02
1.031137204141687955e-02
7.554214486126386609e-03
6.877766992142628037e-03
-7.405634812548497585e-03
-1.738426735651745630e-02
-1.345839008868678251e-02
-1.136554662729764333e-02
-2.933781680976598350e-03
8.699421705433771010e-03
7.407057540655655539e-03
4.850524806047275955e-03
4.825114917102153907e-03
9.631265246457716180e-04
1.849947636935292059e-03
6.047967990585990418e-03
4.414401359194049593e-03
-4.825504800823852291e-05
-1.792660454320975979e-03
-2.363221503445608212e-06
1.400009991939793995e-03
1.407970248814866855e-03
2.175111898889270715e-03
-2.397857653390720635e-03
-6.710723461107986898e-03
-3.502627607356025518e-04
2.187539840156836092e-03
1.505566900646880220e-04
3.689012384007432383e-03
2.103303337195583898e-03
1.799380494139705012e-03
6.079245508417875123e-03
1.612268860424813681e-03
-2.973898208948423660e-03
-7.632286802462025059e-03
-1.289108722196176740e-02
-7.990213608603807457e-03
-6.062274569995446984e-03
-7.217884063562733134e-03
-2.512166958171107049e-04
6.464200898232213242e-03
9.627284505510928098e-03
8.136412939535021815e-03
3.883493730081577239e-03
1.169287924467825833e-03
-1.071085847933177064e-03
-9.428461166321169470e-04
-4.172678988658373896e-03
-6.169025669547650685e-03
1.896503691555384964e-04
1.157093597413976892e-03
8.774011987166382889e-04
4.118709823489706892e-03
9.736925612184078611e-04
-3.062668732406506589e-04
1.271677829143063373e-03
4.492523537020132901e-04
1.150164281353138231e-03
1.895690390683130383e-04
1.067063714437836946e-04
2.250339926706194059e-03
2.127068104104661711e-04
-6.697607299983845876e-04
3.708603479242372769e-03
5.109595444343241651e-03
1.230877307195284848e-03
2.706556419432354561e-04
1.115757415818488356e-03
-1.366683317249705936e-03
-1.913967315798715011e-03
-1.731703334930769010e-04
2.818137130223671762e-04
-1.883159338081443618e-03
-5.970775491852609203e-03
-3.586611342014904211e-03
1.730277823167912640e-03
2.274000503291801931e-04
-3.377347561117754419e-03
-6.788487937969093187e-03
-6.204669198289240392e-03
4.315277923458851555e-04
1.629167007560938796e-03
1.609149774966196723e-03
7.902506732306194964e-03
7.892504388874720458e-03
1.047677145256073993e-03
-2.563703074696081427e-03
-3.061215812072877202e-03
-1.993869968113784995e-03
-4.021892392560954231e-03
-7.778606228147678242e-03
-5.108479400444300954e-03
-3.711297995741530582e-03
-4.712063948302014013e-03
3.823849608464722008e-03
1.109101301792250575e-02
6.973816505379764816e-03
3.324169721595554659e-03
2.383954008259870413e-03
1.190233670555440560e-03
2.595702940659572883e-03
3.218646024994675087e-03
3.250437048112019261e-03
3.634592915589474754e-03
1.048920628860924333e-03
1.029374116378119382e-03
3.880623464326639349e-03
2.967074939832068606e-03
6.183547112998353254e-04
-5.409365493178506460e-04
7.055505957694163232e-04
1.175835636255902856e-03
-1.275273060083311968e-03
-8.891607155883505696e-04
-2.939325920034035946e-03
-4.938013362127060754e-03
2.501999216148134957e-03
6.151475165185604776e-03
1.304852590962902971e-03
-4.820607989836868043e-03
-9.156809892631088965e-03
-1.589740235765306833e-02
-3.505538614729729330e-02
-3.643639914448896372e-02
-4.757677413345113432e-03
1.321043915435747909e-02
1.372615100467390950e-02
1.827966186032335336e-02
1.435125544735339070e-02
6.714262440972665856e-03
5.062580752439484535e-03
5.891060920783227489e-03
6.715407095438463182e-03
2.914282404966196671e-03
1.036063453286905262e-04
2.764795125034684876e-03
4.230527468807854068e-03
-4.894667867476598915e-04
-4.963047532477608825e-03
-8.159256000584603910e-04
3.021069664348321939e-03
4.944441415858252288e-03
7.543763233327544990e-03
2.059097044088624862e-03
2.439300395134638753e-04
5.120303204917328425e-03
1.093234909418058440e-03
-2.180237356824793037e-03
-4.481401140736646603e-04
-5.337083498288591223e-03
-1.137923511394629481e-02
-1.033010296523720686e-02
-7.060062687232663767e-03
-6.846451309879011266e-03
-6.319840854196156696e-03
-3.315386816697537750e-03
1.507694431188438431e-03
6.243252766893738967e-03
5.145879236316161856e-03
3.532400595542647091e-03
5.613659069146713539e-03
4.615734436952801008e-03
5.325183670015066692e-03
7.945533230568950500e-03
1.481948759616913934e-03
-1.002370953245689672e-02
-1.525783342977462924e-02
-9.818772828270219688e-03
4.529221102312457601e-04
4.857485314884360701e-03
1.859910588646875159e-03
-3.295856774520825733e-03
-1.600396193283187439e-03
6.131245269541063525e-03
4.294029379048497005e-03
-3.990077086793170601e-03
-5.155749177952992889e-03
-2.376224946025838527e-03
-3.759370774020617183e-04
-2.018982731386446527e-03
-3.243903032114558212e-03
2.968766011055897804e-03
7.999814448946025378e-03
9.128366174346286277e-03
8.946702070581241326e-03
4.748144714661776955e-03
2.797231523326423278e-03
2.519875499968832807e-03
5.936310425685513946e-04
5.971352950146029646e-04
4.029149116568067797e-04
1.702678741594886198e-03
3.453813440552034111e-03
9.711788530792991002e-05
-3.382099076808157447e-03
-1.425583726232463070e-03
8.621735499738697635e-04
-3.899671358042057327e-03
-5.955093543508139381e-03
-1.494710109847221385e-03
-2.610506943615212728e-03
-2.822110448425184642e-03
-3.941689611356771587e-03
-1.107227328535824451e-02
-8.205298239498672389e-03
-4.401182828121815056e-03
-7.481031987956711198e-03
-3.856900480683362817e-03
2.615830026497663850e-03
7.141315727215062116e-03
8.059083171052236483e-03
5.681012915475736925e-03
3.307778103248525114e-03
-3.195372502981582742e-03
-6.273714815428274062e-03
-3.341485562396122669e-03
-3.101648948131683226e-03
-3.784209156950491090e-04
6.726827671960628960e-03
1.053332232935615641e-02
7.835211073130199724e-03
5.060954336587950540e-03
5.201940702806617974e-03
3.084120048673107302e-03
2.521465523870158702e-03
2.166359295914868643e-03
-8.515137171794621702e-05
-1.624805799383191585e-04
-3.609293405050403337e-03
-2.406575517488760817e-03
5.836305212881295022e-03
3.638878090678842811e-03
-2.109642696171603118e-03
-2.222565918103014317e-03
-2.608071890541623517e-03
-7.095794059522894746e-04
5.188595161001685564e-04
-3.774595472226300111e-03
-5.523606824395480182e-03
-2.059797753803125318e-03
-9.388302717677013149e-04
-3.737479254883569694e-03
-6.752335758838871882e-03
-5.275289994027708082e-03
1.101406597994175748e-03
1.453567791314466654e-03
-3.344342588006504313e-03
-2.226715080266757421e-03
6.756423815504702078e-04
1.323542558761078456e-03
1.013861846853079864e-03
5.430855733016561569e-04
1.175707216672854149e-03
1.176759375030161535e-03
3.306156952439316850e-03
5.528288341781805240e-03
3.104968593878766961e-03
-9.986399176930050876e-04
-5.247058133331535673e-03
-3.026181556297377270e-03
3.346725812033378954e-03
2.028811079604662428e-03
-2.064733884475355985e-04
1.250027141326966965e-03
1.234197388622325971e-03
7.591515111426435205e-04
8.323670217802622536e-04
4.849370129254189365e-03
8.891310360546996264e-03
3.807666826490260260e-03
-2.602851579179064727e-03
-2.946784816947009208e-03
-7.628315713876179403e-04
1.327729503818438940e-03
-4.992890534559575252e-04
-3.477226686252187383e-03
-3.244946757994514666e-03
-4.677624093159069886e-03
-4.629163233427969169e-03
-1.111108753606463231e-03
-1.316561623067777657e-03
-1.129422940820181027e-03
2.596645232628159647e-03
7.581883590724679441e-03
1.083944660707641776e-02
4.970630096068999297e-03
-1.513443467152262353e-03
-1.726304794960807154e-03
-2.213892795204277283e-03
-1.333495492983117515e-04
-1.602254236061079543e-03
-9.017262958255431449e-03
-8.444917691209962232e-03
-4.539054376926303369e-03
-4.422864951495842495e-03
-3.830793244711545170e-03
-2.678590731974066219e-03
-9.660832825541359721e-04
1.952526181127069724e-03
5.686734061529376792e-03
5.677356762189764150e-03
2.554751771349529459e-03
9.066240707639058828e-04
-3.370811371396084492e-03
-5.284661369143672620e-03
-3.334111246788670942e-03
-3.889472867883251531e-03
1.521855597548294609e-03
9.790006622279964071e-03
1.123556598618004505e-02
9.518022471133306961e-03
6.267366538596799881e-03
4.926352425315945818e-03
4.610295230534192795e-03
1.702122331372966100e-03
-8.376483208419445653e-04
-1.202563107428304559e-03
1.425714346674756845e-03
5.433648524540066454e-04
-4.419546206945154480e-03
-6.132755920633965047e-03
-3.722771600135024728e-03
6.102816969641069317e-03
9.799199811851852862e-03
9.420842845586949003e-04
-1.779068213381216311e-03
-1.173604637096180812e-02
-2.965421829572589818e-02
-2.020122050658069990e-02
9.521288860943810314e-04
4.614399278921961847e-03
8.388217508167710931e-03
1.507439284024285689e-02
5.801199666471585324e-03
-4.356745202535010873e-03
-4.604287415948223115e-04
8.075785686410596803e-04
-3.751527711391782014e-03
-7.937208926093139091e-03
-8.669501919224144315e-03
-3.782811598423513832e-04
3.762478565661101816e-03
3.216078341452530132e-03
8.542519822857603390e-03
7.039376927946595398e-03
8.540879423034682290e-04
-2.710755482811637480e-03
-7.376124871055258700e-03
-4.363051121075528678e-03
1.691458202409030142e-03
3.000869689447650205e-03
8.270525635089684760e-03
1.393865239669351934e-02
1.348554625744296728e-02
1.087739884154124460e-02
5.672706524589127795e-03
-1.963080607612659699e-03
-2.985962824831297439e-03
5.623691340202897210e-04
-1.753066832919569860e-03
-1.713657509778475450e-03
3.174094346829753419e-03
8.967455141340353745e-04
-1.503048584584003484e-03
6.809210655363614074e-04
-1.568442328864984477e-03
-3.902218107002563326e-03
-1.672225402281361925e-03
1.255908576885323390e-03
3.428711442346070015e-03
2.319486844627275182e-03
-4.870836334758382714e-04
-3.590546514683004998e-03
-1.060360341738921658e-02
-1.389197064397025908e-02
-9.648425478141368916e-03
-6.411924640630625206e-03
-6.671385201655571744e-03
-1.436166252210401180e-02
-2.186623445691762355e-02
-1.747353020802078910e-02
-1.382808240355929731e-02
-5.194272678748207590e-03
1.957575078706717819e-02
3.713740273352363758e-02
3.742083964477389141e-02
2.437095052656582453e-02
8.734926833291706966e-03
8.644407153000945032e-03
9.184638260413994365e-03
2.734468904451565607e-03
1.962627527444086445e-03
9.978325507027485230e-04
-8.974074546843500890e-04
-5.481791939483474270e-03
-1.294910896858730495e-02
-1.364794457741599042e-02
-1.413066246468737928e-02
-1.482660933546066026e-02
-9.758154569782720791e-03
5.554667745117188764e-04
1.589797317068099985e-02
2.006224847053629176e-02
1.074842179065576935e-02
8.845147427053818776e-03
1.026511870945092872e-02
-2.052951996281254018e-03
-1.841399671745977754e-02
-2.629943612343436932e-02
-3.630898441259882564e-02
-4.030653904523363862e-02
-3.071959149799530220e-02
-2.279975794354133570e-02
-2.571208831973261291e-03
1.435087468463143966e-02
-2.397157315240345133e-03
-1.335454746350955846e-02
-7.632561501720710496e-03
-6.370120494969138975e-04
1.210527417366875913e-02
8.995544779140508471e-03
5.886212331297816479e-03
2.300818360152177833e-02
3.566004260369714379e-02
5.592358003430201313e-02
9.160502961483522888e-02
1.105074827407449278e-01
9.354873673225086450e-02
4.385451587707835802e-02
-1.527669895797319904e-02
-5.561532034502607302e-02
-7.512196060941116194e-02
-8.658921302423262800e-02
-7.588173315360306759e-02
-3.444936141341576469e-02
1.564953434150355080e-02
5.293244175197097529e-02
4.922732367649957502e-02
2.272859105137522290e-02
1.253491450377726239e-02
1.404995702798027268e-02
2.953874719740997440e-02
1.313283860954864851e-03
-9.323072036102929283e-02
-1.406264001993338397e-01
-1.331359239871121869e-01
-1.446899301787146208e-01
-1.512033226418211806e-01
-6.688236649542625423e-02
7.377607873812117023e-02
7.243338210927119381e-02
-1.723486215248073994e-02
2.506584268330250276e-02
1.323235192551269201e-01
1.973858040049699947e-01
1.974602639232815593e-01
1.116917820874596123e-01
3.218271860134245405e-02
-2.112814605616524129e-03
-5.017046430609181651e-02
-9.557764005222788017e-02
-6.944118742990923465e-02
4.956739464014805682e-03
9.540043803138096830e-04
-7.446779619561934294e-02
-8.420019783775997690e-02
-1.058090710023398134e-02
5.723099043358508692e-02
6.272856067596621621e-02
3.052692137028327826e-02
1.708113676941460865e-02
2.799747325176253979e-02
3.103535125312024360e-03
-5.463002176162672086e-02
-5.911797576688297695e-02
-4.046847270564314647e-02
-4.702229154733829353e-02
-5.176904478660185327e-02
-6.255808068148115131e-02
-3.111779717814278784e-02
5.132460340871329574e-02
1.287821525773272802e-01
1.914780416455996448e-01
1.482022553028109202e-01
2.382638350166386282e-02
-2.784906529413450071e-02
-2.324169461815137408e-02
-8.085404686277112424e-03
-4.531054825666079415e-03
-1.120970223474861312e-02
2.401183884225951623e-02
4.505769832931605379e-02
1.723240558218900112e-02
-2.894398868430323943e-02
-1.025829429462267739e-01
-1.580927036963953036e-01
-1.553755685633529116e-01
-1.263210668474647747e-01
-1.101235346824787076e-01
-9.801973330815155760e-02
-7.061178995702054040e-02
-1.888395132269005822e-02
1.342913189499513049e-01
2.536612587835860855e-01
1.324428165296768767e-01
2.250877690397848005e-02
3.435795198153739766e-02
-5.610978604823271820e-02
-1.683907517461335490e-01
-2.120043276926833475e-01
-1.088917516563391308e-01
2.197386848295357631e-01
3.471755641449371099e-01
1.333940567130056376e-01
2.611803257903891340e-02
5.597039342762581693e-02
3.873443457166427656e-02
1.088498724733177013e-02
-3.194028059783088347e-02
-4.691030401007700162e-02
5.893959527204045874e-03
2.118227387979312523e-02
-1.912779274974841723e-02
-2.618015944533915590e-02
-1.990350778173075041e-02
-5.764619696938632493e-02
-7.162767243228659875e-02
-2.248324623852380327e-02
2.260674000331960518e-02
3.699411174749106523e-02
2.737223349525211638e-02
-4.325924005381345631e-03
-3.570352200108167090e-02
-4.507327340370492763e-02
-4.891770557444072298e-02
-5.701791501051464706e-02
-1.470738247755939976e-02
5.360944770074028976e-02
5.732331870277893038e-02
2.506749024618731836e-02
-3.659994324716014241e-03
-4.640183950274089086e-02
-1.024016944060139322e-01
-1.245168416252026150e-01
-1.811187442117529953e-02
1.307383672113834605e-01
9.175103064557049715e-02
-5.244200201271709272e-02
-6.570502022740105919e-02
-3.002943950193024542e-02
-4.325225665951093479e-02
3.216703347515229017e-02
1.433308907732236126e-01
9.832101467847027820e-02
-9.382907482437566685e-03
-1.950800921269570457e-02
1.416772267099144188e-02
6.184698521634459344e-03
-1.368514789799066787e-02
-7.783028925571843989e-03
-4.537245742443040721e-03
-1.090686496920563985e-02
-9.548638095244253374e-03
3.638562010017547688e-03
3.059858480538553416e-02
4.451751345982545016e-02
3.823077837670305068e-02
2.219766678918259212e-02
-6.207704854610117569e-03
-1.362924224874745294e-02
-3.455756932709538008e-03
-1.243118099665270829e-02
-2.385790434853847161e-02
-2.574188462742409492e-02
-2.409586959806993625e-02
-1.888019418925428877e-02
-1.507576635220540112e-02
-8.233385418688947410e-03
1.609465264971153553e-03
8.158935027338630464e-03
1.709060119411220588e-02
2.822477291469580735e-02
2.669526586290949313e-02
1.456510279703372712e-03
-3.510775781373581816e-02
-4.910075451960580623e-02
-2.441029272956244528e-02
3.947946457098611486e-03
1.959926632029127241e-03
-6.500387903457392931e-03
-2.052842001329995610e-03
-4.210237854693239280e-03
-9.418826828587169298e-03
-4.586731525802446863e-03
-1.699176554898826482e-03
-1.128599850516401109e-03
7.696831073677800304e-03
1.794082234400272077e-02
2.197517412802373060e-02
2.035737890620356247e-02
1.153052381295941245e-02
-2.977059969413003646e-03
-1.859360862045408500e-02
-3.052227213404447304e-02
-2.425689600600844029e-02
2.436865039144136148e-03
2.176907898886453613e-02
2.120435573968114731e-02
1.281421261259962918e-02
6.306731518553090540e-03
1.015984779530478520e-02
1.781722472471226892e-02
1.663975275754683500e-02
1.853040566066379560e-03
-2.099903392276707831e-02
-2.065758242935894495e-02
8.714238171586769985e-03
3.297444459879447787e-02
2.883638993327702210e-02
-8.509270267518280950e-04
-2.130520801464699104e-02
-2.199592140188008638e-02
-1.610870543071617894e-02
5.846599138912647077e-03
2.738714791614919528e-02
3.725403822144637833e-02
3.730735334553865468e-02
9.021205282378347290e-03
-2.763648356541410431e-02
-5.022866756206591232e-02
-5.378306933311211707e-02
-3.470552320218304315e-02
-2.132025309797514964e-02
-1.267974729827544764e-02
4.512843260782653174e-03
1.159969061604083918e-02
8.096136040873818523e-03
9.765954162024312671e-04
-1.901660712441812472e-03
1.253119286084199971e-03
2.170599862706115799e-03
7.119693020966636268e-03
1.208543562172935230e-02
1.155553785872642097e-02
8.344003087876061472e-03
5.649443339886064258e-03
1.057220910783467083e-02
8.048791249514892707e-03
-6.806358188749873570e-03
-1.487175820973702517e-02
-1.033946278245326603e-02
4.624739003746197036e-03
1.261940394075159073e-02
4.480540137073808771e-03
-4.012881983314595807e-03
-7.973421305257919270e-03
-5.796042161922529586e-03
1.588289067286732825e-04
1.586460255360171471e-04
-4.291669839635802418e-04
3.888974947611516502e-03
8.007265768516244955e-03
1.063644739511882681e-02
1.211106403498306630e-02
8.581980172777841850e-03
6.118071864750222050e-03
7.363755857671378836e-03
2.411111910944878248e-04
-8.161047646921331875e-03
-8.666594642381158370e-03
-5.552818894340972103e-03
1.323294500711571196e-03
2.116148843736395408e-03
-1.351845891605064584e-04
7.815251689162869188e-04
-4.303927940748262203e-03
3.214390809953884473e-03
1.746950867840315821e-02
3.800758291374563367e-03
-1.742145376605990989e-02
-2.231858301966896385e-02
-1.832259484593823373e-02
-9.634870592127645766e-03
-3.255650510564160518e-03
3.632146726154554615e-03
1.050544662811469035e-02
1.658140589692418381e-03
-1.007028698979106976e-02
-6.161807826719740457e-03
-1.476569973907684158e-03
-2.784210172181733785e-03
1.761863771947491187e-03
8.645295673602662254e-03
1.129919500665902722e-02
1.542875748691147596e-02
1.601836659671423968e-02
2.279807136694533311e-03
-1.248532935844570702e-02
-1.233327681448870630e-02
-6.961945961938373340e-03
-7.050951919522033783e-03
-9.407521989412420335e-03
-5.201063883288567849e-03
1.061487511402563373e-02
2.298714912370625196e-02
1.817551474115217461e-02
1.023089182138784380e-02
9.676012238076360170e-03
4.430057204505266286e-03
-6.912083340892275635e-03
-1.130268510230399669e-02
-1.245316286988733083e-02
-1.444832895790618653e-02
-1.076757005887900645e-02
-5.566725626386498024e-03
3.722333211966136896e-03
1.846356925633883816e-02
2.386295574928579480e-02
1.897641664964555552e-02
6.923206964619514799e-03
-9.651725748000848648e-03
-1.834027071558582550e-02
-1.942147919404152087e-02
-2.198274259799806382e-02
-2.532641835539337777e-02
-1.972140795934879121e-02
-1.171619107561282583e-02
-1.034040188054206368e-02
5.385623759620512298e-03
2.897266078819709170e-02
3.386367388962654296e-02
2.895140064702712498e-02
2.264423275846795189e-02
1.865812290900320178e-02
9.692437100147093670e-03
-9.096789427143599227e-03
-1.584983106508303791e-02
-2.625407039715871998e-02
-4.268055416085562992e-02
-3.179870881139764544e-02
-1.335536174135191351e-02
4.978038548526630101e-03
3.152377978683580662e-02
4.150758660804843708e-02
3.774032089615518559e-02
2.976407632395950201e-02
1.985510974133139830e-02
1.190554125939494515e-02
-6.685061279283644776e-03
-2.279055249439335129e-02
-2.279419596350210422e-02
-2.233419444634515347e-02
-2.718352751328686340e-02
-3.619918119834274889e-02
-3.724660426140331132e-02
-1.722310627814892248e-02
8.538466907726912497e-03
2.125739121087611566e-02
2.254104264328209498e-02
2.203039635923152370e-02
1.785050960162203743e-02
6.278192437314106950e-03
-5.508175416839893035e-03
-1.427799118821613047e-02
-2.248424141003290549e-02
-2.995119971673454104e-02
-2.886997554952280484e-02
-1.391232520740555249e-02
7.880838199355748308e-03
2.995271649170187095e-02
4.106031488227834120e-02
3.644741639511545062e-02
2.802552342297877017e-02
1.389143801180999470e-02
-6.231442321876361733e-03
-1.600959421974563687e-02
-1.079754383034248547e-02
-1.028872611210309698e-03
1.170177771668938060e-03
8.772098154054528720e-05
5.712254205793042272e-03
1.119446099789030841e-02
9.191212385370111509e-03
3.053290712683812743e-03
1.585190095969700062e-04
-2.801767973466993359e-03
-1.388872939898470188e-02
-2.188506817309693320e-02
-1.812365584813819749e-02
-1.029650946772256784e-02
-3.959636140587581392e-03
-1.515115725200671145e-04
2.636981058637743146e-03
2.991587715369445084e-03
4.175679081990592875e-04
-1.711163392699362532e-03
-5.779149974132421347e-03
-1.085908064673461564e-02
-1.141254304628836098e-02
-7.066073753730779151e-03
1.159980891815204709e-03
1.035095365304551304e-02
1.552982221700971791e-02
1.435629264326496353e-02
9.930663394683420658e-03
7.317332791892327062e-03
3.267952340334165113e-04
-1.728596667745728802e-02
-2.781465033649197297e-02
-1.654050424774252195e-02
-7.018292818691200096e-04
8.174204441592339970e-03
2.122279657604190378e-02
3.405266664299382018e-02
3.081475781578744966e-02
1.263102498585244246e-02
-6.203968987594836448e-03
-1.250994826512510059e-02
-9.941683440408577432e-03
-1.250123955588352750e-02
-1.782751232467871122e-02
-1.415304650924317786e-02
-4.162315400591697599e-03
3.954764390824386244e-03
7.400331181787071951e-03
5.169940211947654345e-03
5.216632655046397893e-03
8.958191599314192788e-03
5.888850844674888355e-03
7.893561444821678300e-04
-4.256599019136585345e-03
-1.003978615744580312e-02
-6.287940187221663195e-03
-2.561217100920097980e-03
-3.279332095667612974e-03
1.352198091318750506e-03
2.431180146928737205e-03
1.233961666065696737e-03
1.679907786964509198e-03
-4.145096526195507329e-03
-7.670475500516521841e-03
-5.594895219072921165e-03
-4.670017907900915304e-03
-8.968043443712070753e-04
9.043401087288816323e-03
1.416584052355918631e-02
1.692248357847805570e-03
-9.342964145716125407e-03
-2.386681870065084955e-03
2.772510556142343714e-03
2.686926968963841093e-03
3.463103738631495739e-03
-9.622304813173494830e-04
-2.721501726235466597e-03
-1.590732517125338294e-03
-3.288056747494394645e-03
-1.387941430114292664e-03
3.084445723602713234e-03
5.666013885969252949e-03
4.212724742985134510e-03
2.148635397526766147e-03
4.616681351501474712e-03
5.479551942033604808e-03
5.150762117095367826e-03
4.497780258887284707e-03
-1.588753082163596713e-03
-5.162160727302791616e-03
-4.804896813517562683e-03
-4.961771485167892209e-03
-4.500562150240140259e-03
-7.035295352051004238e-03
-5.862335619392883973e-03
-4.519754038622634238e-04
-2.153529042464092953e-03
-1.699734046807705552e-03
3.035277848747870450e-03
-7.630863382435176725e-04
-5.938470786488687925e-03
-2.420377577827004592e-03
4.075757983582535895e-03
4.759119045587576272e-03
1.536847840816604749e-03
1.748075083317997009e-03
2.539547588545535729e-03
1.003093201711283133e-03
2.328673949265786056e-03
5.833005602036561710e-03
5.154014150973115251e-03
2.098323307804857152e-03
-1.752391907868517513e-04
-3.654664730432542752e-03
-1.282001706677766278e-03
2.163888625410004696e-03
-7.373499779615099413e-03
-1.316279736119835460e-02
-5.637482491745994702e-03
1.263407676364160671e-03
4.450472409781168655e-03
1.975031072174404830e-03
-9.058646747156524209e-04
5.670135626628122847e-04
6.551300743481846970e-04
2.360395658239357059e-03
1.202675378870788096e-03
-3.921554564868470413e-03
-6.940027114436622159e-03
-1.182678100050178760e-02
-7.236482662751334526e-03
4.949534199137448943e-03
8.166635278989814103e-03
1.437028636435892966e-02
1.935786198680450668e-02
9.913177511433281588e-03
1.304501026771696416e-03
-3.475295048577558849e-03
-7.083254621027469666e-03
-5.161637218541399556e-03
-4.509539697553169649e-03
-5.394262792458211393e-03
-4.667286865070926008e-03
-3.501786046082469225e-03
-2.707584177607565016e-04
1.130300042292934877e-03
-3.193179653227098480e-04
-1.117150594963544491e-03
-1.993517326959653134e-03
-3.122426896111067055e-03
-4.047582762200351535e-03
-1.458885602292462258e-03
2.013982734222101185e-03
3.119000322137196936e-04
-9.806515242520913640e-05
1.227860416714684133e-03
2.648665301261345865e-03
8.074120965393350932e-03
7.622571997131202121e-03
-4.518773080134495953e-04
-4.803332157860262623e-03
8.698629695422807704e-04
1.095922023083961694e-02
6.983566088599648530e-03
9.464085414416723496e-04
5.450815703835256050e-03
-5.151194589160080529e-03
-1.775164347870484063e-02
-1.329966638590109225e-02
-1.226444674471331882e-02
-4.179684773284795055e-03
1.212444493748375367e-02
8.627887629138566647e-03
-1.985902574294695893e-03
-2.468210905489640061e-03
-1.100535521739411582e-03
3.486067650453130730e-04
5.165793454774492491e-04
-2.087550962451644506e-03
-1.941578184807847638e-03
-2.140546354515341677e-03
-4.649346241438761726e-03
-2.824913308884436768e-03
-1.472164059379597574e-03
-3.124921688128011292e-03
3.369715184817516558e-04
4.881172397408194488e-03
3.983249522859016838e-03
2.305596226580293624e-03
4.157937195200341572e-03
5.170146512296153879e-03
5.258217493668134075e-03
7.573189119705411518e-03
3.147211952880203580e-03
-1.703174441525483066e-03
1.376181575557810805e-03
-2.484828283762865759e-03
-4.780618502800087523e-03
5.569294043552688389e-04
-4.539249185174090880e-03
-7.466183281315587512e-03
8.936603223727267176e-04
2.661973897593882020e-04
-7.766776099427743357e-03
-1.300909129687843847e-03
1.229491057593307991e-02
5.235787347263189118e-03
-9.470518450176960631e-03
-8.630428051750703433e-03
-3.107517645922683032e-04
1.070427523444987539e-02
1.468230221565568899e-02
9.123651969589084351e-03
7.194572351215133138e-03
-1.373876383437255258e-04
-1.045963555442230158e-02
-1.012473366246630264e-02
-7.478513584607248028e-03
-6.290304693502049224e-03
-4.342885781533988021e-03
6.916966136214259143e-04
5.597102745652639960e-03
5.259559688064154720e-03
7.216157233934891377e-03
1.184973109446032721e-03
-1.242069557330161521e-02
-8.221925828530398522e-03
-3.125716263238665846e-03
-1.025857708385879974e-02
-7.670740950689174630e-03
-2.330579783608730578e-03
-2.994623207840835764e-03
-7.126875186378417004e-04
2.673056573321304103e-03
5.952760845685947134e-03
6.450662726678652384e-03
5.979170245765394812e-03
9.297645848545896957e-03
7.957411277918614509e-03
3.889487369689043766e-03
2.407459060316983427e-03
-7.088116256462094825e-04
-2.212829473077191061e-03
-3.917456364270680176e-03
-6.036520842697238459e-03
-2.622016594103432699e-04
5.997360777209585943e-03
6.011993254837797764e-03
6.213848303795311938e-03
2.265825790133249584e-03
-6.843245355277306242e-03
-4.559733690274773814e-03
6.164530020559797450e-03
8.107544424221707624e-03
4.455557712640172315e-03
-1.280834116329718762e-04
-3.794726536552417949e-03
-6.841173163040057022e-03
-1.724968577278588808e-02
-2.002984040257692333e-02
-7.240077998020087724e-03
9.630251781479253967e-04
4.487118330087255282e-03
4.915904098516583366e-03
7.905232890074035735e-05
2.916574891132079055e-03
7.932743966783555034e-03
8.762272272032895978e-03
9.243010584052838499e-03
4.514199366153718446e-03
2.726065540034295015e-04
-3.572447892955002337e-03
-9.330265489603731602e-03
-5.704264444676413436e-03
-1.681270825442498108e-03
-1.541290154632454475e-03
3.797101479013611537e-03
3.556433105663725502e-03
-1.982829982251551985e-03
-4.483087033235293173e-03
-4.377892074604262419e-03
1.091358307533522474e-03
3.061996996322854069e-03
4.502093553825071287e-03
1.661193451526540507e-02
2.360831810551984600e-02
1.602080379247730613e-02
-2.067788735527265921e-03
-2.132186785190339287e-02
-2.637097322811575092e-02
-2.113132848410069139e-02
-1.248865627977201881e-02
-2.900785371750043418e-03
1.765510637346118022e-03
5.370428545473823236e-03
7.463373460244061321e-03
6.777638597224437331e-03
4.820002114246538759e-03
-6.990967510074879310e-04
-4.884591908421482762e-03
-6.675304140579172395e-03
-4.056869403750905378e-03
3.783803469767200913e-03
7.986121888050557241e-03
8.967379525436167814e-03
4.378317020361939191e-03
-2.106052646872432540e-03
-1.175084633606910279e-03
-5.049314725971125288e-03
-1.210154599509129583e-02
-8.644987228898313308e-03
3.728099383153570846e-03
1.715880110754519280e-02
1.833730374521872972e-02
1.219083311210747422e-02
1.121564224157065547e-02
9.856378871117175630e-03
5.777863310507427332e-03
-1.724354368202775118e-03
-1.148394678485678728e-02
-1.923407001303237274e-02
-1.989217772869790804e-02
-6.817206257036206689e-03
2.122792215877241512e-03
-2.576958350722782700e-03
9.629398358785737182e-04
9.524889003718053568e-03
5.080932494330365513e-03
-7.458723449449063472e-03
-1.505413890741665560e-02
-7.481536749038245927e-03
9.222097603279093628e-03
1.375160623366121666e-02
4.378194847768079878e-03
-3.039249532028858412e-03
-5.110152801493112081e-03
-4.644147718358098212e-03
-5.188044144620544869e-03
-7.261225327058549138e-03
-1.892076481696311659e-03
4.711770586608978947e-03
5.984192784844680722e-03
5.627065214586020499e-03
-3.969778606791905112e-03
-1.088786428631079682e-02
-3.020217024907915094e-03
2.247238787932956221e-03
-8.239426075405482041e-05
-4.086967073711133061e-03
-2.468412382754243354e-03
4.731752214913865009e-03
6.905560587911396472e-03
9.462705813563726878e-03
9.691054416209616412e-03
6.054552484299140225e-03
8.479056049849982221e-03
2.374028252472387863e-03
-8.476951087731433160e-03
-2.712884369777389740e-03
6.984389471735784685e-03
5.692249238427383659e-03
3.888291288170737155e-03
1.059757709531104417e-02
1.033111226403443834e-02
-2.759228437870802405e-03
-1.166550986943630519e-02
-7.257791547219542665e-03
5.717624367584145557e-03
1.896690713918920430e-03
-1.263888793962137172e-02
-1.005925710100791758e-02
-1.857634854260256652e-02
-3.081132213692865801e-02
-7.878734283968583108e-03
1.592192393647580070e-02
1.420229975908720958e-02
5.611992878958271510e-04
-6.080399791723406673e-03
4.325009654442436326e-03
5.271322665174612600e-03
-3.713913781813898887e-03
-5.288548597782314004e-04
8.690585562627566952e-04
-3.159337492497493217e-03
-1.804038815607009226e-03
1.290892864892266177e-03
3.946832301738560297e-03
7.011036988098453757e-03
4.786153749946655579e-03
-2.301896049836854585e-03
9.039774072117691146e-04
8.853995417958145445e-03
4.580806437821595585e-03
3.432418221647780873e-04
3.785148066186516235e-03
3.106335948795016077e-03
-2.486366140660556823e-03
-5.020586792375270058e-03
-3.888785685253359336e-03
-1.501739142537287294e-03
1.439833845030611195e-03
-1.368370082751846654e-03
-4.584489866447897556e-03
4.146402500579730540e-04
1.548857289269338139e-03
1.062666714678749428e-04
3.272314238757564626e-03
2.470114890883152222e-03
1.652554486916399650e-03
3.408125422004317038e-03
-1.091975522214726994e-03
-9.018329939271974710e-03
-7.669018176338016773e-03
1.991550007876634592e-03
3.846019390196595521e-03
1.563957731774706737e-03
2.424528224925045182e-03
-2.957057224709761130e-03
-5.939366862149075832e-03
7.976050706004454162e-05
2.111316503749964286e-03
1.110039628853115443e-04
2.279806397072995793e-04
-1.763092272793440355e-03
-5.313781075274200127e-03
-1.217943880303280985e-03
4.550228289578946671e-03
3.580658304962072106e-03
5.212712365500651000e-03
7.828489802138913559e-03
6.847427826476380069e-03
3.780654743088702596e-03
-6.248435652083998877e-03
-7.928964896825841172e-03
4.707310471358443736e-03
5.924770434501374326e-03
-4.557749482942599802e-03
-8.532107866556100026e-03
-6.338498931444298996e-03
-4.847680159791053697e-03
-5.211454468159178871e-03
-3.926246277770209167e-03
-2.046205463424720199e-03
-2.256462861567883754e-03
-1.238823054949555113e-03
2.151159044685821160e-03
3.171635477718838352e-03
1.843689307217589069e-04
7.385503375778600154e-04
4.616805972249217634e-03
2.880606067395763848e-03
-3.532665842773695169e-04
-8.575041659485383664e-04
-6.612969624147189019e-04
3.184034064670082740e-03
6.715683391773263206e-03
5.322927289013856984e-03
4.117667529816700263e-03
4.382290510335199070e-03
4.571308691003890014e-03
3.454312787140497928e-03
-1.651802651233819433e-03
-6.736536898953787711e-03
-7.036695756962544658e-03
-6.246983732226044778e-03
-6.030154703680724176e-03
-2.982698511859400992e-03
1.025144466325621749e-03
2.629391305913004150e-03
5.278395489620415354e-03
8.920112946499622608e-03
4.755939569673165238e-03
-5.368142574320099517e-03
-7.999475784194156475e-03
-4.035069289594073183e-03
-3.631846291413173746e-03
-3.892313092849143414e-03
5.918636336082095002e-04
3.902725642002636067e-03
2.154521895727427947e-03
3.441573958253293843e-03
9.138903182326131927e-03
6.678459678421471216e-03
-2.169649256768803759e-03
-4.771876349200712165e-03
-3.339421263152814179e-03
-1.718348926791364540e-03
1.802048540669973524e-04
-2.724528380029098617e-04
-9.088087303787558378e-04
-7.612941776253487076e-04
-9.748971751156797292e-04
-3.059577825468723388e-04
-6.821022666768348261e-05
-5.093363054618040616e-04
-4.725944186635250809e-04
-1.983653755506549834e-03
-4.177815557297689421e-03
-3.388046900257952413e-03
-4.579179434807885071e-03
-1.085251868193323928e-02
-1.000682187657209871e-02
1.260436658453638163e-04
7.114505881123012361e-03
7.644104373919694342e-03
5.212273485537512879e-03
4.563205918015071812e-03
4.626717125116698928e-03
4.124414129251671723e-03
7.425540105047255188e-03
5.229733946379421308e-03
-2.412259914332070491e-03
-1.405152879701504357e-03
5.553295572482144999e-04
3.396425969754375876e-05
3.629099846144162329e-03
4.070967620405865559e-03
2.158470482603628941e-03
5.089232397654880335e-03
7.936022907229891080e-03
6.103801812897208592e-03
2.257611791689852643e-03
-4.167748213519904647e-03
-1.040958124418407162e-02
-9.443788730328046138e-03
-7.907388241768198781e-03
-6.480901990534878795e-03
-1.531966323601245683e-03
-2.889816658666746491e-03
-4.869269561616048660e-03
-3.597755309359861303e-03
-5.885890971262918575e-03
-4.226905748343953197e-03
-2.128598302038877353e-05
2.663703955683829720e-03
3.854665238197380397e-03
2.017721621663581821e-03
4.185962800749342370e-03
4.796955659998976794e-03
6.626785107635796380e-04
-1.939922181539804847e-03
-2.901221998081967169e-03
2.866971540142043348e-03
4.111508566673409415e-03
-2.683201076566289842e-03
-3.420384372849399196e-03
-4.172156113561514140e-03
-1.648944976519346566e-03
2.835157691074340156e-03
8.651794594899989924e-04
2.226796257804530832e-03
-9.298922871188336796e-04
-3.954226924696525002e-03
2.108041014974185254e-03
1.306452075860427796e-03
1.745770139842594756e-03
4.525595626654571428e-03
3.875531873093805788e-03
9.642303300305094665e-03
8.420490880794079258e-03
2.645975791156321508e-03
5.585975889713327286e-03
5.351499793826987664e-03
2.744020858991637595e-03
1.386695818823570434e-03
-2.603756061198565785e-03
-4.601602222062990168e-03
-1.531702339187280496e-03
2.218783790287912581e-03
8.168410861763649887e-04
-3.688095060869569976e-03
-6.565412586343241826e-03
-2.729048701566817205e-03
1.573807897291260374e-03
-2.325526593650568876e-03
-6.986167020745085495e-04
-8.370549864125803596e-03
-3.418842931091639614e-02
-3.078657066114718482e-02
-6.860989815795371857e-03
-2.665209124052537754e-03
-6.883160182311051168e-04
6.087253975562056420e-03
7.638482961891081800e-03
7.611684488844943329e-03
7.314287623909760706e-03
7.481140238581378450e-03
5.321669652780267566e-03
4.091407669600578140e-03
7.290002622042031019e-03
7.894146147392431048e-03
5.464257733032592233e-03
7.317549293756146593e-03
1.590673764917759081e-02
1.642378846706841339e-02
3.832269245071928589e-03
-5.018231342010673855e-03
-5.660820039082765237e-03
3.552721039184089137e-03
1.489773906627972141e-02
1.340552632899514804e-02
7.623459074408667560e-03
-9.480850086348569655e-03
-3.806288077530620845e-02
-3.817895157160166447e-02
-1.115631673608361366e-02
5.247400437325357506e-03
5.664596992757765792e-03
2.404468871595740343e-03
1.214355963745291766e-03
-5.727640048435789005e-04
-4.525999923247943542e-03
-3.657492767084779845e-03
-3.972265662334744231e-04
-4.610221259615914229e-04
1.035850865653813657e-03
-3.120159798926761289e-04
-3.016179018406619020e-03
3.679802208112773788e-03
3.398461099765031929e-03
-4.908425036302422120e-03
-6.047086917614484958e-04
3.225423178068905373e-03
1.061481894283867631e-03
4.779787907247481753e-03
8.258391456189279403e-03
7.775954993447268745e-03
5.503314642259980044e-03
5.911706159851321495e-03
3.094292528036519246e-03
-5.953094686689836858e-03
-1.923801852012448381e-03
4.083371455591539023e-03
-1.465940976918663147e-03
4.360287882461897626e-04
5.074453866203168691e-03
3.671002748847909496e-03
2.591393510021682760e-04
-3.245859427739508120e-03
2.955637302065891939e-04
2.760685147737897138e-03
-1.057042238551393924e-03
-2.977601149169596673e-03
-4.462952770556630720e-03
-6.204548524018333767e-03
-7.634934324512364368e-03
-5.854905394924348958e-03
-2.348342777944700636e-03
-7.252150726802975185e-03
-1.612484585823458633e-02
-1.899949832008799785e-02
-1.188795231976551292e-02
1.129335312440900166e-03
9.657317752092033081e-03
1.209280653754252546e-02
7.469671315310440728e-03
2.736075240998914974e-03
5.675331329946456047e-03
4.398519345995883893e-03
1.653703296500760866e-03
5.774028617784203628e-03
7.797302925660477835e-03
9.268923128980614476e-03
1.118878562959912948e-02
9.248894311965155657e-03
4.788898958626190347e-03
-4.024123292522360611e-03
-5.345184241932497693e-03
4.568173563543413349e-03
1.554243074225269017e-03
-7.665790734333686324e-03
-2.191674418723378245e-03
1.861608458837157344e-03
1.056756863075268213e-03
3.293603814955020984e-03
-5.939854799696443234e-03
-1.783205035258247917e-02
-1.446963041430670595e-02
-5.183775556492837763e-03
1.382259907771808943e-03
9.835873367162531467e-04
-1.517372532501224443e-03
1.862747864656429022e-03
2.430954393720831472e-03
1.257385978004550795e-03
4.044520619614850113e-03
5.145423643764729556e-03
5.367556026777136821e-03
5.670969957774374230e-03
5.623096750805757146e-03
5.324288827656442451e-03
1.214509291538166122e-03
-4.351365976728145679e-03
-7.744691654619485083e-03
-9.566288882664343574e-03
-9.505790853261857076e-03
-7.731579423457989736e-03
-8.468879411899075949e-03
-9.500460279934938579e-03
-1.202843820229181982e-03
7.811052807362797896e-03
9.103309881880105800e-03
1.119816568712065155e-02
1.042215468109640442e-02
6.114103867496273673e-03
2.500178313470923300e-03
-3.947201100472052561e-03
-3.101060535907377170e-03
4.105050382538644703e-03
5.483850527355334931e-03
4.409255695209154946e-03
-1.076119128620880603e-03
-8.686418100664304587e-03
-8.825768121165127739e-03
-5.855952933011559711e-03
-2.872183140630831574e-03
1.944500293447835090e-03
5.572505512837163527e-03
3.018650390046535761e-03
-3.825706995688750965e-03
-7.057792448979839650e-03
-3.770486334548622288e-03
5.232866468245122443e-03
8.673860640475643258e-03
-8.855472113424408187e-04
-5.403874322331277472e-03
1.814113960194136885e-03
4.714028993101151109e-03
-1.077445606050360296e-03
-4.757936509724011200e-03
