-1.750165837857579509e+00
-2.375490376402757509e+00
-1.376643817244876944e+00
-1.634298255546745571e+00
-1.199798171717709749e+00
-1.012046918169500209e+00
-1.009475217516327072e+00
-6.847807851904023080e-01
-7.851581973168311190e-01
-6.304119191893338137e-01
-5.863812583863950989e-01
-6.447516388972119872e-01
-5.053854145551696098e-01
-5.683474078239100225e-01
-4.382294071649120992e-01
-3.386587512608578709e-01
-2.609832231374482614e-01
-3.538334488921678067e-02
4.175813048367153085e-02
2.463655107842605829e-01
3.968528521372247653e-01
4.875609774625713211e-01
6.595667732466424793e-01
6.844393136746946826e-01
7.596494164009548467e-01
7.569052802441853522e-01
6.739579576594267873e-01
6.404826572162166665e-01
5.101703224406777260e-01
4.446789780064090980e-01
3.491686945297556854e-01
2.223563796138811888e-01
1.613864108236748862e-01
5.369763577448563585e-02
2.310655515497184176e-02
-1.295293794926867526e-02
-5.623980427403855314e-02
-2.916438784424637762e-02
-1.839575007511186702e-02
5.306747470259878807e-02
9.156407711041716913e-02
1.108510753001739901e-01
1.645286694935331195e-01
1.528017127656433327e-01
1.637813599491554084e-01
1.434082913517044922e-01
9.617638943995010514e-02
7.760611815504675493e-02
7.635451219727529271e-03
-4.390094485982486139e-02
-1.081974723689274054e-01
-1.862189620288575154e-01
-2.228830305234378306e-01
-2.617977793709608814e-01
-2.567488843500303486e-01
-2.425040156979327566e-01
-2.197532057127342953e-01
-1.611035846182690412e-01
-1.222038517802951918e-01
-6.582281537290657347e-02
-1.626071963981432292e-02
1.570767499936287157e-02
6.200975575859100919e-02
9.199377823531286469e-02
9.504521795129300399e-02
9.499203279696581681e-02
9.776877817664741954e-02
9.668259009039334440e-02
8.785709391268334278e-02
8.211211408220261965e-02
8.454384370572504137e-02
8.729511222722939612e-02
8.886839440493546349e-02
9.146182323851208273e-02
9.388982095020598218e-02
1.004040539871632609e-01
1.092723252288772262e-01
1.154512996431291960e-01
1.161792316035843292e-01
1.050065002385450058e-01
9.538650526295282261e-02
9.786132691230292613e-02
1.000787325275987877e-01
1.013767245452869559e-01
8.963784360844442856e-02
6.195464528313578134e-02
5.867954042218156974e-02
7.993414065537601809e-02
9.287794761935071197e-02
1.006800017748639697e-01
1.076497909571929035e-01
1.074896606676357530e-01
1.042223034865016607e-01
1.000959546904686970e-01
9.266557105837300301e-02
8.738260293821693836e-02
8.816198668214726697e-02
8.424620474508691392e-02
7.695599510150614997e-02
7.740862692319384897e-02
8.172742144147188137e-02
8.587273439087468596e-02
9.001186551917741974e-02
9.763355387285034548e-02
1.033506741809969431e-01
9.791711125379162772e-02
9.593078293624898722e-02
9.696402886829069701e-02
9.227532643284247493e-02
9.285299733347246454e-02
9.092814936503527956e-02
8.640234227364312902e-02
8.624564857934394202e-02
8.151597030999810367e-02
8.355056214757521083e-02
9.174361499830263611e-02
8.958033564406568672e-02
8.007485735070696276e-02
7.410637147811652281e-02
8.500499737756833651e-02
9.976516886315445198e-02
1.021218457524617068e-01
1.034338941661126221e-01
1.047675885959523240e-01
1.058777023406040907e-01
1.030445522905972244e-01
9.473222472971143393e-02
9.415130513277604474e-02
9.343031914766114499e-02
9.274883537135672484e-02
9.672929654862422177e-02
9.655506823131920768e-02
9.870719652265379229e-02
9.646928757847997304e-02
9.338946555223549828e-02
9.244869552571530202e-02
7.416787489633834551e-02
7.121186958543544721e-02
8.827344170927008127e-02
8.385875353258713527e-02
8.104821597324057825e-02
8.984682740742779006e-02
9.245643531667138704e-02
9.664611017272126126e-02
9.506622880784720842e-02
8.949723193481554095e-02
8.841044539846337758e-02
8.750352772288008674e-02
9.096527910658866456e-02
9.553750348707670814e-02
1.032158440451242803e-01
1.145294722359646300e-01
1.166815676572869193e-01
1.120939532774674063e-01
1.059972775989472538e-01
1.020969156285716495e-01
9.743916836800674275e-02
8.707815467627223749e-02
8.786964203124046635e-02
9.283221455497807362e-02
8.215734331408147684e-02
7.468746038072771043e-02
7.975385153773531521e-02
8.317489784192919067e-02
8.434537710727955939e-02
8.460866882613829465e-02
7.563346666676196151e-02
6.358789364541216071e-02
6.710809580050500212e-02
7.762273120566569318e-02
8.161837044420178211e-02
8.844028739005924122e-02
9.482117495969734355e-02
9.656727082491586844e-02
1.026317017311743907e-01
1.119646393532333917e-01
1.190457175554797270e-01
1.149262227339663683e-01
1.001122823235617437e-01
8.954097046935254045e-02
8.781821382093996098e-02
9.479322765789027772e-02
1.051569004868534996e-01
1.105733882070441820e-01
1.098473367934182654e-01
1.011161631909465730e-01
9.515816570153291798e-02
9.612200073873317097e-02
9.122266038802290256e-02
9.045927249525209657e-02
9.988979149575749616e-02
1.048144930566491384e-01
1.045423732572427766e-01
1.004144961497921151e-01
9.315539920021938258e-02
9.394923468046235959e-02
1.002534870951047596e-01
9.883585273027785389e-02
9.489803970618446161e-02
9.402504911410100585e-02
8.690338961874802259e-02
8.409071964853383208e-02
9.264966824597860307e-02
9.213157677963609848e-02
8.798621604492573578e-02
9.061351740742008831e-02
8.548727341481683617e-02
7.563688248327568586e-02
7.239248356580257893e-02
7.693113043302303444e-02
8.435791510518605985e-02
8.597701733716767158e-02
8.525574725736319304e-02
8.340946719085513827e-02
7.900139847033588181e-02
8.409272291056756055e-02
9.557419631249247649e-02
9.768526621707646074e-02
9.269102168375506490e-02
9.018974936272942944e-02
9.371328193966367570e-02
1.006052064632786680e-01
1.024904997393953909e-01
1.002108083340090827e-01
1.026644533932157544e-01
1.050453276860706664e-01
1.037015100431829956e-01
1.056766920370643126e-01
1.064356871415799849e-01
1.043821901664364615e-01
1.038544467879543992e-01
9.659555503489029860e-02
8.735203076861530747e-02
8.788345223588228672e-02
9.145354821694914871e-02
9.746866452617816701e-02
1.030322701912977645e-01
9.314304181096015600e-02
8.203444827812401974e-02
8.818291689582949400e-02
9.297757023797470488e-02
8.862252049348784411e-02
8.970698884111129312e-02
9.477409747069187596e-02
9.780485009925353468e-02
9.667540564178064844e-02
9.087404167624481277e-02
8.815983623661234614e-02
8.915416561176758847e-02
8.980398534319571080e-02
9.179236339221186203e-02
9.338615376746606245e-02
9.347774748889264851e-02
9.214524174991006733e-02
8.625262319208817918e-02
8.235722294934795518e-02
8.920102559850048851e-02
9.640855938397976943e-02
9.491975637176904013e-02
9.060182295756810666e-02
8.789120896420199447e-02
9.170366462851861633e-02
9.022408444504155522e-02
7.309320476905667441e-02
7.263820861339685686e-02
9.198213598721047268e-02
9.516351339222922645e-02
8.919858314948736489e-02
8.953425410332389867e-02
9.016125067773848867e-02
9.161482380384269875e-02
9.357425175423379760e-02
9.394247093111493530e-02
9.083281823502922792e-02
8.957374011509290634e-02
9.696336719465614706e-02
1.032580411777797857e-01
1.034603776807800635e-01
9.926066892171341027e-02
9.103699671364837154e-02
8.639303727848288150e-02
8.616151400894277168e-02
8.596673554226672009e-02
8.641967341796932822e-02
8.836070264293982568e-02
8.856962479551931666e-02
8.414340659966876301e-02
8.162527775563417631e-02
8.429143772569308579e-02
8.989658547118375975e-02
9.613355012507865394e-02
9.580589487356565292e-02
9.185251002360958483e-02
8.892129701345888315e-02
8.580569608851693064e-02
9.065189530430139975e-02
1.005758114797131453e-01
1.014483875658403061e-01
9.445776139755124312e-02
8.887409805782210681e-02
8.610064759925122047e-02
8.312694658623898114e-02
8.376095353302950852e-02
8.824986597115806741e-02
9.176508868881796954e-02
9.768977433350740924e-02
1.010417533474778085e-01
9.691402944849995815e-02
9.495441603149992749e-02
9.234418673530910004e-02
8.737598357454604003e-02
9.122603142798174636e-02
9.576386531413116909e-02
9.152941805217135185e-02
8.640253508930997861e-02
8.143616697412990602e-02
8.164950405620932661e-02
9.238401084888031578e-02
9.581653318693093835e-02
8.939600563041458225e-02
8.729503349448880511e-02
8.506736075347334780e-02
8.796971776780464214e-02
1.010737955472195554e-01
1.082719835134175468e-01
1.057907900979419280e-01
9.518914089391847244e-02
8.412481947187616660e-02
8.736323077453839181e-02
9.556882819875073265e-02
1.000155004782139478e-01
1.005389506258063809e-01
9.411875042092347765e-02
8.974077401879967941e-02
8.741944935180255560e-02
8.552019318928613667e-02
8.883281430848777305e-02
8.979491335109351935e-02
9.199599306876422855e-02
9.704464412500696247e-02
9.509031331702477718e-02
9.303075385049974777e-02
9.442517939225650303e-02
9.546853924044698680e-02
9.489609507828017376e-02
9.135324562047458796e-02
9.046163689895445059e-02
9.017186126007983860e-02
8.787361347063089856e-02
8.805582361196924446e-02
8.880814125702310435e-02
9.163501689898340130e-02
9.515783972244737376e-02
9.528255153436239466e-02
9.424504089549817776e-02
9.434971565794353365e-02
1.005819126777433292e-01
1.045838513061642661e-01
9.830815782290708293e-02
9.474798522378147236e-02
9.394003367962756867e-02
9.037536515321442643e-02
8.954265004733774624e-02
9.099638655271355403e-02
9.354248265558036401e-02
9.528143471477859561e-02
9.442477153265155243e-02
9.130742203944433588e-02
8.687067862273441243e-02
8.609439543821931218e-02
8.671851915985775983e-02
8.746149848292381068e-02
9.081247712693250873e-02
9.361147685998591483e-02
9.686314674643804745e-02
9.597651029023045177e-02
9.049533780494989355e-02
9.209110260974825990e-02
9.565671231718492207e-02
9.380081935379940006e-02
9.177279262440836416e-02
9.374993693507416292e-02
9.753211368135727977e-02
9.383235337756828942e-02
8.904420909729809930e-02
9.460208657155982914e-02
9.655988143087447517e-02
9.107878715331967079e-02
9.286764530284286057e-02
9.779644382845224804e-02
9.934042543676407933e-02
1.020977709168514463e-01
1.022981000799705054e-01
9.980843209059422905e-02
9.896511137042837691e-02
9.477573433896827049e-02
9.348243230617139798e-02
9.799811565982727291e-02
9.469792074780408742e-02
8.804051702449781913e-02
8.387737004852499623e-02
8.043653273890957744e-02
8.430432534315077109e-02
8.916877010459772768e-02
9.111767137750159673e-02
9.351305782059790572e-02
9.165509339284812207e-02
8.864433204491260765e-02
8.622000088151531016e-02
8.779518186269309743e-02
9.367780170576103793e-02
9.224999636003827774e-02
9.259790847423052251e-02
9.756285618917273639e-02
9.354710520361082804e-02
8.883916475648739874e-02
8.900522325015478020e-02
9.004507842748044055e-02
9.311329423685028861e-02
9.677642559458002336e-02
9.866299943720863164e-02
9.734022931166963488e-02
9.695806622666278130e-02
9.732018666567476828e-02
9.561530396238335228e-02
9.578038043996149609e-02
9.530412408855222506e-02
9.592528618545570485e-02
9.820847377572934633e-02
9.647432898142502267e-02
9.753471345969591533e-02
1.008792861347372338e-01
1.009062497227989352e-01
9.889356537700408345e-02
9.320366481553522819e-02
8.974803938089814803e-02
9.260152241518097849e-02
9.476684597586182424e-02
9.293597819746673983e-02
9.212993174143907504e-02
9.196119545843836618e-02
8.840250962253803912e-02
8.960146066983468160e-02
9.171396935405257134e-02
9.390529360285282401e-02
1.003266546602489540e-01
8.244888336621467029e-02
6.260868619401047108e-02
8.147933526597386789e-02
9.592105248882283608e-02
9.279608027059581266e-02
9.550003772914253397e-02
9.290486927388549865e-02
8.987959804552743404e-02
9.036410795431655540e-02
9.096746595853114070e-02
9.568594041945860385e-02
9.980075158524873147e-02
1.050134164986918084e-01
1.048019531570253127e-01
9.755907498162597058e-02
9.563431818068254819e-02
9.606724089310733627e-02
9.701493188407424306e-02
9.500533627879689802e-02
9.074320212586868550e-02
9.335662635219293959e-02
9.355576682772681618e-02
9.108196708177471179e-02
9.476767076663536460e-02
9.941752675236648074e-02
9.926501322588576759e-02
9.200463512669526667e-02
8.723360747094643930e-02
9.003622782562041571e-02
9.234886574442024987e-02
9.561209695446809542e-02
9.803257371936335840e-02
9.487931015359163389e-02
9.148244926624068962e-02
9.182972229503422179e-02
9.340130402366159101e-02
9.143419574164830810e-02
8.694703352693194942e-02
8.549903167602425358e-02
8.915173375157241231e-02
9.049491921007815631e-02
8.799049150454421597e-02
9.193403496508277539e-02
9.544167345152332338e-02
9.594328341469611499e-02
1.025486613684329917e-01
1.045990759698793293e-01
9.769072555078626985e-02
8.768061659980219691e-02
8.676147393973879240e-02
9.802107841021628909e-02
9.127381381742681599e-02
7.960802572359565454e-02
9.152785012059086456e-02
9.715963444440524344e-02
9.513278671613427384e-02
1.000824251756146921e-01
9.713848690353846238e-02
9.432125277382534534e-02
9.424492172976783877e-02
8.866362274773928465e-02
8.719411994208496608e-02
9.160498207510492374e-02
9.693772854451797316e-02
9.745291210778667113e-02
9.431980616243354487e-02
9.383940536274326671e-02
9.091733922532595213e-02
9.011523892834417959e-02
9.392012120600184977e-02
9.305712234428013818e-02
9.273841585591970083e-02
9.514985061342276507e-02
9.692563218668864833e-02
9.828989609496519009e-02
9.701370019304478287e-02
9.850081236449606537e-02
9.949007293571240917e-02
9.499418049105000372e-02
9.528291787468234908e-02
9.597566337680045467e-02
9.234757933720286194e-02
9.162835969073412912e-02
9.060389411895876377e-02
8.915980978163687287e-02
8.731103601160856986e-02
8.425826535782793281e-02
8.609963350922564262e-02
8.789605135025446714e-02
8.970617034459547889e-02
9.687878180223319369e-02
1.009319805335888859e-01
9.960969783482834239e-02
9.791095728394792752e-02
9.639039397969700884e-02
9.180799110689133458e-02
8.588088220101366965e-02
8.319809015252263573e-02
8.032696078488976710e-02
8.719235671880348759e-02
9.681741433931226326e-02
8.691246982793777998e-02
8.966019643740646972e-02
1.109351840589080374e-01
1.103147537904441561e-01
1.024944233793000092e-01
1.003281478836101359e-01
9.361913002120664240e-02
9.102147291591622391e-02
8.929748633764567067e-02
9.187618579525669293e-02
9.958812963756480396e-02
9.871185956601101485e-02
9.754316481019660590e-02
9.696264574487838128e-02
9.018563488866976341e-02
8.697659119965206465e-02
9.011518097434927099e-02
9.403056983447827255e-02
9.487309618656927790e-02
9.273339015014731013e-02
8.981478227396927361e-02
8.993207929989911753e-02
9.409864031185052879e-02
9.384238050546747645e-02
9.194502145075364452e-02
9.406367378605613727e-02
9.309699337896434890e-02
9.051245514842537476e-02
8.885304658683160217e-02
9.001585575117165838e-02
9.628198458771011770e-02
9.597110942173675552e-02
8.960471128359245863e-02
8.893848307426138744e-02
9.160755404437354033e-02
9.411076478259136624e-02
9.481203818140648831e-02
9.342755932303470345e-02
9.436359693438080287e-02
9.581903378073058919e-02
9.440805854799144692e-02
9.393004378985905789e-02
9.557876265100956337e-02
9.620819296007575294e-02
9.737274601296974641e-02
9.582325290956622554e-02
8.944238507415597228e-02
9.122333784318076288e-02
9.639426565964831495e-02
9.306881092122272492e-02
9.521033114922651530e-02
1.004558280163174028e-01
9.662029798966287331e-02
9.373330890693508388e-02
9.391891899566420787e-02
9.540485206342715074e-02
9.727129924469651856e-02
9.412410121082027958e-02
9.132511801243861638e-02
8.609185842011075895e-02
7.947567724456734706e-02
8.483784284706188950e-02
9.252645492659941628e-02
9.486324894775889638e-02
9.751147177764550589e-02
9.673631324353895722e-02
9.503851655205786120e-02
9.453292859847267637e-02
9.034604896880236991e-02
8.868390065631348573e-02
9.434706444509688428e-02
9.696820960471470852e-02
9.260330578502652676e-02
9.197202574988655455e-02
9.274178008171646281e-02
9.023399071413429340e-02
9.246322513814327071e-02
9.206304735791211169e-02
8.926433652971993427e-02
9.554178260510663712e-02
9.596691576838542459e-02
9.039944498248109195e-02
9.570529267710399524e-02
1.029194365104635911e-01
1.037683229020355813e-01
1.002230384293854443e-01
9.680519464411403707e-02
9.654316744259601457e-02
9.163901453772406447e-02
8.887694066987220087e-02
9.625885680416881862e-02
1.004108068240928270e-01
9.751238872022242876e-02
9.367117869430534316e-02
9.152619021161431667e-02
9.030134591831075197e-02
8.832836137047321567e-02
9.219754460873998136e-02
9.670408132587840488e-02
9.278096098556537497e-02
9.011311188220332002e-02
8.271746248930235412e-02
6.795970511614461695e-02
7.608380981319375069e-02
1.015409340930467502e-01
1.066454475997661022e-01
9.919335202922112404e-02
9.913871586492967181e-02
9.614344965136649435e-02
8.907057066088654163e-02
8.795893880301769441e-02
9.192004440199801063e-02
9.516685087861523340e-02
9.283490481902982594e-02
9.195633003107908654e-02
9.664221741568390645e-02
9.754829165540179758e-02
9.806389590714545412e-02
1.006997308293814952e-01
9.799988268276113579e-02
9.318372673855862542e-02
9.194707637153813617e-02
9.566284601967546541e-02
9.907685595024598446e-02
9.846652118294423051e-02
9.545902386692049768e-02
8.700128738664170136e-02
8.141127961029948068e-02
8.164776282476268743e-02
8.323732461545579886e-02
9.424193566690296231e-02
1.005844681098184423e-01
9.719447723072731360e-02
9.999986904342723915e-02
9.710800809154757074e-02
9.101609699333254588e-02
9.342229027629461724e-02
9.448145210357403179e-02
9.465679763069766162e-02
9.390908203227552042e-02
9.079449626813675123e-02
8.733410849126096998e-02
8.810331103805410513e-02
9.757914891662952672e-02
9.996904474994369738e-02
9.661475153817850048e-02
9.670522794643528208e-02
9.232395859093349422e-02
9.210530562103193264e-02
9.316869140461141174e-02
9.255832228134537598e-02
9.822167421194721859e-02
9.680683788500456244e-02
9.318547048624686857e-02
9.058592391335865135e-02
8.434606952427575743e-02
9.031995671877189602e-02
9.640553774290126776e-02
9.421258678866432923e-02
9.347199231606476144e-02
8.714485046814250679e-02
8.439827329240505438e-02
8.895323531029854236e-02
9.291278933870636414e-02
9.827152205914152505e-02
9.820652210357222467e-02
9.702134744867359217e-02
9.876692074699083834e-02
9.583926586212716814e-02
9.431932726206426754e-02
9.617128689453191548e-02
9.869631020828537049e-02
9.961849319099985722e-02
9.405283874295171376e-02
8.966384068647308137e-02
9.090700753584364524e-02
9.259349269988778608e-02
9.346070270245507294e-02
9.321314032254283954e-02
9.127025376152544944e-02
8.796000498955194868e-02
8.729370576821153527e-02
8.996822436853274541e-02
9.194079729142952406e-02
9.504863088991109821e-02
9.746311607910912445e-02
9.573429331433469525e-02
9.365146328497069017e-02
9.117487548483302340e-02
8.850978638858578162e-02
9.031146534070605414e-02
9.434052488037414363e-02
9.393460499454020507e-02
9.152716239610728111e-02
9.397065787177932839e-02
9.636970658418507474e-02
9.519201498027524133e-02
9.732841836244721101e-02
9.966212793786835555e-02
9.768308322019085554e-02
9.562102858847063014e-02
9.199158829877082666e-02
8.917796137678027368e-02
9.320554984419796019e-02
9.838714777079071716e-02
9.959571794036883863e-02
9.689795020894770294e-02
9.182768702408283801e-02
8.952511561449578992e-02
9.063415641254672639e-02
9.382033100657648228e-02
9.668620866379931678e-02
9.468352943692784351e-02
9.198815298199802815e-02
9.059285727666452348e-02
8.913479847799044009e-02
9.296344618366651769e-02
9.675457505286914894e-02
9.327010462743631769e-02
8.942123411302062286e-02
8.944730157174629603e-02
9.088400434497774516e-02
9.051862762093186576e-02
8.932257807895617463e-02
9.165073659470487910e-02
9.426543754779796724e-02
9.289433989425767424e-02
9.073180568861956286e-02
9.018134618126567859e-02
8.926757919938027586e-02
9.168493287990550633e-02
1.009991128214652867e-01
1.035366779599560666e-01
9.394828537392735379e-02
8.858505404763052093e-02
9.106495083055470008e-02
9.499959673062635668e-02
9.937503006758054147e-02
1.001834013569846832e-01
9.691144815108131139e-02
9.249800901692233068e-02
8.776334293974788481e-02
8.674075742377035381e-02
9.277512081419839185e-02
1.006812742556309065e-01
1.019447334715381792e-01
9.844663439229056623e-02
9.833375787054447759e-02
9.999442712424821966e-02
9.805441614454812882e-02
9.665806321538403245e-02
9.622131455631130481e-02
8.831764887792403762e-02
8.106823349415233360e-02
8.407173890266216032e-02
8.704805346928945475e-02
8.825086050356872880e-02
9.049773226640746293e-02
9.277383129457020261e-02
9.746362437520111888e-02
9.592704911290231284e-02
9.094649039013347203e-02
9.294688345705795496e-02
9.278598735531994046e-02
9.068326267407916808e-02
9.180437639983600462e-02
9.184498481281544446e-02
9.185920559535001861e-02
9.214388542800958093e-02
9.410506708453328373e-02
9.736776260160916185e-02
9.699850638075574460e-02
9.589067082384573892e-02
9.656837589935458877e-02
9.541054531952519735e-02
9.208727171789857224e-02
9.237424592987776573e-02
9.553553251239012278e-02
9.564596526744052751e-02
9.479471661853332287e-02
9.227431026987353846e-02
9.024992007335495836e-02
9.398621382865511575e-02
9.520574674770872214e-02
9.271201734420134177e-02
9.276371604494068612e-02
9.299146051433092308e-02
9.238586308945265224e-02
9.230086960315293798e-02
9.386583112529207906e-02
9.651819754592040612e-02
9.934260133529987380e-02
9.957380127673434722e-02
9.524955322119685319e-02
9.298041633900047676e-02
9.151630306800627446e-02
8.917230501974042489e-02
9.021185390316764641e-02
9.043194223043922453e-02
9.243245912927793018e-02
9.184186755291483262e-02
8.356821901454083990e-02
8.589958493204258305e-02
9.648635523442099238e-02
9.896209563635277595e-02
9.627632705760158505e-02
9.388356970800498802e-02
9.512109484421668593e-02
9.535496948089984548e-02
9.229639412433604528e-02
9.285572828936212997e-02
9.479309394294940794e-02
9.492815990905205392e-02
9.278098035566635648e-02
9.119873608532481912e-02
9.204326481299840435e-02
8.994287859522788475e-02
9.207557091409607208e-02
9.406811407752420084e-01
2.681835465380897787e+00
4.113382465519177522e+00
5.921670086796613219e+00
7.861251094310055088e+00
9.074441165772951123e+00
1.073467020037501740e+01
1.126117748587343570e+01
1.158657210499495882e+01
1.154377633308253515e+01
1.021138777260720332e+01
9.370272713347937099e+00
7.255591874212333536e+00
5.306660157603650951e+00
3.582177792811836348e+00
1.055025870604414662e+00
8.191014943852836794e-02
-1.551291743341347784e+00
-2.142476105261510888e+00
-1.779017331556406178e+00
-2.041243175361944218e+00
-2.746736260062827562e-01
4.180512301230376870e-01
1.817189660619952241e+00
3.586741153791694892e+00
3.549443092918816767e+00
4.937846303450597496e+00
3.921319573261834002e+00
2.858822102226923345e+00
1.620438671855030099e+00
-2.195562904975278506e+00
-4.123033467081224757e+00
-8.527696265816116394e+00
-1.208287345519955025e+01
-1.460772414920335116e+01
-1.896110841618273923e+01
-1.939003449698748938e+01
-2.148735667561071239e+01
-2.129183418905238057e+01
-1.884740429834216968e+01
-1.829795490643492428e+01
-1.271760511931413262e+01
-9.836529065040087616e+00
-4.987003304659843650e+00
1.490273858516576899e+00
3.795466253851311755e+00
1.114643615492580508e+01
1.323944015945945019e+01
1.577185192512339462e+01
1.873830135291250798e+01
1.557717082982484413e+01
1.943373847846842395e+01
1.606635758705907691e+01
1.640825547437389531e+01
2.002708067162298633e+01
1.594934370292602033e+01
2.642858291184276354e+01
2.607686700134192392e+01
3.353377028779699032e+01
4.940282629753579613e+01
4.314293133942621949e+01
7.957598223349536681e+01
5.988043187046938698e+01
-6.088683777558156152e+01
-8.133203459216728959e+01
-4.521216711786502174e+01
-5.299099528992385899e+01
-3.832316192692696433e+01
-3.192897606254932441e+01
-3.408355262138398700e+01
-2.397764684802937296e+01
-2.893380247363409197e+01
-2.542544630729292621e+01
-2.383629343798226685e+01
-2.665517141832045667e+01
-1.997409595189506959e+01
-2.063667640298187678e+01
-1.469155330922352576e+01
-7.506093485907983087e+00
-3.489084116948252046e+00
8.266810839749526352e+00
1.413084279148018751e+01
2.312992904945484796e+01
3.232747016658476014e+01
3.564194311583743513e+01
4.332682680665624275e+01
4.368692087413508318e+01
4.369243983080654914e+01
4.334172229786809538e+01
3.566607858116775986e+01
3.235889774722018331e+01
2.316577748701756079e+01
-9.353961235174377009e+01
-2.138939497871408548e+02
-1.849636326313864458e+02
-2.356242408336661072e+02
-2.582663221987597808e+02
-1.708468938385030924e+02
-2.281717633204775950e+02
-8.938168275907382565e+01
-6.185150753561494952e+01
-1.791503047397415216e+01
1.420445555357495948e+02
8.284520816550086408e+01
2.348745398591641447e+02
2.137645263963290176e+02
1.781117466813779231e+02
2.651469698638705381e+02
7.322029706383274572e+01
1.228089885928167320e+02
1.020888278654851256e+01
1.081480059082592682e+01
1.114037569628995783e+02
-1.838851774146856144e+02
-3.774850853202872969e+01
-1.446062708233249055e+02
-1.973065006940580588e+02
3.553179013568270506e+01
-1.586055420334925827e+02
1.536218787253301059e+02
1.528136938428063161e+02
1.740240321550506906e+02
5.054671508261885720e+02
2.559855210360558715e+02
5.759155027298676259e+02
4.620190027210182393e+02
3.273081397102035908e+02
5.582538649178164860e+02
4.827208194402835773e+01
2.636250776128987354e+02
-3.613984384337057065e+01
-3.250182799757861858e+02
-8.218720198707596580e+01
-7.304136175180537975e+02
-3.801649458780143505e+02
-6.338426846592644779e+02
-8.380706548115638270e+02
-3.011001651132061170e+02
-9.487154193844082783e+02
-2.676828921351195731e+02
-4.328849111409812735e+02
-5.998101554749620163e+02
2.262605564657634432e+02
-7.221774432675696289e+02
1.935471457141681526e+02
-1.932178591827860998e+02
-6.669388414232225841e+02
4.654837053858635727e+02
-1.376787916027649999e+03
6.642111927500518220e+01
-7.765086645964994432e+02
-1.907943243229796963e+03
1.094004327649358174e+03
-4.408523588152255797e+03
2.784301782862904020e+03
1.580246814602419363e+04
2.634170716481529780e+03
-4.582055215320957359e+03
9.685589132270096115e+02
-1.910936855033933625e+03
-7.309531539564500235e+02
7.919646900281654212e+01
-1.342909097188024134e+03
4.930124794844531380e+02
-6.468582331440427424e+02
-1.630531721417141284e+02
2.078675421745533072e+02
-7.009387831236276725e+02
2.422392404677426327e+02
-5.885264332040935642e+02
-4.144584691160042098e+02
-2.577774215333818120e+02
-9.304969364416656390e+02
-2.837303806940391837e+02
-8.202357833098153606e+02
-6.071710976390778569e+02
-3.591505379757944070e+02
-7.039246809499284154e+02
-6.027333563940236161e+01
-3.078523899060467102e+02
-1.987074016493128781e+01
2.671732385551761126e+02
4.973721623098444411e+01
5.479990678155787691e+02
3.084084923102768130e+02
4.392414491747629199e+02
5.413602311450556499e+02
2.226034185863568098e+02
4.637574042358889415e+02
1.311852599498358529e+02
1.110076481163828959e+02
1.044400943664513619e+02
-2.003852736062045494e+02
-1.530090567067329310e+01
-2.459847007463148429e+02
-1.941835662267519353e+02
-1.020326785689524058e+02
-2.349988897417550504e+02
2.741474477032705082e+01
-5.039718370278727377e+01
7.604254931050320465e+01
2.091660507615691245e+02
1.290619482325170111e+02
3.301601001033297393e+02
2.300862481746474657e+02
2.645931893086097375e+02
2.869039980427108958e+02
1.316105200691393975e+02
1.977641386132403341e+02
3.832040736989237928e+01
1.786351456454981390e+00
-2.238747606813205948e+01
-1.549421279503147559e+02
-9.378310270762570156e+01
-1.801419743139531420e+02
-1.497402410685747043e+02
-1.104447307544412951e+02
-1.202791023149480765e+02
-2.943460077504179040e+01
-5.077576940596094346e+01
-8.009852869105429818e+01
-4.968638297736678311e+01
-6.626883607395745912e+01
-5.336648296390742985e+01
-5.062526378074387878e+01
-5.573595128883368943e+01
-4.322960793126296863e+01
-5.244419920430089377e+01
-4.573286466898284175e+01
-4.572527930426850418e+01
-5.242290498584064551e+01
-4.319611015240182184e+01
-5.569453859848790955e+01
-5.058003275508259122e+01
-5.332231746484691826e+01
-6.623199531409385088e+01
-5.049837450851143217e+01
-8.266310447319995092e+01
-5.478563526789435656e+01
7.329223412322015463e+01
9.758077450640664097e+01
6.869748029745595375e+01
7.762488486531938747e+01
6.505372669243044470e+01
5.911948359927374241e+01
5.740740887562090222e+01
4.618660033092063344e+01
4.538163937236828360e+01
3.757078102411576737e+01
3.246428678265068157e+01
2.949242772942645985e+01
2.190513031932213295e+01
1.980285089810404031e+01
1.384402806642427208e+01
9.408860085302862331e+00
6.288637161598230385e+00
3.134133961504772525e-01
-2.033418575243952198e+00
-6.733943081764292238e+00
-1.016664732423915041e+01
-1.236370958765234818e+01
-1.619582349509198593e+01
-1.699306185763503407e+01
-1.905382161878478442e+01
-1.983446745000723510e+01
-1.936908430399295256e+01
-1.991577858828745917e+01
-1.809319020661942901e+01
-1.729583765373082116e+01
-1.568919208749018601e+01
-1.340286607253382911e+01
-1.232261646519059539e+01
-9.831017535522411421e+00
-8.631273438818654498e+00
-7.251274889855887196e+00
-5.708890093585710979e+00
-5.434421598627711347e+00
-4.179634682297428405e+00
-4.007142374494767623e+00
-3.599335584589887560e+00
-2.852875672278921915e+00
-2.881941302545876660e+00
-1.785706234494188749e+00
-2.139786423866230081e+00
-1.540743579302125355e+00
9.100609081259156130e-02
1.062807129998832645e+00
3.587880115715003981e+00
5.312174131877839933e+00
7.262657700237403979e+00
9.379197730953169554e+00
1.022157427107394057e+01
1.154996396220988863e+01
1.158691838428918963e+01
1.125885449666886551e+01
1.072954371607361423e+01
9.065665529019584667e+00
7.854842243251151324e+00
5.922332998365959611e+00
4.114488690970930840e+00
2.676089510178722541e+00
9.328598096770660542e-01
9.123860309940486080e-02
9.225369856987118700e-02
8.847199594417001767e-02
8.516619651792546597e-02
8.912201093772079141e-02
8.854849709724318951e-02
8.680816150263409581e-02
9.292040847762897404e-02
9.716529743853011269e-02
9.949431289895785402e-02
1.009452091197387824e-01
9.257200547136483493e-02
8.637021035509015454e-02
9.203132851625277222e-02
9.547484351615270759e-02
9.571763811220961038e-02
9.676210913068586383e-02
9.491147460279886205e-02
9.474522824476445948e-02
9.439671001129928962e-02
9.389795597443176267e-02
9.622192322688993826e-02
9.476499218195211238e-02
9.526839208255379055e-02
9.553456022326707597e-02
8.803051462169761421e-02
8.569065947299923935e-02
8.668651279670785970e-02
8.902691548725244486e-02
9.656826747689392643e-02
9.663185145128928843e-02
9.650782528354567846e-02
9.888824915648053437e-02
9.177364905847743004e-02
8.868795452046919492e-02
8.947168280031497778e-02
8.637475462359972544e-02
9.111497746112717788e-02
9.735437647621332513e-02
9.752682960707957649e-02
9.957093453498483404e-02
1.015047112012203434e-01
9.955033523880700563e-02
9.755486971867700918e-02
9.574934673412469066e-02
9.082521877016029588e-02
8.679026486897056802e-02
8.824115668827070547e-02
9.234801212291393613e-02
9.601234680840038671e-02
9.504406372481594145e-02
9.242792151625363328e-02
9.402703512928028973e-02
9.314893792410608442e-02
9.075536643711351603e-02
9.295753890314713275e-02
9.467879602094340930e-02
9.501584968512635787e-02
9.524442176359737555e-02
9.339565037376804102e-02
9.075764272044557768e-02
8.957005904939735474e-02
9.061063942085050005e-02
9.244750497201376094e-02
9.363725845135040249e-02
9.090609719264175492e-02
8.742172458960438541e-02
9.136657623915239723e-02
9.466491957367262344e-02
9.554809158750278419e-02
1.000659405576788952e-01
9.793569753149708457e-02
9.475792260352371155e-02
9.749770035815058522e-02
9.471419578417231144e-02
9.430082101055785315e-02
9.930282134555193374e-02
9.661394062326170151e-02
8.998383518433701600e-02
8.752014793443380070e-02
9.016192652463797530e-02
9.328661480431439668e-02
9.374877489380790963e-02
9.358517425602154438e-02
9.025663094985121593e-02
8.685180007116025114e-02
8.753895652527896032e-02
8.821435843087579998e-02
9.065774991308675479e-02
9.557867532125891019e-02
9.776673790259438057e-02
9.618477560996477327e-02
9.420991541851436724e-02
9.304775762651976145e-02
9.124299912165739768e-02
9.422342987258190694e-02
1.002974372128698777e-01
9.860193783252310662e-02
9.539512546790099301e-02
9.669249284541156508e-02
9.500635364784869308e-02
9.319938069036952377e-02
9.572416297122027240e-02
9.664542421896296642e-02
9.586774072471408725e-02
9.554445235785148649e-02
9.231947833157368166e-02
9.126481114425849528e-02
9.496533367381482238e-02
9.465428220278510052e-02
9.450752952200933144e-02
9.474054736325997206e-02
8.879725985810324462e-02
8.807077090344762882e-02
9.010578649094243275e-02
8.897566804826756437e-02
9.314572081225130917e-02
9.305868960491020525e-02
8.942957472121997042e-02
9.160035279741325642e-02
8.946824186021229419e-02
8.801278198519416063e-02
9.231388292004222285e-02
9.458899907913778660e-02
9.684108758676215900e-02
9.391766427116030047e-02
8.748843120256585837e-02
8.991967404779840911e-02
9.300121106971312446e-02
9.335596674804030881e-02
9.933511497237429433e-02
1.013289982910699771e-01
9.561242642639311562e-02
9.384713058374888339e-02
9.350728390238226273e-02
9.304319013207264233e-02
9.884784244470175285e-02
1.011031483698340977e-01
9.528954978358450401e-02
9.230273906506025750e-02
9.247829262068735234e-02
9.300026166132860372e-02
9.544929581658376239e-02
9.787405656588600567e-02
9.832361813766138381e-02
9.573963188184078654e-02
9.221375470344325698e-02
9.135331239156611882e-02
9.235164443515692101e-02
9.412166601463872739e-02
9.533959775533198955e-02
9.231757024615722118e-02
8.704582137485361581e-02
8.634966469282685797e-02
8.976120678181254142e-02
9.414060859930190039e-02
9.616801173896187549e-02
9.276813096311177509e-02
9.322142602277588841e-02
9.613630597854039284e-02
9.328551298161093241e-02
9.355358112262754378e-02
8.525760540631333040e-02
7.089204460820491827e-02
8.304348130673316897e-02
9.675595553850413477e-02
9.134653302357574611e-02
9.447863321004472403e-02
9.936365291073276373e-02
9.983122612844951005e-02
1.014040715792588476e-01
9.573445470995826934e-02
9.436792073998383212e-02
9.682318989933726139e-02
9.639971540248402915e-02
9.887599091160177711e-02
9.795442975226849314e-02
9.923868208370614785e-02
9.940933771095314397e-02
9.043198929580963108e-02
8.814963475082951416e-02
9.016545435549067067e-02
9.254846306646512255e-02
9.593505969118473753e-02
9.258838065261318362e-02
9.017686276078734631e-02
8.910114785132028370e-02
8.936658921014078993e-02
9.267239688192686897e-02
9.369770009687181100e-02
9.782010902731845536e-02
9.754543742481516788e-02
9.598072058312619170e-02
9.728038005448125247e-02
8.746377238369958118e-02
8.856433168108200638e-02
9.933301138742463288e-02
9.547825434621529106e-02
9.261330591215337360e-02
9.093711268116654034e-02
9.005900494098136033e-02
9.543096737165338017e-02
9.545479287175100136e-02
9.501844474683579511e-02
9.546833269510586473e-02
9.384564075750062573e-02
8.969578704765052146e-02
8.628507693958613334e-02
9.266300136585675640e-02
9.684671691999388599e-02
9.935467508956377647e-02
1.008082582403647398e-01
9.680221811482339622e-02
9.897790777835255294e-02
8.201759581103496011e-02
6.287850660255611679e-02
8.474430152514635106e-02
9.833002374315816252e-02
9.102745585199384371e-02
9.771099376155192862e-02
1.031975471572290914e-01
1.010099539777790101e-01
9.544030984034325427e-02
9.230393406503553666e-02
9.600149235819582794e-02
9.470732043472306072e-02
9.289885530132378777e-02
9.070604644504545733e-02
8.566908851924945334e-02
8.738555725913552119e-02
9.127866202794095163e-02
9.331460454478412991e-02
9.559719972411542810e-02
9.882114359507573886e-02
1.001745065929476597e-01
9.714763682672568346e-02
9.630287434402770574e-02
9.590392338345476997e-02
9.444335344841491009e-02
9.518077594316556866e-02
9.528449009785047719e-02
9.718582564654107414e-02
9.706185717899998289e-02
9.412510723320807737e-02
9.570115972802013815e-02
9.387054110963585773e-02
8.977308870252904971e-02
9.067477459399192474e-02
8.992120764069441718e-02
9.080237489663378625e-02
9.558403235512132057e-02
9.443788133971728338e-02
8.972371710006529777e-02
8.890695734702416808e-02
8.872332830883394861e-02
8.860525887356264507e-02
9.239199908648759729e-02
9.457752295376403717e-02
9.421630490046338513e-02
9.694184143364840966e-02
9.512056583868577775e-02
9.123971404169842203e-02
9.481116936320901911e-02
9.235878797589261446e-02
8.787160504784605197e-02
9.342439982011307986e-02
8.991956664864012017e-02
8.359435941558582273e-02
9.218653358621617389e-02
9.799610931789724810e-02
9.782419883700331498e-02
9.906673645290481334e-02
9.768681476608585823e-02
9.648454353695609664e-02
9.312315759162714812e-02
9.115977002691445785e-02
9.676903567044947696e-02
1.002105579407582686e-01
9.905119910595622246e-02
9.511064480332792614e-02
8.969551120986385406e-02
9.042539879703917483e-02
9.524886488704464860e-02
9.488887061754017194e-02
9.033319010737125843e-02
8.865613375503508808e-02
8.664301949728309138e-02
8.450201573323164184e-02
8.891128774684464720e-02
9.343401374926593728e-02
9.861385975425238093e-02
1.042746777549989345e-01
1.000202239424149153e-01
9.569069320255024769e-02
9.490645833792715758e-02
9.167254734333349364e-02
9.519936863559648466e-02
9.935964357756454923e-02
9.437465240573333913e-02
8.980977952257190866e-02
8.904950380565400392e-02
8.874239145842954812e-02
9.148183242502833101e-02
9.620186327435510665e-02
9.522765755929168963e-02
9.056190804093537661e-02
8.900476867422403571e-02
8.823273892290732501e-02
9.032950607991853398e-02
9.602921942067514649e-02
9.814581018999861406e-02
9.806889944354076072e-02
9.527947830169725130e-02
8.962139998230150839e-02
9.045077185880910642e-02
9.316085364478705888e-02
9.306591397236166352e-02
9.688672689293044427e-02
9.491773101694035708e-02
8.844951681343518612e-02
9.355854150950118631e-02
9.545540568959365313e-02
8.896273226941746326e-02
9.251744922755610057e-02
9.793756123346852860e-02
9.667517673116574062e-02
9.508337851844893274e-02
9.341068556672790790e-02
9.446338504216854337e-02
9.700794102532733776e-02
9.750890740564104042e-02
9.584661255758678000e-02
9.059051214875163405e-02
8.782270059733435219e-02
8.945561435865909128e-02
9.119015541967412375e-02
9.315631842540615659e-02
9.156105730863536851e-02
8.937560129986771296e-02
9.323546461643375527e-02
9.566785595970866973e-02
9.466724748472069018e-02
9.691786132452581692e-02
9.881836179020794808e-02
9.805796462364832489e-02
9.806760360946199795e-02
9.406177314636858522e-02
8.751980996300776083e-02
8.898868484257711764e-02
9.274040620176057792e-02
9.166882340151871755e-02
9.172100513259220933e-02
9.221278603090689308e-02
9.252504702823791116e-02
9.500670487565457401e-02
9.594762404015051704e-02
9.661655044882937193e-02
9.603942542444279806e-02
9.355860919206691884e-02
9.570587625901626205e-02
9.178647435857575920e-02
8.073044577064199256e-02
8.314634701508037684e-02
9.032414630261625943e-02
9.295242528925169723e-02
9.948869568703604116e-02
9.677858317167975510e-02
8.650366564894872157e-02
8.875352625296140108e-02
9.771082988613172260e-02
1.050297713341007411e-01
1.088697134855985404e-01
1.044710217498063948e-01
9.761828313039669358e-02
9.423172495471240917e-02
9.324247825874533435e-02
9.486961386597156376e-02
9.800906824504022896e-02
1.005930412509169342e-01
9.905633298577046220e-02
9.280739025022005650e-02
9.068116172902800087e-02
8.978132004032610136e-02
8.563938079623559241e-02
9.124361313660671324e-02
9.626208456509176281e-02
9.151329475114156065e-02
9.396864345335730062e-02
9.399782749924093239e-02
9.248181666896412856e-02
9.643988121196553354e-02
8.053960889447214777e-02
6.722103213414051814e-02
8.257587893007824198e-02
9.523699377262108412e-02
9.923793021694465866e-02
1.037008984183742655e-01
1.033778245213659297e-01
1.009219467961747219e-01
9.623626244688729403e-02
9.140042023281212680e-02
8.877255339479969698e-02
9.082322936756925813e-02
9.903434471834679509e-02
1.033665268238148360e-01
1.017244098226455506e-01
9.760504916841959699e-02
9.408001005832809793e-02
9.789544357474808112e-02
1.061082284881205151e-01
1.109927002004465202e-01
1.093075056626169744e-01
1.051609744332161755e-01
1.008496312926726451e-01
9.222373522720031525e-02
8.436052346385763956e-02
8.093679187215778448e-02
8.058274517371280532e-02
8.337987512093275599e-02
8.082252437949866142e-02
7.510243685648268497e-02
7.863033671687619242e-02
8.793276232543349724e-02
9.807627820831427146e-02
1.067661132900461496e-01
1.085018362615932375e-01
1.089405586114527424e-01
1.093357438684316729e-01
1.029507769917676063e-01
9.578412952781281686e-02
8.953470491685214250e-02
8.066458451458213830e-02
7.266749488529990197e-02
6.327991046972152034e-02
5.619550937346083630e-02
5.627757429640893594e-02
5.835516145676997168e-02
6.329285168134746176e-02
7.405328795967713873e-02
9.297259211076072671e-02
1.085692280152677630e-01
1.148917505593104460e-01
1.271459090001351711e-01
1.324913095230821070e-01
1.238314572248259693e-01
1.148778155704686943e-01
9.740294129692612934e-02
7.949495294815125956e-02
7.376214288386037654e-02
6.735313664834732816e-02
6.632167636262975563e-02
9.085911492020815050e-02
1.134202933634101684e-01
1.001050304924519241e-01
8.335122212504167405e-02
7.259243864518462319e-02
6.240251038889646495e-02
8.054659702864311321e-02
1.066234903877437690e-01
1.416675843864091955e-01
1.873999788339351658e-01
2.005071779780491781e-01
2.039217486461912254e-01
1.935699707779225953e-01
1.592774627626781514e-01
1.586108432465820617e-01
1.608171001713905868e-01
1.067086768446373346e-01
2.940332068317727532e-02
3.913420999124929411e-03
2.611847693609104654e-02
-5.629773724269423324e-03
-6.803773770658369524e-02
-4.445491794305043987e-02
2.710929369469506842e-02
4.253188106855257389e-02
8.166083396537970884e-02
2.547510806125974359e-01
3.503275036018334565e-01
1.986432942454089412e-01
3.285103441845559080e-02
3.181111863125293815e-03
2.063130555698480112e-03
-6.372019777096825377e-02
-1.734863241657582933e-01
-1.998747575898931483e-01
-1.498200810963792873e-01
-1.715722582452280931e-01
-1.895011543904665530e-01
1.378274114298072908e-02
3.434279596205611074e-01
5.008564133470357893e-01
4.651590910848985017e-01
3.626410211600705202e-01
2.763890670598870281e-01
3.023310290065746031e-01
3.079963515204514057e-01
1.636191593073405559e-01
4.313910301985102169e-02
2.987008056612476189e-02
8.617913373408360445e-02
2.052515916474197954e-01
2.896504978971407018e-01
2.736609031226697741e-01
2.095692467175066520e-01
1.729135040620358721e-01
1.846357165443165416e-01
1.585073130025595467e-01
3.274213667541233524e-02
-4.195270996307763622e-02
5.538059063172946772e-02
1.059170277973208452e-01
-2.905526103501988519e-02
-1.483955123827379874e-01
-1.287321489228948901e-01
-3.563858641848915987e-02
-5.661104117572783589e-02
-2.290818952651787754e-01
-2.077951339473527725e-01
-3.831201027042881180e-03
-2.495390312928826709e-02
-1.419332536959423408e-01
-9.723109913072379429e-02
-5.243272278291093158e-02
-3.851199006127366264e-02
6.084520365452957685e-02
2.408873766945308359e-01
4.310175491944213122e-01
4.874936300298526870e-01
4.381799983932685993e-01
3.985641599516933642e-01
3.188540087378307630e-01
2.377027645793221844e-01
1.533794433233047205e-01
4.113032561486324595e-02
5.172382846789031624e-02
1.061921964299671617e-01
1.341210319363305425e-01
2.360506501678648339e-01
2.465372695545234860e-01
1.187522352947606441e-01
2.520667075760596107e-02
2.256583663185202440e-02
1.575590470144163646e-01
3.021228245055221362e-01
2.354322868857661732e-01
1.982531884188875812e-02
-1.631512655585175275e-01
-2.404379969299404174e-01
-1.779461347755312839e-01
-2.186813587935595299e-03
1.074641611198641350e-01
1.102653258118306140e-01
1.105801795611726368e-01
5.007473686135596735e-02
-5.124606934185934465e-02
-1.012539403890648504e-01
-3.012781182159657289e-02
2.159653538254115435e-01
3.458147051917939141e-01
2.243477914957471564e-01
1.002808071428192283e-01
1.301619662494788582e-03
-1.403073809691522331e-02
1.255867188758663100e-01
2.251337976737200763e-01
2.246767301974307851e-01
1.802185025478528213e-01
1.286881734027204294e-01
1.045181461384456778e-01
7.968589829186407958e-02
6.090258796164045585e-02
4.879487842052688401e-02
5.050720698845186096e-02
6.485201287641148560e-02
6.535799414811585550e-02
1.195987232700686520e-01
1.779981240999967962e-01
1.559320229793604295e-01
1.447553803319412968e-01
1.483130997039019405e-01
1.303900620978487301e-01
1.171241546149729418e-01
9.248391033996099242e-02
5.730119594100552272e-02
1.938923445893652245e-02
1.961357621790898315e-02
7.966433356690458267e-02
1.008583723360213791e-01
4.901655249122696678e-02
-1.364791903899218936e-02
-4.007291326587288094e-02
1.872153846521293352e-02
1.299035562826094115e-01
1.777268816720232458e-01
1.461739997357801024e-01
1.120322611419470871e-01
1.021667862270230487e-01
1.100472278116697011e-01
1.214809474238463249e-01
1.066470712656419212e-01
8.330458358400141816e-02
7.114467221820455767e-02
7.138372943192530795e-02
1.107738801839986409e-01
1.486516821676310274e-01
1.397763042280301404e-01
1.254590461397681600e-01
1.176933954609791916e-01
1.136851146331502860e-01
1.205272881448019306e-01
1.232555117566559444e-01
1.264901050790649684e-01
1.241610699355049224e-01
1.164306067404138612e-01
1.143263444630816250e-01
1.011583965068158647e-01
8.889315901209576820e-02
8.230244632562941365e-02
6.641250044265839536e-02
5.126172103841804273e-02
3.724547678118045324e-02
2.944299088160706734e-02
1.787527978619340291e-02
1.478072629700435611e-02
7.209878567300413710e-02
1.322255137945421155e-01
1.179045847488105342e-01
6.789463833087720779e-02
4.479550069250072541e-02
6.315454812098346415e-02
8.030204655892188292e-02
8.000643583029082295e-02
8.139615555355812770e-02
8.292185084984628196e-02
9.977195566080634959e-02
1.235640084756521734e-01
1.317239601664034754e-01
1.294328505875485813e-01
1.194451439575012208e-01
1.205397577997711911e-01
1.247230299576178869e-01
1.176625950312688018e-01
1.232207891121690074e-01
1.298924217468882258e-01
1.269733144719574769e-01
1.200780970766313904e-01
1.029648749688793913e-01
9.132843800170847848e-02
8.994967601728220963e-02
9.497809524405669002e-02
1.028456895870713678e-01
1.014430922608538510e-01
9.928036823995152471e-02
9.600839668712488062e-02
8.672876639965469703e-02
8.213752265962553922e-02
8.493789137987366178e-02
8.977576023696477725e-02
8.392849805454610790e-02
7.442196359144433171e-02
7.645207089610339679e-02
8.150230340737638079e-02
8.791493362446929638e-02
9.162102253576039079e-02
8.867350673290892715e-02
8.863524147945235632e-02
8.639561694360202437e-02
8.277675378644873405e-02
8.749172245937682224e-02
9.727040739504003164e-02
1.036273242202644801e-01
1.001203177552897616e-01
9.633577550495928121e-02
9.517022714859127430e-02
9.072296348779164410e-02
9.626523453620439152e-02
1.062111530397001624e-01
1.050145419217560494e-01
1.026389731830474189e-01
9.840327086459019212e-02
8.746259531580960478e-02
8.365833996778246351e-02
9.149430749469286694e-02
1.016952844399171829e-01
1.077852599317484089e-01
1.073714118804339201e-01
9.998888271003966710e-02
9.007127709797205228e-02
8.529489545492989488e-02
8.621695630058427706e-02
8.821985351946240450e-02
9.178975404001001037e-02
1.002099126224507558e-01
1.100753668469448554e-01
1.125917908472447299e-01
1.108994681584250103e-01
1.108957547407048577e-01
1.068299562739903619e-01
9.985742042014005004e-02
9.407024114120517144e-02
8.994496210264493752e-02
9.113553554512915378e-02
9.205454004538264623e-02
8.778526805855174642e-02
8.383806808696325774e-02
8.455925474488003302e-02
8.839750669469921551e-02
8.733509782652054687e-02
8.489395956615397587e-02
8.831113784626143381e-02
8.958033408625259986e-02
8.711733452955149060e-02
8.423210378419265787e-02
8.161150560501469198e-02
8.140764148148338375e-02
8.212618931929935306e-02
8.677139007044906704e-02
9.136340700719355890e-02
9.140159013277068811e-02
9.535702556978792321e-02
9.852383358654855094e-02
9.855771387787790050e-02
1.005522639389065387e-01
9.927081593161182771e-02
9.895177140013015904e-02
9.787727226133552394e-02
8.988900331044991088e-02
8.918024582391714805e-02
9.527407925340745931e-02
9.420915260674250780e-02
9.079241450144685810e-02
8.843672543846756162e-02
8.342029482031164400e-02
7.999410512220797576e-02
7.891370917637265114e-02
7.944275796159654124e-02
8.664138955640415807e-02
9.553000667396406576e-02
9.794179109979550546e-02
9.461735319774761122e-02
8.824376130963285103e-02
8.460383164615853380e-02
8.631934593530865563e-02
9.045128054356062208e-02
9.114425899228760508e-02
8.550915125068542233e-02
8.939006267996446597e-02
1.060229776545207336e-01
1.151592822140589112e-01
1.155789985022303429e-01
1.115141862554400731e-01
1.013592053945092802e-01
9.420678387572603563e-02
9.105950002970629453e-02
8.771890846859133062e-02
8.798480361717718468e-02
8.955902690425091017e-02
8.787082317340491611e-02
8.801369259120594979e-02
9.168211750724564180e-02
9.247234524973041436e-02
9.391088855067633578e-02
9.972360290350512635e-02
1.023858839940015586e-01
1.009436183529523606e-01
9.391860252705382106e-02
8.176138268464283598e-02
7.983154342021436811e-02
8.589345324823248473e-02
6.259971106203107705e-02
1.280075462772819334e-02
-2.948644006422995734e-02
-8.017353985063646604e-02
-1.242152660705234113e-01
-1.525590296088583930e-01
-1.999337553644738863e-01
-2.140565869993131254e-01
-2.329286819193986946e-01
-2.383707601887168348e-01
-1.876395404127828570e-01
-1.547926188039356887e-01
-9.876552615933069379e-02
-4.841161423396329183e-02
-6.488185347809927173e-03
6.249471481211955892e-02
9.044066103633137399e-02
1.328497427893214899e-01
1.507124571756224551e-01
1.416688977123984061e-01
1.526766930593769778e-01
1.175295273341963737e-01
1.054699872789317261e-01
6.428783915066604848e-02
1.468761637275526645e-02
1.336745916730147643e-02
-3.227147122005651070e-02
-7.682539044475793222e-03
2.112854227261690143e-02
4.642068815007051319e-02
1.433403277540041820e-01
1.927715398944160330e-01
3.079113986128149127e-01
4.101512107588635714e-01
4.906042238081795848e-01
6.172073649477894941e-01
6.367258557373161043e-01
6.931091511663206584e-01
6.800799919809475957e-01
6.077270046880575149e-01
5.855867151853206831e-01
4.310003201706438802e-01
3.548070054741646051e-01
2.219893200175501458e-01
4.046017926483277960e-02
-3.191475479192465436e-02
-2.319728350993868204e-01
-2.753619935385459572e-01
-3.589971951752662926e-01
-4.876097533396577255e-01
-4.440041911191565660e-01
-5.984766200500190036e-01
-5.514714287465807274e-01
-5.831496380247707112e-01
-7.145607478732304285e-01
-6.087237143628352332e-01
-9.050901536150487425e-01
-9.005845431978892757e-01
-1.074707404723116877e+00
-1.493831578258315362e+00
-1.274909835077443931e+00
-2.224131278153253177e+00
-1.651246939810093295e+00
