7.029613318346890176e-03
1.100605059716393969e-02
6.828808757623433187e-03
1.065481637736775782e-02
1.042205262887176305e-02
1.168140267237796279e-02
1.624093314218033254e-02
1.030337966751446871e-02
4.555313889069083182e-04
6.270464863711331738e-04
5.783487532865482124e-03
4.509859996263450820e-03
1.748003339607485940e-03
-9.448192499289982411e-04
-5.859486401609345294e-03
-7.975605608515177677e-03
-1.211478461172072613e-02
-1.149206267451237211e-02
-1.692486448607759871e-03
5.484736552804420550e-04
-3.846712688132193007e-04
1.878855463193755074e-03
1.695793523457529185e-03
4.687852362855753421e-03
8.357903630101873316e-03
6.927799208016591909e-03
5.099878295872711277e-03
3.428785854772753612e-03
-5.570649987168668424e-03
-1.938749100933681926e-02
-1.754086223671121741e-02
-6.838084803424918524e-04
4.652751445421682286e-03
-1.863856396539872659e-03
-2.221148967641687743e-03
-2.932464847081984061e-03
-1.026427434476876246e-02
-5.791079966057142460e-03
7.242148964330865496e-03
6.390432550420821478e-03
-1.802323251837551887e-03
-6.241205258826821624e-03
-7.217845935507339640e-03
-2.056434575008588700e-03
3.346576957603820002e-03
5.147236057521866089e-03
7.548889807807894828e-03
8.582120084528311807e-03
5.328289686588276626e-03
5.711451775155931615e-04
1.314325089945760560e-03
5.421602563562211846e-03
2.080341347937234454e-03
-3.370094743440965167e-03
-9.940834301917340042e-04
7.643170077959586832e-04
-2.629830211793873773e-03
-3.642239723722665370e-03
-1.531294767803724347e-03
3.354637822398491478e-03
5.168052654876876921e-03
-4.554731640042023084e-03
-9.083354442538613474e-03
-1.311714800713814763e-03
-9.632060494128803427e-04
-2.641171706849053131e-03
4.576886584967171552e-03
4.409529241621776979e-03
-3.645665163922646480e-03
-1.991365899183057588e-03
5.362984967127121770e-03
7.340666925740155571e-03
7.107443455156897162e-03
5.246967698800179998e-03
2.955054100841861264e-03
3.343137835110302891e-03
-5.827644602608792607e-04
-3.723754827975734975e-03
2.654098156748787261e-03
6.887884801279505788e-03
6.027593162388864435e-06
-1.096067857613206367e-02
-1.160828752021923933e-02
-4.000257590016700546e-03
-5.089532876875462776e-03
-7.217010000581113548e-03
1.547186124320317152e-04
2.364828678830888879e-03
-9.316605028615984954e-03
-2.050323568001426525e-02
-1.300276614045837824e-02
2.762154589951245146e-03
9.632247634875332892e-03
1.224242950856457499e-02
8.756712246073149533e-03
2.760616199891855263e-03
2.405587792167021045e-03
3.018705070672575755e-04
-7.698432904119926123e-04
-1.249700520906058161e-03
-3.766358823027646935e-03
-2.029428590121596775e-03
-1.033510770348904963e-03
4.153211824634355995e-03
1.096423690674471103e-02
8.896270413185584230e-03
1.069552019883794787e-02
1.125365535759273450e-02
5.001753712404411779e-03
-2.153728490555155244e-03
-1.513809714461870903e-02
-1.630890269213296911e-02
-6.023328390994133440e-03
-4.437341655019422411e-03
-3.346255964229276087e-03
-3.649140476664011583e-03
-3.630214656534111895e-03
3.444170944562899121e-03
7.741479039592144562e-03
8.042141099623900322e-03
4.437013879923288164e-04
-7.566978626751890216e-03
-3.811975787240841091e-03
-2.033939809471791045e-03
-2.743884444013642947e-03
-3.744644963067910457e-04
1.196123729805820919e-03
1.022519678828811684e-03
-2.615560996069972877e-03
-1.450902133857229345e-03
-9.698627833729679942e-04
-4.154494788630723121e-03
3.631457387283168036e-03
5.540975231760697506e-03
-7.399619286710001518e-04
3.283987119086327101e-03
2.291580049740424545e-03
-2.866201902436127640e-03
9.180392278885795860e-04
2.984058429372277253e-03
-1.843897000983330924e-05
-2.516984605872982315e-03
-3.587093352286057496e-04
4.018960291102382891e-03
4.713898183159394122e-03
4.063585359898758999e-03
2.889588531868254959e-03
1.463583235440618733e-04
-4.657001688052239338e-03
-6.096820893594315054e-03
2.330093459363351109e-04
7.728862798949026917e-04
-4.232584922023413521e-03
-3.518918631411109815e-03
-3.345411082957605586e-03
-2.463919846278017894e-03
-1.471768589328016895e-05
-1.189551193640763643e-03
2.669488530635454548e-04
1.976847369515106123e-04
-3.457158028877518972e-03
-3.196919600651126382e-03
-3.875045983001075209e-03
-2.841021108877815615e-03
2.366041323923233873e-03
6.203760977473301956e-03
9.560303408847777712e-03
3.759383698993467096e-03
-4.140116793973263980e-03
-1.004542888671169508e-04
4.763931394946462256e-04
2.121373290025761835e-03
8.976315730939966875e-03
5.174881818928115523e-04
-6.933067058941177682e-03
-9.121710868246178400e-04
1.849320249572495049e-03
3.008546853851244013e-03
3.760454773001514241e-03
7.452487352223604276e-04
-2.436106476751180583e-03
-3.690449134573505711e-03
-4.546258189086895517e-03
-7.492890734791134502e-03
-3.438048453679302431e-03
1.394586190388968873e-03
-2.956438279505959645e-03
-2.277268993363720535e-03
-3.219378306193972691e-03
-7.416085114749429788e-03
-6.045539396595109782e-04
4.152106441990969024e-03
5.970338854471229396e-03
9.589667700351805699e-03
7.332570454342693736e-03
2.888962948033181165e-03
-2.280423556439295854e-03
-1.022049325599483924e-03
5.262604934976280145e-03
3.157852845177266336e-03
-2.209764666149374723e-03
-8.753258186614595177e-03
-1.474869899802384345e-02
-1.149728766233322139e-02
-4.455485818919636878e-04
8.372172176339291033e-03
5.651686459765565412e-03
1.758824843103622268e-03
1.087830646317186319e-03
-9.964950783504743486e-04
1.990020500211493217e-03
-2.771322566126081994e-04
-3.183419600635017249e-03
4.576669549750966327e-03
4.649782198164341580e-03
2.410839179062795098e-03
4.513604710154532455e-03
2.461905686968024042e-04
-3.534609209620475680e-03
-4.200964593434708232e-03
1.701216419149041183e-04
6.122702272193076938e-03
4.195665489020258647e-03
2.640237014685296955e-03
-2.604144031381192318e-04
-6.231990356820447940e-03
-5.787442362822625523e-03
-4.334712120957334540e-03
-2.717634597062979374e-03
1.215050432128335356e-03
3.717671754062829839e-04
-2.979688388417142935e-03
-3.528265658408150530e-03
-1.726825563751215389e-03
-1.161127577827979554e-03
-2.999875766990832762e-03
-8.313596006257887357e-04
2.395377996095308850e-03
4.211370058910184435e-04
6.196455694932061133e-04
1.516258677840427813e-03
-6.643775306726232071e-04
7.936541954285321364e-05
2.968046609704941274e-03
8.935060755428061996e-03
9.107137186891359551e-03
2.798221021583321109e-03
7.930772904144418184e-03
6.375442406905782334e-04
-2.144058823911220574e-02
-1.749339209229755152e-02
-5.922829466751646128e-03
-3.764040406707281749e-03
2.906869302721680915e-03
5.014830461184371577e-03
6.128401846091015293e-03
5.572948145613603951e-03
-1.904660458891019661e-03
-1.991320009539181059e-03
7.008552338175760973e-04
5.527999137728713654e-04
1.810917775976394247e-03
5.752562833816698105e-08
-2.139559546851523344e-03
1.611767212775515096e-04
5.594195442140440303e-03
8.643937462486225506e-03
2.959681104416923923e-03
-4.497156654196963511e-03
-3.643231864286957354e-03
-2.878387042288564623e-03
-4.915872947581473307e-03
9.187430240608200909e-05
4.398015741804186239e-04
-1.094264544884992769e-03
7.856502545113523348e-03
4.699330548504011135e-03
-1.427650398261180037e-03
5.148982215649943947e-03
7.655180434614104398e-04
-3.996709454748956572e-03
7.780310822079099589e-04
3.323139281935179106e-04
-3.722216936566406439e-04
-1.258128553359736355e-03
-2.097420862750735884e-03
-2.730223617712744608e-03
-7.642321518797809930e-03
-8.494658806154360697e-03
-6.042849516301178336e-03
-2.429927397694619119e-03
1.341635306622889715e-03
1.684025450290900939e-03
5.184783029580033835e-03
4.937405452053124713e-03
-7.138425148159564804e-04
-3.843079791471317201e-04
-4.505679783548098972e-04
1.023276152897147247e-03
7.858213588102239827e-03
3.377508811120586481e-03
-1.007182462046711177e-02
-1.114481018011147934e-02
-3.373527504908253524e-03
-1.239229131429460742e-03
-1.131505603299669651e-03
1.127982137643017023e-03
5.944888739823630044e-03
8.544090026389415671e-03
2.814583919413088473e-03
3.011021474605867637e-03
7.351462844792197582e-03
2.390578874132825993e-03
-1.128542105857693634e-04
-1.931255304021620373e-03
-7.172500128754765586e-03
-6.073410942281776484e-03
-2.727149986015773696e-03
5.177265328575366690e-04
1.399115945183032140e-03
-1.004654312926118401e-03
-1.529906352995015310e-03
-2.198906504011128443e-03
4.266745632180396312e-04
3.721932300668843400e-03
4.522684504531434765e-03
7.706520756041272679e-03
2.835103231217405307e-03
-6.058597241421604697e-03
-5.703845067270056635e-03
-2.993594822162315254e-03
2.278407655500618717e-03
8.639568440576584143e-03
7.896054794900119259e-03
4.558749202730786113e-03
2.436757876747388564e-03
-1.987356525514085825e-03
-1.053168935566801620e-02
-1.164624665179949531e-02
-9.324509603086944673e-04
2.663080986498873870e-03
-2.379339127407539660e-03
-3.833561896379086061e-03
-2.643710179524293505e-03
1.779013908801947241e-04
-3.274436218392538789e-04
-2.683886420186362178e-03
2.698347885281828992e-03
3.818592981402257631e-03
-2.215843891306293854e-03
-8.109632220068164078e-04
3.557590354543936325e-04
-1.016574405386307112e-03
-4.428162890880640986e-04
-6.752521336692682459e-03
-7.708025646160522951e-03
-9.493300101539505083e-05
-7.253656740674485105e-04
-5.117219070907171301e-04
3.996185925413601840e-03
5.824548181217341185e-03
7.581669778214028023e-03
6.545344082784520373e-03
4.063146169316834977e-03
-6.718364452671345610e-04
-3.522928025693705667e-03
1.475162053143272249e-03
2.198038434583734265e-03
1.248941280682702498e-03
1.500650680452937777e-03
2.514253935213060353e-04
5.429809031944509388e-03
3.025443291932196355e-03
-6.230942041248529496e-03
-6.037775176818675586e-03
-4.543921710076617541e-03
-9.037207052448749780e-04
2.756325374530435753e-03
2.642464559973225959e-03
5.419264116191352572e-03
5.139635574032463093e-03
4.409128718177670117e-03
1.274253328459962501e-03
-8.242410985327753778e-03
-1.209224025399686063e-02
-1.269996939797542711e-02
-7.585584615764169938e-03
1.945841664510366241e-03
2.396237180062006384e-03
3.570535460209237153e-03
5.409466144267895300e-03
1.565394011562455754e-03
-5.161273672928392772e-04
-3.920869538116070370e-03
-4.629218525395583858e-03
-4.459966657236143542e-04
-1.377677399444076018e-03
-2.683043172507232755e-04
6.057435895308773202e-03
5.163315876420821252e-03
2.402029009361484647e-03
5.777256945751741389e-03
3.199260690180858423e-03
-2.504597888318540154e-03
-2.051486303772396928e-03
-4.356754033918569351e-03
-3.625835599002328203e-03
3.892003831922988179e-03
4.887803399193100043e-03
6.457439366659157827e-04
-8.676182782970849345e-04
3.873860817669046858e-03
4.933388031386037355e-03
-3.768566873622205063e-03
-7.493754698441268403e-03
-7.800377634689839579e-03
-6.860179534192552275e-03
7.938037334715646693e-04
4.801527368174625214e-03
4.191447150311725794e-03
1.059904847788370507e-03
-3.152886922749407409e-03
-2.453544201696935406e-03
-1.999089814236331471e-03
-1.745535112156120427e-03
-2.986541475409019986e-04
8.588379000380811637e-04
2.227926517373816830e-03
9.283924196868732510e-04
1.858677383901105986e-03
4.508427241628976882e-04
-3.098565458612752548e-03
4.618144484173055189e-03
8.066892916974481575e-03
1.043927782808465234e-03
-2.228721576609938096e-03
-2.547307320974661303e-03
3.063865912504821522e-03
5.556977454535674127e-03
6.370589185650707116e-04
6.522873293157814209e-03
7.712033373772727261e-03
-1.016222160417723855e-02
-1.945117586547868982e-02
-8.513660405484206259e-03
4.867335926333365460e-03
7.260127302997075247e-03
8.239468248409979011e-04
-5.798176464200976640e-03
-7.668747523444273233e-03
-4.022496043758754837e-03
4.452400347406439141e-04
3.614940232018711182e-03
6.667979802352713009e-03
3.752734790641381549e-03
-1.357255323203415557e-03
4.477140885311735248e-05
-2.114565671679306466e-03
-5.811021733399477848e-03
7.120779098570907987e-04
3.071860983448048733e-03
-5.097904914061537071e-04
3.066953447712913051e-03
4.125667474459054906e-03
-5.124194505264246125e-04
-1.729832362168756948e-03
1.772593197784061089e-03
3.947038702802083826e-03
-1.175208043447317861e-03
-2.355853421182262878e-03
1.923789957630860211e-03
-6.130481197861830235e-05
-9.680726782947168861e-04
-6.756442253926495155e-04
-1.974129711304366350e-03
1.244565673810679772e-03
1.644724820324313384e-04
-5.093883350673800332e-03
-3.869945741015143412e-03
3.200488855946449600e-03
9.707845875208639605e-03
4.997564287718514291e-03
-7.385897930788110424e-03
-1.075788496837176353e-02
-2.089533646526389038e-03
5.191911610121711408e-03
1.739522389818658546e-03
-8.874711361506615196e-04
1.404256496618192093e-03
-1.748175863966716886e-04
-1.284242175577015492e-03
2.390823837721911353e-04
4.066144512180570360e-03
5.141949190236715095e-03
-4.378791863107793503e-03
-8.125894112486181653e-03
-3.090919503891362795e-03
-3.193045495831269530e-03
-2.340254445849471545e-04
4.909039510762314845e-03
5.233728825361273242e-03
4.834300654687291934e-03
4.573209535293365903e-04
-3.493658742348742987e-03
-1.413110555727021883e-03
-9.595021911705759951e-04
-3.262198446904484347e-03
-2.604995220720311092e-03
1.002492105041537761e-03
1.743783205482174080e-03
-3.811263582217731501e-05
3.233559276367617809e-04
1.023553209785540465e-03
5.489218648300664589e-04
-2.349579713642808553e-03
-2.848953293539457487e-03
3.405164097482162987e-03
2.551930030774673171e-03
-2.302476075798299410e-03
4.624781523317512272e-03
1.147402069131198306e-02
1.005138025923110572e-02
2.526923993441928910e-03
-1.013740294640890459e-02
-1.336624889222241125e-02
-5.873481434071295242e-03
2.345567108264053329e-03
6.356240463260881025e-03
-1.061485042765565861e-03
-5.261766878008408352e-03
1.123665826811730013e-03
-1.247453084812745949e-03
-5.738761625468740378e-03
-1.322150069093374052e-03
1.483719163177046624e-03
1.109068713162694210e-03
9.217871033770357481e-04
-6.107044625611327611e-05
-2.862999704463657733e-03
-3.576274267549386671e-03
5.210973961513300440e-04
2.449769870440623304e-03
1.837834652996356635e-03
9.285199020614154104e-04
-2.541274628734127095e-04
8.417761724971951562e-04
-4.634135660531127788e-04
6.335700725977678246e-04
5.246767942567681295e-03
-4.119058311154627549e-04
-5.484887739491498340e-03
-9.627889552187331168e-04
1.860552314788293865e-03
3.503032753323615835e-03
2.627743945803965621e-03
-1.081871476033251971e-03
-1.536454443203248872e-03
-1.104141177324283836e-03
2.562162562258588853e-03
6.251307430345630009e-03
7.028454227538519011e-04
-3.194846144915263267e-03
9.152891891144139189e-04
3.797798397806295407e-04
-2.853775252555290718e-03
6.798035122650714903e-04
3.214372340102793647e-03
7.249728159456113666e-04
-2.194625416806426140e-03
-4.086100593743538338e-03
-3.149182913147289273e-04
3.433511556034266575e-03
1.418607800755473328e-03
3.029769699923345709e-03
4.668818963286286601e-04
-9.375852848111746254e-03
-6.864890247959369411e-03
-6.166564453841368379e-04
-2.434637470874802603e-03
1.128406282475792523e-03
3.556275451621745444e-03
-2.165022304310923202e-03
-5.368310141788595891e-03
-8.363366806687779625e-03
-6.984603846424398271e-03
2.572731470641497539e-03
4.365696481823670878e-03
2.299332712917051633e-03
7.610678000017044587e-03
7.567485038924475285e-03
2.050071811001006467e-03
4.756885573706993130e-03
7.215955434018006889e-03
2.927545932867054151e-03
2.811435309168928889e-03
1.429303036694567347e-03
-5.853141240649455297e-03
-5.990321602007333580e-03
-2.468016610353296510e-03
-1.085396113402352153e-03
4.128322746972039152e-03
6.976733270928676782e-03
1.442725357602484253e-03
-5.911696259178850395e-03
-4.603678677052270088e-03
2.901226517270059924e-03
2.319851637833749737e-03
-3.011987660979529181e-03
-7.046593952163164587e-03
-9.381118740898706024e-03
-5.399790315912584952e-03
-3.321560051553462331e-03
-1.616548040758145110e-03
3.415946782662912778e-03
1.623267535355493079e-03
2.445419717340920063e-03
3.554661350432056829e-03
-2.864834482111967232e-03
-1.109026913913182914e-03
1.109158464185391142e-03
7.309753839495487229e-04
8.259751725451987617e-03
7.451483712478081806e-03
-6.186847562547751530e-04
-1.983719049351114448e-03
-7.194088537250688774e-04
1.108046655737340413e-03
6.228876909140013867e-04
-2.113269119565625714e-03
-2.447973884184700705e-03
-1.188445249973189713e-03
-7.030151580642200011e-04
-1.499857124082960760e-03
1.002480593511770584e-03
3.842528725727853683e-03
8.991661287578037523e-04
-2.142484572188812879e-03
-1.773516564417605256e-03
3.233201518396731141e-03
1.025830784591207773e-02
1.057529447405929773e-02
2.806854920514895765e-03
-1.013194654221693213e-02
-1.800735460134358229e-02
-1.088983545958327297e-02
-9.591511554089077402e-04
2.240901217045852974e-04
2.102245502879959444e-03
4.698511469288536684e-03
-3.802557471537741499e-04
-1.744414600964101303e-03
1.496938636929529259e-03
-6.558629774435013578e-05
3.024723867758692588e-03
5.860120247222629433e-03
1.829159829895504004e-03
6.184047559187591709e-05
-4.513139264076931542e-03
-7.120067831342548510e-03
2.512765579037373525e-04
6.928897354863717238e-03
9.858933420581392909e-03
7.769901618363607779e-03
9.730494714923007419e-04
-3.824657218694989171e-03
-4.921804878890350364e-03
-2.291209584250082122e-03
-1.346198387843115861e-04
7.317844829460394681e-04
1.767143734163684806e-03
-8.635987460088916589e-05
-2.315705224359721707e-03
-4.297722034401514103e-03
-5.782100036122802753e-03
-2.659866915527973625e-03
1.302706017391426019e-03
-1.858004864572629432e-04
-5.098706410047202514e-03
-6.695509895926642432e-03
-6.103228949738958957e-03
-5.350757663920025983e-03
-1.664256661725788990e-03
1.667860222976227718e-03
3.420013490322983997e-03
5.164959668233111423e-03
7.309876522255601486e-03
7.728338781807292043e-03
3.375846998571928759e-03
2.346970504872663513e-03
5.263922396406217835e-04
-5.979206187078948617e-03
-9.988453152091378122e-04
6.159621604591737458e-03
5.579244923324551929e-03
5.465440920674413672e-03
7.653662875233694426e-04
-1.475245665144436303e-03
1.588138807417009994e-03
-1.826958090925867164e-05
4.047312664724779383e-05
-7.322469797749090814e-04
-3.887221629620834368e-03
8.589368755716004968e-04
4.901280391255691087e-03
-1.157377624320121440e-03
-4.669969028179455674e-03
-1.830868337798631604e-04
-1.421015180760235421e-03
-4.890522971945494152e-03
-2.338331089285487774e-03
-5.161766820359745336e-03
-1.010505204546069055e-02
-5.848564060225714713e-03
3.729782768824485475e-03
6.964117854379174750e-03
1.340387425407329114e-03
9.669172496515105906e-04
1.141016716736791350e-03
-3.637061871677239530e-03
-5.035760943834012050e-04
6.098141171728046345e-04
-3.411648588787901011e-03
-6.514434587856525113e-04
2.602646500624580979e-03
9.851214888213374009e-04
-3.325304284669170895e-03
-1.470755637703776309e-03
3.540487257088718951e-03
3.103860166539518239e-03
8.509876449753048591e-03
7.836215742335948461e-03
-4.219444325344050457e-03
-2.876830505843890572e-03
1.226385059742699912e-03
-2.728944316623481794e-05
2.140691430247642323e-03
-1.189303069845598550e-03
-2.791240624494911900e-03
-5.039144732263169113e-04
-1.169818769928248096e-03
4.695044477754210972e-03
8.219408271103777544e-03
2.235575170893968743e-03
-7.689389779835852177e-04
-1.838105449899658577e-03
-5.778168617485830022e-03
-9.634167196484421519e-03
-7.394771420883261039e-03
1.969161526149600268e-04
6.377763296110520487e-04
-3.711500788429173033e-03
-1.461527409628576293e-03
3.981226645466401717e-03
6.189094962087928441e-03
1.913757146716631554e-03
-1.785433291777869776e-03
3.175293260439809948e-03
4.540638721543960483e-03
-4.942926889367129251e-04
-8.648198828218512822e-04
8.753576658681505498e-04
1.773758697066493781e-03
-4.395566997496006207e-04
-4.061079225284023632e-03
-6.907900691772351663e-04
1.577630535285178383e-03
-1.096180346483092635e-03
-4.001685530373274213e-04
1.335558728328433515e-03
2.172551057764877946e-03
1.142480059976645149e-03
4.434134566575238389e-04
2.506401238590467376e-03
-3.729460908622289042e-04
-4.604832592355198422e-03
-5.610373339944347074e-03
-6.012381757757165844e-03
-3.490411017841809748e-03
-2.037731704487211713e-03
2.298565867830617507e-03
1.071899224707447036e-02
8.574815405145428879e-03
1.851291626131522415e-03
-8.813682551571359750e-04
-4.609630042499128326e-03
-2.289464657133968503e-03
2.137324330873745411e-03
-3.838370889871900796e-03
-4.666406619525252826e-03
3.150164379343980275e-03
-7.020593287847208520e-05
-1.595732388788565241e-03
3.083336406489401056e-03
-3.817543885490797071e-03
-4.198443915183862341e-03
2.094578481733270613e-03
-1.409529232432964229e-03
5.426937700248786207e-04
-4.309439272160419396e-04
-5.742470406277642124e-03
4.306129276442067708e-03
8.416615405537970079e-03
-6.402655514179546965e-04
-1.819614221440203844e-03
1.578201059306436819e-05
-6.365081302255640953e-04
3.565156535421426694e-03
7.094145106114239409e-03
2.584744361689589234e-03
-4.357322597827188097e-04
1.611393575465345758e-03
1.112256582733378530e-03
-5.568644635988895426e-04
-1.148620929245942716e-03
8.762276990986324300e-04
2.067135512252516339e-03
-1.376860515650729297e-03
-1.210158147634532986e-05
-3.634163215158328153e-04
-9.128313392472112847e-03
-8.303968861898609888e-03
-5.691831616626435737e-04
-1.562808670074091431e-03
-4.375905706598496973e-03
-3.359109995916843231e-03
-1.848380933344156464e-03
2.670305660935231445e-03
5.648745239616252342e-03
1.003841621836943157e-03
-2.455483809333233302e-03
-3.244108635903896268e-03
-2.555320394284024514e-03
3.526099424621275628e-03
5.967927966541187838e-03
6.186360024664425139e-03
8.758389094799499952e-03
4.875014974237235586e-03
-9.279686552052763627e-04
-4.489484409252768142e-03
-4.571122022066209482e-03
3.834766281869032324e-03
1.058418943193330415e-02
6.225303978604479309e-03
-1.920663939891123885e-03
-1.082838313048427054e-03
3.671642587398037030e-03
1.934643525010730633e-03
-7.230547391858794908e-04
-1.068368657102408345e-02
-2.332466242822806360e-02
-1.529752056884850150e-02
-4.409105191263463261e-04
2.374152970487787388e-03
3.781677074263686128e-03
7.568954304004281083e-03
5.046241505266956667e-03
-2.116553854412012191e-04
7.739788210399384380e-04
-2.424562022624232789e-04
-1.917066778704820933e-03
3.634300557868206088e-03
3.397106072664034509e-03
1.284713562128070373e-04
-1.479600764946955465e-04
-3.744817134800457799e-03
-1.176192586140893800e-03
3.525888845215744642e-03
2.839218003187014578e-03
3.495957903996892158e-03
9.291661237188105740e-05
-2.859998946101232394e-03
-2.145861438827200048e-03
-5.253957955912345011e-03
-1.357590501098844592e-03
4.205244099512743007e-03
4.579922551434766607e-04
8.539877420008580621e-04
2.369340573138750163e-03
-5.950843351174191220e-04
-5.717641329142157626e-05
1.092278361694700795e-03
2.027361696796734555e-03
8.938502308586586485e-04
-2.643209213789174828e-03
-9.684327846091057412e-04
-6.445810136023156719e-05
2.568909455770907639e-04
3.806406393162038108e-03
4.515648755497303073e-05
-5.230858810998900536e-03
-5.290790883058193485e-03
-4.485671968306978105e-03
1.812986978213229107e-03
8.057079277159368350e-03
6.807190441960739996e-03
5.026147378449439228e-03
6.526096541796913217e-03
5.090873155122616241e-03
-3.004692111213842168e-03
-4.034679164351815360e-03
4.764995795120320773e-04
-5.118675740321193719e-03
-3.219314102619292867e-03
7.065265691596220657e-03
4.443413270600643679e-03
3.448853834623173947e-03
5.173591673492961875e-03
-7.858463806309408124e-04
1.606437822463440616e-04
1.474763692143356980e-03
-2.775259071188950540e-03
-2.163628357835985141e-03
-4.422638412779904445e-03
-7.727283356872925897e-03
-6.378885819745858804e-03
-6.424179234573283888e-03
-2.698527292352635200e-03
3.325931942790698228e-03
2.444329173669293649e-03
-2.731778173145757091e-03
-3.995213813543491317e-03
3.894286433061331211e-04
3.397729497350071657e-03
4.617823090866240814e-03
4.815082162297530492e-03
4.506939207509220481e-03
8.582922838961642986e-03
1.070239560319930644e-02
1.309130477337050111e-02
1.388804360679016595e-02
2.914173223587171718e-03
4.432766346154817360e-04
5.091577514699708110e-03
2.535036141319076293e-04
-1.449943103639084489e-03
-3.164928371200814890e-03
-1.586846877528958616e-03
5.526742952798352655e-03
1.265518499465424730e-03
2.032226802015462980e-03
1.006848187908896373e-02
7.963386447032627311e-03
5.018226200136469660e-03
2.455005705934331511e-03
-3.492178931541858704e-03
-6.894059211560281571e-03
-3.653313713151364397e-03
-2.426624431536458532e-03
-1.198001699124965312e-02
-1.920283404928787782e-02
-2.011758942000589634e-02
-1.732239530507118791e-02
-1.159673034220913036e-02
-1.035297219647082420e-02
-4.245458248950349615e-03
4.883980974338269793e-04
-7.494823081903168559e-03
-1.112013468865034882e-02
-1.192884254340315607e-02
-1.046076627412070512e-02
2.756915968670543490e-03
1.461563494794524028e-02
1.779170008921795651e-02
9.890144418560717354e-03
-6.060645719918636778e-03
-2.098070084791894135e-02
-3.090663221965704588e-02
-2.639871740773648556e-02
-2.720828390906449012e-02
-3.339425015528484780e-02
-1.619310843714750515e-03
3.741200689204084162e-02
3.760371321450303728e-02
5.956197313892191633e-03
-2.620981053000415173e-02
1.163361784122690298e-02
8.243371704131002842e-02
6.833632635995041948e-02
3.673013754525888529e-03
-2.256027611133392882e-02
3.938219235275840224e-03
3.217131459572013935e-02
3.501715239630269916e-03
-5.017853220755263098e-03
6.202938347648404710e-02
9.847368190339564342e-02
7.029745219411806523e-02
2.616926455860214135e-02
-9.817382404327033157e-03
5.002242882423420635e-04
3.942484318464410664e-02
3.833056737389784613e-02
-7.231587033987253374e-03
-5.377644039875247028e-02
-1.015397907084896051e-01
-1.358791579286779960e-01
-6.080145132808886799e-02
5.976272343931671865e-02
4.864590671529563093e-02
-5.343106935109061956e-02
-1.416026074792045009e-01
-1.733612000585650625e-01
-1.647563664449847864e-01
-1.625367481582696005e-01
-9.164131949214747441e-03
2.279977199281064126e-01
1.795797935944316859e-01
-1.893413818962523532e-02
-1.212611346339657892e-01
-2.125033140165743517e-01
-1.693419358001325425e-01
5.316759550111117144e-02
1.757310453677193018e-01
1.194342541636346511e-01
5.339248488666842318e-02
8.003009965688021032e-02
1.398537567719957131e-01
1.785263059829128307e-01
2.147905763605484353e-01
2.266904382727241152e-01
1.651642116031500629e-01
2.235587123892366496e-02
-1.386242984184301585e-01
-2.557541598533705773e-01
-2.194296523498820983e-01
3.638274448315133996e-02
2.031182796727815931e-01
8.894783697851549320e-02
-3.356699429058462164e-02
-4.452386313495215742e-02
-6.452874981884420061e-03
6.897043160258138628e-02
7.323879759184533100e-02
-5.491094731688477004e-02
-1.646102674716051484e-01
-1.506544298825349681e-01
-1.938265723381946970e-01
-3.089191270964626868e-01
-2.255307475532821737e-01
-4.093637664014336541e-02
2.705727326817184558e-02
7.259883794196504703e-02
1.287623628732626480e-01
1.254067076475122722e-01
6.208326659271658915e-02
-3.230299730030433691e-02
-1.012477185699012378e-01
-5.119421922094945232e-02
1.087485914167209827e-01
1.801584400456013590e-01
1.269668521960655994e-01
1.095194104371867427e-01
1.113013770229970556e-01
7.026086467447359429e-02
7.908907562318811049e-03
-9.258075332291040849e-02
-1.917191667179338754e-01
-1.534834847591811657e-01
2.181728496397742495e-02
1.388443943060537200e-01
1.185149658731757122e-01
4.911430574026771217e-02
2.796952995608227230e-02
7.171715511770702933e-02
5.281862797838259016e-02
-4.349039838881367873e-03
6.582239223081144848e-03
3.597890177460934692e-03
-1.129489152889969275e-02
-7.789571620403588914e-02
-2.016544510606881335e-01
-1.259883166308901348e-01
3.182129231983247403e-02
1.334941099805911184e-02
2.543434820104370497e-02
1.165647634942070798e-01
7.856550395489650396e-02
-1.245343614210294922e-02
-4.798814770186898143e-02
-9.151971027279982851e-02
-9.423213362141999450e-02
-1.813052954467932881e-02
3.093425795555246327e-02
4.045415706149935869e-02
3.070911161460582184e-02
-2.400483966128554893e-03
-1.365019573249419242e-02
-4.221544436044249310e-02
-1.526787851371242954e-01
-2.661191693055985907e-01
-1.916767734763344944e-01
5.957717154505151602e-02
1.930895124473271385e-01
1.701413473686542721e-01
1.816619710612277505e-01
2.054083294928830683e-01
1.756706959287528957e-01
1.035131201091776115e-01
1.859006514128820967e-02
-4.225700871644985646e-02
-7.732010755992924089e-02
-6.322486009456980416e-02
-2.897896016467936542e-02
-2.883476860360980817e-02
-2.161047660088322858e-02
4.254005498334356358e-03
1.778699599601226561e-02
1.915441512874093560e-02
2.099280200031958254e-02
1.512913384034880737e-02
-1.006045612325553312e-02
-3.498530086019761148e-02
-6.795865487978564046e-02
-8.365154332207257182e-02
-6.075674026426549496e-02
-7.745014593350529886e-02
-9.606428446180845238e-02
-5.145197545862809779e-02
-6.136588124944519253e-03
2.987353126625066219e-02
4.781594640763492388e-02
3.418627900288716964e-02
3.391126978326838848e-02
3.597848993414739377e-02
2.672385091392448508e-02
2.470795651612372329e-02
2.763115806146193565e-02
2.822458011791846924e-02
2.111148696634885732e-02
2.010455364139527440e-02
2.381175204236457218e-02
1.701799423357835961e-02
9.088639185266401965e-03
3.151435337539420199e-03
6.764073018813740283e-03
1.498278717292162582e-02
7.281410599779027104e-03
-9.824564540996057888e-03
-3.059811574074782978e-02
-4.076854635099524948e-02
-2.690882456710698423e-02
-9.558656405671590514e-03
-1.519877910784524395e-03
-4.210055752363725881e-03
-1.393879544400164136e-02
-1.820068392823741277e-02
-1.831037180325134628e-02
-1.324126903087571513e-02
5.386971495518910573e-03
1.993182138901095427e-02
6.999761972998624557e-03
-1.457165578223998913e-02
-3.280903640568139101e-02
-5.543704456556570320e-02
-3.565488908555110997e-02
2.645833516054241913e-02
4.388620567823944135e-02
2.234095892568854422e-02
1.727351269174257423e-02
1.885046161745105794e-02
2.000646121637000147e-02
2.459122945984296496e-02
2.850991546771177582e-02
2.627470652952810029e-02
1.297571399750109197e-02
6.154661681189423951e-03
8.512047832647546414e-03
6.059275096049577397e-03
1.669908244173298880e-03
-8.366232514975943321e-03
-1.861527831379133219e-02
-1.287523437265380120e-02
2.451717134078861254e-03
1.172746971233729930e-02
6.605049300119914153e-03
-1.186436433548831298e-07
4.075515669216021940e-04
-5.260553242719807204e-03
-1.205880785520491855e-02
-1.968865510968348734e-02
-2.855723706092755387e-02
-1.742721310721768307e-02
-6.386543449886704447e-04
2.054565371250969587e-03
1.045260622147163978e-03
-9.822454071817005462e-04
1.588930468719154101e-03
8.937314739784060422e-03
8.610357301736461244e-03
3.285668202240221367e-03
2.869934447620667729e-03
7.996967467816596883e-03
8.981435259059226614e-03
6.243365842299473945e-03
4.026215652124872854e-03
-3.182163558686577475e-03
-6.046755219130871446e-03
-3.818242144184234334e-03
-7.384146994125769838e-03
-9.176042210133584717e-03
-9.637290599568845706e-03
-1.044965899673473003e-02
-7.048442261514918476e-03
-4.769701802772985562e-03
8.715736654388341336e-05
1.053838112526633841e-02
1.896260824731092060e-02
1.944299808475441135e-02
1.110736903425352598e-02
1.009116675454843322e-03
-6.754418057334426150e-03
-6.238047615134176271e-03
1.038768274078942511e-03
5.385802155132583726e-04
2.019365701740712376e-03
1.562661890577856857e-02
2.575927286484374149e-02
2.307746586579611722e-02
1.070805345849604531e-02
-2.565821239564231113e-03
-1.260105371298367131e-02
-1.662044223703975504e-02
-6.874936499382975838e-03
1.076263277282038869e-02
2.223986400976412856e-02
1.313844213703656803e-02
-1.175194725568278094e-02
-2.560809353818107106e-02
-2.395529806356781061e-02
-1.271629785805175605e-02
1.047412705163402666e-03
1.927695318767705477e-03
-1.656921301025381706e-03
1.867268325248418528e-03
6.529796667006581949e-03
5.703851098202272936e-03
1.094317274414355638e-03
2.246915699847259508e-03
-1.637154846434321111e-03
-1.356876124209235694e-02
-7.506008853842826081e-03
8.853823364421664968e-03
1.329155942586313956e-02
1.142089247169658650e-02
5.083769253835539528e-03
-4.531138393685479708e-03
-5.613366266492223963e-03
-2.389344536903987529e-04
-4.415511117909255712e-05
-2.110261356852263445e-03
-2.202019809325726166e-03
-4.778612002927616273e-03
-4.205932539284909163e-03
2.148138101581714351e-03
7.042682823758588014e-03
9.810918991023003313e-03
8.840420432875384718e-03
5.859823201393310130e-03
1.888992660229366115e-03
-8.787955927048955035e-03
-1.015421058301428994e-02
4.267907852034950010e-03
7.324632543810231412e-03
4.543266509871055764e-03
1.247471836731494678e-02
1.152570208486694558e-02
3.387549879326475031e-03
7.728530793886073365e-04
-7.827206905978604601e-04
2.306299444109441432e-03
-6.526698831850669992e-04
-1.074665715087009220e-02
-1.033980529328753367e-02
-7.858373599153811728e-03
-4.979733994345194800e-03
2.677382256588628086e-05
-1.542731808736958789e-03
-3.797766258464972244e-03
-6.679856464243013464e-03
-5.560749639394554043e-03
-1.896459688924521025e-03
-5.354678250399288846e-03
1.611263046334762564e-03
8.886552327609346588e-03
-2.324968306438205496e-06
-3.749351713400883232e-03
-5.077745593263133760e-03
-6.218829880097328719e-03
1.026714601274987234e-03
7.736447111037341243e-03
1.126795356249699585e-02
4.529621779059664170e-03
-5.355339523704480582e-04
7.051776916202840209e-03
4.053272499168656187e-03
2.171316036149614510e-03
8.619306241341849473e-03
5.082879426399754697e-04
-4.218240054369963229e-03
1.221445360256181263e-03
-1.718335588328964410e-04
-3.159283473243637021e-04
2.793675387247347708e-03
1.449387081316109126e-03
-8.210874772342337605e-03
-2.036746233482778640e-02
-2.238497311516809626e-02
-1.778337891433575887e-02
-8.669624829099263977e-03
4.852586742930201612e-03
1.552738289915867563e-02
2.148732023780224043e-02
1.777547740269952090e-02
1.239033609335151234e-02
9.569886372164070065e-03
-5.452841317636119602e-03
-1.602598646509577340e-02
-9.112594617696638533e-03
-4.548848447620118356e-03
-5.768406056209518171e-03
-7.363529886455097428e-03
-5.488374818942494404e-03
1.740832525298045830e-03
9.068053057952340373e-03
1.579008314270005306e-02
1.460060717291387575e-02
5.590972769465598485e-03
5.873861646848152485e-03
1.417358328308553073e-02
1.131827457686303620e-02
-2.041029709968731568e-03
-9.423443395805709485e-03
-1.999657031278604183e-02
-3.145830219301021941e-02
-1.764675470663793280e-02
1.361576271563999779e-03
6.974926779696073546e-03
7.577109120073836565e-03
4.227293227091051498e-04
-4.273342637246618715e-04
-2.076247643021442006e-04
-7.279658009768231845e-03
-2.511019166314563868e-03
-9.041028990611323438e-04
-3.860515491495786905e-03
-1.001622597353482190e-03
-6.139045809996386896e-03
-3.681019145159803666e-03
3.758341766173759965e-03
2.291074642023460586e-03
4.779056283050307427e-03
5.011140145889990492e-04
-5.193714491354229322e-03
1.005054131002204544e-03
1.702320698150644072e-03
-8.140920865407459076e-04
1.725088469373998871e-04
1.492661945823542044e-03
5.616198664095369171e-03
5.540661899456537573e-03
7.938728915348966259e-04
7.226388223151251206e-04
5.039532539701264795e-03
8.050519918205921790e-03
8.538338435772329163e-03
7.847911914741117004e-03
4.006704804284213703e-03
-1.531750968793515804e-03
-4.298039270596788058e-03
-3.556566290253845419e-03
-9.488867823466699998e-04
-3.981645091092779823e-03
-1.221926622029816632e-02
-1.309817258624695890e-02
-1.007392753154490520e-02
-9.959062255460383178e-03
-3.315466763561937622e-03
5.659369017558332424e-03
6.721927686109581412e-03
4.151571718165714998e-03
1.104082046042445617e-05
2.812448844816474751e-04
4.336245596199226997e-03
2.962040585746337704e-03
3.191524150565751110e-03
3.036215005685130412e-03
-1.445005426236547433e-03
-3.832546684281672167e-03
-8.820494047143714184e-03
-8.631408814735272439e-03
6.821024689146364724e-04
6.270637547306362469e-03
5.229680285815632018e-03
-2.852856436899090659e-03
-2.309273003247002201e-03
9.602763785664580540e-03
9.166306877481569110e-03
5.356736241733539398e-03
5.820830662300040259e-03
-8.755027518075782222e-04
-6.807720572924718695e-03
-6.635237007122480983e-03
-3.870080587713107048e-03
-3.588784306971468455e-03
-4.826026969444138434e-03
-3.078396314603268520e-03
-5.968865961568964491e-03
-8.818947645039936986e-03
-8.194813189911635473e-03
-8.123223329816362318e-03
2.295659938416164895e-03
1.067764450587258517e-02
7.802646324328917776e-04
-8.110693772312915426e-03
-3.052205070538537360e-03
7.728585579016082098e-03
1.299829336904138530e-02
8.335695462291082755e-03
6.974557791626247020e-06
-2.754429762024858223e-03
-4.025855336302520829e-04
-1.580031572979476119e-03
-5.056859772666228445e-04
7.197923898245119946e-03
6.169987253826727039e-03
-1.916498596197753262e-03
-1.055085112003494464e-03
4.169807571806228436e-03
4.073444558236436093e-03
5.143989584324886073e-03
8.310803691455244044e-03
3.002789329823416474e-03
-2.308570046772497140e-03
1.053847250779807194e-03
2.701737502897036142e-03
7.673329233348104295e-04
-6.784761979394255196e-03
-1.537771959221878593e-02
-1.002491925980981101e-02
-5.271489199430231740e-03
-1.041136788787193346e-02
-1.006210168912641950e-02
-8.098250812717300989e-03
-8.217577127417463947e-03
-4.939126908499034962e-03
-1.325047267965143334e-03
1.560742963804054306e-03
2.971375382750032247e-03
6.397963255696545101e-03
9.587513883948290197e-03
5.583911321223171756e-03
2.788870570524190108e-03
-1.752263628924786813e-03
-6.864412771319031506e-03
-7.328634624092691258e-04
2.008090150546563632e-03
4.673891998958579707e-04
4.763537584113930381e-04
-3.281129845463940861e-03
3.175146513003242535e-03
9.621153001852782161e-03
5.049611415854753267e-03
2.841918938368515838e-03
-4.772564502580653283e-03
-7.878368125479042264e-03
-8.094011920413864396e-04
-2.084346115793275951e-03
-2.488401809582675315e-04
1.457008410965167367e-03
-3.399391615105704090e-03
1.178373120172355711e-03
1.335299516021502299e-03
-4.163704002240524449e-03
-4.000026671273046106e-03
-1.048006174810821485e-02
-1.125895049971305413e-02
1.508260355681808424e-03
6.791873523739313558e-03
7.914575654606759506e-03
1.128915872072896835e-02
6.429033148464330036e-03
1.198521354194736176e-03
1.628277405618908710e-03
-3.109194946284692118e-03
-7.127598308843156524e-03
-5.000447001473544255e-03
-7.313412311413203422e-03
-1.016504515166223935e-02
-7.111888927048230086e-03
-4.453965156723403186e-03
-2.384974340115706207e-03
-1.300111265996680690e-03
-2.556140842530644358e-03
1.544155356887184916e-03
7.631182847426450436e-03
8.802988837256702642e-03
8.611091076014069576e-03
-2.514018292171082817e-04
-9.983805786059380891e-03
-5.744278146961360847e-03
-7.783441150466600435e-03
-1.156953338148049813e-02
-1.271162851179677032e-03
1.609628617932142187e-03
2.526867806165553065e-03
1.063326447988548022e-02
1.039567473693227100e-02
8.508036750380879032e-03
7.605364755740244564e-03
9.184097513125748929e-04
-2.720137669673690708e-03
2.531030802467136229e-03
2.112065097107711838e-03
-1.031463054275344980e-02
-9.912513082489946697e-03
-3.969629901309679361e-04
-1.140894794847341961e-03
1.626842970967220994e-03
3.003340958000686768e-03
-1.765145930771566240e-03
-1.155634173548953422e-03
-3.796609316085880828e-03
-2.942275023307549305e-03
5.602384373272734953e-03
5.858336711247533538e-03
1.690622267246207067e-03
-3.917543134692534797e-03
-1.167504935495937771e-02
-1.406904087649202793e-02
-1.215722905182234012e-02
-5.513791430478471103e-03
1.876318828241886616e-03
1.420925978689275638e-03
1.484119730275724981e-03
4.575911778975177112e-03
3.015675083865918329e-03
1.656146055035669215e-03
2.262741157866916125e-03
1.852109265995727293e-04
-5.596903185322668964e-03
-1.044787756729821313e-02
-5.446887791814322526e-03
2.265395983813236949e-03
5.046315985230256755e-03
5.962428826164645028e-03
2.223743514849686135e-03
1.626411989449926855e-03
4.699093359341701033e-03
3.102647895630587967e-03
4.437107422060787391e-03
4.604259083401182964e-03
-1.098401955314936250e-03
-7.952157653501800913e-03
-1.169672469951044992e-02
-3.413417539203060860e-03
5.937195936294889856e-03
8.099532643549406039e-03
8.024047994291736915e-03
4.283423797401949770e-03
4.526337999107520743e-03
4.278697663180414806e-03
1.323342446357651933e-03
5.908418639673016295e-03
1.032027834842885218e-02
7.159501602783102485e-03
-1.069400540008695437e-02
-2.555973347090697081e-02
-1.485228245123040511e-02
-1.038794479376984811e-02
-1.446265348225771359e-02
-1.411201161212108227e-04
1.170919112803409795e-02
7.891291975607433312e-03
1.852420305014279263e-03
-1.831455129359633310e-03
-7.521686343032534319e-03
-1.411483766953331408e-02
-1.557577262457343799e-02
-1.247238535185748141e-02
9.275090610649318649e-05
1.050738842630527005e-02
3.506411980768601826e-03
3.822340988084646247e-03
1.445944848605461644e-02
1.307461249659915350e-02
7.822726306595252990e-03
3.140869308201294906e-03
-9.274853715197640914e-04
3.336714314755507855e-03
3.912916065053109391e-03
-1.796084025372239341e-03
-6.495756724987934152e-04
8.689401732598191555e-04
-1.798953882997069830e-03
-1.328340505954745667e-03
2.631113782531633270e-03
4.964752858185377156e-03
-2.591778374873484996e-03
-9.727635918894894304e-03
-2.065387979702096050e-03
5.086958813903101097e-03
3.308785519728962843e-03
-1.868626727792674184e-03
-6.977748413724769484e-03
-6.185027144999681592e-03
-4.749698719077979567e-03
-4.926704393421980389e-03
-6.610624781968223521e-03
-6.368520281048602703e-03
4.901532317643479339e-03
8.287421675682488803e-03
1.536407536672380197e-03
4.124580620058213194e-03
4.516656753753167490e-03
2.780448549075781838e-03
5.006630903302650322e-03
-2.236853402669804149e-04
-6.835078083302759296e-03
-7.779230657261326787e-03
-5.791054251847209226e-03
-1.255320169648664348e-03
1.803362434294342219e-03
-4.421009378812247896e-04
-1.546211869259459578e-03
3.301205296386675817e-03
5.827650348515361726e-03
5.668840140556788074e-03
5.847920207861428098e-03
7.047238175562856727e-03
9.312931864654762706e-03
-5.353092997900549569e-04
-1.198219416709090518e-02
-8.513449699052579034e-03
-3.060565153787947121e-03
9.675473092034864078e-04
1.099799324162912487e-03
-1.334627674303765507e-03
1.436930182201190929e-04
-2.679002555717186450e-03
-3.186507394229762431e-03
-1.586538497086580632e-03
-8.091160912495758443e-05
7.847949632349561500e-03
5.710549857712822301e-03
1.244265186108058476e-04
1.029926335112872366e-03
-4.348506610025925853e-03
-7.740672766728540558e-03
-8.379789879182522258e-03
-9.464638337393450895e-03
-6.455399912679201865e-03
5.428449948721175309e-04
8.576434427715549577e-03
1.124588016301151985e-03
-6.908388967162035904e-03
4.920790633938722670e-04
2.188616934310442380e-03
4.700249749374822705e-03
8.081574215591250804e-03
3.332555243230266289e-03
5.345411878503389391e-03
6.015259662016996141e-03
9.239096053032849190e-04
-1.933370725039350617e-03
-3.360079071116271916e-03
-8.658879081312135378e-04
7.723002178943204950e-04
-2.183205291087645435e-04
-5.880496895853037399e-03
-9.416795699583759352e-03
-4.588645662705556909e-04
3.903065254687739915e-03
3.930938874557786573e-03
4.612330860042914045e-03
-2.253503050397797063e-04
5.049224972210291165e-03
1.482677408227267742e-02
1.439234730158565033e-02
4.197546613917471463e-03
-1.333556246308175222e-02
-2.220452399405974803e-02
-2.212436204278533936e-02
-1.460007052487319670e-02
2.512764971957238448e-03
1.090114077531363634e-02
1.071171807011828993e-02
8.945990385717420695e-03
5.545553718449568008e-03
2.256296173433768298e-03
-2.545289729823039734e-03
-7.879846777967151666e-04
2.884211518930751041e-03
2.734942150389027809e-03
-2.089461362265382545e-03
-1.608278857679657642e-02
-1.477691739874481026e-02
3.163464643610515740e-04
5.678938443725090220e-03
8.540802510645548531e-03
4.880836444702458393e-03
-7.332722752930153623e-04
8.241688312276163747e-05
-2.301383839566803393e-03
-1.112185651791418057e-03
1.022608096212654534e-03
1.803740087631916880e-04
-6.578304233791049766e-04
-6.223088822815302755e-03
-7.555584216561676315e-03
-4.479911490034263651e-03
-1.312284360204087140e-04
5.713587641964343669e-03
3.499472213277619089e-03
-9.901234619205654709e-04
-2.272712176051076578e-03
-1.191329780930113521e-04
5.214443702944897632e-03
8.416364514279696049e-03
1.076683902071628139e-02
4.104943897672118716e-03
-4.420687027374866664e-03
-7.744849180224821225e-04
7.808396017030560556e-04
1.339665527561725725e-03
2.289623586118554478e-03
-2.523060196682106945e-03
-3.094001267456367252e-03
-3.295696228148918029e-03
-2.909954276824016587e-03
1.956349056045070950e-03
4.646384519514152982e-03
7.801412813905357797e-03
5.930017101680958025e-03
-2.132282780829129239e-05
-2.198968508504081383e-04
-5.396406082176325933e-04
-4.514663499289014786e-04
1.171974592541914946e-03
-2.438623508583009046e-03
-7.777173251387797803e-03
-8.350162427401934540e-03
-6.332737250375038152e-03
-3.565079563482173326e-03
4.186826734888304986e-03
8.023080169031294312e-03
4.375758073719326533e-04
-6.406473629409633122e-03
-9.759750607534622632e-03
-1.164681254249637019e-02
-7.829859153923472703e-03
3.480303036692091768e-04
5.446740921840513908e-03
-5.688140805241167315e-04
-5.974797789865851118e-03
-2.791041893715541533e-04
1.096127716095799971e-03
-2.603072290374933845e-03
7.688026014151655690e-04
2.443737370119510640e-03
-2.946989835961615154e-03
-2.789510505016519742e-03
3.562824019840223240e-03
7.233860094141419429e-03
1.077045957915438897e-02
1.308683237572562212e-02
1.432152795981632594e-02
1.626275137828820869e-02
8.300247221217183641e-03
-8.733754006870457368e-04
-7.517017259739359873e-05
2.227151404111584604e-04
2.843332057817831641e-04
-3.395966933721602903e-03
-1.222133131823146222e-02
-1.171349357091972659e-02
-5.102532722754526268e-03
1.766846672499677124e-03
6.814874624677712614e-03
2.847618228864999979e-03
-2.692005287552508199e-03
-4.350002397327306855e-03
-8.328622051064514531e-03
-1.296936501033200614e-02
-9.804129671891403594e-03
-3.479655325380764767e-03
-3.311361415258002108e-03
7.244577233771910124e-04
4.429937915280852088e-03
-1.475191672741381962e-03
2.435870665554585104e-03
7.077468130743525335e-03
-3.617438275919435250e-04
2.619059114486341384e-03
5.343953218429838697e-03
-3.557299282907807735e-03
-3.264927701613304280e-03
3.249446497603125823e-03
7.020145445400339211e-03
6.085187361265721913e-03
-1.123769459149908789e-03
-1.077523195518775368e-03
2.822969212754246771e-03
-7.416648030109377525e-04
6.753462588019381674e-04
4.424793948039619680e-03
-1.135882729599893256e-03
-1.841760848965127160e-03
2.315087082857738426e-03
-4.329895609610283531e-03
-1.070818509536256534e-02
-4.803080658380743523e-03
3.004410914765561803e-03
3.860847450044853205e-04
-4.712120684825814310e-03
1.680662565497044892e-03
4.440140886302865707e-03
2.322848578182139072e-03
1.049847233894380012e-02
7.806399445002858671e-03
-1.085512572313050966e-03
3.083288867030099193e-03
-1.621227501730858941e-03
-5.960947152174563175e-03
2.129933948277842187e-03
-1.660485703830875265e-03
-7.624896435809829995e-03
-3.542345458953020682e-03
-2.660465463097487753e-03
-3.429498455630849464e-03
-3.601675989781331910e-03
-3.973364230006434100e-03
2.170940727098667246e-04
3.374839509599904946e-03
-9.326582049836441542e-04
-4.302916898776653308e-03
-4.811675475571917091e-04
3.964049831283149826e-03
5.192845787519480803e-03
3.235699098467936796e-03
9.227848980655775852e-04
1.646553675921661993e-03
-8.540470579679333273e-04
-2.316242311580065608e-03
3.621654099625445239e-03
5.027541719060124766e-03
4.881635965320355389e-03
9.479023005158057624e-03
7.019584869379039832e-03
-4.162981421970780101e-04
-1.873796998006300703e-03
2.618938817256837633e-03
4.894651641701676902e-03
-6.512141433574376859e-04
-7.898740352973514581e-03
-1.450203563284248494e-02
-1.492714888494694851e-02
-2.405482037642724460e-03
6.169015103017910090e-03
3.468982496662506489e-03
8.897211301068125864e-05
-2.522326503275833416e-03
-2.721043978150464952e-03
-1.817772924089332016e-03
8.501944247378655098e-04
4.538443920207640633e-03
-4.604231726923306025e-04
-2.713843051091682605e-03
9.249681529845104472e-04
-5.447084066567745714e-03
-8.108660667031879557e-03
-2.905615727451126744e-04
2.806777093811523970e-03
2.838413978508943277e-03
6.814410030266787035e-04
-5.260458965269295892e-03
-4.931999482229726915e-03
4.839250221254503236e-03
9.645375074049172479e-03
2.744449800494612804e-03
1.731971570379041425e-03
5.641410374139877414e-03
1.650026150903477723e-04
-1.270877017403032475e-03
1.711959991744922390e-03
-1.746885888580709985e-03
-5.519356715223126169e-04
2.233570014730252868e-03
2.762713372937341465e-04
3.310693719862690693e-03
5.580168783171430419e-03
4.284078617830603709e-03
9.502776161311760061e-03
1.290910849081653052e-02
5.817156576715112708e-03
-5.566377482906421405e-03
-1.325646878501771098e-02
-8.169862466006937857e-03
-7.376958428585060970e-05
-4.168296318545719470e-03
-8.483217183552769700e-03
-6.798988172443769067e-03
-4.968001726395830306e-03
-2.752467947726203699e-03
-1.946715642209747524e-03
2.606298550144915249e-03
7.091129788199771779e-03
2.438818960566170157e-03
-2.768457870715174216e-03
-5.331573207992829598e-03
-3.949807579287050244e-03
-2.968834023861491398e-03
-8.747680214379757735e-03
-5.961416178330091777e-03
1.351441230869299256e-03
1.146875984231865171e-03
1.729918056963170719e-03
1.551864766576918284e-03
3.835513207219423942e-03
7.895660094377292965e-03
5.149445999184759995e-03
3.839053791488937582e-03
1.598901802069120984e-03
-2.514951715984601981e-03
-2.722458660732455973e-05
2.716997308563363737e-03
6.997250027677917247e-03
1.071304178764058770e-02
2.043760345132511914e-03
-6.868481862294778181e-03
-2.873467572859801904e-03
3.123762157678838716e-03
2.682701369332222367e-03
1.690542638172567048e-03
1.064990443818223742e-03
-8.120140683241509243e-04
-7.270645835707132678e-04
-3.163547041326405899e-03
-4.599870358826313975e-03
1.981366305128982007e-03
3.417003680627869223e-03
-2.139341066609342073e-03
-5.822932874686915193e-03
-1.013426343783071365e-02
-8.279961000800584170e-03
1.187111082799255108e-03
4.865597162392204869e-03
5.508531564823951901e-05
-7.625727009595489013e-03
-8.441232799438553452e-03
-3.337681675818681293e-03
-3.276690360926693552e-03
1.387554129369977015e-03
1.075647532712226129e-02
9.118550382387072967e-03
4.143314512668317025e-03
5.263263820375388945e-04
-2.329786226851877484e-03
2.924128391060712255e-03
6.324060266090027020e-03
9.135393778288687736e-04
-3.586497558745187827e-03
-2.698050448866874673e-03
-2.602051698331074147e-03
-5.005235778281533210e-03
-7.673361474567471979e-05
5.032648774086051144e-03
3.997341628153251378e-03
5.923245218078132535e-03
2.727999552298671256e-03
-1.754373719481322816e-04
4.355816162279622233e-03
2.577695977193239594e-03
3.222032840129089668e-03
5.784854403339074677e-03
6.548972253583340867e-04
-8.033869840227999930e-04
2.434006898949206787e-05
1.218538471239610180e-03
-3.009944514596315721e-04
-8.002261852603692605e-03
-8.902805233587576111e-03
-9.308362930138152844e-03
-1.368644476378143814e-02
-1.127001905706048572e-02
-5.857883157480257494e-03
-1.148120263772583289e-03
-1.722279109454676830e-03
-3.412208534670969299e-03
1.808305816457563518e-03
2.976975014455066678e-03
3.836024828354207220e-03
8.351885838676690460e-03
5.344173212365389836e-03
4.092169195048449282e-03
5.553661218134655839e-03
-2.910993477258931768e-04
9.461112148460680419e-05
7.064876651940913029e-03
3.901527908898474398e-03
-8.543176969147327909e-05
