-4.310994322448383903e-02
-5.655888970045921949e-02
-2.551531257579348413e-02
-1.511730582818639201e-02
9.690717214102709254e-03
1.909543160169909284e-02
2.331953052187185627e-02
3.910898416398423533e-02
4.081396743295538643e-02
4.527821506134951240e-02
4.508119996943106556e-02
3.317314321125826998e-02
2.373597062368701383e-02
1.060976551442322120e-02
-4.592150274651306610e-03
-1.837883455968711277e-02
-2.723242592485316388e-02
-3.374167760677915934e-02
-3.737017186069665348e-02
-3.141874324198135754e-02
-3.117083078453925654e-02
-3.397935558074035439e-02
-2.807408717530535461e-02
-1.881941477655023343e-02
-3.844384835187866518e-03
1.152424783950637202e-02
2.074385408136475428e-02
1.866975388207001846e-02
8.141297306089610719e-03
1.319359338862256814e-02
2.488665104581610360e-02
2.293586175802450264e-02
1.947304847218742085e-02
1.283868127889308507e-02
-9.330151060226324431e-04
-7.405720006368674870e-03
-9.044977490984247234e-03
-1.268164511368979376e-02
-1.139890465172669308e-02
-7.651669306439084009e-03
-9.021828262194383358e-03
-1.067971662682256663e-02
-1.196785836472859590e-02
-1.399130588560550982e-02
-3.791137197068059767e-03
1.102752088748509655e-02
9.790332929059132258e-03
6.630946954843764361e-03
7.978267209275663463e-03
2.688357211752659837e-03
3.502280347710528749e-03
8.863430727337334725e-03
7.077163742775885967e-03
2.467425837513927654e-03
-3.935770055778808549e-03
-5.078196935163419891e-03
-4.124121189155141760e-03
-2.901786031454501279e-03
8.457066041294892048e-03
1.398169742189041102e-02
1.097446531062253386e-02
8.084011745950549915e-03
4.330492004597214992e-03
4.596743873809087076e-03
-1.168839420835606630e-02
-2.891689027906834894e-02
-1.344987885141300452e-02
-1.557104574338778486e-03
-4.064439361054530443e-03
5.002040382123725806e-05
2.102374202721896731e-03
2.530179976885603139e-04
-2.381360420642442653e-03
-4.828528244780519430e-04
1.179535051937257665e-03
-4.719704717729633452e-03
-2.431143772985727702e-03
2.115680045936702350e-03
7.468143591892971705e-04
4.964714989899356341e-03
4.086902278519003763e-03
-4.633964222912336992e-03
-3.691301522273598631e-03
5.482542929814411201e-03
1.015158929816508716e-02
9.561585032422898617e-03
7.232828536403312567e-03
1.300545356948548366e-03
-2.463617278140929102e-03
1.597093278898975045e-03
4.451327281763057912e-03
-2.130374664562198548e-04
-5.549503193276304584e-03
-7.573821039545510642e-03
-1.140263878288000354e-02
-1.134212158593489971e-02
-5.151013614605589805e-03
-5.110729644012686548e-03
-3.218654864036028969e-03
4.482984458626220088e-03
3.433688598913659830e-03
-1.264699667361998334e-03
-4.066263685442531375e-03
-3.935868708821400365e-03
3.600340335808311330e-03
7.243852742439836449e-03
6.216443282878158713e-03
8.500855595661688247e-03
4.581787224337455222e-03
1.776301486575287427e-04
7.646294706385602449e-03
8.610283485955464930e-03
-8.125947831347518505e-04
-3.469390833508719874e-04
2.468116447909244216e-03
8.631085560288577398e-04
2.440260072949013669e-03
-1.574446546755297899e-03
-4.518355916003347766e-03
2.362445055191508391e-03
3.168045311472019593e-03
9.313976015629285262e-04
1.855555170299177589e-03
-3.378537347208677207e-03
-5.043545907347613683e-03
1.697686091271335225e-03
9.021055521133397983e-04
-9.127696663658722842e-03
-1.911675081479273508e-02
-2.163805654980032606e-02
-1.658471678686732759e-02
-1.583473698811542832e-02
-1.168745565114219336e-02
3.330326691681311391e-03
8.780423395369395950e-03
7.862047892805538313e-03
1.134047737240604335e-02
9.110652346354717809e-03
7.744190681055624845e-03
1.191116863657259474e-02
1.291322439362679701e-02
8.440211530429288581e-03
1.389595195326692734e-03
2.969888557574180358e-04
2.280777763420403607e-03
1.747834925404862958e-03
2.685967487024400451e-03
2.083410299272234981e-03
-1.835304931895003714e-03
-6.343731600902998390e-03
-4.724557649791871240e-03
2.277234541714637933e-03
2.555186266581967527e-03
1.904222301434287156e-06
-2.990937690408778261e-03
-6.990848199646293448e-03
-3.168055823248231220e-03
1.113127673676692336e-03
2.145929311419603192e-03
4.247381781941599738e-03
2.328658109265322428e-03
-1.273989096886760878e-03
-3.156606603014599794e-03
-3.306061762491159083e-03
-1.080008577984877330e-03
3.408976954161922843e-03
7.214870976584629968e-03
4.100268181661034100e-03
-6.919794359002270565e-04
-2.375066698083709224e-03
-2.158794418747114578e-03
2.342711926559177833e-05
-9.290721194779503990e-04
-1.982177500421501877e-03
-3.435028940718319775e-03
-7.677823117780722094e-03
-6.051709930751116538e-03
-2.877581632425265951e-03
8.215073823630229376e-05
4.734981807721632720e-03
3.144690542461353513e-03
-2.107092504113014866e-03
-7.043053541966192918e-03
-7.471479378436654030e-03
-3.565723123146894401e-03
-2.276999890200167524e-03
-2.693701240928921079e-04
2.289378607297047077e-04
-1.282722691195032662e-03
-1.724069860013759808e-03
-1.642819958135055027e-03
6.039307756200236812e-03
1.227032971960943103e-02
8.897621319142496807e-03
3.950336119351339180e-03
1.249610489738003146e-04
2.467699922255485370e-03
4.744859782050732909e-03
3.308166929099111420e-03
6.157297060237871059e-03
4.829736101593591450e-03
1.172655902426541358e-03
-1.048733666772592478e-03
-6.937179909382301148e-03
-3.925130630603737396e-03
4.790017674865742862e-03
5.123226442838777622e-03
2.325415269378077084e-03
-3.592290077995583886e-04
-3.645627461635989660e-03
-5.572768272935715340e-03
-3.454807242778355856e-03
8.511482714190492130e-06
-1.957002448355178725e-03
-3.843298995867805087e-03
-4.015632366896598922e-03
-6.463632491403577957e-03
-2.344243083628908680e-03
4.339360469211772306e-03
2.131407977286926391e-03
-2.509376145810537917e-03
-5.966718294027435407e-03
-5.995790107994985324e-03
-1.746614993190169930e-03
-9.896783683965987288e-04
1.943527532792985310e-03
4.415504437258827020e-03
-1.548057476602537202e-03
-2.386023768862742707e-03
-4.369901229245152412e-04
-3.820206286761644089e-04
3.657143464884148390e-03
2.481894601491632657e-03
-2.377050363306826861e-04
-4.974224094329974567e-04
-2.698707369040697582e-03
-1.502102284147508642e-03
-2.822771227112701002e-03
-1.311104707864761167e-03
1.115297548099512294e-02
1.715217600045643859e-02
1.371811935408677463e-02
7.257479919996424368e-03
-2.120930854192541824e-03
-1.645364383564502063e-03
1.050179700660365360e-02
1.110313271677883934e-02
1.354746510375319036e-03
-1.251348357763241124e-03
-1.868451281237019923e-02
-3.987058128227234655e-02
-2.198270081068105092e-02
2.918821458221356521e-04
1.646484149543852053e-03
4.477856212842082177e-03
6.996418576840793355e-04
-2.882318550337065882e-03
2.665641314612061941e-03
4.574633155043868193e-03
8.279552044890392537e-03
9.292033642891597486e-03
4.571037354578379695e-03
2.303450792170607612e-03
-2.041897059999412539e-03
-1.951565001002286085e-03
5.788343968211677980e-03
8.754300134818806742e-03
3.223859880869526118e-03
-3.859961208046992689e-03
-3.261626706304388782e-03
1.654751936933635372e-04
-1.608375580716067026e-03
-4.286044282349747020e-03
-6.535126625373527745e-03
-7.440712927343886077e-03
-6.111007128410711649e-03
-5.545076783024531844e-03
-2.919780644433699404e-03
2.272396912303088420e-03
5.621673407549735921e-03
6.469038054009821660e-03
3.728192336971350093e-03
-1.090865663866201268e-03
-3.484991221771237008e-03
-3.290397615499157311e-03
8.362276755688202202e-04
5.135930095616260058e-03
2.891790761425040625e-03
5.103710649366138353e-04
-1.184688215979031031e-03
-2.729076205673166416e-03
2.861423570277545330e-03
6.094535672107643728e-03
5.918987537827361325e-03
7.414639967432484595e-03
2.259887675327435820e-03
9.433764350857023855e-04
3.540500090893615795e-03
-1.208434071812858812e-03
-8.114338670182409154e-04
1.545483390503119264e-03
-5.146432595334508951e-04
-4.703807054210342765e-03
-1.368672445370351827e-02
-9.858275728127212714e-03
1.245833365471743590e-03
-7.469187042544901808e-04
-8.571184258189210601e-04
1.660492096179110640e-04
-4.811271073471537658e-03
-4.001933351924857364e-03
-2.583917432778362871e-03
-3.851558995178567309e-03
6.026670380535151136e-05
4.175637505576338011e-03
-3.497685916740990680e-04
-5.966578124648502617e-03
-1.722958727133641187e-03
3.674925407068660357e-03
7.870529659676257436e-03
1.145999308947286827e-02
4.357166000078124997e-03
-4.623307879557227509e-04
2.332238958576505431e-03
3.777768302643882969e-04
2.402295316598405516e-03
6.127647078582551879e-03
2.415550886127360540e-03
6.772683118531951443e-06
-1.611154555556131539e-03
-3.340156239390388096e-03
-1.913445984121260558e-03
-2.244923248166635910e-03
-2.205964783458518475e-03
-6.343020468206751576e-04
-2.807096483494007227e-03
-5.227057923336136946e-03
-5.494362183193559311e-03
-3.274050923242556761e-03
4.952069435862185669e-03
9.240363787438502993e-03
3.589001314380547286e-03
3.660646237890056217e-04
-8.445213622824647567e-04
-3.607441137037811080e-03
-1.105832111858365621e-03
5.907228049719210564e-04
-1.635059673072506272e-03
-1.464587517646724363e-03
-2.349267307284144245e-03
-3.387250645705322614e-03
-2.338639415783063790e-05
3.164821287158731643e-03
2.553570820824934730e-03
3.766021554531690787e-05
-5.276174269806149005e-04
-1.591546965381809755e-04
-8.272887677143063228e-04
1.089063959055024990e-03
2.872037780713008592e-03
1.256466283166700728e-03
-3.686524136402791131e-04
-1.724940479496008764e-03
5.958883085376435519e-05
4.304513956249340391e-03
4.027052207838313115e-03
1.645061496844325410e-03
-1.342248557329914303e-03
-4.083809501281117187e-03
-3.704358953349299721e-03
-6.176245570669163312e-03
-7.022243193567792065e-03
-3.250997029658052209e-04
2.870199479239774094e-03
8.023096985685471572e-04
-3.523906372458940253e-04
7.015346598730921174e-04
3.101599510072715858e-03
3.395475120641245487e-03
5.133774824100728433e-03
7.554595267377053544e-03
3.113808494077232713e-03
-1.042585220880181286e-03
-1.105475884425641091e-03
-2.432054757550899081e-03
1.000193657526608814e-03
6.284555024295336405e-03
1.473305408649116122e-03
-4.148881522095997608e-03
-4.894729597961583467e-03
-8.494645637725832532e-03
-7.634269975307408571e-03
-3.114137566508833228e-03
-3.786481961961048106e-03
-3.218606480988939807e-03
-2.511799987263937592e-03
-2.926764025421701304e-03
-8.995072841774369183e-04
1.438683973815778078e-03
8.240809467967293370e-03
1.209091077725886476e-02
6.273769003284451924e-03
1.842863055204861655e-03
-2.800774105646697352e-03
-5.533277342722910455e-03
1.971078718829417670e-03
7.999496309057586851e-03
5.123750168636082361e-03
-1.478381639294646483e-03
-6.067382129090346556e-03
-3.119919004406765829e-03
1.772141792285535436e-03
8.924376505555436196e-04
5.495510790010292535e-04
9.836139847537023456e-04
-3.994129539283617671e-03
-5.442130479027222287e-03
-1.984426594939724727e-03
-4.084032915128055392e-05
4.221938778886187051e-03
4.439928333605621530e-03
1.556219690385776721e-04
-5.000717926683000743e-04
-3.604992727214104912e-03
-4.226733078765606763e-03
2.125853160605688068e-03
5.502212692702049615e-03
4.965746752397364946e-03
2.261205826233198685e-03
6.071419303476528187e-04
-8.146616187969914560e-04
-5.517409831847808546e-03
-6.371263490079217932e-03
-4.474712696792631020e-03
-2.694153420604705924e-03
1.155200606261847038e-03
-1.099556966947146824e-04
-2.645880473429897475e-03
1.364409319247617512e-03
4.300807891279899951e-03
2.365234374624047408e-03
-1.673220906806921222e-03
-6.452283730592853206e-03
-9.152566989504314424e-03
-5.410355851985782644e-03
3.789792590481112951e-03
9.554153757472051353e-03
8.139558682821006197e-03
2.839422656497425299e-03
-6.595303701481181795e-04
1.364162791847722952e-03
2.307090293293232071e-03
1.602665847707053070e-03
4.723425893531634813e-03
3.637251564148819439e-03
-4.362301779831274928e-03
-8.355491406944347624e-03
-2.818193709101887105e-03
4.460798331795517470e-03
4.962637675823788203e-03
5.174068503074592817e-03
4.422484544629522868e-03
-2.667101057211273543e-04
1.746069918608305575e-04
-4.841375045196678190e-03
-1.149786157267865955e-02
-8.957977109745777567e-04
3.149419040829124460e-03
-5.079886565428352180e-03
-1.928918573489060229e-03
2.082174734079170718e-03
-2.297737667297620155e-03
-5.892234729716385941e-03
-5.583741815280285695e-03
-2.371915187913198070e-03
-8.225679456418549286e-04
-2.697029748753580064e-03
-3.011113033104417802e-03
1.645262934391359191e-03
5.080940165454033222e-03
7.107888313506470490e-03
1.152339505983603421e-02
1.053658531870016977e-02
7.535858618873623668e-03
3.633614499866865636e-03
3.156909764020823881e-03
1.467066413419756792e-02
1.034694230031051130e-03
-2.939245923013442813e-02
-2.146426530562364765e-02
-4.434608512638772183e-03
-1.386565438130904580e-03
3.420535538815006656e-03
-1.562352874032999547e-03
-4.416352980855366671e-03
-2.260465966704052442e-03
-2.680854046635914624e-03
5.485919474647845025e-03
7.743046018808780878e-03
8.578550524927730514e-03
1.515662497121156131e-02
7.268164278071147406e-03
-9.240881933057362111e-04
-1.648035969844009524e-03
-6.045029365371583190e-03
-5.823745592046213233e-03
-8.943924653148384567e-04
4.181433878884419260e-03
3.930407344995725909e-03
-3.790726982860741483e-03
-6.690690768209502960e-03
-3.733008583679788429e-03
-3.165751919045032853e-03
-5.401628396588594762e-03
-2.488177804991134785e-03
3.075336460396504903e-03
-5.192673466294381660e-04
-4.518502737752241871e-03
-3.658494072159924719e-03
-1.296278234239819915e-03
4.520293028579942980e-03
1.846062614674618589e-03
-4.950193142515272454e-03
-3.541964072072677238e-04
5.533063552435688731e-03
6.580823267699355272e-03
8.001200833871697365e-03
7.232990126461811414e-03
-4.511132905389092854e-04
-6.960696883866037375e-03
-4.106508893007906370e-03
8.741989738366158069e-04
4.412218032637795981e-03
3.475516332072510657e-03
1.008863390672958861e-03
2.204642345591974022e-03
-4.173636511502339607e-04
1.767360640804660141e-03
4.149839326976992142e-03
1.709636596072777130e-03
7.665228201298722108e-03
-7.266352655763832352e-03
-2.688456959910383651e-02
-8.020404940864370863e-03
5.250584346725714960e-03
2.559879188523552385e-03
6.797348535617537234e-03
3.687371773489318653e-03
1.382650447213089502e-03
4.373916395976314500e-04
-3.806730992344594874e-03
-4.557867075233748219e-03
-5.355376686830449519e-03
1.262132561267188553e-03
6.163324225821527683e-03
8.309104068053583050e-04
-2.121377951032247557e-03
-1.535536516642369183e-03
2.870910789421184627e-03
1.254274684556641508e-03
-4.733611693126573913e-03
3.521705386886596085e-04
2.323361579440587008e-03
-7.979974875455002250e-04
1.877316637932526216e-03
4.270391048589005333e-03
4.380616103858239220e-03
1.524814940047041715e-03
-3.862063654723232441e-04
-9.332659833434552368e-05
-4.112099980316546825e-03
-6.742394662479028744e-03
-3.832525197246465943e-03
-1.941149150359848356e-03
-2.723489498111836011e-03
6.966940508084556224e-04
4.679246742539887836e-03
2.361218730882018858e-04
-7.960042200415673279e-04
5.968431807513917449e-03
7.770161358334900202e-03
4.629203598856289348e-03
2.802355565457105048e-03
2.666826520826390875e-03
-1.439287170552177230e-03
-6.442222126354165031e-03
-3.381225818115318402e-03
2.791180921210093761e-03
6.312745905269628172e-03
2.675201046562775218e-03
-3.338453941056441446e-03
-1.621020784530287449e-03
-6.033446700704416833e-03
-1.502933098504688307e-02
-9.693190367560527987e-03
-1.864132427103404408e-03
-1.529090206811910138e-03
-5.196338939876477209e-04
2.612210149050805345e-03
4.733167742879997898e-03
5.722195316653816248e-03
9.003034951701358382e-03
8.612928314136222840e-03
3.995759926384362328e-05
-5.374144031354061678e-03
-4.637306052466953418e-03
-9.399397523399740523e-04
5.041436614667848572e-03
5.085014661957391359e-03
3.709855656362334893e-04
-3.106932111133807201e-03
-7.007215774484268182e-03
-5.444824834158788068e-03
2.055401284755118026e-03
5.452768395363670820e-03
3.324624781572711480e-03
-2.158633918246659778e-03
-5.535850935046470953e-03
-8.919193011985082154e-04
4.481221780509643537e-03
5.740230343874857220e-03
5.919387821771269868e-03
3.879296984359072945e-03
6.058516059212205570e-04
-2.941689151505789621e-03
-5.044906357927994578e-03
-4.720670375968318488e-04
2.565750022227419012e-03
-3.173775498776279166e-03
-7.081391606820455244e-03
-6.489913144416180335e-03
-6.551588024703236535e-03
-4.528012564318361667e-03
-5.197507574942080138e-04
2.321333248587988379e-03
1.234664023859727896e-03
-3.463039480017875062e-03
-3.955114266125906927e-03
8.463152250159661910e-04
6.031578021892260687e-03
9.168664308903992644e-03
6.850870020547740816e-03
3.407897306678944836e-03
3.755603555965095729e-03
1.845114277080551124e-03
-1.635045838211063611e-03
1.141559301885309609e-03
6.714318350822618721e-03
7.226329294146095587e-03
3.425440784772586407e-03
-5.915382004568816307e-04
-3.350589819025498852e-04
2.540119414769778823e-03
-1.079408913586968896e-03
-4.353845103148328705e-03
-2.416081400760125217e-03
-8.905579851163799437e-03
-1.529101594092709994e-02
-1.038920729521008307e-02
-6.358448923992789450e-03
-7.835653314400805236e-04
7.954181900799680779e-03
6.478281898395638928e-03
-6.030344422420023639e-04
-3.718964648248415834e-03
-3.609697429661243035e-03
8.069826452265331518e-04
4.759910020056591813e-03
5.840113380507432712e-04
-4.343081749265745306e-03
-2.746067288717863025e-03
-9.628991754090851767e-04
1.028132447819916310e-03
4.674987802586862660e-03
4.416343164616057422e-03
3.360434188774975069e-03
1.945969343360556651e-03
-8.241241105068770586e-04
1.387049790845415421e-03
4.153995949685376950e-03
5.522731311467658430e-03
8.534351088040317140e-03
6.185716175172505799e-03
1.240658205236823365e-03
-8.018798281486548205e-04
-3.708921679649282606e-03
-3.747657898648811773e-03
7.912948556532509474e-04
3.135993123751872579e-03
2.122250158133364047e-03
-2.084649216890200295e-04
-4.092438803500920638e-03
-6.591543061603664933e-03
-6.093831020450121705e-03
-5.900600226528869216e-03
-4.076237981917474329e-03
-2.513173582101698496e-03
-5.992696141391398203e-03
-4.498418611531707773e-03
2.929377503704067541e-03
4.888668906290302013e-03
3.540855452224332938e-03
1.921734925765135804e-03
1.672664934643167687e-03
2.846215169945538574e-03
-6.499316619183751137e-04
-1.522453515873863810e-03
2.960116524710069714e-03
2.077289001943960576e-03
-4.259632932404503825e-04
-7.012119414248305397e-04
-3.221223718378057183e-03
-4.481600378643492075e-03
-2.727486140644964745e-03
-1.789821713628552769e-03
-2.045903174266126660e-03
-1.064748374838190344e-03
2.362966746897050049e-03
5.995571616700738973e-03
8.320995951901766913e-03
9.808774712058414974e-03
9.863396576747961858e-03
7.438608879639953091e-03
1.064186443155845738e-03
-7.359974441558825992e-03
-1.153867414235166915e-02
-9.499824196712235505e-03
-4.118219532427267425e-03
1.421923511999060620e-03
2.717746802132364921e-03
6.790548848982377005e-04
6.839857544472030797e-04
-3.928659434258770797e-04
-2.438295693632721618e-03
8.106661747692703790e-04
1.021908891442256141e-03
-4.785089528887469593e-03
-5.417702175358753494e-03
-2.164981050320786884e-03
1.545592966034745617e-03
4.733481976422502201e-03
4.954364974887158143e-03
6.034763797635510005e-03
4.041865205723640768e-03
-5.870621023712447933e-04
-3.048252128744208863e-03
-7.557081902028236174e-03
-3.671076096348318760e-03
4.771592507901484606e-03
1.014192621748371886e-03
-2.365625234605501365e-04
2.283976432170381141e-03
1.610904333234052790e-04
2.590064745726725157e-03
2.768743498347654101e-03
1.010316830736667859e-03
1.573883452581776188e-03
-4.587850455429548328e-03
-7.446301557292960699e-03
-2.178805614496783123e-03
1.996872325172513278e-03
5.643173164339089672e-03
4.513233311563968377e-03
-4.885609342799380854e-03
-1.192791171774444138e-02
-6.795980371783904954e-03
2.528215192708291922e-03
6.876570339799214192e-03
8.590619758222960839e-03
2.774230112221453843e-03
-7.544272456232601481e-03
-1.066133154183759868e-02
-7.370122090016180925e-03
6.075734437160298798e-04
6.297365127003860634e-03
4.931933633562762473e-03
2.910971859296419655e-03
5.972992874034705173e-04
-1.994850048913171525e-03
-1.579426273094741793e-03
5.328628611546651177e-03
1.132056518075088940e-02
7.326860320379242376e-03
4.494810690974045467e-03
5.832515631800849407e-04
-6.195372062584460389e-03
-1.623460303467742869e-03
2.389660588125301979e-03
8.728095960618718419e-04
5.763040011183249729e-04
-4.760302767855529270e-03
-7.069408354449999848e-03
-5.194996903067137899e-03
-6.962053274847973539e-03
-7.946608067670862807e-03
-8.191401102961510042e-03
-9.968187671826644544e-03
-8.871001731126124806e-03
3.603085013372738041e-03
1.601130583166289131e-02
1.301550826987579040e-02
1.008440991667307156e-02
1.008766181936893505e-02
4.115443081285110466e-03
-2.381546058524633826e-04
1.672562004164023994e-04
6.051410289837622775e-03
1.002653884022297950e-02
5.843553862143004152e-03
1.977635950845950960e-04
-5.385329012555842114e-03
-6.525970918731944549e-03
-5.766651595574329679e-03
-7.156270170017067431e-03
-3.449066632282630964e-03
-2.150236429375820737e-03
-7.207756707760063289e-03
-1.041039492835939446e-02
-1.009717858876648527e-02
-6.551141648334523129e-03
-2.687803869641926073e-03
3.062249684205748008e-03
9.846191366616015989e-03
1.146441732701722165e-02
7.431969616090780030e-03
5.342597320670727963e-04
5.707473063334148273e-04
4.766434558682150838e-03
2.658246143560635561e-03
1.450283211032083212e-04
-5.980889537425745917e-04
-1.997708443070316930e-03
-3.798736039577811120e-03
-1.032146052839885090e-03
6.315463291483709891e-03
4.304832179961026739e-03
-1.292339977553335576e-03
-4.270323081575932989e-03
-8.933472857922595406e-03
-3.233930308012104848e-03
5.894772524168159777e-03
7.246095495135877751e-03
8.251969911175199152e-03
6.934666569614086722e-03
1.059795867991634609e-03
-5.887391880175173696e-03
-3.446060366016674356e-03
7.589494543535217283e-03
1.230430878827182620e-02
1.377332750491568579e-02
1.129693139625682907e-02
5.897763013373813652e-03
5.535624888544818725e-03
8.445910159302893192e-04
-3.421513055718120814e-03
-5.079877085793124128e-04
1.242799890831047327e-03
8.468893826789729035e-04
-5.029251800766447282e-03
-1.093837526709226515e-02
-3.686504716916704123e-03
8.554845379996411231e-03
5.897181047891525418e-03
-3.819026972319371389e-03
-8.403740348510951690e-04
-7.280991554696039647e-03
-2.354859465357473161e-02
-8.578194853648917970e-03
1.680318615277347216e-02
1.766471097386636616e-02
1.391627467445350971e-02
1.849975975920493607e-02
2.398278304023566260e-02
2.560750663919135819e-02
2.164576455669004612e-02
1.270562380062827124e-02
2.399500641445041120e-04
-1.026095242609913194e-02
-1.912099972212405116e-02
-3.044870457920683532e-02
-3.805099274563687045e-02
-4.070867159629732585e-02
-4.834036075073160771e-02
-5.809250325306545421e-02
-5.544370913800646811e-02
-4.308156805090982561e-02
-3.228359217130331860e-02
-1.941658483663168122e-02
-2.026228421907209400e-03
1.170091693655149132e-02
1.908992409419687369e-02
2.802486051099145961e-02
3.960678209600275446e-02
4.124378385549678366e-02
3.588700999437710593e-02
3.504539236528834284e-02
3.072420495979874197e-02
1.684024471293884065e-02
1.220263345390100061e-03
-1.023567525140472653e-02
-1.666582983129245507e-02
-1.296650733132711890e-02
1.444044563619521944e-03
9.532129278267161346e-03
7.857235013314719727e-03
6.214842692885369675e-03
6.770125775933106063e-03
1.699287974838557813e-02
2.607757806388868657e-02
2.835695697449197930e-02
3.837367438553675875e-02
3.369366066328709219e-02
1.093875211349156287e-03
-3.763288859986052559e-02
-6.040441181944693205e-02
-5.305559297343209746e-02
-3.718780702503671903e-02
4.755166051410211932e-03
9.477516202777146181e-02
1.458098437112310408e-01
1.313682612554513407e-01
1.073644481818832180e-01
6.901843637154504718e-02
2.428341214473532170e-02
-2.644079460640541904e-03
-2.233289137942437788e-02
-5.637046623962071318e-02
-1.034721255425567338e-01
-8.553322289891662766e-02
8.416149665837577287e-03
2.040138296362910275e-02
-9.492685378422660580e-02
-1.848303055018996610e-01
-2.422622974173957999e-01
-3.725833926843237220e-01
-4.587199329416092874e-01
-3.834369216552737103e-01
-2.397026348010244112e-01
-7.700804646886570681e-02
1.177976917721123146e-01
3.114668256155261328e-01
4.009732642031098582e-01
3.295379574476854367e-01
2.688640326835656236e-01
2.772236268877502630e-01
2.103519490737992270e-01
1.186716287528011837e-01
9.187422330494178502e-02
1.409499077494368313e-01
2.285396943408458947e-01
1.839265875337685874e-01
5.110245178777363118e-02
2.101986793904371195e-05
-2.090820121814668947e-02
5.099744105335258550e-03
6.760633946483259049e-02
-1.257941254536050144e-02
-1.495598372823422895e-01
-1.331384383458583676e-01
-3.029682022058586069e-02
-3.072653511958024428e-02
-1.630277019841765151e-01
-2.686517118907250645e-01
-3.084678418479047113e-01
-3.488786158001668802e-01
-3.012791744715062059e-01
-1.527010930795757448e-01
-4.600182862586669162e-03
3.083008260684409405e-02
-7.131823650061232256e-02
-5.282908063024592538e-02
1.095666460670604962e-02
-5.846884876189435698e-02
1.729581732366596847e-01
5.415430068247075734e-01
4.406502284246932022e-01
1.836617747104312692e-01
1.095714721437600070e-01
8.461683016688434367e-02
4.880905790973150832e-02
-1.434613674131776997e-02
-5.251844061118456780e-02
-7.577770646614261085e-02
-1.170867657067444084e-01
-1.231981466837491906e-01
-1.096407453171972940e-01
-1.040480262253315608e-01
-1.229617835989609137e-01
-6.399838377057523453e-02
1.360291530141861591e-02
-9.007896696549996807e-02
-5.400972245727649751e-02
1.969906178672083674e-01
1.843128976978679334e-01
-1.457394856428951592e-02
-3.767848110145032708e-02
8.568188120862890722e-02
1.459970047002232540e-01
8.474402196635584528e-02
1.012925254337422240e-02
-2.039241258342082072e-02
7.558547234362856257e-04
-4.469885190916905032e-02
-1.254764273586070900e-01
-4.870934849432477509e-02
-4.671146569840600726e-02
-1.064386605783048112e-01
7.060302615891941858e-02
1.667467893588216177e-01
5.159263954033720817e-03
-1.382905925837230043e-01
-1.327561038279380379e-01
1.869310725347077262e-02
1.231824218338672949e-01
6.393774379504187089e-02
-2.046585222854899883e-02
-5.679439738745876987e-02
-5.440960753906017022e-02
-4.693067724583158129e-02
-3.505645282726541079e-02
-4.406844887294031690e-03
2.455815756404657740e-02
6.539072592373063042e-02
8.943582608494593522e-02
8.246962048392346423e-02
7.597240529152446409e-02
6.011189377413059254e-02
4.885192083794237528e-02
3.822911842537759369e-02
1.331009863024710388e-02
-1.282251155922387552e-02
-4.451936803599167158e-02
-6.418442459215595308e-02
-7.229932476614546466e-02
-8.458536016630291421e-02
-8.721208630074951673e-02
-8.421217415833659459e-02
-7.650299918322427117e-02
-4.930944606141497710e-02
-6.905024744830044921e-03
1.329618295292219962e-02
1.810890997132984150e-03
1.005611182712247247e-02
5.087187569539150522e-02
8.560156151682273007e-02
7.894310855354823298e-02
4.889678819868252535e-02
3.104813970866688796e-02
-5.201078482865659387e-03
-2.378823657489283205e-02
1.896207372320748291e-02
2.465696755843238205e-02
-8.461181861883574837e-03
-1.108975040730959469e-02
-2.950546087403856446e-02
-4.388988258079457028e-02
-3.573648159319329012e-03
1.462860243819379472e-02
-1.127571720955574015e-02
-1.106505421199950948e-02
7.700445062059350920e-03
1.899892972116987502e-02
3.617363996537857618e-02
4.485502938136534667e-02
4.159592591804353590e-02
2.946350955414092990e-02
4.282245075339709793e-03
-5.760873808063820406e-03
-7.049018892941348244e-03
-1.253434066550586715e-02
-1.453563126950252818e-02
-4.317838986258605571e-02
-6.655267848108176176e-02
-3.894087862828410351e-02
-1.669497354658045635e-02
-1.547129236624913105e-02
-4.284294182505570675e-03
3.753648716073965802e-03
1.965679033917736799e-03
-4.603279672184792254e-03
-6.422303682903706540e-03
1.899199251193932694e-03
6.108523573067361177e-03
5.747737785763452727e-03
6.140066826515661047e-03
3.038978905029324825e-03
-1.236813151284325797e-03
1.185177450428946677e-03
6.762207335550317680e-03
5.849711556710543610e-03
5.604977058831291103e-03
8.678471294600234934e-03
9.701846086523840257e-03
1.011243713637199025e-02
5.412817116319905419e-03
4.632311812889818893e-03
1.070465693871024485e-02
6.189580578989495319e-03
-2.223388276737695013e-03
-8.101246656033794444e-03
-1.081664155603478082e-02
-4.238621917563179659e-06
9.799192024318965216e-03
9.484181444512065559e-03
6.286580575960849272e-03
-6.219264732059697973e-03
-1.479980235269741547e-02
-5.694912605393417579e-03
4.436426493892495736e-03
1.171232879621276167e-02
1.743902248616279946e-02
1.507030511156582167e-02
9.172792460064988634e-03
1.751458777646284831e-03
-1.009121708250769857e-03
-1.155974211881239050e-03
-8.301191911198012308e-03
-9.619015431500800226e-03
-1.003218311122790023e-02
-1.354931122204059216e-02
-5.064172332850065683e-03
2.185498069430207805e-03
1.134810065231320851e-02
1.307977699736287414e-02
-1.983184956789545497e-02
-3.519771909624981598e-02
-1.172822704262883355e-02
3.665900532865665369e-03
8.556685115683533571e-03
8.447407468152579729e-03
8.132147117592416000e-03
1.400427990439180939e-02
1.582127443859879246e-02
1.773518126391498279e-02
8.228907395123271490e-03
-1.362021633036032686e-02
-2.109417505596153028e-02
-1.871036386601951373e-02
-1.527091099116924602e-02
-8.760519792942685069e-03
1.725495571786709193e-03
1.640904229108606019e-02
2.231468317305537394e-02
2.039922747489240559e-02
1.617903977916791691e-02
5.333652868384351764e-03
-4.509550365969135504e-04
3.042029686296324371e-03
3.157807875312618282e-03
-1.616675377576148875e-03
-5.902400929666633961e-03
-8.386273563114216359e-03
-8.750545583091864921e-03
-1.032193278907130897e-02
-1.311570840617150638e-02
-7.559203793729245974e-03
8.323069577688873080e-04
1.785289401523890108e-03
2.368755686909297404e-04
-2.016792153226824348e-03
8.690814665041466823e-04
7.166561653914740176e-03
8.479387646398188136e-03
1.055714276055882452e-02
5.986029393581823732e-03
-5.095687894395120252e-03
-1.076072656765021500e-02
-7.201161371620699685e-03
9.455847314764592726e-03
1.296068353254945828e-02
6.163060578436990733e-03
1.029804259912178895e-02
-1.117460565473919580e-02
-2.996448952861553716e-02
-4.397695071022194278e-03
1.042545696008580908e-02
8.109180985220674695e-03
1.183054738724072415e-02
7.010899142053010104e-03
2.889654306794602924e-03
3.274742432896170924e-04
-4.767966628633781533e-03
-4.756472818161621222e-03
-7.838490902446062364e-03
-1.174585684588996121e-02
-1.378601765108853489e-02
-1.748016385115382099e-02
-7.764515790784902449e-03
1.093571644624829163e-02
1.282721689438391828e-02
7.488244169238466794e-03
1.270715219487076990e-02
1.229841961988148609e-02
3.524691550563467581e-03
2.618191523481142730e-03
4.618766293370094554e-03
2.203230654999265795e-03
-1.948460251828931138e-03
-4.848137842942606968e-03
-3.412500805308729158e-03
3.518249450268457704e-03
1.022970593684482433e-02
9.460964788507129908e-03
7.408789995023945009e-03
8.857293020210547235e-03
4.561433388377765866e-03
-1.350150558119162479e-02
-3.181033358504976871e-02
-2.751696299883252955e-02
-1.440335714439308981e-02
-5.771701672784431206e-03
4.750527310859072906e-03
-4.136691149614769858e-03
-2.414014468322418089e-02
-2.023030674963879200e-02
-2.047898576695675408e-03
1.094273592695103360e-02
1.063769700871337702e-02
3.361066792733148449e-03
2.852050608041692154e-03
5.389557064002801004e-03
8.069360067642970466e-03
9.823066745707140224e-03
9.984845466514435594e-03
8.310589614596918667e-03
3.948259742464469216e-03
3.999375255579656722e-03
8.450384284980742150e-03
1.672115180664969503e-02
1.884100643703102984e-02
9.298740019361225947e-03
7.921839532363320058e-03
4.581699644334356544e-03
-5.136038572538189489e-03
-2.240433760776436647e-03
-2.319339926912879907e-03
-6.431049205623639957e-03
-8.842725978895127348e-03
-2.045786796372156199e-02
-2.654097606459585729e-02
-1.900354456126958358e-02
-6.692432137707243073e-03
4.534479696751268774e-03
7.925011608993243889e-03
1.463241063964054213e-03
-7.833035227055409541e-03
-8.952349889163005447e-03
-4.151663578278147471e-03
5.433717539642734379e-03
1.401767014903030663e-02
1.067124674231081927e-02
5.479937974842987412e-03
-1.445839991945792151e-02
-3.803727830045367658e-02
-1.833564360724233844e-02
9.041799985912007953e-03
1.022691741754372559e-02
1.027402766863049800e-02
6.976889102242143578e-03
3.870026088247764933e-03
8.130184950078814601e-03
6.836793748820552304e-03
4.913847991103712821e-03
1.219523125917182892e-02
1.917987709768570470e-02
1.006160512057074560e-02
-2.101656768742475416e-03
-1.271852914268968007e-03
-1.131177470419099645e-03
-5.640738964395216638e-03
-1.024231234815792951e-02
-8.712159026900713130e-03
-1.238765788916189933e-03
-5.199867325312156931e-03
-8.304266507134942799e-03
1.815484644081829559e-03
8.395061828636798604e-03
1.128514122693895574e-02
8.883828179348754461e-03
-2.104368850118730743e-03
-9.037035297627915922e-03
-1.097364577114823964e-02
-9.329750979615721376e-03
-4.901267848882498966e-03
-5.902363933083156627e-03
-7.378076794168784459e-03
-4.395287205333991455e-03
-3.337236087479398660e-03
-4.200192102511489476e-04
6.652690092591096414e-03
6.446994515153557127e-03
-5.617199834852895386e-04
-1.039504834083760949e-03
3.833309830206889368e-03
3.704698073189616452e-03
1.705438346680151259e-03
1.908767783354708373e-03
-4.618331957324637465e-04
-3.683619743947944437e-03
-6.589858582183686329e-03
-5.174091708136140458e-03
6.309415725558407267e-03
1.350500735515175466e-02
1.482092984332761612e-02
1.314999223618378531e-02
-4.159163148803683360e-03
-1.083062479663393467e-02
3.953366311102653879e-03
6.098500616534636466e-03
4.049574041186215258e-03
7.998897523101965862e-03
3.364533656993956481e-03
-4.258411467963610711e-03
-1.307693549633686010e-02
-1.686812206576874043e-02
-1.137489236614479954e-02
-9.390646453980302025e-03
-8.329930087428131721e-03
-6.353985822367788812e-03
-1.799583499766027606e-03
8.620377665589522981e-03
9.913467082609249761e-03
5.608926160592301799e-03
6.059642935279565233e-03
5.345912896264203885e-03
4.943096220933407975e-03
1.281795157202934632e-05
-8.393823243120145453e-03
-6.885391022402932194e-03
-6.280547302166388521e-04
9.430911567614519778e-04
-3.704159041568194470e-03
-9.232773131997662475e-03
-7.540818235883707879e-03
-2.117321374967430937e-03
2.443312493517813856e-03
5.643124451165511431e-03
7.826776451261972800e-03
9.216215926656758095e-03
6.529454498568074486e-03
2.126761091609417550e-03
9.492932182602707844e-04
3.227468392976438546e-03
3.671594219311687547e-03
-9.304290048827556364e-04
-2.978949413142899499e-03
-3.864618642772002077e-03
-6.468958656249236723e-03
-2.735300285273338777e-03
1.645826746387368334e-03
8.204742598990286953e-04
-3.548612304578339580e-04
-2.157656356936640818e-03
-5.226860016394226961e-03
-8.002910126380808828e-03
-5.863444817493230869e-03
-1.818237178706708828e-03
-3.290447398752233219e-03
-2.087655009928510164e-03
5.796398067474685910e-04
-4.303172693226671452e-03
-5.016368633650488199e-03
3.923832511253185981e-03
1.238318240270934283e-02
1.532867269204224100e-02
1.194211113222823535e-02
5.551246165761094219e-03
3.741885629250025266e-03
8.520287326688580354e-03
1.141847422782126323e-02
7.493065083930007184e-03
1.557798719195021674e-03
-8.876352870806332104e-03
-2.446664593862559259e-02
-2.965637035982688838e-02
-2.069406189732713938e-02
-1.166563101088342186e-02
-6.756208283578401738e-03
-4.515224586087170089e-03
-4.200947267180764506e-03
1.105985122427250496e-03
8.614332317140574805e-03
9.638675188364205504e-03
8.104773978224842287e-03
7.260572550592933085e-03
4.506606273498648015e-03
-6.319328729825009379e-05
-2.722935130377789406e-03
1.228496749036095664e-03
6.886043027199848822e-03
8.598614124259142122e-03
9.724489092409815266e-03
8.876641877351406154e-03
6.316690490590588791e-03
4.196146707103776130e-03
-3.159523800919991372e-03
-1.028127634069525911e-02
-1.146970124138132693e-02
-1.427096173387797963e-02
-1.411567396295974192e-02
-6.753433853730335217e-03
1.135329938567073912e-03
7.400922406499784237e-03
6.746720451140983399e-03
9.469516899560092302e-04
-3.600080148562165034e-03
-1.242319028886535066e-02
-1.993870955841276632e-02
-1.545947344025362657e-02
-5.815405266911934448e-03
6.996193182411898680e-04
7.377962107386811311e-03
1.497556586264368016e-02
1.288896016376696665e-02
7.622448329438635643e-03
1.069810783060391561e-02
1.087085423172649314e-02
1.060327456108051992e-02
1.201776025329100855e-02
5.181812243643277478e-03
8.642548838630813128e-04
-2.378757263933225542e-03
-6.720966868521438889e-03
6.015035809735504949e-04
2.020540034431865268e-03
-8.652850462936480941e-03
-1.270468742416941930e-02
-1.149962914316679519e-02
-5.864287769606115960e-03
-2.477548491551016894e-04
-1.324418599709803468e-03
1.160477474802480789e-03
2.196277505093852979e-03
-5.142554025084123716e-03
-7.729016517118881581e-03
-4.879732151694704881e-03
-4.471977373675510917e-03
-4.490749593020967011e-03
-4.315789246496318579e-03
-3.556927779020193931e-03
-2.827412671727762890e-05
1.877461221633132393e-03
3.641563633972200262e-03
9.861027024522159984e-03
9.879424852885600183e-03
4.487807249078913652e-03
3.968969278117148378e-03
-5.782423109390587594e-04
-2.511001033392469030e-03
8.373138963329956191e-03
1.158664539494170566e-02
2.009008499873044928e-03
-1.083153474261662474e-02
-2.143645153449055124e-02
-1.493572274982842008e-02
-1.412270459675469322e-03
-1.177882025982088980e-03
-3.872203472194607476e-03
-1.802784237337447856e-03
-4.220372801079625390e-04
3.411793739584705748e-04
3.397589480856302597e-03
8.328624449416210593e-03
1.167761771413528861e-02
1.472352536321141353e-02
1.552837119799575609e-02
9.428735273803086694e-03
5.015043595658979451e-04
-5.856912602828042401e-03
-5.460068303472959649e-03
-9.185492595318719630e-04
2.522775461449215315e-03
3.518338021294241738e-03
-3.416287699309851402e-03
-9.675445687186883317e-03
-7.755479548276467648e-03
-7.904515138956801773e-03
-4.049119821439948509e-03
2.590226163902312022e-04
-6.054546910441328290e-03
-4.200319909096583704e-03
2.269432935463747310e-03
2.098111107252617104e-03
6.460352262514132762e-03
-1.830642769058498038e-03
-2.225085751778501514e-02
-1.741310397542939620e-02
3.583576824452816556e-03
9.867831471350169484e-03
7.024359015863774688e-03
7.683021658808408816e-03
8.345828429404440404e-03
5.765192024091880113e-03
2.993550391858643394e-03
4.544524803830558629e-04
5.011718727351314670e-04
4.712828076381008792e-03
4.274021209240393485e-03
-4.929818703097172371e-03
-1.144155462933459100e-02
-7.111064926282320217e-03
7.821830714692743890e-04
5.271626112569314723e-03
6.086235584650897742e-03
4.100250034592432813e-03
6.421038271686584260e-04
-4.341396263860140305e-03
-7.723413832188112844e-03
-6.517520308340101452e-03
-1.677296052207513156e-04
7.672078038448650224e-03
6.513385304628400638e-03
1.164800641750193691e-03
-2.984377949935645633e-03
-1.011729646506042551e-02
-1.014637289188445764e-02
-5.431925848251383838e-03
-2.123571850920072130e-03
3.902085914790420513e-03
4.116656118146370079e-03
2.515945922561635059e-03
4.803683748286815755e-03
7.948799615317594935e-03
1.152746017068545861e-02
7.168190703485568041e-03
1.759405393823407389e-03
-1.163823522830078087e-03
-4.432919885723906120e-03
-3.378777644938680061e-03
-5.292534976192585748e-03
5.848233241782774781e-04
7.291144141757571230e-03
3.645111345659160940e-03
9.358076310216949245e-03
-4.332164745468796395e-03
-2.402823283803692464e-02
-3.381718042933690594e-03
8.914416591880783627e-03
-1.561167064929885710e-03
-5.905326018112107105e-03
-5.081084455541532048e-03
1.326047785026283031e-03
1.106926292593662237e-03
3.854649495936595532e-03
7.669214645508020019e-03
3.785552224632206687e-03
5.864010068377985795e-03
-1.852935971046180963e-02
-3.708487514891527226e-02
-4.676575185223070912e-03
1.177985057043139105e-02
8.611372143316585112e-03
9.333683654219753628e-03
-3.223611517355280068e-03
-4.040442981187893079e-03
5.832650826257130411e-04
-1.886550421020197731e-03
1.307174496862474698e-03
-5.181300204269096224e-04
-7.629820130130274443e-04
2.361811034165252343e-03
1.941535222267076581e-03
4.412573198921316414e-03
5.922091132215931766e-03
1.014510447138426870e-02
1.364294531463635697e-02
7.157684190670392764e-03
2.103729673554243992e-04
-2.521622688581946618e-04
6.571151646350041967e-03
1.179985331367649701e-02
7.776579767751993534e-03
-1.661896761263410112e-03
-1.224110847560867799e-02
-1.337699662487589619e-02
-8.612915736845607600e-03
-7.355205447940839879e-03
-3.744773286661997810e-03
-3.372800985991471646e-03
-6.870733098428499254e-03
-4.815037880443344409e-03
-2.141069247457652244e-03
-8.004269677811554767e-04
1.054174705199567097e-03
1.739427710144354983e-03
1.425255758391591552e-03
9.643732279505781496e-04
1.255916329396728251e-04
-3.463169295210022109e-03
-3.355393335184589636e-03
2.217366030753532228e-03
2.533180126639860818e-03
1.031826625543841563e-03
-1.338963087780401309e-04
-4.132346099721643552e-03
-2.557754275413555867e-03
1.617555185666442845e-03
4.803156786786726314e-03
6.331767766345278332e-03
-4.203766727551265167e-03
-9.640241581976060140e-03
2.039828183605709236e-03
7.237665849377708689e-03
8.413583367545003633e-03
1.240320280217185878e-02
6.040497489898839084e-03
1.255259154807013668e-03
7.326913944538333617e-04
-5.254813687670341349e-03
-2.027900252631388914e-03
4.488563637006779891e-03
1.144113353478672969e-03
-4.843683746031229300e-04
-1.285828343735050550e-03
-2.862585125324307311e-03
-1.563293329215825062e-03
-5.240566282446327932e-03
-7.059478572998971295e-03
-1.269078384893714212e-03
-7.612838147304588476e-04
-5.232820915915230818e-03
-5.771771911811221338e-03
-2.520861512411304035e-03
3.828270075505245656e-03
9.495590430779627181e-03
6.466135323953547606e-03
-4.715944044492033338e-04
-3.378356454471955622e-03
-5.385506394257412281e-03
-2.600804825251862035e-03
4.614931718401548387e-03
5.245933390265625738e-03
2.047772897308606545e-03
-1.769291343235127045e-03
-5.096641592267331378e-03
-2.075638875999829842e-03
2.495678368029777858e-04
-5.408674100285573282e-04
8.384012572975578373e-04
2.327575031985604779e-04
-1.771106079585052246e-03
-4.188601769346289930e-03
-4.492990423380480505e-03
3.421596768053280536e-03
8.504355212863435112e-03
5.732768458793569173e-03
4.524400646870065795e-03
2.846416549888697994e-03
5.359373046954362015e-04
1.299381531347211082e-03
3.367227870183188074e-03
5.618220245689322344e-03
3.749107118957488612e-03
-2.688697931955579858e-03
-9.473967053545835973e-03
-1.324102914433621797e-02
-1.102028560114584090e-02
-6.891055344843123771e-03
-2.199460109664355591e-03
2.133327008960690663e-03
1.515450111799480047e-03
1.614087128097128551e-03
3.019105761026707156e-03
1.511403660445366720e-03
2.403366046102265764e-03
5.601048806448188574e-03
5.714249238555561827e-03
1.167143898674919463e-03
-3.832947185060327916e-03
-3.074771040096836890e-03
1.279359510792091661e-03
2.680487833703139137e-03
1.218635530182396497e-03
1.962192060461095955e-03
3.851052652789868809e-04
-6.085523591861868344e-03
-5.960213089120021922e-03
1.330324907868713716e-03
7.686285164024943967e-03
8.102633094095965105e-03
6.015120594540213604e-04
-6.472693102247444735e-03
-3.915811774393504127e-03
9.444131836745755723e-03
1.693811233758784132e-02
1.185296588596924071e-02
7.250150536803270582e-03
-1.299586498268763025e-02
-3.428203366574646138e-02
-1.586199641399350241e-02
4.991211668179994579e-03
3.023893859815130272e-03
4.214479792727098516e-03
5.165283849343422530e-03
3.448243032335490763e-03
1.960340936091139585e-03
-2.331703523608819571e-03
-4.134840060853486182e-03
-5.201711153365801317e-03
-3.486162490824995779e-03
-9.849200171364144892e-04
-2.393643133902226532e-03
-1.101333263949605575e-03
-8.780480264628329895e-04
-9.760211309837083481e-04
1.675506982295451360e-03
-1.668771054952087034e-03
-2.706453813127682097e-03
3.063316629574790260e-03
3.465076449957139784e-03
3.683270703184453581e-03
7.486247651417681642e-03
6.126351869987826070e-03
3.296670778564473551e-03
1.280458505666894585e-03
-2.539334082155476728e-03
-2.230125157567322807e-03
9.747935876353692412e-04
1.007978866442874565e-03
-2.230302399044773766e-03
-6.066527204672831144e-03
-5.290805653540265295e-03
3.332684443716299417e-04
6.676003791490714781e-03
8.993800991838989123e-03
6.657427391969313393e-03
4.224392012404700955e-03
5.961454455448520623e-05
-3.141605148388959979e-03
-2.021836417284987326e-03
-1.382629779040977797e-03
5.388459882133497282e-04
7.717511759982873323e-04
-3.270222290047628856e-03
-4.624244305190113209e-03
-4.668682639452539918e-03
-5.438386709843326394e-03
-5.314081026900879107e-03
-3.491464921642563161e-03
-2.853768579980692395e-03
-5.875523461520606137e-03
-4.588075420861796420e-03
1.520530302262720034e-03
9.636330383867125829e-03
1.684761829359467458e-02
1.019082171013588160e-02
-3.796492048637804557e-03
-7.509322236828510494e-03
-1.091075187333473548e-03
3.642852820220799075e-03
1.330578369253032677e-04
-1.271917249358230041e-03
3.778355160044321931e-04
-2.064106157849754548e-03
-4.891024255021073595e-03
-5.643804634011466252e-03
-1.380362199606425134e-03
2.211462694041156120e-03
2.369023426039033094e-03
2.271554753842175596e-03
-6.598964519083657700e-03
-9.359509419709978809e-03
1.360632201691038511e-03
3.628477676934560667e-03
4.197219580602799642e-03
8.080347475874695429e-03
6.956540227390573157e-03
5.480328530097964244e-03
6.221799080998746418e-04
-2.361724119721453179e-03
1.244563810963239883e-03
3.752286722852664303e-04
-3.008360811214573233e-03
-3.284331414861016776e-03
-2.881018292614090023e-03
-2.987345909828324850e-03
-2.186107186958742392e-03
-1.785670850372845055e-04
2.302903979779011637e-03
4.296045900786199176e-03
-5.001390507973057370e-04
-6.266536311842092581e-03
-2.985332085720149124e-03
2.185508600741305728e-03
7.918396395688538647e-03
1.012316681906280484e-02
2.431200248918068563e-03
-2.978814907441658909e-03
-2.653747949527831499e-03
-7.628943773800837434e-04
4.671087922445374841e-04
-1.874282851162153464e-03
-1.094989239521776750e-03
8.673989689223703071e-04
-8.454110045534178781e-04
-9.466911871301485551e-04
2.315927550939927862e-04
1.590809923542239694e-04
-3.254355381891303745e-03
-5.545479592653836456e-03
-3.144318916909819017e-03
-5.423742754786168088e-03
-6.623333780720421816e-03
9.159406918493103334e-04
5.044617457834875418e-03
3.788983593319221119e-03
3.223814050757447050e-03
3.489447183868715514e-03
1.489798105565122476e-03
-5.266078864288631541e-03
-6.237098925145592027e-03
1.942233383309547971e-03
4.852561193818935754e-03
1.398664481253178134e-03
-7.308821336402734079e-04
-5.578870652548400177e-04
3.144278064263489846e-03
4.845406440536710428e-03
-3.485910724015051304e-04
-3.809816223870803129e-03
-2.445692229985248906e-03
-4.421953220939888948e-03
-8.355405559876495636e-03
-3.708643319681419540e-03
7.709275869099445865e-03
1.338963312686477884e-02
9.892889212844256305e-03
2.538314523203744066e-03
-2.789510073812520152e-03
-3.072885956218843282e-03
1.250091236777915683e-04
4.352386694691410055e-03
5.050785715997247946e-03
1.498848085122531527e-03
-1.406869076286711585e-03
-4.546635843776756190e-03
-5.064502929365729579e-03
-1.945841280498835767e-03
-3.745627956638959959e-03
-5.564078809200199982e-03
-3.189409823349499944e-03
-2.386155475319123517e-03
-1.520991823222004637e-05
4.406538701426226771e-03
7.704016644479653834e-03
8.317566687440802395e-03
3.204752203732304846e-03
-3.710498413190856104e-03
-7.788691128625462208e-03
-8.607539432778284552e-03
-6.595321439976063738e-03
-1.275918227378967018e-03
6.037803009002381746e-03
5.744580337364408977e-03
-7.042343678421850769e-05
-1.053778096971994893e-03
-2.192319791599637267e-03
-3.291718634491149192e-03
-2.863245842042041285e-04
-6.614923952160316287e-04
-3.613377908867948865e-03
-3.965013166916963629e-03
-2.304795297563086258e-03
1.630249757160679488e-03
4.535822711317717519e-03
5.721621841396319456e-03
6.468377570588862598e-03
2.722878954352599308e-03
-1.943205476893131471e-03
-2.567620451212024400e-03
4.844933343219570655e-04
5.532197272305221757e-03
4.356964113980225928e-03
1.182995907517676729e-03
2.677160476464703672e-03
3.092355610362948308e-05
-2.063546607206910490e-03
-1.106554904045566317e-03
-1.730230425063753645e-03
-3.849916891566227198e-04
-2.880697476116801572e-03
-2.096455066306439179e-03
2.146527356094818199e-03
-2.056366021391903883e-03
3.590766360986513261e-03
1.170063454226792643e-02
5.197355714405282184e-03
2.145487082614471646e-05
-3.391732570069475299e-03
-2.989200404127630249e-03
2.132014230891422736e-04
1.448933508434774222e-03
7.084832575422459790e-04
-2.203946381911315450e-02
-3.352651526040684171e-02
-8.059351685172203017e-03
2.950733150627559559e-03
2.543354875472550632e-03
8.049893520965878749e-03
3.647539105648444843e-03
4.143775871332788623e-03
5.131460101787494246e-03
3.528491702595339791e-04
2.597462459000490862e-03
6.036687309709582415e-03
8.590152713413283514e-03
6.948795514049269095e-03
2.491508435905364673e-03
8.935707535609425933e-04
-1.515539430473723933e-03
1.271789203825867375e-03
5.528522673092345005e-03
4.477585318394979724e-03
1.697588517925637365e-03
-3.483056191438219009e-03
-6.597642602107753329e-03
-6.333069343830687210e-03
-2.688103901748008576e-03
-5.580188162596934863e-04
-6.553380627881151728e-03
-7.888577133409992170e-03
-6.104387495227223126e-03
-7.195040497994153496e-03
-2.690970625189798796e-03
2.217723446563752560e-03
7.298450502673540542e-03
1.272168444306110910e-02
1.194729942895033335e-02
8.016583821737255366e-03
2.601400476937372214e-03
1.831730400389811530e-03
4.571417719297915863e-03
2.748677563147298043e-03
2.199339744189433409e-03
2.201162413702936922e-03
-1.913660010210913032e-03
-6.506013039570407441e-03
-7.601763455512036173e-03
-3.674329988795824349e-03
1.019276536303715579e-03
-1.643349309201616246e-05
-7.354013043716234148e-03
-9.547608456082896239e-03
-7.089081238442727050e-03
-7.629495856345104229e-03
-2.620267905848217959e-03
-5.573882027360751307e-03
-1.688661764723906403e-02
-1.326694220229180862e-02
-1.089949566914599766e-02
-1.079933837867912312e-02
-7.378408995866031495e-04
5.581275730987125122e-03
1.021866556474669216e-02
1.452361962117810004e-02
1.674801441807605498e-02
1.707778484436927452e-02
1.457132329548274825e-02
1.842464950731283885e-02
1.831749300418665516e-02
1.143684858158678166e-02
6.975608359203087742e-03
-7.893488239395620235e-05
-2.788080370657300498e-03
-3.930052367755043283e-03
-6.593187545516130885e-03
-7.600858809632191418e-03
-1.576359228156362646e-02
-2.099173014128027231e-02
-2.081720345579078646e-02
-1.723273049191677633e-02
-4.559203208857323317e-03
4.537417879404508601e-03
1.207677566053312612e-02
1.827670944975138753e-02
2.009973308021409735e-02
2.656242360238348851e-02
2.679486094391332618e-02
2.407833846487162158e-02
2.336614491103733426e-02
1.300299295798833070e-02
1.364077653803895136e-03
-8.936429783035043997e-03
-2.038371757395696787e-02
-2.754007651500732859e-02
-3.115697223683817907e-02
-3.580326094857339686e-02
-4.391025896358496244e-02
-4.741908712312749297e-02
-4.387648741316185069e-02
-3.430344904182745791e-02
-1.906360915710775955e-02
-2.523047147081833308e-03
1.462768053440662887e-02
2.389691175537739937e-02
3.223512007860120793e-02
3.803986506339479545e-02
3.305921139875347969e-02
3.982504777724667905e-02
1.973801218099851401e-02
