2.290455180060885221e-02
2.369805508827722840e-02
5.030856147798704048e-03
-2.814616471775682575e-03
-1.320991020988073958e-02
-1.894957009937327588e-02
-1.878478403619321738e-02
-1.897768505280102158e-02
-1.348519016783229080e-02
-9.686790004328864334e-03
-1.010512186891208281e-02
-7.095594295100809447e-03
1.225016468087380917e-04
5.825566012285673251e-03
7.415717628908475266e-03
9.088916471950559198e-03
1.122662702187119353e-02
1.115839874315195483e-02
1.013641631378448156e-02
1.245162089707632473e-02
1.340323877568651983e-02
7.944882836163942239e-03
6.022645808812589034e-03
8.138932269480007517e-03
8.218533998144506372e-03
5.982088350252597747e-03
-1.134223304832969589e-03
-4.293671905206747005e-03
-6.932410200663496631e-06
-1.392492564522223187e-03
-9.192989832930242508e-03
-1.123508462393673669e-02
-3.056870302196808969e-03
1.657544467975250726e-03
-3.086248026483245054e-03
-3.067942066421369858e-03
-3.882124043439611968e-03
-1.733210574336924853e-02
-2.103153150796001347e-02
-4.196286653918559519e-03
5.344073126680101704e-03
3.131849226250239381e-03
3.854037123545709081e-03
1.439995560828965637e-03
-9.934953269350591584e-04
-1.188908517438214910e-03
-3.574652581631333152e-03
-4.452150568734749496e-04
1.881335428479165815e-03
1.351986548675729967e-03
1.873267341180806988e-04
-3.542289192585445536e-03
3.421134653153517970e-03
7.916037844827691211e-03
1.117781815519451648e-03
2.535845229141236914e-03
5.031360347790104354e-03
4.581923379477032161e-03
2.650731313053546982e-03
-1.809558009400295386e-03
2.128241777491795238e-03
3.957329819684309892e-03
2.305229111698254597e-03
4.855319360714830702e-03
3.644066605578111587e-03
4.859188115820324214e-03
4.928344249453220534e-03
-3.397643774036714602e-04
1.351787707627449277e-04
1.246968514106419320e-03
-1.499469580963391996e-03
-4.295192637515412616e-03
-2.115079106783377891e-03
2.801705636743451189e-03
1.145180714652849034e-03
-1.747202809940811034e-03
-5.571593822292373634e-03
-9.363635189618786311e-03
-4.428254114101692028e-03
-3.334516164857618159e-04
-1.360911808623619474e-03
-3.834580408437104643e-03
-5.586353173075153666e-03
-3.245667005164855345e-03
-5.770328765902625091e-03
-9.991324350262415638e-03
-6.960492171341640943e-03
-2.656384400592305770e-03
2.372880230334906051e-03
3.781526240358651716e-03
1.033512210650208533e-03
3.237299659657025090e-03
4.297194521928632098e-03
2.567415039819281961e-03
4.176998943456401020e-03
3.333282796814101157e-03
6.795839412485002451e-04
3.287659897708399004e-03
4.802807578831306753e-03
-2.735441960874269171e-04
-6.492094948426762593e-04
6.592239291694282181e-03
5.616114798308048314e-03
-2.459675751691761062e-03
-2.032232630625648191e-03
5.008523508250339352e-03
7.687645703911809812e-03
2.655977734102011722e-03
-1.616597336838495680e-03
1.158657964828320539e-03
1.153194314817347285e-03
-1.700629964323612225e-03
1.994483194826377273e-03
4.630032714584336219e-03
1.197738000649676768e-03
-3.642579516470876222e-04
5.495580698009958336e-04
1.580108659190708356e-04
3.170052943887076598e-03
1.039698513278045772e-02
6.110298976666840402e-03
-8.374017937201549966e-03
-9.678376271167519682e-03
-8.042811634208283517e-03
-2.149695737561881440e-02
-2.635705055480066367e-02
-1.157380811742541628e-02
1.458735737995500931e-03
5.903307625867170588e-03
4.242692305269131318e-03
-3.440265626003924989e-03
-8.208516688034907596e-03
-3.998082390522038343e-03
6.137244018448891753e-03
9.826145797273888940e-03
-8.388195521658550107e-04
-6.542689648968510845e-03
4.513300581174297635e-04
1.602641112508624080e-03
1.387920645151080080e-03
9.037255078153255683e-03
9.546946166927359687e-03
2.058805799335404647e-03
3.758190135772351923e-03
9.129067567913429215e-03
5.125742837883554177e-03
6.060213496450492753e-03
1.604918499208351015e-02
1.866831839581272259e-02
1.406190651706112904e-02
5.450409787520629247e-03
-4.001060930180410855e-03
-8.034757195242011804e-03
-9.531104344185159852e-03
-9.684341622691404472e-03
-1.312754623176708331e-02
-1.453283232588821645e-02
-4.386138310313791519e-03
-1.339538115096067369e-03
-4.433305970600139555e-03
8.747353959685779876e-04
-1.646159401545538910e-03
-9.203904773356178307e-03
-6.042866040542532041e-03
-1.741938347134687048e-03
-4.139384923193630992e-04
3.182163806985664496e-03
3.731249953976391222e-03
-1.943860355184503065e-03
-3.041629644301155084e-03
2.000202143776044262e-04
-1.028534697302715137e-03
4.096913145663113286e-03
1.053822420123733117e-02
-6.923522345914684580e-04
-1.067467732909322536e-02
-4.289459427917465158e-03
1.494989734613842150e-03
5.237292040022088237e-03
1.054851891318856448e-02
7.911922029334914758e-03
4.063550536006380748e-03
4.976659740604652722e-03
1.134775744687122924e-03
-5.026286330574750334e-03
-6.486771264325938424e-03
-2.023903813665426342e-03
3.443348381222075764e-03
2.540614979239192838e-03
5.157613910142330336e-04
-2.624480603179760695e-03
-5.171985285698853935e-03
1.942295704413191538e-03
6.509030407503840418e-03
2.718838583076036135e-03
-1.435599766693017526e-03
-3.178178049517227377e-03
1.152752694567985535e-03
4.059689910653264608e-03
4.073518828436461722e-03
4.536939731495387949e-03
-1.446318483304869906e-03
-7.696794937263307622e-03
-1.050647655366172308e-02
-8.526658185853920255e-03
-8.845229865401984908e-05
2.196318989708324898e-03
-3.120792247999580452e-04
-4.846100738067246096e-03
-1.086013659978232737e-02
-6.019439767979428008e-03
2.440556928145512679e-03
5.420401511987409104e-03
6.005367661374898594e-03
4.738046804550579034e-03
4.923644152981817776e-03
4.355942066301149267e-03
3.965257491981216860e-03
3.420618027245748028e-03
-1.994005493822922741e-03
-7.611439936351407877e-04
3.869384043114077864e-03
-3.071212681323408095e-03
-9.847435987915492336e-03
-6.805723012487309431e-03
9.891162067266192834e-04
1.086008972462752971e-02
1.489269005985907959e-02
1.128598194468019740e-02
9.314344460437239126e-03
6.853398508247033130e-03
-5.419139189484492233e-04
-1.048790301953172154e-02
-1.871960470930705486e-02
-1.677229379217465982e-02
-1.023534112695669018e-02
-6.280654056949067088e-03
-8.998138028133980748e-04
-1.101959444334512826e-04
6.705123883057265014e-04
4.576017468423583708e-03
8.163284300429229923e-04
4.198485587591307299e-05
3.915704946757420611e-03
3.604178075859055998e-03
4.794866615756484922e-03
5.787201981717036287e-03
4.816331578476870656e-03
3.232928689578060274e-04
-3.774637726936920772e-03
-3.384266517373672907e-03
-5.081302733661714928e-03
1.083074097135802065e-03
7.737748697173562826e-03
4.028507401452479514e-03
5.856837108361424155e-03
1.999681504659068989e-03
-5.277368742073557280e-03
-1.043351756772575899e-03
-1.845817575101910786e-03
-2.505963773131992828e-03
1.218293807275321527e-03
-7.228006955590512246e-04
-2.703757980628307064e-03
-3.476550877177169568e-03
-1.521210806175805853e-03
-2.011209084199009874e-04
6.003222291929349516e-04
1.929424734188873005e-03
-7.266617881489512848e-03
-8.868326003941278887e-03
3.143227771791754811e-03
4.605388346248098959e-03
5.402533535111002545e-05
-1.674521009268740718e-03
1.658264851000186340e-03
5.930411612557218506e-03
4.829811810505982902e-04
-3.720754753446365790e-03
-1.798395096981134436e-03
3.528345972308061761e-03
8.431778630349636219e-03
2.830048609693762863e-03
1.442895111092646395e-03
4.694580052059623386e-03
-1.469200510777678333e-03
-1.616831186840866127e-03
-8.778689646647657840e-04
-6.895033467452505588e-03
-6.442701676610198972e-04
7.442480191646744063e-03
5.550272925063915418e-03
3.178610109255545265e-03
1.038442684462198388e-03
9.349558464710688117e-04
-1.756413285794744279e-03
-6.027915675278295096e-03
-4.015028983412743946e-03
-6.388509571518811991e-03
-6.248289450611591196e-03
1.732772401243404432e-03
-6.327777607121864425e-04
-5.817791023758880388e-03
-5.286889343722902916e-03
-4.658148048625338107e-03
-3.669682205504832401e-03
-3.936104992634918871e-03
-8.616592135789454617e-05
5.742262771722299493e-03
5.864438122696289356e-03
1.695783798017867902e-03
-1.540773974507959410e-03
4.099826791862072432e-03
3.470993292944169265e-03
-2.815792680073591746e-03
5.847244461446570764e-03
5.721969335574184252e-03
-2.525630510147155051e-03
5.150887254878824470e-03
1.019972833713874046e-02
1.224659673083089775e-02
1.502575020256117187e-02
3.988429782542545453e-03
-8.266228107929216376e-03
-9.696493719272881312e-03
-7.419472880472083136e-03
-8.586379333294424931e-03
-1.052849250109632630e-02
-7.874764633754366069e-03
-5.016988727218072222e-03
-2.839677011525912256e-03
-2.734081768188255271e-04
1.464917898476405080e-03
4.511241820622889122e-03
8.067140373928092037e-03
6.295181204165938883e-03
-4.044669535044675100e-03
-9.671092040342610385e-03
-2.879257380831452395e-03
2.357606300727242525e-03
1.073627443123227523e-03
-1.788308753732270780e-03
-3.815343397026776159e-03
-6.271251417482309395e-03
-7.137333285766036747e-03
-2.288961305889883520e-04
6.570065925152151001e-03
1.050304743578245846e-02
1.316365456552829466e-02
1.042268342084636326e-02
1.067327193594621096e-02
9.160123075257221512e-03
2.943471715171112023e-03
4.779035341972794645e-04
-8.946741192737863238e-03
-1.627733514671661150e-02
-1.092222421664545626e-02
-7.205018476553619149e-03
-4.930505507699219428e-03
-4.272445827110913329e-03
-1.867976708979212719e-03
4.879627748374778910e-03
4.429126108535049247e-03
3.663753583038410581e-03
9.677742024726072780e-04
-6.434949820013078844e-03
-2.997121846600836470e-03
4.749668159002290576e-04
7.048669034874135292e-04
5.507109365844927752e-03
8.790525784567814567e-04
-4.906192272702124095e-03
-5.846110248482547104e-04
3.009100253678626078e-03
4.386014847490954729e-03
3.293956521798265848e-03
-2.207010287151699580e-04
-4.788133181702923296e-04
4.660709654423371255e-03
8.188929376192926810e-03
2.234677245035086423e-03
-6.376702768731081113e-04
-5.534565967976439859e-04
-7.916531737252211626e-03
-5.091681521217981780e-03
3.169197805366627888e-03
3.172239364470360017e-03
6.732190004414839897e-03
4.850792432957586921e-03
-2.882254250011372608e-03
-3.824273700064298193e-03
-6.181792333586341899e-03
-6.046433472511826904e-03
-2.790294125110056016e-03
-3.633793765876302227e-03
-2.689091675530481604e-03
-2.226145355868286348e-03
-3.565267327120863819e-03
-1.432158358548869196e-03
3.445315598528037471e-03
5.236472139837452426e-04
-9.028647791577398135e-03
-3.221030208757772514e-03
5.054281359976485130e-03
1.657822424048433505e-03
6.689919229497673370e-03
7.769823891705837995e-03
1.471928721689862336e-03
6.877281702801199027e-03
6.732300169451697555e-03
1.104087845191998110e-03
3.331586646080779250e-03
-1.429793164762784312e-03
-9.922890059075917951e-03
-7.775263998100310006e-03
-1.338784688875741750e-05
5.017666655528646609e-03
3.689983804354117145e-03
2.243506813431477053e-04
1.207535719125454746e-03
2.303728779908996004e-03
-1.595226103635185872e-03
-4.685696453255334785e-03
-3.481305106652639054e-03
-3.361958220490386760e-03
-4.131168610852576153e-03
-1.037226075097394049e-03
1.115403645973514100e-03
-2.293192669400842044e-04
2.004713296594691063e-03
3.957210921527333676e-03
6.194697516705871976e-04
2.204861643016865574e-04
3.221292628107344080e-03
3.726035852922395409e-03
2.409525445541405020e-03
2.203709976829741537e-03
2.079994703859170974e-03
5.149696640185137534e-05
8.187378047021788520e-04
1.249036666594077489e-03
-2.412471479999853466e-03
-1.775848279221714553e-03
-1.269860798004153685e-03
-3.051480849259092815e-03
5.410896386298899878e-04
1.040241722529143846e-03
-5.925774093137459522e-03
-1.202987086135022012e-02
-1.318509303778199991e-02
-8.822361733585032048e-03
-1.492262400343314548e-03
3.053239309472738795e-03
1.998234047851509855e-03
3.149032049708018043e-03
8.607007288830150621e-03
8.921195893774000810e-03
7.585903166993153424e-03
8.240100857471933937e-03
2.671123907789164226e-03
-4.425474965022858920e-03
-2.612159072039238472e-03
6.925063626221139362e-04
-1.232965250447815627e-03
-1.505079819421509474e-03
-2.671926667372981345e-03
-4.245165166971751926e-03
4.356066034133087433e-03
1.177979206471334132e-02
6.816601410966491130e-03
-7.083727731302940245e-04
-3.375221132967992383e-03
-3.315467868306321703e-03
-4.018578353665851026e-03
-2.197406332361255977e-03
-1.753536503367112299e-03
-5.742420678094151826e-03
-3.829864524395002780e-03
-7.195193393724277908e-04
-1.504049114560913631e-03
5.076119142391541514e-04
3.156770924064150434e-03
2.655318108129970517e-03
3.624044359508475600e-04
3.936316890094404032e-03
5.219911596727002702e-03
-3.062194733135385153e-03
-4.939549846950266974e-04
4.051396585434602349e-03
-1.214955113298244902e-03
-2.170254706561177880e-04
7.364275555893442539e-05
4.461843110003764620e-04
2.946213405229365732e-03
6.973341079888629437e-04
5.783531276552462096e-03
3.599123696002563821e-03
-6.583146350051716569e-03
-3.223643169385345588e-03
-5.677190473165878368e-03
-9.379039682314226425e-03
-2.283234599266182122e-03
-4.600680687237041801e-03
-5.256758932785442900e-03
2.071244787690057276e-05
-3.654792656700146108e-03
-4.029048225220759061e-03
1.715623877591113816e-03
2.460135772742291175e-03
-1.330086846053702213e-03
-3.746505547663580085e-03
-5.767307305977544029e-04
5.406477737362260470e-03
8.813651131401862085e-03
3.659894664406414342e-03
-4.638043325559553821e-03
-1.669110157222748834e-03
4.485316624867757840e-03
4.756795955489878484e-03
5.400167414232531077e-03
3.638673270514151264e-03
1.691700826011975373e-03
5.169326381193104121e-03
6.860991343628618927e-03
2.597946685861497653e-03
-3.763992988808413805e-04
6.536998443886330931e-03
1.241141177962804681e-02
6.523605759452817503e-03
-1.240857875476241139e-03
-1.045395956208413149e-02
-1.753066489416876123e-02
-1.275519256890842237e-02
-4.350142040936345877e-03
2.224878925063436888e-03
1.968242062630097978e-03
-2.628278254405841830e-03
1.242167990189032732e-03
1.264650073369324914e-03
-5.735899981904582848e-03
-4.619097823555298570e-03
-4.696792103903890681e-03
-1.137231916663827141e-02
-1.081869203845081152e-02
-1.410930681398732270e-03
4.845514254146243531e-03
5.395152205181466716e-03
6.201095617116948906e-03
4.627537852761458813e-03
1.323221607000891684e-03
6.468934660519864467e-04
-7.447615474345598756e-05
-1.337228186146348970e-03
-1.100344631982906390e-03
4.863374880750012154e-03
1.002972984821972301e-02
4.449956540941735553e-03
4.853630853840065545e-04
3.653921874691959566e-03
5.344901316848237743e-03
4.290743271868509116e-03
1.406676105714186036e-03
-3.558898870867355235e-04
-3.342896707111641091e-03
-5.282314627652490505e-03
-5.736352228122918026e-04
2.608035625560571201e-05
-2.571412614282632706e-04
4.778458261704929613e-03
6.705000626615331694e-04
-6.107710190352648276e-03
-5.491252002111652285e-03
-6.960936558831139383e-03
-5.406890879318585093e-03
9.880588001657448528e-04
1.633210476857290590e-03
1.997297584504014942e-03
1.845814914673418045e-03
-4.379811605190073349e-03
-5.586495439122546834e-03
-1.719309275542797158e-03
6.699744580261484143e-04
4.034654016273938291e-03
4.604044248208955838e-03
3.786630225553493014e-03
4.830970568555425582e-04
-6.485924827556260180e-03
-9.221163136901607124e-04
6.697150147581385285e-03
-1.232081856165501881e-03
-3.278176278352259911e-03
4.576928460090442380e-03
2.119351254660207639e-03
-4.064999668722722725e-03
1.062099380105185550e-03
9.776472983668052855e-03
7.852367263126725991e-03
-2.537018098614391435e-04
-2.828702587080078774e-03
-1.993633611589000661e-03
-4.154058860768672021e-03
-4.041821729180801806e-03
2.605905553205267126e-03
2.639470557403088627e-03
-5.849806891397634455e-03
-6.590175723197688566e-03
-1.224512657125401702e-03
2.697176415770539439e-03
5.566820730672168704e-03
6.205778653038911477e-03
8.174650933254068094e-03
7.721440250369082658e-03
6.444080185450433906e-04
-4.172011772553480165e-03
-7.392952868440941065e-03
-7.475703324599225312e-03
1.254259449993700424e-04
-1.309816417019894633e-03
-1.229549035626455351e-02
-1.412498230846231245e-02
-9.273421188079269614e-03
-1.430718743948239044e-03
7.499127680980929161e-03
9.043967724477542172e-03
8.006010218291620059e-03
5.651296664282553540e-03
2.024957946737102749e-03
3.961607452973375625e-03
2.314088286357221524e-03
-2.886941279872201008e-03
-3.506941699744612370e-04
1.177111758473900222e-03
-3.431153494360467213e-03
-6.491653187082970650e-03
-4.043667844272188540e-03
1.962846544467497425e-03
2.726222984313857785e-03
-2.210450035331813518e-03
-2.059018323339739664e-03
2.948067772463148096e-03
2.713012551089802153e-03
5.996769918167777370e-04
4.928726398463202131e-03
4.548045490959588648e-03
-2.977463915650491264e-03
-3.342988621862576812e-04
5.793206315535029925e-03
1.721500896154451801e-03
-2.545408147113428082e-03
-1.378340804307277064e-03
2.185190168055983241e-03
2.462124524952973882e-03
-4.472724896031475550e-03
-2.806418504745764476e-03
8.266375409107613523e-03
1.068859606932636395e-02
9.478182984060558661e-03
5.157337652588125584e-03
-3.119364705415737012e-03
-1.496219592896271379e-03
2.766398802577948752e-03
3.013718571401471143e-03
-4.801057231777118399e-03
-1.942875366226093012e-02
-1.425558658540149355e-02
-7.962689609023444748e-03
-1.863381088909226227e-02
-9.825116411117463047e-03
3.584079244743223515e-03
-2.568134356527626127e-04
3.724004939395439960e-04
-2.060875679845964887e-03
-5.025992397915162585e-03
3.408172883296915756e-03
6.119005249347529013e-03
4.085010193035811324e-03
5.697543377737916692e-03
7.192298501157159789e-03
7.979502724540643924e-03
5.919372343691590814e-03
3.043554393444382507e-03
3.306493105270154765e-03
4.704322476560894410e-03
3.870983331834200025e-03
1.025369807404624646e-03
-1.464669405386226798e-03
-3.706651837218860688e-03
-1.631755154397867029e-03
4.508818836733365261e-03
4.586776472330252041e-03
1.320956278235777817e-03
1.828938365640388197e-03
-1.021584178496085448e-04
-3.841719509090327569e-03
-2.002591456951631661e-03
3.499369207225046046e-04
-1.693561991116097291e-03
-5.078089457536626682e-03
-6.676544266679001333e-03
-4.214342382821058101e-03
-2.492684832744306890e-03
-3.747508079421685030e-03
-7.287906368787293266e-04
4.649285869605672590e-03
3.445953627560765370e-03
-2.012773578340324668e-03
2.850959028314787604e-04
4.928590426094759357e-03
6.557149574121652310e-04
1.331551462410648663e-03
4.228253791301828275e-03
-2.638985248030936443e-03
-3.333788382566690855e-03
1.000580163975456523e-03
1.745590676083020503e-03
3.111267763775946594e-03
4.967120682686062194e-04
-3.948909785596040056e-03
-6.140761870122569271e-03
-3.089229007662445091e-03
8.877103696126588351e-04
-3.473066647427608400e-03
-2.974056380081239147e-03
-3.276434832687762002e-03
-9.042858213165905906e-03
1.763642696264390488e-03
1.113347852619284151e-02
9.313286434706797082e-03
1.170654924212216619e-02
5.339753524954038606e-03
-2.974503628575814532e-03
-4.941394663184778789e-03
-1.078533913667948860e-02
-6.890618743893218122e-03
2.922058323040443734e-03
3.315801009382852733e-03
5.153404183064881280e-03
6.247842239849899469e-03
-6.554231213045404441e-04
-4.281840552504910177e-03
-3.414013205882654271e-03
-4.198599257769372269e-04
6.357343044665855758e-03
5.759120721727859285e-03
-5.947309203530429288e-04
-1.872946019709596267e-03
-2.862174478935372579e-03
-1.226166992483611676e-03
2.246745124642996957e-03
-3.681795028321065187e-04
-1.978054098725635663e-03
-1.728108426560936431e-03
-2.254265330428385696e-03
-8.894578884826547091e-04
-2.217718805564877858e-03
-4.122738448928354484e-03
-9.863357605998618154e-04
2.971188349730190595e-03
3.317922943763228650e-03
2.741338503870871524e-03
4.955295256995235174e-03
7.058751730545194045e-03
3.489321381310809406e-03
-4.353851984115873590e-03
-5.373537065347724039e-03
2.452890328538797076e-04
1.574436027457473382e-03
1.422486611283955895e-03
-9.112944811254078447e-04
-4.506411135720028195e-03
-2.626762889336745565e-04
1.339054884864264222e-03
-2.372479814338769415e-03
-9.452704998377087740e-04
3.181518858064530386e-03
6.428906816204762488e-03
2.453486693059252297e-03
-5.297083753078066226e-03
-5.620440400654916346e-03
-4.492729186642857413e-03
-3.450621764401111922e-03
2.536409661721318251e-03
6.492028023423477949e-03
7.801160218637002725e-04
-7.861252140647095529e-03
-4.400849801840910590e-03
4.955688998408248197e-03
4.194540078861243998e-03
1.886822952713931205e-03
4.476005511312315319e-03
1.382498905451771303e-03
-1.693342365347941811e-03
1.661816124170026028e-03
-9.765303540434202081e-04
-4.738302516720736303e-03
-2.942437066704382039e-03
-4.440280016429143210e-03
-1.830666129241800312e-03
1.724808144123736583e-03
-1.910546490421551188e-03
1.299193879065545535e-03
6.022316227804078333e-03
5.693936561824340659e-03
6.176174885339581581e-03
2.337701428841132065e-03
2.420403971904638591e-03
5.675748065333561035e-03
1.667438388919038287e-03
3.082045333117064152e-03
5.231570284613282218e-03
-2.005991787897051359e-03
-5.793725800827319826e-03
-7.182492684581070173e-03
-1.026760351872196830e-02
-9.066708361250702675e-03
-5.849006910772428305e-03
-3.098089376891853281e-03
-2.243805290350457411e-03
-2.127426414983363181e-03
-1.440476402091251567e-03
-4.366018424724929861e-03
-2.691981788158449938e-03
4.624796683592872007e-03
3.493695580635353820e-03
7.239916030398760652e-04
5.835434117289824574e-04
-3.482690428365525868e-03
-2.423444338102066602e-03
4.402917592907076632e-04
-3.748594889225195272e-03
-4.148698942819538729e-03
-1.740166446973352124e-04
6.250931328832173015e-04
7.461976486413808042e-03
2.137512911088122400e-02
2.690343092876711084e-02
2.639663431598067433e-02
2.483793191556783395e-02
1.599916031231668478e-02
1.010566352584637770e-02
6.036278903326252297e-03
-4.685224281953557710e-03
-5.103182752560903729e-03
-3.562790551173249110e-03
-1.837129606089904499e-02
-2.737433794642223084e-02
-2.287866329230762996e-02
-2.205798191510175560e-02
-1.778251783990943483e-02
-5.654261063817614223e-03
-3.510042674097720028e-03
-4.067194740772575763e-03
6.950707093961215090e-03
1.209082006429563691e-02
7.849120517920816706e-03
1.080969129510489166e-02
1.648722272400537231e-02
8.459642143881332052e-03
-4.678083535510328336e-03
-1.097604024763760341e-03
1.792789229272836321e-03
-3.241508665146259401e-03
9.950561343783869556e-03
1.485314733766271780e-02
-6.823389981591044574e-03
-1.846343477710878089e-02
-1.832650652420814152e-02
-1.609961362984033487e-02
-1.081950822053361592e-02
-1.856026833926233133e-02
-2.933466368084317391e-02
-2.335071289724470825e-02
-1.244410285347689188e-02
-3.788914619901510329e-03
5.810071577558665809e-03
4.583425350775416872e-03
-5.033104716909151018e-03
-1.526678904426401022e-03
5.906316210942217683e-03
6.342038447054567339e-03
1.466327913377659525e-02
2.495426294742385601e-02
3.147696157873144246e-02
4.329587299385891791e-02
5.579129051223594149e-02
6.696375300665777242e-02
6.451181512947753993e-02
4.000370506514805413e-02
1.847994999429517643e-02
3.170509523480450568e-03
-1.606419514685901787e-02
-2.877623209922587286e-02
-3.621609882568231631e-02
-4.092641661637590189e-02
-3.940922147953460075e-02
-3.868869652732714881e-02
-4.291445199564727919e-02
-4.688015687133609971e-02
-4.363492044899442562e-02
-4.498650890375507222e-02
-5.154554284925987745e-02
-1.577973173678666810e-02
5.651668462066971460e-02
7.546763614701908207e-02
1.433233093908002805e-02
-5.533302674801276327e-02
-8.104035647996409020e-02
-8.504885507839496372e-02
-7.568258111715255032e-02
-4.714585727646537078e-03
8.614430295153259476e-02
7.960706532346102648e-02
1.109450206163474159e-02
1.218265636207526391e-02
8.843797279832668612e-02
1.516234003737390867e-01
1.536824941766803954e-01
9.884643112341615079e-02
1.031829079896655343e-02
-5.495033815598127785e-02
-5.820434590504226097e-02
-5.290530693705932513e-02
-5.398681914114154129e-02
-1.882011490102604434e-02
-1.628497622280698429e-02
-5.471819041745684675e-02
-1.006344305557112240e-02
5.190861806502167219e-02
1.787378708573299918e-02
-1.354306257263151667e-02
-7.517864644805933444e-03
-3.104262470887677802e-02
-4.202494404751346002e-02
-1.507864466942416930e-02
-1.325772646744130187e-02
-3.318050703240080918e-02
2.390044562758334747e-03
7.583618194659458300e-02
6.114795625098491672e-02
-4.799255859567156529e-02
-1.293333540258763126e-01
-1.780409121172433218e-01
-1.882772530131778532e-01
-2.980478496086061066e-02
1.578255521437994247e-01
1.037278080193180380e-01
-5.088118918639644717e-02
-7.054320874461444957e-02
5.300408117490251758e-02
2.118520147088796268e-01
2.132576955308631561e-01
8.911305508764241767e-02
2.107301940041356875e-02
-1.505368059767337764e-02
-3.730599607331986506e-02
-1.031737170080348175e-02
6.089418505752685479e-02
8.756304107468254605e-02
-2.918969869136110382e-02
-8.609269057150521764e-02
-2.344691315453387853e-02
-4.285956177594666544e-02
1.385280835648848531e-03
1.322248007346240040e-01
8.197280743900821343e-02
-7.478943044533277462e-02
-1.294434894021724847e-01
-7.322992201092959341e-02
4.877074127921786351e-03
7.573197890673406818e-02
1.133694413618698826e-01
2.281795464631301493e-02
-1.335873030732325495e-01
-2.382883400924485917e-01
-2.131680434467980723e-01
-6.447832243511990302e-02
-3.068843685911937236e-02
-1.098764849516083303e-01
-1.469002100009814404e-01
-1.501062862598739056e-01
4.881978210814257035e-02
3.361225135397991060e-01
3.397658858559818862e-01
1.773689030058143989e-01
6.224297296865011209e-02
1.369754976162717089e-02
1.075493373023755396e-02
3.522717909607643409e-03
1.005747349355305513e-02
-1.362487467094478273e-02
-7.329484332101460220e-02
-7.201636057818736059e-02
-3.287606871977919766e-03
9.242109027402865828e-02
1.020098599600045008e-01
3.811301257335080600e-02
2.261769239517879421e-02
-6.950285304879887452e-03
-1.884414909286036971e-02
1.606816547315665158e-02
4.302517303064759546e-03
1.818662827066720722e-02
2.385954358138225179e-02
-4.341967924421656633e-02
-7.510636854132629603e-02
-9.630506733399080144e-02
-1.317896686773800674e-01
-1.410740910056167419e-01
-1.219669615393338541e-01
-1.655057430798347745e-02
1.046663668576157113e-01
1.112178734266729419e-01
4.877101446825059944e-02
-5.431094994020845695e-03
-2.337645257997246484e-02
-1.457239055891346342e-02
-2.119065548621498329e-03
2.039399052062204620e-02
3.693338743051666206e-02
4.490089910005142654e-02
6.131929995378616882e-02
4.866261685102933610e-02
-1.642767458355214732e-04
-3.194326400452065368e-02
-4.588841671747035528e-02
-5.150178698730201871e-02
-2.170400625701564973e-02
1.397819387207915702e-02
1.708500898091693670e-02
1.160087597580106329e-02
1.174131760379865629e-02
1.126051391195912951e-02
8.293623927741151231e-03
9.253428659662476727e-03
1.976164294780282521e-02
1.935883771704379266e-02
6.242742932498501936e-03
-1.214584759513301750e-03
-2.782598488168198849e-03
-5.003091280246164041e-04
2.583061418022004809e-03
1.123263367363530260e-02
1.794213682112407934e-02
5.561272333717236921e-03
-5.473909257844843460e-03
-6.862576394677077918e-03
-1.514051673739188857e-02
-2.045156174928936324e-02
-1.056523506892401675e-02
-6.934694553804024919e-05
-4.400890870885190535e-03
-6.137040794426650188e-03
3.789770766140618859e-03
8.996873462035842595e-03
1.108284181967587184e-02
7.546263148233892278e-03
7.483704940410668919e-04
-1.181274082624951538e-03
-1.744450782382055837e-02
-3.890660318602909978e-02
-3.815049761903516190e-02
-1.782792326971645649e-02
4.586310716738769590e-03
2.870328161448193038e-03
-1.193978580440234298e-02
-8.284307256622028617e-03
-8.920831690752242023e-04
7.758895443366078904e-04
7.831622770145693635e-03
1.218782508581442783e-02
1.007529101114520292e-02
8.609414205388746938e-03
1.189984250307771392e-02
2.220651191685878503e-02
3.408137959647572490e-02
3.168974604581775711e-02
1.111193393687219533e-02
-6.983115648520692685e-03
-1.536629030804401164e-02
-2.416300722184767588e-02
-2.468490908266452594e-02
-1.052517102519427532e-02
5.443699741623587822e-03
1.559042775627065940e-02
1.743290379702074414e-02
1.443017298862517110e-02
2.068421316695847820e-02
2.692434852917571439e-02
1.584011647838839965e-02
2.022886737089658622e-03
-1.348642364215510425e-02
-3.117178753245761907e-02
-2.753697121498591138e-02
-2.002754113432447108e-02
-2.093681772083155757e-02
-9.165142953093799449e-03
1.914623201647725273e-03
7.577774054557443427e-03
1.533154668928135220e-02
1.224504563903706066e-02
4.479149252966705720e-03
3.544861312105156235e-03
1.438925271104998446e-02
2.850397067126800299e-02
1.847266550995074752e-02
-1.346604866377346284e-02
-3.344670904176636622e-02
-1.474004240186538132e-02
1.807874104233975210e-02
1.714583982369125709e-02
-8.147920994886526797e-03
-2.831093561786295412e-02
-2.851437612811132116e-02
-9.457645885914269662e-03
8.862859076047282733e-06
2.659143018754268634e-03
1.557329950732221427e-02
2.008222916978194897e-02
1.088269205366815609e-02
5.976105795293903435e-04
-7.327599503543270193e-03
-1.220380474654055199e-02
-9.921476871243091814e-03
-5.525997605416750093e-03
-1.054864058143570142e-02
-1.299570806278509127e-02
-3.830645505634487982e-03
7.183199919153193148e-03
1.550839533292338972e-02
1.939963185372971938e-02
2.601688557079440481e-02
2.830224712472630480e-02
1.402767198014744608e-02
2.391622319822576340e-03
-3.108127805884263427e-03
-1.103574307152567491e-02
-1.392045457781695625e-02
-1.078135278521346122e-02
-1.293293119131708451e-03
3.885105089220789419e-03
-1.675444131643513256e-03
-1.765256528492383957e-03
2.386810048217247963e-03
2.178335597070276460e-03
2.603148886449969425e-03
5.025576798465003665e-03
4.108065181655727832e-05
-1.301249649205920428e-02
-1.329515222542664889e-02
-2.195696829596088459e-03
1.910552635478229540e-03
2.518373460104333071e-03
7.742735539928601767e-04
-2.280128601918603528e-04
5.337569783851759016e-03
8.128140720214600476e-03
5.529901508803883835e-03
9.060850140727120128e-04
-2.701119478106732245e-03
-3.907713573063568979e-03
-4.859292185137075240e-03
-2.789258057189975167e-03
-3.456139739153624157e-03
-4.044729368517778305e-03
5.576248282540981725e-03
6.766822176663233983e-03
-1.332786848642527645e-03
1.167892118998445231e-04
-7.216497826810940562e-03
-2.386633586498681375e-02
-1.961792792839467392e-02
-7.122140765487651459e-03
-6.868117057606358891e-03
-8.588857185537854266e-03
-5.804106721001940292e-03
8.769985952142027655e-03
2.722239434109573197e-02
2.292281656686416189e-02
1.075376839796187041e-02
1.556223355227873487e-02
2.152677346475815809e-02
1.413562030722152231e-02
5.864146402022793730e-04
-5.302449446452786944e-03
-1.445929567766812609e-03
-4.061224457273289326e-04
-7.939713141881697082e-04
3.540843285006454316e-03
4.590003738254579482e-03
3.009763799710420649e-03
5.680090351089690792e-03
6.444476504221710589e-03
-3.617198854346517431e-05
-8.465532391928320965e-03
-1.241517358084106085e-02
-1.167886055948171020e-02
-1.328652546816417104e-02
-1.717972637606659386e-02
-1.941133102908061681e-02
-2.653576989602510899e-02
-2.981552276890451700e-02
-1.075618033491778508e-02
1.744069808385691894e-02
2.706392589373285071e-02
1.186323550730394860e-02
-8.929524291013311854e-03
-1.357407574124118790e-02
-4.865317057514223498e-03
4.647839323290429980e-03
1.288932919852199543e-02
1.858766535573657189e-02
2.107571514761972381e-02
2.024672362636243186e-02
8.444497536769715942e-03
-9.409668254221782019e-03
-1.384049239174701094e-02
-6.198362986082785533e-03
6.374712193877765231e-04
3.554512683744250143e-03
1.556206623289241916e-03
-9.971188981314554542e-04
-4.092513675129333395e-03
-5.709832516581293989e-03
3.579831868693294280e-03
6.924411461759891716e-03
-2.612845248718091620e-03
-2.819042830610699046e-03
-7.476459701991482491e-04
-4.267969314394829544e-03
9.298477768418826270e-05
4.190725893212640316e-03
4.303357931456583581e-03
8.461809746455653189e-03
8.365205873489304014e-03
5.471629231373846720e-03
3.668312292827836159e-03
-2.906330564345401078e-03
-5.617851460986041968e-03
-4.491476788381364854e-03
-7.069695585511271384e-03
-7.437153113629578136e-03
-7.254909824565890751e-03
-2.413302919562545883e-03
9.834739534301913805e-03
1.483141781399632472e-02
1.007798170529483790e-02
-1.824189415313056664e-03
-1.291434833196915613e-02
-1.559205348280280276e-02
-1.976636933329684737e-02
-2.161686710562694264e-02
-1.752053848545533088e-02
-1.028544781630618028e-02
3.150693955916935435e-03
9.538117242876138074e-03
1.126246308221900277e-02
1.648517492574065949e-02
1.434618961334211025e-02
1.086503079476432501e-02
6.106982899824165215e-03
-3.801507475902921214e-03
-7.230776448473356065e-03
-6.234430032036213966e-03
-4.349316751723548632e-03
-5.439085458860506202e-04
3.799915393472101752e-03
7.741542646720079961e-03
6.568228139201956126e-03
1.626754037067014609e-03
-2.854238158881587401e-03
-1.248966041117004124e-03
3.888626014735965981e-03
1.896108520433851911e-03
1.567473522815170280e-03
6.073382366545814967e-03
5.894191005051373396e-03
5.786625506425442482e-03
6.025986165619874255e-03
9.459246308604294393e-04
-6.203623325228372135e-03
-7.978560394865656658e-03
-4.738095856915913555e-03
-4.771219909236535175e-03
-3.705757905185882474e-03
5.711849585492107884e-04
-1.560887828680706906e-03
-4.880074204184897159e-03
-2.501224398859802200e-03
1.042172494975638665e-03
2.906496614486745508e-03
-1.431549981055545238e-04
-5.153681023378017638e-03
-2.917436412560934014e-03
-1.066949096616468494e-03
-8.472605721806737017e-03
-1.019169275657664554e-02
-2.298919064654648351e-03
1.390327308925716509e-04
-1.829407346506425457e-03
-3.195102309770945018e-03
-6.271011618319665380e-03
-6.673665951866449009e-03
-1.336989362532702008e-03
5.406045459180789693e-03
1.141291715628120831e-02
1.485516191740137749e-02
1.039818979339229323e-02
4.570262165958210998e-03
5.387365519321946419e-03
3.112377715009493392e-03
-3.574406060996995239e-03
-4.703361292245653545e-03
-4.080825625489308515e-03
-7.757259673333122621e-03
-9.035022909519989029e-03
-1.729815511743253891e-03
6.298932476571292988e-03
7.730926055862756205e-03
3.346558758110703899e-03
-4.357423489035352170e-03
-5.281116366403164515e-03
-4.162485319794688617e-04
-4.046553798843556884e-03
-8.290331158106813841e-03
-4.649972324171939772e-03
-6.344598683478949556e-03
-9.151430273105413613e-03
-3.442380743645482525e-03
-3.101115501369706810e-03
-5.083737165797782252e-03
2.382703833177466160e-03
6.802856401324722073e-03
7.319164464697560345e-03
8.771003370731115384e-03
5.037568063015870380e-03
5.799191535277390536e-03
9.206730101785546780e-03
-2.809554644650943869e-03
-1.714221061469222915e-02
-1.272420099883055100e-02
-3.855887463585574992e-04
5.695643895630300192e-03
9.763442031363337922e-03
1.426116701064775866e-02
1.846351207238919323e-02
1.510735682948311127e-02
-6.861966250066157610e-03
-2.859715786301620169e-02
-2.776785949419141933e-02
-1.082920929154217865e-02
8.007541395610547758e-03
1.279239830513073314e-02
2.850507072848092530e-03
-7.737724816282379875e-03
-1.232137217159033626e-02
-8.166642357881401595e-03
-8.011354874215182061e-04
3.479494099901064060e-03
2.343005907704911236e-03
-2.510484595436023297e-03
-3.796983474253345231e-03
-4.624408460794977686e-03
6.188713659742838685e-04
9.060563757688603476e-03
1.117915839794060822e-03
-6.411297437071553258e-03
-4.743129071050418595e-03
-6.430985703857637278e-03
-3.194154943672779506e-03
1.844473919790161039e-03
8.290422983696600287e-03
1.461569704439536974e-02
8.857778796283992048e-03
4.641830145514069111e-03
2.794945308239191618e-03
1.584491996394080462e-03
8.672649990494283104e-03
4.912294043891355169e-03
-6.459494035196466054e-03
-9.921242851547039734e-03
-8.382314836184828061e-03
-2.689781909650139423e-04
2.009474755730431602e-03
-1.149925712860034449e-03
3.658891229598024240e-03
1.694969810626182011e-03
-1.135312805398408856e-02
-1.857335110800515179e-02
-1.174272962019387752e-02
-1.718256024212275451e-03
1.217218498128184046e-03
4.033404176882654339e-03
-3.679350413226377555e-04
-1.066607510737245003e-02
-5.759314388641905737e-03
4.593208877538829463e-03
7.410768595906364054e-03
7.033470539174543554e-03
3.929172163897396396e-03
-7.785832483407960705e-04
-5.917312537276529782e-03
-5.688092347939053064e-03
-3.692525271988625953e-03
-3.260517756590279245e-03
6.410590799052051821e-03
1.199221709079485373e-02
6.088136177543867697e-03
3.855037157819802759e-03
5.618132367955787007e-03
1.259981426034606847e-02
1.340731125226919847e-02
-3.383757336830255785e-03
-1.562251815871762081e-02
-1.578592160203409409e-02
-9.493030518144455684e-03
4.238455439137191368e-03
1.063577830913322274e-02
3.512894255871500115e-03
-4.362176383243010838e-03
-4.982711185299058994e-03
-2.802089046673983917e-03
-7.593371555559493176e-03
-1.411508308858737404e-02
-8.493190015879009333e-03
3.065601556677671671e-03
2.310083172867473909e-03
-5.859627684728846604e-03
-4.614555757847218359e-03
3.353059074005347237e-03
9.916124543280401687e-03
9.432802522479605267e-03
4.410502053670424180e-03
3.600683257769198269e-03
-2.603598553238277175e-03
-9.568994940307828934e-03
-1.909906417629131208e-03
3.820702286091411451e-03
3.130279902754543563e-03
5.925930949420124376e-03
3.061223889148234709e-03
-2.858006642721237084e-03
1.696370854444118699e-04
3.985338868329022129e-03
-2.635152223358269361e-03
-6.252944277556984204e-03
1.003680768862696613e-04
-3.105556207210590901e-03
-1.022708083948151506e-02
-6.705810749641603549e-03
-3.919717823467538595e-03
-1.504802452278927814e-03
2.566899969348081061e-03
2.960940643705327769e-03
2.780170142906829376e-03
-5.694897507186097354e-04
-8.968483948648712720e-04
6.962992404495016788e-03
1.019847790021548642e-02
7.307338925927345241e-03
3.098111864169433242e-03
6.249370970900375039e-05
-1.197953841729610140e-03
-6.184420971211039043e-03
-5.241595298363242901e-03
2.177901706802826652e-03
-3.475159742948443452e-03
-8.940486183453742741e-03
-6.337616188744133513e-04
2.467085312881538758e-03
1.783220228672914446e-03
4.926517657934024151e-03
4.679623359737813265e-03
3.331065286357882960e-03
-2.686548834714479802e-03
-1.254450430578310169e-02
-1.259001870538738015e-02
-3.942262767672904608e-03
3.499618839039428993e-03
1.577014473043906410e-03
-3.812657913802516840e-03
-2.863513486598434979e-03
-8.544029610423069156e-04
3.672603798952298829e-03
5.589208765869545757e-03
1.453495132173206151e-03
8.193564001568990132e-03
1.806908943545472088e-02
1.704928707550645156e-02
8.969884433696419940e-03
-4.083009753746115293e-03
-1.328907148721780902e-02
-1.582719292901731481e-02
-1.109506687634439527e-02
3.904897550218460909e-04
3.928863547630937446e-03
1.037679216150427320e-03
2.694785450131037367e-03
5.447287830604725066e-03
-1.626536299420668855e-03
-1.371591619906149286e-02
-1.054216905396211830e-02
-2.243721834130516998e-03
-1.512755910112557325e-03
1.403870957185230370e-03
4.360667411442225271e-03
6.018301023386213311e-03
1.238512395416966954e-03
-7.851152922056592667e-03
-7.080087170483133352e-03
-3.862754889884580014e-03
1.285015680845959067e-03
2.546947375866886153e-03
-7.195502554452597871e-03
-6.508502481205552179e-03
-2.206587673348245088e-03
-2.303891189155676984e-03
5.864541699651643070e-03
1.164786072608123280e-02
1.201371224290194786e-02
9.326954920418290343e-03
4.275219286644526065e-03
3.600386776426633614e-03
1.467392090582217597e-03
-5.598794896438534551e-04
7.447732296086533857e-04
2.232031151853611922e-03
2.608574631024768685e-03
-2.464606404568109527e-04
8.148119025886908556e-08
-4.004078283294847866e-05
1.369921475191823897e-03
9.977687720811456371e-03
9.033179862054428397e-03
4.010937737188450918e-03
6.268555102848027494e-04
-1.030200943907041630e-02
-1.176319681191528681e-02
-5.457756972710047297e-03
-5.798222578284219567e-03
-5.941543003335453092e-03
-7.126253824996949156e-03
-1.069195399135091339e-02
-8.941540053380566885e-03
-2.768381401922746267e-03
-2.863135397515011085e-03
-7.099877890969464971e-03
-6.852662215903056533e-03
-6.313805693494749932e-03
1.137399688265527346e-03
9.111712061628496687e-03
2.355219801677209835e-03
8.657418763877664522e-04
3.430264167639223826e-03
-3.803455572828566989e-03
-2.404294038059461795e-03
8.927901045435135061e-03
1.744331539624473237e-02
1.861392708074155466e-02
1.469566904678746080e-02
1.141686829703171709e-02
2.146670298524051661e-03
-4.707850793426398769e-03
-1.593392638835302482e-03
-5.321182951255227188e-03
-1.208822195361211951e-02
-1.009851042354107525e-02
-1.180725747606042268e-03
5.151478634151294110e-03
-6.653102662326984421e-04
-1.361627789928561167e-03
6.071335815627016200e-03
3.460993823713285397e-03
2.013265540305754324e-03
3.761658388409512641e-06
-1.310341057916558465e-02
-1.625932815260836342e-02
-8.995203190656570619e-03
-5.651957300231129008e-03
-7.600063513522448523e-04
1.659646873959652342e-03
-2.473818102764908911e-04
2.622869405009737448e-03
3.180361669313595038e-03
1.965766294022424114e-04
4.062288137080257572e-03
6.594357695550858572e-03
2.902783103237241598e-03
1.850420958621266107e-03
2.749114539544591281e-03
4.978795102392870493e-03
7.767117702814214410e-03
5.155001242500092257e-03
4.103380984015015200e-04
-2.515015769155980012e-03
-4.362131911078308277e-03
-5.433441370220250081e-03
-5.207671423812588844e-03
-9.020368067063227492e-05
3.856404430590426938e-03
8.258125497377660383e-04
-7.223485892766049864e-04
-1.978356582446017323e-03
-5.649385572151523899e-03
-4.752142836790499737e-03
-2.523051714015792351e-03
-9.940913184585580334e-04
1.157238011548384531e-03
-1.547630715176393076e-03
-3.976403909908919794e-03
-1.537401614425767298e-03
-1.367540774285093495e-03
-9.808857512001493105e-04
1.992724548361178918e-03
2.103385090047943211e-03
9.262796717951817796e-04
-1.185929089177201927e-03
-3.281239112063759344e-03
-1.235568465167605050e-04
5.372786890314084664e-03
1.023920821080439095e-02
1.042698402472203197e-02
2.028719919717551258e-03
-7.830968511315973286e-04
8.101645347060400584e-03
1.048835949670963268e-02
-1.198796631477444627e-05
-8.345394397958677199e-03
-7.726056025195230693e-03
-7.666500407636454677e-03
-8.828992474398290533e-03
-5.120609064661036866e-03
5.217559543950722441e-04
3.657392601274529927e-03
1.200438780474543787e-03
-1.413353862573740304e-03
4.388887951271036071e-04
1.848776636217071539e-03
5.099525377229860781e-03
6.014509962366268621e-03
3.277844994903758363e-04
-2.094211089109647515e-03
-2.020873844926937730e-03
-4.305197140971834223e-03
-7.501912496644719611e-03
-6.280840953779527787e-03
8.597352019991137597e-04
1.111482847056733357e-03
-3.097867744189824156e-03
-1.450892692686464244e-03
-6.184027825512540414e-04
-4.964353277735722404e-05
1.484588382817675573e-03
-1.876143486171198173e-03
-4.925883586233988261e-03
-3.455205883412143606e-03
-3.344530505998139294e-03
-2.035300436534925698e-03
7.387388173325214365e-03
1.316769634265988094e-02
6.339530453108145093e-03
-3.520981789828193584e-03
-6.319166504754058188e-03
2.965078224794647963e-04
4.109921762882089852e-03
5.891885269676155890e-03
1.265599789629454595e-02
9.129939120851034151e-03
3.523100063765140233e-03
3.413955966425375691e-03
-4.856552977613119888e-03
-5.857788397441965680e-03
5.835002112028865075e-03
1.377817863418468423e-02
1.085427707577815357e-02
-4.168609164305955329e-03
-1.588533007345455106e-02
-1.365818827477112071e-02
-2.767175888638151535e-03
4.210296797318307388e-03
-1.470459700617564747e-03
-8.436543510378927829e-03
-1.641326202683355412e-02
-2.248442787506113594e-02
-9.806741960176753106e-03
4.901046378363665967e-03
3.420973335680933033e-03
-4.230681718955434491e-04
2.140756511628873551e-03
1.839798290811166508e-03
-6.074092981888466053e-04
3.083695011140303536e-03
3.025998183864001944e-03
-6.163439981983434178e-04
2.296827939666708143e-03
5.677975189180042327e-03
6.269700455811709136e-03
2.968753601444158556e-03
1.692785139714662835e-03
4.841514138822017137e-03
1.917824774367733178e-03
1.237484074112953471e-03
4.402926525279913898e-03
4.287617824630772165e-03
3.212242296632070605e-03
-4.067999395181895982e-03
-7.097935548707566891e-03
1.300498590943204231e-04
4.918067125194897776e-03
6.273446833036440407e-03
1.774057529777448147e-03
-3.338437055987935297e-03
-2.936004932915390643e-03
-2.980682596573830390e-03
-6.146010790543776203e-04
-4.904707247223009546e-04
-5.236702621101501157e-03
-5.112089830974249696e-03
-3.698886721831416333e-04
4.242345104859115111e-03
3.857366171533285933e-03
-9.612146113676034095e-04
-5.178791756374997654e-03
-5.399879032840825335e-03
-4.085634052338821742e-04
1.330588593757087504e-03
-8.013254049502945182e-04
6.540344574909582633e-04
3.429929119846854193e-03
2.304177957862900243e-03
-1.284644862288152924e-03
8.523069662079031227e-04
1.745446127634483167e-03
-3.770295179752141453e-03
-4.013140476415336111e-03
-6.985354831428782635e-03
-1.055829959041662547e-02
-4.737452977764752696e-04
9.193568938726363188e-03
1.261296538888892482e-02
1.109098604831861706e-02
1.183189304246508918e-03
-7.124622795438942738e-03
-8.505156669318333224e-03
-5.460979015056829401e-03
-6.104673263684797652e-03
-1.061262429839568769e-02
-6.501876899053479417e-03
-1.662171739046816143e-04
1.519734270756162298e-03
3.729982292756817228e-03
4.520009830658881268e-03
5.075134639683381160e-03
5.742184558627206996e-03
4.422215696128038200e-03
4.367704186907299564e-03
5.765765172139088526e-03
7.889759880694558608e-03
1.020087562674878816e-02
7.070717704159382513e-03
-1.783761292085292612e-03
-1.795756457270094100e-03
6.457631699017528024e-03
1.468811311353755700e-03
-9.627914865784539117e-03
-6.790480256679034578e-03
3.171165212763190841e-03
7.503038325920247456e-03
1.863775940536786498e-03
-9.126485648629983211e-03
-1.525557829517249636e-02
-9.832519084930066086e-03
3.597664884478806368e-04
7.911109373108163442e-04
-2.887707919878242362e-03
-4.654912766983547619e-03
-1.013035075022939054e-02
-1.215273596904885463e-02
-8.012005818331056559e-03
-8.930042329957299453e-05
6.129168567281613120e-03
2.804185403884397552e-03
1.226667015887798967e-03
3.367386818363351901e-03
3.982355913961534849e-03
5.890711692866671019e-03
2.604290796009968434e-03
1.416016579478005053e-03
6.514832487689974257e-03
7.275816716389109547e-03
8.370367309845069825e-03
9.254687676796184356e-03
4.020582077358291623e-03
-5.554914940078872591e-03
-1.064855170019267903e-02
-3.690981432397425020e-03
-6.683379297574509013e-04
-3.955805948652202537e-03
-3.465489816959712211e-04
1.783572239809623960e-03
2.032309878764206306e-03
4.067330190123443108e-03
1.058823049491664425e-03
-3.972984028445948439e-03
-3.016891076260476943e-03
2.542481173309034306e-03
2.795672048387930729e-03
1.931567996435375970e-03
3.128538102002008121e-03
-3.256860636238762072e-03
-6.305596389530576315e-03
-3.521760533643008336e-03
-7.266243776476997637e-03
-6.257834176883666014e-03
2.433947123215614902e-03
3.728227543689566648e-03
2.191491218408345935e-04
2.725510771102989619e-03
6.507012317070287079e-03
4.757462953444336999e-03
7.562497193473946555e-04
-1.735361540800137246e-03
-5.399043605019746396e-04
-1.898064438044742494e-03
-6.545538966512879329e-03
-2.878460230628862148e-03
1.095160044381821539e-03
-3.469677608212401020e-03
-7.788585900531361933e-03
-7.230271835478229922e-03
-2.759594935833686348e-03
5.161090368484285524e-04
3.322281800583270096e-03
5.844318575246715101e-03
6.223235440917618960e-03
8.802942752360614145e-03
4.349990934808522017e-03
-2.401201886358430605e-03
-3.673006477168228685e-04
-1.507998857345529617e-03
2.014827316858348871e-03
5.806716856679498134e-03
-5.783566537246316412e-03
-8.395688236926282522e-03
-3.370311795724896422e-04
3.998986771442139716e-03
9.722872766931837940e-03
8.381680639310900086e-03
5.299555774940119951e-03
8.889161203146455845e-03
6.379339569293093065e-03
6.346442506281365888e-04
-3.508253897964103488e-03
-8.603955111627268129e-03
-9.625004310983769490e-03
-8.961218074389482383e-03
-9.828789511791634348e-03
-7.700249463416708809e-03
-3.019569761799166443e-03
1.323110574197644248e-03
3.769196778681947746e-03
-9.140731154966018129e-04
-8.414914411219238249e-03
-8.174324559573840562e-03
-7.696776564475967496e-03
-6.589379171958265578e-03
2.944764206878400584e-03
5.007079162067025815e-03
1.761522337774643499e-03
4.508251324188996406e-03
3.277062152974209112e-03
5.546558546846460519e-03
1.079679520898113761e-02
8.229164134687614110e-03
5.733847450848961712e-03
-1.940541039280571471e-03
-6.452784378273290766e-03
3.094495273196780361e-03
7.987898855963949246e-03
1.009091525249872917e-02
9.481865275205086929e-03
5.160158387616421032e-05
-3.096691953817524469e-03
-3.809715204680469598e-03
-6.968025047925403316e-03
-5.872819623251027653e-03
-2.452800775785242676e-03
-1.942466757703448709e-04
-5.067624696322596545e-03
-9.462380737178045439e-03
-8.760969707608406293e-03
-8.104230735022555435e-03
-8.666696171787749165e-04
3.445089083265520050e-03
9.322256135431159570e-06
1.596198535217957038e-03
3.801240535264732712e-03
5.331663606880950382e-03
9.288788347273417567e-03
8.688686959510919655e-03
4.353624938257729272e-04
-5.537918215615255865e-03
-1.725710030015172513e-03
-1.389831703202713516e-03
-4.072900881020540334e-03
-7.953730416061323199e-04
-3.234938593289354847e-04
1.308626156916130930e-03
2.927610093350044469e-03
-3.593785425100845098e-03
-5.399929488716491248e-03
-2.902425212103791272e-04
7.632870457962175927e-04
-2.601722269671798236e-03
-2.918719164927269499e-03
-6.223015754885841046e-04
-3.468475798466763137e-03
-3.780331337892209494e-03
3.247423756426653235e-03
6.198797854110860844e-03
4.746381408355009567e-03
5.521838335745294681e-03
3.952291999306584667e-03
-4.304266295645290535e-03
-1.006463271828308449e-02
-9.809315998781086357e-03
-5.432986173066738783e-03
7.362673595759855645e-03
1.479594911539185674e-02
9.123022830820289031e-03
5.500588790734300786e-03
4.579408179968207961e-03
5.226709777976671321e-03
6.290445131182909565e-03
1.122036070769535064e-03
2.289909705486296789e-04
1.506838141576671104e-03
-9.237693758270501890e-03
-1.639528426107357897e-02
-6.427070098571208492e-03
3.176769038442852494e-03
1.581801886675233157e-04
-6.421827437214433672e-03
-7.241509682505068227e-03
-4.331658162224307287e-03
-3.410322194683951171e-03
-5.448003866127327285e-04
4.715415249451391545e-03
2.704927602899992282e-03
-3.727086707037156259e-04
2.475430297514431745e-03
2.389696618502678074e-03
5.879805918638633579e-04
7.411308424127752799e-04
-1.228441633264163585e-03
-5.083478311676309543e-03
-8.546962260460665151e-03
-8.144926464797638127e-03
-1.548751535561733754e-03
8.602519658364638291e-03
1.125324039268183612e-02
2.296357341825028524e-03
1.529014303488271766e-04
6.362570416629187431e-03
7.328253300957007429e-03
9.544159667326201218e-03
1.122851600553650270e-02
7.727268025570705953e-03
2.442876831922929492e-03
-8.392398159390012172e-03
-1.094144312588329025e-02
-4.738668293961036636e-03
-8.417546550460015820e-03
-7.797355213101835394e-03
-2.214152176925584473e-03
-5.702873292790039406e-03
-5.668146739954610380e-03
-3.768400379716831637e-03
-4.668498863016173374e-03
-6.934156734957374387e-04
4.047806127181492047e-03
4.095888368686678195e-03
-3.098314497566152358e-03
-7.150025651286714620e-03
7.180144392255559914e-04
9.624184538602927053e-03
1.515933396781597720e-02
1.299952724387347207e-02
3.272874135577849564e-03
-3.174250077231180640e-03
-6.464094951490379631e-03
-4.246283178315314773e-03
1.834192932542012041e-03
4.767485540550612209e-03
5.472939557998950447e-03
-2.561355017638955694e-04
-5.923674164114789767e-03
-4.629689513704757751e-03
-1.261791703162585404e-03
5.946018218784993557e-03
7.294739600153405008e-03
