4.985753583738019440e-02
5.305175368110881529e-02
1.294988139434994669e-02
2.176478828471409884e-03
-2.852753773439657692e-02
-4.433237123167226706e-02
-5.059187644188479355e-02
-6.081114317778962830e-02
-5.277879179442712676e-02
-4.534902374614013104e-02
-2.410480376222770560e-02
1.944706426413452763e-03
1.775960661983665839e-02
3.867966498415875004e-02
4.462068983355881729e-02
4.510867857496769079e-02
5.370451288275251284e-02
5.791565929873560697e-02
6.027874147552687162e-02
4.993978189359516567e-02
2.782386946007617962e-02
6.671449159023739792e-03
-4.152114185507676213e-03
-3.407178708446661868e-03
-1.875811636317452000e-02
-4.102390209202376459e-02
-4.176631222710835284e-02
-3.898770383519317706e-02
-3.881714125323704190e-02
-2.712120455458458257e-02
-9.017366914503111008e-03
4.274968425362567735e-03
1.075846610353386329e-02
2.070077631887308131e-02
2.979524108339350399e-02
2.419228451347858744e-02
2.224852234147829677e-02
2.852228860664723920e-02
2.075946709020327213e-02
9.547949040715614927e-03
1.308994710965881826e-03
-9.273545225824764496e-03
-1.164272591765853904e-02
-1.716415397710021815e-02
-2.372080393912703172e-02
-1.357046985125054915e-02
-5.522864356010115210e-03
-1.176453067046772348e-02
-2.064872784688351684e-02
-2.079239195439505639e-02
-1.335130126104042657e-02
-7.847309174610479082e-03
-1.972752431599214193e-03
3.193380092873880898e-04
-3.071934923987160344e-03
-2.591153050241134289e-03
2.073738568899589213e-03
7.713370077561060648e-03
8.242556400321218724e-03
5.451445751598943748e-03
7.842110962911883918e-04
-3.108857349148767216e-03
4.921691811346795044e-03
3.609381620256502674e-04
-1.399903947581545086e-02
-1.631154254376452738e-03
1.142229931357260572e-02
1.180245723106521441e-02
1.598259871336060386e-02
9.428644120104683057e-03
3.133416102399474729e-03
9.333528598156139860e-03
8.724258740951213939e-03
2.784867609996151579e-03
-7.230369518875800778e-04
-5.532465449196148459e-03
-7.646153057685065209e-03
-4.734183124131614157e-03
-2.023838965320135918e-03
-5.371256332211830128e-04
-2.701211147838791359e-03
-7.775801452991561516e-03
-2.913488253760795899e-03
6.652720888642128620e-03
6.695811345968740932e-03
4.127600704167086985e-03
2.605774796583443242e-03
-7.449076327478522169e-04
-3.304122426872543872e-03
-2.924829891355424684e-03
1.431449837014804258e-03
5.416080492033949374e-03
6.620623942470332639e-03
3.008918525564569044e-03
-6.256216229612373593e-03
-8.904347109908278615e-03
-5.987594078299971270e-03
-7.269515027390667690e-03
-5.169409832033230318e-03
-4.402146104419853417e-04
-2.216887705883224553e-03
-6.848215134464206641e-03
-6.521453291185390876e-03
-3.477795845327607280e-04
4.007534009654631357e-03
3.983741870174097553e-03
3.785596172081490563e-03
3.750931615288933835e-03
1.760926978229282198e-03
-3.377510312238887324e-03
-4.259772129806330826e-03
-2.997942630254590889e-05
1.276868893067841914e-03
4.863554166866096429e-03
4.531915216862385763e-03
-6.570974193005419198e-03
-1.448341457909658320e-02
-1.849542829202870456e-02
-1.536825652078201848e-02
-5.968570474983034106e-03
-4.527466748100899760e-03
2.485896866197483124e-03
1.511027389099180510e-02
1.811694417979269056e-02
2.037813413965657711e-02
1.693951429944521442e-02
3.605495401474865733e-03
-6.880153803703813534e-03
-8.285529618533848950e-03
-3.870070662441457785e-04
4.469563686346407841e-03
3.046479237764139914e-03
-2.661613021889907378e-04
-6.890709322966449661e-03
-9.559766637593974936e-03
-1.083236742910288070e-02
-8.785035400802082561e-03
7.610228668218709880e-04
2.031086535770563421e-03
1.968385193972682114e-05
1.956506703283308977e-03
2.721799425772466661e-04
1.733484194609705934e-03
2.439645605579161304e-03
-3.411973800755093312e-03
-7.377317588067927243e-03
-6.713068576115866805e-03
-2.315664407379917390e-03
-3.309203847357700644e-03
-9.473292273533849561e-03
-3.331270224602998417e-03
9.982233441086171138e-03
1.151360782218947658e-02
2.423568465660292520e-03
-5.343020335917949247e-03
-5.336083595341720512e-03
7.364209160479282673e-04
6.267581382300315036e-03
8.077897981439534358e-03
5.992620083915680546e-03
-9.963956983889128531e-04
-7.026159415703422777e-03
-7.638341176747508003e-03
-6.882819936100008362e-03
-3.363898904814068870e-03
2.216798531195235010e-04
-1.446488409299767153e-03
-1.242589326745799361e-03
1.253125632331893993e-04
-1.170884217702501933e-03
2.923029524922429474e-03
9.989105121863028208e-03
9.115133864985415849e-03
2.084777996923959514e-03
-1.475254053224759514e-03
-1.017171255805289151e-03
-4.743658990539175412e-03
-8.255674664353828199e-03
-2.795387421442988452e-03
-4.299862358324450025e-05
-6.738966543980084815e-03
-8.765363651462144620e-03
-2.244860702717218180e-03
5.848871256951005022e-03
1.157413174335776736e-02
9.596704175907012219e-03
3.099153903079260135e-03
-1.801881565159034991e-04
-2.165452495815528393e-03
-4.125501127913796910e-03
-2.264490231698838146e-03
2.659419551407767209e-03
4.483448511215406933e-03
3.821384753372431865e-03
3.686434750720846750e-03
-2.487992589344787883e-03
-1.270814750235550392e-02
-1.662644228751334816e-02
-1.451277665460347713e-02
-8.550150102357729348e-03
-3.830662921664959066e-03
-2.803129984531774806e-03
3.358256998368747484e-03
1.286658844066617020e-02
2.023243551712035349e-02
2.375936563640954069e-02
1.296400389087468130e-02
-5.919030557910587992e-03
-1.245380602049489700e-02
-7.476676681977393636e-03
-2.060783519847836278e-03
8.148468376920094385e-04
1.974267051675553629e-03
1.777251509987304431e-03
-6.781902214000685904e-04
-5.271025784030964646e-03
-9.076836028657952332e-03
-7.587520840409440331e-03
-4.450005114652263311e-03
-7.722586577715548177e-03
-1.271499483254317879e-02
-1.016360787228394111e-02
-1.875651824114044032e-03
3.139694130775260578e-03
4.667380702464776071e-03
8.429586852460474802e-03
1.009393087932857098e-02
9.772157230742824219e-03
9.279496071433060780e-03
4.542809119328364981e-03
4.132377107709698377e-03
7.374790830820170465e-03
8.289985988594804692e-03
1.233995977053471867e-02
9.032043069730918972e-03
-1.674882606715291222e-03
-6.899433976886386842e-03
-9.516326838190319534e-03
-5.067686567654838999e-03
9.772657107152806291e-04
-4.135954795530688045e-03
-1.392587027389615394e-02
-1.660496070411549008e-02
-1.113627882413845398e-03
1.401774429604299953e-02
9.653054067556171916e-03
8.750880206303649237e-04
-1.463457182527081943e-02
-2.852894564615188200e-02
-2.099086856233557674e-02
-8.844380431905319445e-03
1.808386601891335318e-03
9.532759147503009831e-03
5.140771481803697342e-03
3.462886979789487479e-03
7.596883893977369150e-03
4.361811387430108988e-03
-1.049536755566236315e-03
4.368093990230216377e-03
1.093787402974539212e-02
5.106108908202597156e-03
1.567962485044531885e-03
3.958141768557833784e-03
4.066426574428653670e-03
5.476448417133870927e-03
4.798657926862473500e-03
3.654519752214878663e-03
1.029771931169520035e-03
-2.227414099431847348e-03
1.063122383323066326e-03
7.944938190297776582e-04
3.348773261400081469e-03
7.881875459978586462e-03
-9.130922947493608829e-04
-4.567483970275455253e-03
-3.588728824623796995e-03
-8.185185353249671905e-03
-8.596038765802760037e-03
-8.389338095995136843e-03
-4.890238609251338492e-03
-3.725946586635276326e-03
-1.059811365248642182e-02
-1.147776560613425652e-02
-7.480185936905987994e-03
-6.177528578894695907e-04
6.564642711378566821e-04
-2.912271129842171433e-03
8.233990974282597367e-03
1.499032223214777880e-02
6.885462489503854297e-03
1.376432168297336269e-03
-1.083392382269839560e-03
2.435516558441696081e-03
7.160624175519214596e-03
6.133363929437503706e-03
2.544940184711116937e-03
-2.687686790295241903e-03
-4.220391143836761498e-03
-4.385587304654896615e-03
-2.659417656727475210e-03
-2.277663749708048330e-03
-9.410282315620485324e-03
-4.794003250982484601e-03
5.825791148200280475e-03
4.980666515370451956e-03
7.287496951682286006e-03
1.132407017104064550e-02
8.643086028441123933e-03
5.918109971287950632e-03
3.075256500888683998e-03
-2.661172096123496159e-03
-6.011238204798574278e-03
-1.570043305814860981e-03
1.149181140110389424e-03
2.642854328197810545e-05
-4.800889902179993280e-04
-8.667953315731127817e-03
-1.254082308995193434e-02
-4.057295519151545363e-03
-2.773589546850515741e-03
-6.521190209577855564e-03
-2.948636334150058023e-03
8.528587332057855405e-04
1.196246523749494930e-03
5.178825433758543588e-03
9.696337880163120523e-03
7.232825278257961829e-03
2.870399302612787733e-03
-2.353851843527086408e-03
-7.153995181830231226e-03
-5.158071747072834334e-03
-1.488899307809021886e-03
4.775970861520920400e-04
-3.240177032026650764e-03
-9.924327800803919852e-03
-4.455865734223516880e-03
1.336231881002500343e-03
-4.718605035182804434e-03
-4.234593694138679733e-03
6.777482067392705603e-03
1.016520099911612934e-02
2.020604994975208190e-03
-2.640417167036945628e-04
6.934684155907736361e-03
9.562230032944589453e-03
9.296468095884930644e-03
5.187556753593377222e-03
-7.888401920888330615e-03
-1.247881819416817549e-02
-4.891685882748507755e-03
-2.556170979336492297e-04
1.857390501721757885e-03
2.581963969577583205e-03
3.081015686517504619e-03
6.096721853548978283e-03
1.944818331396402141e-03
-2.920225068593482708e-03
5.163932627490317069e-04
-1.157245408451961811e-03
-3.309235605983686622e-03
-1.398330752006083635e-03
-6.238010099059001015e-03
-5.275232521500922665e-03
2.568008644701857100e-03
4.163182940614207697e-03
7.652480160948997752e-03
1.082428522986370739e-02
8.160622514578320247e-03
4.967041285802665553e-03
-9.724553459096025015e-04
-1.713899531413637335e-03
5.091912666452006950e-03
4.156696170334480550e-03
-7.632846059436637675e-04
-2.554240600676335651e-03
-7.335813488669322945e-03
-9.918295466220033649e-03
-7.288121741904383249e-03
-5.658989462729056147e-03
-1.677615237288342543e-03
1.456257930342263161e-03
-6.782536315938184936e-03
-1.697027202285070549e-02
-1.690349130899868393e-02
-1.566350480019412100e-02
-1.668037083346717367e-02
-9.932562547625537613e-03
-6.556792350803792571e-04
4.313347918402113401e-03
9.660175470060962388e-03
1.405473607978631294e-02
1.855888713918878163e-02
2.055038444371607570e-02
1.315495864215073321e-02
7.566725639318269171e-03
6.401903853101974934e-03
2.035298723345525026e-03
-1.966940169202048994e-04
8.765885330527334405e-05
8.674498806916607204e-04
4.156564914477094922e-04
-1.765854396966693753e-03
9.020771418227770903e-04
4.624049339473647845e-03
6.805131418495998993e-03
8.519149998921332970e-03
5.864129703848774446e-03
2.731167548114670027e-03
-4.464568780409300798e-04
-2.144335288648603968e-03
-2.400148096971319815e-03
-6.511372913928473345e-03
-3.869446724232824229e-03
6.897969496474646222e-04
-4.198338528240649382e-03
-6.861953790337422740e-03
-8.091062098653008933e-03
-9.850085488571630812e-03
-8.242821254354434218e-03
-7.464025821219538552e-03
-5.010504895834806335e-03
-3.453513347620542663e-03
-2.211593128312705058e-03
2.615665082542106053e-03
4.026319299698032442e-03
3.080546598861751834e-03
-1.580008271466165019e-03
-6.964011920954966788e-03
-3.888575958028512008e-03
-1.883354167461023191e-03
-1.180992195659997818e-03
1.128119338779513467e-03
-4.550248358115491481e-04
1.591022860535426433e-03
5.718534389357514056e-03
6.921899334361506818e-03
9.622943099313269535e-03
1.171914361816939025e-02
7.198555697601581246e-03
-4.644548727232422798e-03
-8.905450651668731649e-03
-5.405584836136641431e-03
-7.097570429657107730e-03
-3.146262412734364303e-04
1.218556905073495469e-02
1.314795019103493987e-02
8.491711859143769026e-03
3.821406275366400103e-03
7.549099077067682184e-03
1.315742683577378683e-02
6.331822651135812774e-03
2.573602884635920861e-03
-3.528740892404747583e-03
-2.434917027057291461e-02
-2.834760727173521108e-02
-9.543932147529878701e-03
-3.124747377393731484e-03
-1.126166123631980147e-02
-1.132473450282241167e-02
-1.634076117434119868e-03
8.572435481228473514e-03
9.478855040006516769e-03
1.564830693420151721e-03
5.340959501089100059e-04
2.304486070920445419e-03
-3.039546992356790666e-04
2.340638379811050586e-03
6.507834136410491077e-03
7.709833521246575554e-03
4.829363960803752243e-03
2.876175866793632876e-04
4.792905550509493975e-03
9.060071201891544551e-03
7.966807151754960389e-03
5.962253578232638677e-03
-1.308869962478565211e-03
-3.048071778195618475e-03
-2.270529592974058824e-04
-4.223309014400833568e-03
-6.074542592515896205e-03
-4.215644960337583923e-03
-3.689748214453334504e-03
-6.127419321486698642e-03
-7.667161244117077709e-03
-2.555586304394344681e-03
-3.722567597925500104e-04
-1.319771133773422860e-03
-2.907350877351655687e-04
-3.440362803447365690e-03
-1.057620403407300881e-02
-1.554762231927259673e-02
-4.499227160046709133e-03
1.271542937348413109e-02
7.629625617826236474e-03
-5.311511413891824122e-03
-8.367525034141662377e-03
-7.481845512819976576e-03
-2.728581862000829545e-03
8.448910645481462998e-04
6.777084219833484809e-03
1.502375090941531106e-02
1.106271720257142807e-02
5.637366126737448219e-03
8.135526956950864599e-03
1.047997172518375965e-02
1.197163993249747427e-02
8.957654027688314105e-03
3.859393279758339783e-03
-1.745638753337712618e-04
-6.198857957795819544e-03
-3.819886554881219299e-03
4.584435325606019997e-03
8.905979704498582367e-03
1.058587037736517453e-02
2.432584166016267795e-04
-1.080753843375709643e-02
-4.681762384736333840e-03
-5.635727344641957431e-03
-1.573952921409347075e-02
-9.744437586994589978e-03
-3.624250071656490071e-03
-1.337462962606408845e-02
-1.854313222436045419e-02
-9.490887530685837223e-03
-1.820719655749948639e-03
-9.717690549646322779e-04
3.435537140850311241e-03
7.995110588533319018e-03
3.726337189181935447e-03
-1.371204146127712360e-03
6.419311941200315629e-04
5.726460735168694208e-03
8.424510992321812899e-03
7.489630740416206370e-03
4.431840596499739618e-03
1.282510548339203848e-03
2.474088884198490405e-04
5.548545112102169774e-04
-1.946020192451335812e-03
-4.075210635378077526e-03
-4.945230177429054200e-04
-4.708101985149089927e-04
-6.669836610864905702e-03
-3.116675629909755607e-03
7.152862898046434374e-03
6.585973477035825946e-03
2.274879666961192055e-03
6.384829816601847625e-03
7.598006351428664845e-03
3.334838016949295499e-04
-1.655374069616791753e-03
1.097060346879080110e-03
1.956858173456931232e-03
5.071250155747658930e-03
4.843276568925854002e-03
7.754364238446409237e-04
-7.013262367289924745e-04
-3.040531982813551425e-03
-2.764995557823235212e-03
-2.075059372927405728e-03
-5.525998484178848771e-03
-4.971216585978834555e-03
-5.949266427908861919e-03
-8.944278884099347501e-03
-4.641257520007876364e-03
-1.475712239189695078e-03
-7.312839926095687565e-04
8.209498796393577356e-04
-3.299045166215840586e-04
-2.627252900108272048e-04
-9.925493151644029441e-04
-1.511484174676705396e-03
5.627717339927946864e-03
1.158169459809928192e-02
8.350188474486602494e-03
1.530173167903488979e-03
-4.154512183329524266e-03
-1.083669601265255591e-02
-2.004486649891386654e-02
-1.926712612297326599e-02
-4.828386979815931998e-03
3.223244256113433522e-03
2.734007937743259450e-03
8.117301010810632281e-03
1.868639200606365264e-02
2.889524610713890829e-02
3.015684699202786367e-02
1.664054275650039133e-02
-3.013642688098474437e-03
-1.788585003381844979e-02
-1.856166308670777892e-02
-8.476820554959206555e-03
-2.311419924972992618e-03
-1.323339829246203371e-03
5.914204005876032896e-04
2.230317905984933666e-03
-2.683366314012372925e-03
-8.247239553666662823e-03
-5.422290503943367687e-03
-3.713185729661374647e-03
-3.390636821045474487e-03
9.954836374661461904e-04
2.681447764827305218e-03
3.286780090710277394e-03
2.033145298271457103e-03
4.426018925581357314e-04
3.931045652397538101e-03
2.894424780655176829e-03
-1.172568795895202525e-03
-1.170510653611608453e-03
8.841731360981590349e-04
3.239723049491353632e-03
2.379631373070236703e-03
4.901637120045408864e-03
7.608804303162517053e-03
6.176143748947035507e-04
-2.331121542788756450e-03
4.789460322353394570e-04
-5.838634468436662388e-04
-1.133747816121283020e-03
-1.236715900034559461e-03
-4.602113392488354875e-03
-1.220493212513629015e-02
-1.647614032678004770e-02
-1.036253652150865602e-02
-3.413879659373061232e-03
-2.035631965788012266e-04
4.005146799050300112e-03
7.313619791405902119e-03
4.565871794890956001e-03
-2.018173890163357364e-03
-4.631549728144986576e-03
-1.459023540688513540e-03
5.830825613012548259e-03
1.074224604565301826e-02
6.239182641153415317e-03
-5.392153880417966186e-04
-5.193258215749039803e-04
4.163345476975915081e-03
6.788782385315656268e-03
6.854540933376400587e-03
2.265405840186305361e-03
-1.167895095533713970e-02
-1.755560817825762773e-02
-3.567608313662038073e-03
1.276325195836023468e-02
1.909428438478406875e-02
1.327977904138001423e-02
1.060066939075333253e-03
-9.517156343036212857e-03
-1.551834888106476060e-02
-8.804958145463309682e-03
1.749533213085144746e-03
1.956404474824887437e-03
2.757573153559673366e-03
1.071621058309609950e-02
1.252014752920974951e-02
-1.999095832434369044e-03
-1.627361999278056567e-02
-1.180002299653724017e-02
5.413258742036739673e-05
4.780089567075084325e-03
-8.586895134770095462e-04
-6.225900669810643072e-03
-1.480805308014375475e-03
5.375293638136115302e-04
-2.807554170006999663e-03
-3.616382826110276991e-03
-5.848503054304142901e-04
3.416948265517331159e-03
1.617662623032342694e-03
3.472806025126790996e-03
7.783016517591555793e-03
8.545282517054735363e-03
1.225292261013110132e-02
-4.190879191265328881e-03
-2.679949496183648555e-02
-1.457002141399912909e-02
1.689900061390785073e-03
2.227533430108464326e-03
3.713828287999449123e-03
1.655948832734037077e-03
-2.433311788939470678e-03
-2.976763610998436633e-03
1.215595996100024600e-03
5.166376642208397006e-03
3.270007449453612471e-03
5.236517396651689353e-03
8.865864681238217956e-03
4.364858231349092767e-03
-4.877615454483266201e-03
-7.847581015012173103e-03
-7.329911930826552274e-04
3.336308596033861224e-03
4.369823835133549231e-03
5.411782532803459736e-03
-1.112888277694134426e-03
-7.757678096056303159e-03
-1.232078075989114993e-02
-1.032283732102631454e-02
1.021440715902822895e-03
1.310151523109955810e-03
-2.795237564113532257e-03
1.396064581198439231e-03
3.427288471613049517e-03
6.933671052371208690e-03
1.045092913797722976e-02
1.143874960670487016e-02
1.368138070929642361e-02
6.719661307782249376e-03
-2.842981152071456623e-03
-2.911823960570543695e-03
1.104437254679076436e-03
7.237083341252701502e-03
8.127410647714303910e-03
-9.226550584243095338e-04
-1.102071875320101597e-02
-1.590847462003151108e-02
-1.506148020850350648e-02
-1.301938650101797101e-02
-6.825024050679934923e-03
2.237330240979832924e-03
1.788186115536696732e-03
2.356217913820518681e-03
5.584968066699955505e-03
-2.371750332183160479e-03
-6.242469265307323475e-03
-4.199465605103203970e-03
-6.058296441737828081e-03
-1.691325316250743942e-03
2.565453829319941370e-03
3.265112633839576881e-03
7.739675193946621463e-03
8.387757775566226717e-03
5.416993125156740162e-03
3.355908743515250564e-03
1.311585296538644212e-03
-3.557382230041341220e-04
-7.641090438906214012e-04
2.742531495152255769e-04
-3.266566191129744237e-03
-4.995120607561658564e-03
-3.364747945068983972e-03
-9.523698523840745667e-03
-5.975950991046880684e-03
5.988222590886002096e-03
1.219431519005695396e-03
-3.402011165358607807e-03
3.321782677956487077e-03
6.202109021008721593e-03
4.772373425455314969e-03
3.170329033554434781e-03
4.020396916032869215e-03
6.362253928495618938e-03
7.591085093334866765e-03
8.770402804524962334e-03
7.145161763561344061e-03
3.118359716809673918e-03
-3.227936504807791315e-03
-1.059844257567863456e-02
-1.132176116597051994e-02
-6.633849492304030697e-03
-1.773026924877698328e-03
9.836171918862709768e-06
1.135285741436077881e-03
8.076439481527189143e-03
1.160391247137392522e-02
5.942941178529228922e-03
-2.087152759028497277e-03
-1.324316134426880599e-02
-1.700694610020591843e-02
-3.938021056890162602e-03
4.297993473263701618e-03
-1.950449350410223990e-03
-4.928799420370722807e-03
-3.614289172911172923e-03
-6.313180641995052439e-03
-6.852590780743196205e-03
-3.530157740289746951e-03
-7.771549515562222246e-04
2.068176092162973562e-03
3.891788933363578024e-03
6.135140624363816589e-03
1.009738745552164058e-02
9.856018893766532382e-03
7.557680807780030145e-03
6.458652199024856114e-03
3.044689440785602191e-03
6.942002651118582080e-04
-2.130458748468070946e-03
-7.823235584013094393e-03
-7.272513089517490190e-03
-5.760911208309795915e-04
6.821351184190670332e-03
1.053271649791998228e-02
5.374533054416387109e-03
-6.202567355856217299e-04
-3.134004534315159955e-03
-6.557888313335947898e-03
-9.643035397498403438e-03
-1.321262115347446829e-02
-1.235087339343837916e-02
-7.239462310461147569e-03
-8.045279075511661826e-03
-4.714361061930383810e-03
6.055462951273757853e-03
1.096632870634497124e-02
1.396977110297820471e-02
1.378865910909184665e-02
5.952135317854150010e-03
1.567114638841545296e-03
1.137600868180430221e-03
2.063503422399850726e-03
5.696199576213267085e-03
6.897137750766080613e-03
4.313433008500418449e-03
-3.636103293650481440e-03
-8.921581487099778524e-03
-2.103508036932260662e-03
1.006721813743361241e-04
-2.344063941559199060e-03
3.457889637132495649e-03
3.155786124352638589e-04
-1.102327525876228842e-02
-1.103550308567120136e-02
-2.655938948040056230e-03
4.198091573917295781e-03
-1.149313867765981365e-04
-4.787569491043928809e-03
8.104880879631547142e-04
-1.140664470865834822e-03
-1.999897627752412164e-03
5.483875745815518753e-03
3.347150166266723171e-03
-1.062574366198406825e-03
-5.263734987983942869e-03
-7.199971107246333664e-03
-7.723585605991541278e-04
-8.859745621708839391e-04
3.054222690926891213e-04
4.198704534444835761e-03
-7.917133437046469787e-04
-6.307667818986083036e-04
1.186835553581424641e-03
2.001510576648401953e-03
7.783778138513821818e-03
8.536297847459829724e-03
5.413844801218373019e-03
4.585307160424012237e-04
3.708382655169917101e-04
4.045370133586087893e-03
-9.559660230420386970e-04
-7.819430075884641496e-04
2.475877942185809432e-03
1.292544795676370999e-03
2.874748563260754331e-03
-4.077433882560334809e-03
-1.012271380245195231e-02
-3.975422778760618649e-03
2.177400059916825316e-03
4.862000491519491777e-03
3.122842283826365428e-03
-7.147528757374941623e-05
-1.154015537461789559e-02
-2.387541565621198458e-02
-1.052647697209621071e-02
8.949466923364896367e-03
1.321434261417645493e-02
1.015317259674776776e-02
4.081293091878188811e-03
1.704410326905316572e-03
-4.744179476064757446e-04
-5.215517419356397941e-03
-7.122265209546633537e-03
-2.315558164173171264e-03
6.982691021245177564e-03
6.618769657720653156e-03
3.467155846242444151e-03
1.340313323771229539e-03
-5.922511354449680639e-03
-3.142464987680442835e-03
-9.045246012157468667e-04
-5.036512150634794502e-03
-4.551113867922907557e-04
2.218011555873396559e-03
6.157566484896659885e-03
8.901780493711727513e-03
-1.701189642099187709e-03
-5.801318235848182750e-03
-1.089761811745813868e-03
1.430401816915462558e-03
1.930456029914411542e-03
-1.514627981887234657e-03
1.411477602860940596e-04
7.378122558632242006e-03
9.580008401097590137e-03
6.314410951123288970e-03
-3.103198364060868412e-05
-4.623509539329739328e-03
-4.737645369321685611e-03
-4.015243212274059378e-03
-4.039251007080446251e-03
-3.463169686703447894e-03
-3.585789729687358096e-03
-3.488466060556356767e-03
7.008549515960116197e-04
1.304068213260881201e-03
-1.054303094318068471e-03
4.981203427494513766e-03
7.977183036823914247e-03
2.911661496220378439e-03
2.224390855287391826e-03
-1.978733567449253265e-03
-9.723204772734417300e-03
-2.807229820802159374e-03
4.043036206267215833e-03
-6.195350362597197569e-03
-1.168231056378351423e-02
-8.338285161920998279e-03
-9.354113224458495898e-03
-6.162375946956076371e-03
1.520596121358493927e-03
7.169841101514549085e-03
8.217899500977565719e-03
6.218613944068908557e-03
1.170048310861409105e-02
1.511157468265232791e-02
1.224191147587372179e-02
1.416396404133335452e-02
1.156622245547928376e-02
6.345816238643734765e-03
5.687452670057927505e-03
3.661675805694069273e-03
2.417737516419650196e-03
1.004134665111164120e-03
-1.417622045750399455e-03
-6.637641156389408915e-03
-1.209270148184826178e-02
-1.012208088542676694e-02
-1.040640410834094316e-02
-7.870143186277626587e-03
-3.408457805643655240e-03
-1.241648433234991168e-02
-1.205168273244458695e-02
-1.656603698358575594e-03
2.662309112460409764e-05
6.986505272268810421e-03
1.277005674701416418e-02
1.460561445688623658e-02
2.238824735737379723e-02
1.600784185239485791e-02
1.202706588935764523e-03
-1.894629764546807912e-03
-6.980897100066748087e-03
-1.066411280147379001e-02
-2.929865279711181547e-03
-2.842881313437422511e-03
-6.743503216119426692e-03
-4.931900748554009055e-03
-1.523639736845831642e-02
-2.542661563013513815e-02
-2.101936781589283654e-02
-2.318036814538774332e-02
-2.768489166748727692e-02
-1.705734714645645855e-02
-3.445187493137208748e-03
7.474733494159768558e-04
6.619885747689127457e-03
2.340936565456018525e-02
3.992202906183041355e-02
4.365635714712368110e-02
3.488140900479311940e-02
2.649877235603107298e-02
2.519045939553082522e-02
1.708341586990922908e-02
-3.738447107493238913e-03
-2.385696390980059783e-02
-3.089045625085250213e-02
-3.183514623180996872e-02
-3.878686668333839599e-02
-3.688177758497723779e-02
-2.095958338501151610e-02
-4.922142241609792947e-03
1.672150080775969272e-02
3.648187342485056939e-02
3.706688281781441580e-02
2.314116334871619413e-02
-2.790001701680281873e-03
-2.568628001980058362e-02
-5.089547743905315641e-03
2.946391904818606786e-02
-2.721148078424245019e-03
-3.111462028269613989e-02
3.098199671120840243e-02
5.397796614934589204e-02
-2.307197223353912863e-02
-8.033330884969540342e-02
-6.316258939748516099e-02
5.499287790309675614e-03
6.323827222335262621e-02
9.862627155480430119e-02
1.448454462082968686e-01
1.202948007569620004e-01
2.413092275480323637e-02
-1.499342336938032892e-02
4.032530265853918189e-03
-4.417507304004290695e-03
-6.656682249162945708e-02
-1.211193664105510576e-01
-1.327648106569166708e-01
-1.265734388037287605e-01
-1.050735132657274196e-01
-1.255323636118318986e-01
-1.513301901284001549e-01
-5.399035458740206878e-02
6.550446390620388859e-02
1.279752668816871719e-01
1.732305735422027537e-01
1.466739125373698882e-01
1.095397663371171504e-01
8.604936549961640646e-02
-1.400005210194472938e-02
-8.643297665423127496e-02
-9.550157196279540628e-02
-7.446516344360060158e-02
2.232289618231603906e-02
-1.040242841405900585e-02
-2.103743297679608326e-01
-1.893360740499152317e-01
8.138348683518165094e-02
2.548229047658785440e-01
2.310174046252916058e-01
1.359605965579190889e-01
3.560022340234067495e-02
-5.705473461497378301e-02
-5.644714968617785267e-02
1.054477735882361662e-02
2.279677817514433671e-02
3.395293179701343311e-02
1.787789601036663192e-02
-6.457896414375982608e-02
-2.845511880101882218e-02
6.300648608937690909e-02
4.714267162712798553e-02
3.804158931814854289e-02
4.221102547360182367e-02
1.720955299675196518e-02
-5.853430093178328512e-04
-5.344225243990297081e-02
-4.527898306876102646e-02
6.883251210110756524e-02
1.118955755422491732e-01
6.529745203963888134e-02
-3.012283719007533347e-02
-1.486397568352531284e-01
-2.003200891186007748e-01
-2.646132544362362893e-01
-2.837755125001300560e-01
-1.037664967911520464e-01
2.012533663527809810e-02
-1.356268026077947844e-02
-1.957860176434662175e-02
-2.941858162207629593e-02
-3.710928076275074594e-02
-4.180386036436088693e-02
-6.917808696466505591e-02
5.684743531843694866e-03
1.334119123602989510e-01
2.270220862986014332e-01
2.485037808337013654e-01
1.614137976570415578e-01
1.376475175799513062e-01
1.650492776745531853e-01
1.197902816243309465e-01
8.074921608567568743e-02
3.865029694612514416e-02
1.481778504186080474e-03
-1.702980175021787113e-02
-4.286861477367329143e-02
-5.188482791673852679e-02
-7.941177901532155137e-02
3.007207183409568024e-02
2.240100011169585681e-01
1.277775271736769636e-01
-8.609661745672698985e-02
-1.743343533989295813e-01
-2.353700538805641174e-01
-2.296075871024396420e-01
-1.934021669250834963e-01
-1.642272891195017126e-01
-9.773115416989464066e-02
-4.832719160571149336e-02
5.894062221205962487e-02
1.949114108812714241e-01
1.726328463694973836e-01
4.733801861745886436e-02
-5.917481263569774469e-02
-1.069097120601548295e-01
-6.237116200454598941e-02
1.115658552629637422e-04
-1.040891960742429748e-02
-4.808711271832196571e-02
-2.440473574044743979e-02
7.858980157360943852e-02
1.656009183474516644e-01
1.421173995841489845e-01
8.582369781001521203e-02
6.144333469950201410e-02
1.920440955034767930e-02
-1.814137903371983856e-02
-1.557586454237452900e-02
8.694818012617250985e-03
-5.621762548794002196e-03
-8.915789289439174370e-02
-1.011845637528323016e-01
-4.062984696198154201e-03
3.875979540693511027e-02
-1.245367029894184395e-03
-2.313529155245407087e-02
2.672685580377811773e-02
9.541960072945881999e-02
9.313012858300410979e-02
2.737293447805263721e-02
-2.481441577609312318e-02
-2.084495219015615117e-02
-1.761244583338590977e-02
-4.879613369862367128e-02
-5.014411519710283704e-02
-2.473790458700081754e-02
-2.468915092021149726e-02
-5.630949079799811574e-02
-7.582982956082809367e-02
-4.990097477594614833e-02
-2.031376491428208905e-02
1.846473000908138706e-02
6.127840707440922879e-02
4.736866266770260736e-02
2.385867192555702135e-02
1.964975854737126618e-02
1.369861421569837411e-04
-2.592225098349513687e-02
-4.054670061131267905e-02
-2.555235070010379236e-02
-6.043980264546527058e-03
7.728501504026165023e-03
2.776898552999111994e-02
3.085962131927791341e-02
5.102703510818518834e-02
6.418828799357088888e-02
2.543041315570459052e-02
1.448946761853043066e-02
2.314386971631392231e-02
8.796633781469154895e-03
5.635232155523935528e-04
-1.146834846948661946e-02
-1.161899329770705799e-02
-3.187111216811133567e-03
-1.173009569056072260e-02
-8.808293921785058031e-03
-1.094955942522132623e-02
-2.912987816433906460e-02
-3.148525890242848818e-02
-2.101169908744255493e-02
-7.635326409839811833e-03
-5.264806504218439917e-03
-1.508058935232392019e-02
-1.558681091687251496e-02
-6.918366937466112129e-03
-5.476516942910230213e-04
-3.325208381877375712e-03
-5.008294311231201341e-03
7.897428154403706791e-04
8.020463851700181113e-04
2.248203448525059375e-03
6.802201796036364337e-03
5.791812569179372386e-03
6.765308686599432082e-03
8.886163468267211556e-04
-8.378520048489034380e-03
4.679047599170288235e-04
1.512832856152072740e-02
2.153615361750220100e-02
2.616498051563252367e-02
2.710364224408555109e-02
2.670422316813414465e-02
3.541636067705499630e-02
3.866884231724898591e-02
1.780233071223273969e-02
-7.296776925267427390e-03
-1.611125427859306375e-02
-1.861317471615119706e-02
-2.108372617982063463e-02
-1.764327240209333236e-02
-6.487427567968336896e-03
3.592281669930443705e-03
1.408212295864588520e-03
-4.671209415096622825e-03
-8.124942821362789863e-03
-2.498392084185804135e-02
-4.667523365125227086e-02
-4.275956681894450134e-02
-2.092279570699925179e-02
-3.516858351188753302e-03
8.767683022354219244e-03
1.430040347903929060e-02
1.707640115622837892e-02
2.157047515573156521e-02
1.132211541439328943e-02
-8.975133885727659341e-03
-1.465071222614163469e-02
-7.444076018705841555e-03
5.280395353826904635e-03
1.928878225529056731e-02
2.596463122486820582e-02
2.818322704353077440e-02
2.716191376918663386e-02
2.638980346821609771e-02
3.221176140305462982e-02
3.010729302452362643e-02
6.221242334725695169e-03
-2.688533338260413671e-02
-3.856154430698337243e-02
-2.043385473560829432e-02
4.650996639431186509e-04
8.257791643038336557e-03
-3.810879907189449302e-04
-1.584695241330395105e-02
-1.104898460548536798e-02
1.753860797850241701e-03
3.038703519703751842e-04
-1.319592715498673838e-03
-6.238421148905492174e-04
-5.387187716214895429e-03
-1.415895773182486959e-02
-1.822578610165074761e-02
-6.609119238519521079e-03
5.693130134735130410e-03
4.890178535285897438e-03
-1.597254503300433006e-03
-8.775492913446618012e-03
-8.858205360444003709e-03
-3.825826451739787991e-03
-3.771852467508852828e-03
-8.704716984160703816e-03
-1.244915484603355445e-02
-4.961597777372529078e-03
4.643914610279956633e-03
7.587922994085319686e-03
1.399254043578993661e-02
1.864361432317046888e-02
2.000851482666509557e-02
1.817308050880006229e-02
6.517525051627925600e-03
2.056619352594531245e-03
8.080997466392448453e-03
1.395961257508583284e-02
2.430781886937133374e-02
2.496712930166565536e-02
4.835259274802156462e-03
-1.302319260241572435e-02
-1.102575872948753817e-02
1.156627938192451377e-03
9.937020700191848480e-03
1.130481371574254199e-02
2.765274292598407166e-04
-1.526389696925528096e-02
-1.340980140348234720e-02
2.020667052424751902e-04
1.621739850304556880e-03
-7.579528766029287185e-03
-1.160800289081635392e-02
-1.222466503890245852e-02
-1.598869305091056223e-02
-1.608023120587039403e-02
-9.072935785070890963e-03
1.466623294749181024e-03
1.000108948262861362e-02
6.171483464127632337e-03
-5.337394166162306650e-03
-9.665112342895430808e-03
-1.067510991985040798e-02
-1.270135043028832421e-02
-8.858060786794654667e-03
-6.930190230499695854e-03
-1.246980535736047502e-02
-8.765445432750150132e-03
8.979412402917365255e-03
2.398105963040280189e-02
2.502392749791609167e-02
2.017592917245151704e-02
2.072235848922422338e-02
1.881451290285328024e-02
1.002072743846110087e-02
5.463928914128900020e-03
5.341281003288382394e-03
2.249548643496373027e-03
-6.627786192444846611e-03
-1.289896699374006549e-02
-6.297069155525977270e-03
-1.497779101288713825e-04
-3.445462311054670133e-03
1.441670803387850100e-03
1.549827289762361997e-02
1.757598960575355168e-02
1.324398190178262963e-02
1.159694927164796503e-02
-1.002705004054326235e-02
-3.389814930663286041e-02
-2.243691028249264821e-02
-5.863116005056995435e-03
-3.447261750441363640e-03
-1.835201749377627940e-03
-8.829636513045097806e-03
-9.253291358933967911e-03
3.497931513333425377e-03
8.193645053915000337e-03
9.074842556797364790e-03
5.077890376613770386e-03
-2.670317611513766017e-03
1.006935930296297063e-03
4.670935073435128829e-03
-3.896266119950051962e-04
-5.807088383516325648e-03
-6.625451916888232089e-03
-5.986737144695240820e-03
-7.079995129934493238e-03
2.115570503728068583e-04
7.737233080628069803e-03
6.572610957261594208e-03
1.182044211760920581e-02
1.231717096951377016e-02
1.976126081646534943e-03
7.851631940422432827e-04
3.167377530825255146e-03
4.632409926661810421e-04
-1.090377985003539467e-03
2.261616531114573475e-03
8.898808665319305963e-03
9.345820042688772131e-03
2.024009420003208652e-03
-2.390282316723186390e-03
2.148746673817633190e-03
2.870507443626929035e-03
-9.881176077406154598e-03
-1.968394454159998544e-02
-1.997631528670500839e-02
-1.149140424159890254e-02
6.398296565872770014e-03
1.459583303588628950e-02
1.663104993543595631e-02
2.241385103105888663e-02
9.556407597102790225e-03
-1.267920614879391485e-02
-1.235402867195534334e-02
-1.864371515913052814e-03
-2.595398267874656547e-03
-5.208258507742360641e-03
-8.827330054014332489e-03
-1.528655870299341218e-02
-5.394043604806983416e-03
-8.727621712546467653e-04
-2.126185560623798307e-02
-2.202275792029096541e-02
-3.492184929820339387e-03
1.059433338114322554e-02
3.360484842747982204e-02
3.737701242721205158e-02
1.314856934654410996e-02
2.995847530251478626e-04
-4.786485881475041441e-03
-8.623744421018479656e-03
-5.119374656825152747e-03
-2.652525117010807922e-03
1.275752766970534614e-03
5.866123547821656958e-03
7.562188883508583204e-03
7.480122505849957915e-03
5.079927095251414101e-03
6.499737880102024468e-03
8.166136547743787014e-03
3.884778867023802769e-03
3.495187753817874735e-04
3.358987105962708136e-03
7.713552025916266784e-03
2.573726489983331825e-03
-3.475158789888915020e-03
-6.925891975734961570e-03
-1.599910637203082187e-02
-1.210885028515193244e-02
1.422354873874318634e-03
4.706539675924352982e-03
1.453095623140280212e-03
-1.154006472965465359e-02
-1.281170100744666307e-02
5.261110151286895603e-03
4.727145308453369055e-03
-1.707379652102220501e-03
1.650141472489991944e-03
-5.214142808614366173e-03
-1.303430374330746648e-02
-1.612132774209279126e-02
-1.667644567309730513e-02
-1.269297802023221927e-02
-1.341265597141968503e-02
-1.343474172642140745e-02
-5.492657357493049668e-03
1.060463990191207531e-02
2.770558826776195471e-02
2.470575929558170916e-02
9.964284917543801690e-03
5.398047917031938668e-03
5.037584551046947988e-03
6.504972267942383049e-03
1.106305109479998119e-02
9.288427795072599913e-03
8.147281434750427639e-03
1.098403424125696595e-02
9.365229388956165975e-04
-1.076825787238664886e-02
-3.975247163808752482e-03
5.208136892905843376e-03
1.050565724687435760e-02
2.164109871496485218e-02
2.153192852137555957e-02
-1.389526287369070032e-03
-2.145967570940027561e-02
-1.873694189932651952e-02
-8.010606570965621981e-03
-3.792693286274894608e-03
-5.512351441952780332e-03
-9.966856961121220437e-03
-9.039161512955156200e-03
-6.862736998904356289e-03
-1.108012561631666580e-02
-1.160461433977305785e-02
-8.099900280116267143e-03
-8.852586439344643093e-03
-7.579195295534179103e-03
1.700249319361351631e-03
1.409492397952086598e-02
2.276900817776617708e-02
2.058817049937944690e-02
1.117822759552916309e-03
-2.595501578456059846e-02
-3.809482508068936374e-02
-2.937666129420321223e-02
-1.217947006515295028e-02
8.967743697819233195e-03
3.244955483388884537e-02
3.891796535326880191e-02
2.432749096916209802e-02
1.282710595156764249e-02
8.553228983571501548e-03
4.592802750469898027e-03
6.875483444206117144e-03
1.298440083415823044e-02
1.269229546238451189e-02
-5.080523626257675909e-03
-3.345856392943500485e-02
-4.008126610093765141e-02
-2.062564946242233591e-02
-4.518686089931792105e-03
-2.095794546345385815e-03
-2.410366206079336479e-03
-2.256270100993363519e-04
4.027952310310211996e-03
1.266460596657549044e-02
1.845314103338165090e-02
1.502580500441740713e-02
1.491822242759780273e-02
1.622354143749922192e-02
6.876460915297559137e-03
-8.112258959827799501e-03
-2.548769230042100681e-02
-3.058686741376634433e-02
-1.161992872874799236e-02
8.034207308688296953e-03
1.537342900204248172e-02
9.590980868630498077e-03
-6.739540370089487295e-03
-8.147406938421678305e-03
4.692631716561515912e-03
8.758556827308892206e-03
2.418004157248524171e-03
-3.835586899487709346e-03
7.455591425208461668e-04
-2.923487438227672687e-03
-2.235763117274170569e-02
-1.829172809067539443e-02
4.812453505964593529e-04
-1.965207996304363510e-04
-2.201437005110354946e-03
1.875142366433672249e-03
-1.520333028155817102e-03
-2.118385160212649435e-04
1.017192879655205197e-02
1.190744886195555831e-02
8.904658439951848581e-03
1.093918624722496104e-02
8.307675281271948917e-03
7.568403083206439591e-03
1.203549540378189529e-02
6.204816306152403926e-03
-3.670287662376326906e-03
-9.999769077586824484e-03
-1.278648396370366501e-02
-9.589162804135012083e-03
-8.948860959801222328e-03
-5.713845494998396821e-03
1.996822180506412428e-03
2.753612864087015815e-03
1.107182877457517887e-02
2.432307449609899183e-02
1.475207048735175004e-02
-6.381563317653098089e-03
-1.899275894435847184e-02
-2.656326733150100178e-02
-2.529801970391377594e-02
-1.390104037549237150e-02
-5.945354033756172253e-03
-6.838360896702375472e-03
-7.792965233953587194e-03
-3.265205982166562897e-04
1.070020280539186498e-02
1.663123150440334527e-02
1.683550832936924965e-02
9.871692568209817359e-03
-4.957896047314374038e-04
-3.121695693771622468e-03
3.879755834295447754e-03
1.167532427287364637e-02
1.234513102187151379e-02
9.831156538928322725e-03
1.015797553844734191e-02
1.363366028850492018e-02
1.611076951432858020e-02
6.174942083474849533e-03
-5.915557243014738648e-03
-5.243864121861072439e-03
-7.259959542438282516e-03
-1.131901203600147766e-02
-9.393219042157315360e-03
-1.443792504045317282e-02
-2.194345118625848010e-02
-2.200268420289519175e-02
-1.306969251154072205e-02
1.943058324554195696e-03
3.814607206552768619e-03
-5.397227665161860588e-03
-4.807147907764717024e-03
2.429077064515629790e-03
7.649148770277241875e-03
5.776984739131177035e-03
-2.832127494274211225e-03
-4.341757507679654300e-03
4.224956776627654745e-05
4.622535518159441234e-03
1.176396174472950189e-02
9.090716086320315900e-03
1.830130251898851729e-03
4.274608785478131376e-03
3.591132124527851924e-03
1.970924023071007544e-03
3.192385350206128260e-03
-2.841887883215198866e-03
-3.638840080307808103e-03
2.682220658198133066e-03
4.141527055204641955e-03
2.184894570468999455e-03
-4.095390477915915144e-03
-8.749474132287380843e-03
-5.543869402547902878e-03
-3.629352049998516797e-03
-5.798933014617283117e-03
-1.541317531732591065e-03
9.453621380212738623e-03
1.305337115211814385e-02
8.209342498057874138e-03
-8.006954689846133280e-04
-8.311781995805301790e-03
-3.924547996152463053e-03
-2.029983427084359159e-03
-4.238604701924337213e-03
1.656928036438169759e-03
-2.322820985296065836e-03
-1.092165888066386377e-02
-7.146349480750202425e-03
-8.208018934126825022e-04
5.444351688333673098e-03
7.210621838373053663e-03
4.263152332574826273e-03
3.622180975173112851e-03
-2.578742593320530697e-04
-2.507961407358653711e-03
2.603394549507902049e-03
7.136700826249944493e-03
7.006342712255878881e-03
3.445484350052160395e-03
-4.709335009553792910e-03
-1.839337405118068522e-02
-2.334290492150877666e-02
-1.106075568626468768e-02
1.985269674860534652e-03
5.100547073356520925e-03
2.754244085500661115e-03
-8.320969510245278429e-04
-4.992589893493164406e-03
-2.756298889185637355e-03
6.226068423821086266e-03
7.321459895069125368e-03
5.365478405626653707e-03
5.546330013765993910e-03
-2.131802962669833955e-03
-6.715211763221300839e-03
-8.020898204988535091e-04
5.680379050328171475e-03
9.426780854047798683e-03
1.024221083790673344e-02
5.883740652668909520e-03
-4.042856263186724204e-03
-9.301124909724277703e-03
-6.561398843892456319e-03
-2.316451274268272343e-03
2.838746375415265779e-03
-5.270324256719533928e-04
-8.021737705099885735e-03
-4.058125098856492537e-03
2.614272078885438496e-03
6.476212476431706007e-03
6.177101250856484836e-03
-2.901386065560584244e-04
-3.886143510528894222e-03
-7.114154995690524959e-03
-1.041400395276729195e-02
-7.265855973173460970e-03
-2.189651167662163157e-03
1.581915996432509131e-03
1.170694058115902617e-03
3.015985839878637447e-04
4.004880156783726351e-03
3.026578810856459922e-03
-6.744571900982271415e-04
7.754251617953100565e-04
2.394949530761177146e-03
4.312833599028082095e-04
-4.225046778410046153e-03
-2.696336258915220559e-03
5.481707670584454010e-03
4.223573468920637126e-03
-4.031617624372602158e-04
1.384159807222819227e-03
-1.059034027061670977e-03
-1.843198573702525909e-03
3.836333993518134229e-04
-3.652020781218223103e-03
3.736963792359840331e-03
2.050658279302087703e-02
1.817510094983173022e-02
3.150878636264114064e-04
-1.691140598275748738e-02
-2.294521678464283773e-02
-1.264211849549592634e-02
-5.664339254489340197e-03
-8.603692480879025425e-03
-8.076677127866652151e-03
-9.059660913643999627e-03
-4.505734992630497718e-03
1.162922573484889179e-02
1.654189003492900073e-02
1.216278554404115475e-02
1.190995555060899401e-02
1.229056109793813349e-02
1.279498609834944269e-02
5.166822481919862257e-03
-8.566651065147310937e-03
-1.519873712176110329e-02
-1.375355926596347027e-02
-6.226683950193277577e-03
-2.975794932338111150e-03
-3.538876647040800540e-03
-1.821824305918144432e-03
-2.113424016506385700e-03
5.762591059140218831e-03
9.735795500385188359e-03
-4.068562372239942389e-03
-7.913864428288511915e-03
-2.793062068968678010e-04
1.212608989387836417e-03
1.434378480002310510e-03
3.375702955852282697e-03
3.463709667467886229e-03
-1.624850578229639899e-03
-7.369833750965259708e-03
-8.731334423566539799e-03
-4.937252741222190010e-03
5.547932117041934515e-03
1.375585187973596760e-02
1.098356259258548295e-02
2.308375641217174940e-03
6.946934921015651427e-05
2.052934441595141712e-03
-9.650852185990294691e-04
9.625197972437714387e-04
3.902856578473235579e-03
1.421427362482956692e-03
-2.495175639955819757e-03
-2.129347294032114812e-02
-3.051802284544780433e-02
-4.779102035664691168e-03
1.467908330355174006e-02
1.395715824988070716e-02
1.493729629696558675e-02
9.490374477603685105e-03
-6.247105848629277286e-03
-1.472916055447195949e-02
-8.600942663345689451e-03
3.011507102698547222e-03
7.287978207155717571e-03
1.483793736978859194e-03
-1.703812171309157259e-03
2.039722743543827960e-03
2.593150158110093823e-03
1.349399733480955267e-03
6.813345701099849565e-04
-2.211351400260200706e-03
-3.210786422141277425e-03
-2.450749836828882127e-03
-4.380541689523466051e-03
-7.669950929816290834e-03
-4.185076469692279241e-03
2.853862103052523958e-03
3.567936536367894828e-03
4.280161245366651684e-03
4.410233084167704438e-03
7.014738015777646080e-03
2.014268972546878755e-02
1.760505635135817606e-02
-6.358635769634523281e-03
-1.849366593575573273e-02
-1.397942298857596591e-02
-8.637919809834535348e-03
-6.971390496792327814e-03
-2.503502510367921867e-03
6.078283169047431732e-03
2.947616848157476668e-03
-6.958787255840464397e-03
-2.437969521551116431e-03
2.768935560205002758e-03
3.983442036786011319e-04
4.787733817223843030e-03
5.414201322548897743e-03
1.794796359206851525e-03
1.802887086566139002e-03
-1.620396967826850639e-03
1.943241849573813492e-03
4.190181238970743655e-03
-4.010873957676222915e-04
-1.233619673322279911e-04
-1.544596769271271153e-02
-2.436691237592886194e-02
-3.923808734437356401e-03
5.020875458714109396e-03
6.165196208086060926e-03
1.242411590766173690e-02
6.842007387523165243e-03
-6.226964656861419404e-04
-2.517936287957990484e-03
1.098182814310606856e-03
5.420383718868846366e-03
4.208232771661539473e-03
4.223121413980277829e-03
4.065555237950875360e-03
5.231730357294373315e-03
5.436588426009417857e-03
1.821808857756796645e-03
3.498527981697645891e-03
2.304848012698087773e-03
-1.108772265750748070e-03
6.361633188380660031e-04
-6.306969888641120701e-03
-1.838363290273733325e-02
-2.340294330810062384e-02
-2.075191765682176184e-02
-7.581046360641086578e-03
2.342541906136236425e-03
-5.161070521009138851e-03
-9.030629623031858830e-03
2.784581149203846709e-03
1.080749101614944183e-02
1.146106391640560468e-02
1.068514068955555250e-02
8.302649193612064368e-03
8.098479569994756697e-03
5.212161560164053908e-03
2.362427589563911422e-03
4.657044305935440984e-03
5.848358273768491933e-03
9.015080086764397718e-03
1.004967131128902368e-02
5.715579507516108278e-03
2.111279786071929097e-03
-4.776406435092180568e-03
-7.949337481604368261e-03
-2.308480438010594715e-03
1.540750199195035919e-03
-2.762560552694046188e-03
-1.047784252175825749e-02
-7.332676515608061232e-03
-2.890169531099718615e-03
-8.791916725169483804e-03
-1.129555131588097158e-02
-1.297417050999936580e-02
-1.177158178455168548e-02
-1.964173652295380084e-03
2.218345447854796690e-03
4.985265442794845070e-03
8.875478112661091407e-03
8.012786625535284202e-03
8.120750945134454571e-03
4.855170039606310217e-03
1.117054846309422419e-03
9.202485424659100034e-04
-3.157884393129699492e-03
-4.668505451059570648e-03
-4.649340594240164957e-03
-7.239976562041123241e-03
-2.399170135767443677e-03
5.920680385948587539e-03
1.100138109478112497e-02
1.697647033522337728e-02
2.078554718080875482e-02
1.322777585423554406e-02
-5.232906943226494148e-03
-1.930684717678154624e-02
-1.730787406201542145e-02
-6.705918106097806704e-03
-3.333077760603488007e-03
-3.104065869524977230e-03
4.107894725743686457e-03
1.504120352672403283e-03
-6.237512591596405288e-03
1.430279418644133695e-03
4.635172141939575448e-03
5.322900984891242330e-04
2.229162255279719916e-03
-1.257070615332137997e-03
-3.054688535297777306e-03
4.460786522276833548e-04
1.070584819026117619e-03
3.945208463645506931e-03
5.891209861968744327e-03
5.681786426020237618e-03
2.419704948884550313e-03
-2.624000915004832783e-03
-1.223070029146322601e-04
6.975209934553082284e-04
1.992892851509766249e-04
3.092944289541215037e-03
6.155495073293886345e-04
-1.178970316676347142e-03
-3.692722609643870821e-03
-6.456564531996299150e-03
-4.821435614330403172e-03
-8.670428567613030352e-03
-8.651681397454273961e-03
-4.811441436921251417e-03
-7.806735415514815674e-03
-6.266853083393813736e-03
-6.141060562175036392e-04
7.548224626086942786e-03
1.528568504505354621e-02
1.151549868100268381e-02
5.093149158389675447e-03
6.749693547942771637e-04
-1.558093312450005950e-03
2.125448921844411837e-03
5.538586803728907069e-03
6.204381247425659954e-03
2.336877389563744335e-03
-2.347837675964693695e-03
-3.662670140057502303e-03
-8.858859988493717613e-03
-1.263873726047906598e-02
-5.708766280359591980e-03
5.229591932711811011e-03
8.383907304272061878e-03
6.616725946189601013e-03
8.881259322146567090e-03
7.378827946203158489e-03
3.411255947694380626e-03
-2.190771807371449421e-03
-1.822353972041371867e-02
-1.824368494268717444e-02
1.822943015263908456e-03
5.645462063109400047e-03
1.773773518403252590e-04
3.676917724823160834e-04
-5.817551122243384268e-04
2.076955077986341897e-03
3.172883660601304168e-03
-2.428857236207835387e-03
-4.074190279030248663e-03
3.009082573323476097e-04
4.813018436793531536e-03
4.442240781788102215e-03
1.184376141847807810e-03
-6.796460988012500634e-04
3.145364501900194576e-04
6.671820461656060783e-03
9.541812505094664221e-03
4.368159309612713002e-03
1.954423140551779688e-03
1.089493682633772397e-03
-4.384994531550988686e-03
-9.208008387322863184e-03
-5.258794227063062592e-03
1.606348279952102363e-03
-8.491753110768595573e-04
-3.982863001609369437e-03
-4.486775151847048962e-03
-7.564676162956264147e-03
-3.773024383288416453e-03
8.512242779630989700e-04
1.003321852036823635e-03
1.436002360138435266e-04
-7.920095488534506512e-03
-1.221183132623468795e-02
-1.055032520288632161e-02
-1.061784668629552238e-02
-4.349338846694822229e-03
2.843124347861964753e-03
6.570381415234958535e-03
6.688798230955091996e-03
4.564670714324817885e-03
1.129777314242459002e-02
1.827163426051192988e-02
1.908804038624078991e-02
1.945044465743895820e-02
2.420770903753296371e-02
3.262956353365535633e-02
2.214955443772433780e-02
-1.510147200054983742e-03
-2.099284664396183775e-02
-3.439150336169392863e-02
-1.836475093096841954e-02
3.644784886331054428e-03
-3.178612851257617278e-03
-5.891225040414256944e-03
2.133174601018284020e-03
3.969259246661914139e-03
2.379497271489868296e-03
-5.456500941738229478e-03
-1.118675304777346120e-02
-1.675020373389341302e-02
-2.685816088835554435e-02
-2.474913541931682281e-02
-1.544597402138177603e-02
-1.099667851354970902e-02
-5.664631348593416986e-03
8.910588886756670365e-04
5.086408256569246479e-03
8.941439283392841122e-03
1.537981308327783861e-02
2.155012162769032180e-02
2.398325620934931013e-02
2.198988642590719855e-02
1.602772507488143053e-02
8.996101269209409376e-03
4.902525667836753805e-04
-5.596525438847172775e-03
-8.487247550073639263e-03
-1.805423612848601131e-02
-2.835023115092913382e-02
-3.492968829135425363e-02
-4.328365694263380803e-02
-3.985865134030010248e-02
-1.907503928767789042e-02
3.136789189122576177e-03
1.575321226195106061e-02
2.267429315351111169e-02
3.347808610897253651e-02
4.244856877927779409e-02
4.750725662069022609e-02
5.598602043352926549e-02
5.932037308326634090e-02
5.072403682895559873e-02
3.444325956938792954e-02
2.082110644806290864e-02
9.021367110647847409e-03
-1.034426638836136864e-02
-2.499135800936273452e-02
-3.966133563992227384e-02
-5.460634928880978012e-02
-5.072592651811385495e-02
-4.789824493235396441e-02
-3.939309374986554868e-02
-1.756603661625696575e-02
-2.473600730724983404e-03
2.982958145514741713e-02
3.387284746950665337e-02
