6.240080376059736755e-02
7.328994872449608178e-02
3.248520781846336858e-02
3.336237404195731282e-02
1.429822196913260735e-02
-8.231325275475200650e-05
-2.289057566400140228e-02
-4.562103495829651634e-02
-4.184672519715739586e-02
-4.904016034947736302e-02
-5.095306680628682722e-02
-4.440822209256323205e-02
-3.094592249929457514e-02
-6.044437632795387864e-03
1.064639852963367682e-02
3.005442225381816171e-02
3.866276438874167998e-02
3.995498459473950659e-02
5.037135643243336597e-02
5.047756304876992867e-02
4.740504733326882103e-02
3.246198904175223721e-02
6.922348813605972567e-03
-9.048119708388650123e-03
-2.142443637070824344e-02
-1.792826959997774472e-02
-1.295013104249081309e-02
-2.243134044151626899e-02
-2.734700443991497712e-02
-3.144792567050751914e-02
-3.579717663966185126e-02
-3.428564797209803644e-02
-1.949111859619829731e-02
4.077915804098294558e-03
1.559679524088443750e-02
1.945277019752618061e-02
1.886678484314618931e-02
1.837381765615765314e-02
2.039207320050738861e-02
1.592055845363210195e-02
1.713282773597350067e-02
1.557269680182614933e-02
4.603084831252404058e-03
5.073459768566255124e-04
-3.015041807696008155e-03
-5.085553218511146278e-03
-5.143919635584935646e-03
-8.550046304211347467e-03
-9.085614460423704908e-03
-4.474850137258959241e-03
4.194663976937008237e-03
3.482513072762698225e-03
-2.934292660839654069e-03
-6.649111702518292755e-03
-1.681138195454493986e-02
-1.351537606390978280e-02
1.494526057248085540e-03
4.305353122741831934e-03
1.122782157432600930e-03
-5.144953807925413056e-03
-5.146252543658908288e-03
-5.312066853739188556e-03
-1.557307876381336734e-02
-9.494792907984257388e-03
1.614248415147345305e-03
-7.731241886903756407e-04
1.912428366995497665e-03
5.734746371063314391e-03
1.132259213052923957e-02
2.098767169664685420e-02
1.605501309782663213e-02
6.682623482559552595e-03
7.682150424654980887e-03
4.124719805650886931e-03
-6.827914603849817403e-03
-7.393430353172058753e-03
1.342411030174648322e-03
6.078240987303931697e-03
5.314676037409023744e-03
1.071912555316641581e-03
7.977465575725410912e-04
7.188074918176790484e-04
-4.943903800477389594e-03
-3.586620537234352056e-03
-4.119712490239705802e-03
-5.579662490058621277e-03
6.087707541731485553e-03
6.271897118429700310e-03
-1.716575250743528069e-03
7.504569607131645519e-04
-4.764077110461807478e-03
-1.244035129051664947e-02
-1.122400870638900518e-02
-9.696492247654264415e-03
-1.499501320676093407e-03
8.000472783945415320e-03
3.282866031247748048e-03
-4.835535913122169203e-03
-4.863289159040571318e-03
-4.909287018996947270e-03
-3.076172598867121973e-03
2.642748489439075525e-03
7.167321689062217810e-05
-4.045672812603254807e-03
1.758666704346867815e-03
9.285756998656028577e-03
9.328633471208859496e-03
3.764116210094969710e-03
2.149851001655082253e-03
4.072405171303557572e-03
2.367982039550354991e-03
-4.077938869447841549e-03
-6.784378427479413609e-03
2.128056676832257039e-03
3.841941335633047155e-03
-3.732814880290992541e-03
7.635779569729183192e-04
5.600665725869825515e-03
2.182582444021825569e-03
-3.468515046841099281e-03
-8.598712904780011004e-03
-5.362451642237226791e-03
-2.543474405990177670e-03
-2.259141700566235332e-03
-7.364822878545098685e-04
-2.970411948735005546e-03
2.746492579165598410e-03
1.184686312833247747e-02
9.377815191317900173e-03
4.197840754368321707e-03
2.792076055025968263e-03
4.931898036878919504e-04
-2.613786910631887058e-03
1.932511558436601686e-03
5.412918980427122370e-03
-3.860442398755385869e-06
-3.026629884788476291e-03
-5.424417005186159615e-03
-1.017781943444151949e-03
-1.181636992457146644e-03
-1.962750443523557028e-02
-1.331574738307203347e-02
5.248350095326302124e-03
-1.159243317875558680e-03
1.573967055382973932e-03
6.550598874707002500e-03
-5.973672980132245514e-03
-7.018206427459356897e-03
1.644520737115732611e-03
2.384917793358505914e-03
1.740244702385946446e-05
2.552356690997465826e-03
6.751727379920924484e-03
8.606568051191027316e-03
1.027618016145626090e-02
5.967112174870135843e-03
6.423081022046140927e-04
1.302355497368715490e-03
-9.707017353157657708e-04
-2.692185511668864113e-03
3.397647182443003472e-04
3.169652602031650026e-04
-4.420663505851667001e-03
-8.216533882230809063e-03
-8.158048947316179703e-03
-7.176756070729121625e-03
-4.952766268471077774e-03
-2.093606908623240476e-03
1.697448943600455423e-04
1.388697887166877223e-03
-3.674347031740516582e-03
-9.397848661480566815e-03
-9.812724877235268900e-03
-4.840959895132508628e-03
6.510568007066659321e-03
1.125808473462479309e-02
6.719424963707195525e-03
3.759288527279161692e-03
2.804833656371883994e-03
4.353040819221736316e-03
6.243120982223506962e-03
5.864796388141804533e-03
1.653355626607272595e-03
-2.013831189595754242e-03
4.710048141017814279e-03
7.932415537334489355e-03
6.787546339514825312e-03
1.403266365717304245e-02
1.184106243987278692e-02
2.643599912907973123e-03
-3.657086579092020361e-03
-1.259140475598284105e-02
-7.964884025996418759e-03
6.918649760680648485e-04
-2.206389212835836201e-03
1.571459980813201800e-03
2.431650359838900474e-03
-1.310879681976611331e-02
-2.700958393482138717e-02
-2.567580123262191288e-02
-1.170974470446118840e-02
-2.300346862820211533e-03
-4.797990748945451037e-03
-8.431327873263940939e-03
-6.864801448527546937e-03
-3.168432432029233241e-05
6.055127153050000183e-03
1.122342316088692678e-02
1.570725362105119052e-02
1.046164625737606643e-02
4.461894231861040887e-03
7.985959433404101609e-03
1.146931603769907847e-02
1.009381150214815927e-02
7.693922283491664779e-03
6.731662852627444578e-03
2.388376524026010299e-03
-4.598081125512454119e-03
-2.944457277274647837e-03
4.326786786196563797e-04
-2.175033112658106196e-03
-1.514625727757653098e-03
-1.404269670217355012e-03
-4.351676057248664645e-03
-2.607616368487877465e-03
-2.691449385477469661e-03
-3.286593065865020449e-03
3.024622919457803979e-03
3.800870733564107491e-03
9.083029654649945640e-04
1.650655930662702506e-03
-7.706749068989912459e-03
-1.380610036318568982e-02
-7.476837020858936173e-04
8.432644003538077374e-03
4.548467285492815634e-03
-4.960918300201877171e-03
-1.010346267747700387e-02
8.801037280310470418e-06
5.500162412703278950e-03
-1.244122216461232035e-03
-8.254378102491323737e-04
1.961878471099946612e-03
8.315035377811541735e-04
-1.917641972435050112e-03
-5.889266832614200448e-03
-3.130658401068219573e-03
8.985982418093454603e-04
2.186497378537913174e-04
1.534033640767859530e-03
7.804377329044413824e-04
-2.142682618247802265e-03
2.560950498202095235e-03
9.113908543687449654e-03
8.189554642782330765e-03
5.294421637468184685e-03
1.103992212023489298e-03
-6.096720825827853935e-03
-6.777749659593365616e-03
-2.371933889140238547e-03
2.726486756691234707e-04
6.486949219779755259e-04
-2.326724730864689582e-03
-1.122069402267280528e-03
3.628296841303951456e-03
5.243280395108719516e-03
6.723450367548344797e-03
4.622808509021841122e-03
1.623223237086826760e-03
9.849439860585176669e-04
-2.623026703883800728e-03
-5.551889596271542514e-03
-6.613927435524216865e-03
-1.066426008148970523e-03
9.023358604188857351e-03
9.117142638947216271e-03
4.870809733299047602e-03
3.429980009043293032e-04
-4.945760592739838549e-03
-7.348803685928596147e-03
-1.302100284931199427e-02
-1.428125959257205320e-02
-1.104627629568554793e-02
-1.347550708888730492e-02
-1.015357704954439853e-02
7.322671399659136295e-04
1.245617352990760832e-02
2.048136162527917914e-02
1.962793491321635983e-02
1.665060009587735965e-02
5.501628560094909415e-03
-1.356396920024512294e-02
-1.496643985094726036e-02
-1.338867910564862972e-03
4.210543667767096578e-03
1.683830800027371266e-03
9.525269603619570397e-04
-1.377812525241680838e-03
-7.935071395004765146e-03
-8.054248355388572700e-03
-2.375391521686263767e-03
8.375368189385937493e-04
2.433539190887192959e-03
3.542250612290784523e-04
-7.635263119876965765e-04
3.567527030995401582e-03
4.710534422104839525e-03
4.168354039336421256e-03
2.531428477570192657e-03
-3.671375019358813323e-03
-4.101193897847305557e-03
-3.698009308901256068e-05
-4.939036013441351495e-04
-1.520022939271208984e-03
1.994856280120834661e-03
9.693564470793289770e-03
1.088406857022928241e-02
6.405882453499622299e-03
6.997894231339646387e-03
4.195340335306215612e-03
8.611053622925415917e-04
2.238545309053931089e-03
-3.002640633817570039e-03
-9.303554410405489444e-03
-8.935184892933352788e-03
6.387685845937483625e-04
6.984481475420000092e-03
-9.480544642857986065e-03
-2.058716183764969926e-02
-5.492200603733408786e-03
1.187166885352485164e-02
1.117293567513201642e-02
-8.501098128494352646e-03
-1.345466401335741920e-02
4.749829515907248896e-03
7.647129418636377206e-03
-5.178101916159492078e-03
-1.354175594603364459e-02
-1.129263927956797309e-02
-4.083726195447645244e-03
-3.907801506530948071e-03
-2.441603336128581655e-03
5.859971984109692885e-04
1.273720530514281480e-03
5.313650375773071137e-03
6.124444209638030615e-03
6.742890160676308711e-03
4.656634943308526550e-03
-2.518789521744155269e-03
1.976192587125590212e-03
1.018011682434045821e-02
9.833579986331712763e-03
4.308807603163205581e-03
-1.284801769632081935e-03
1.450597492942126221e-03
3.193034169998920733e-03
5.763895170827931010e-04
1.878995576983285426e-03
1.759850931998617474e-03
1.812614687130272104e-03
2.033687046331656562e-03
2.861910717603986277e-03
7.054357658788611152e-03
1.129716176954346802e-03
-7.860018853177228385e-03
-6.221655504434387904e-03
-6.107582697143079664e-03
-6.194293543827557660e-03
2.228033855857148963e-03
7.300159652308671129e-03
6.624139380715494095e-04
-5.380916498727287244e-03
-1.143351130026036078e-03
3.367483848854596097e-03
5.168613423599668433e-04
-5.649170536581355970e-03
-8.825100478787680294e-03
-8.340478060385835349e-03
-1.029257791463323614e-02
-8.474693150904216363e-03
-1.529596839637332355e-03
2.116504738937547174e-04
2.923466406460928282e-03
1.742440316724184471e-03
-8.842102729678157427e-03
-9.027468486504075171e-03
-1.991864394461079560e-03
9.305361092762092119e-04
5.720836997021042959e-03
8.010101955128549542e-03
7.320795048267285735e-03
7.712312230614764078e-03
8.887858090864651089e-03
1.233895184467980778e-02
1.290376967914074954e-02
1.341283538247121584e-02
1.393595857880079725e-02
4.083163610822263326e-03
-9.415367616293799854e-03
-1.841982721133129594e-02
-1.766473467982068724e-02
-4.865217200666072106e-03
3.295113694939280288e-03
1.572829631466473709e-03
-7.488481962010650351e-04
-1.782563820888565919e-03
-1.265335315623491996e-03
-1.042441663307816947e-05
1.740288931072087476e-03
3.995008271530465192e-03
8.296791186037873883e-03
1.032286646928535015e-02
1.227860437967094121e-03
-7.923953640717400215e-03
-1.024900031255361957e-02
-8.203663201278393186e-03
1.602524857504785197e-03
2.517210640536132141e-03
-6.641462698443684719e-03
-7.831674363651747878e-03
-8.065760423924216854e-03
-7.175863157052974999e-03
-5.395706490455695267e-03
-9.538454797681028899e-03
-6.529068379441933453e-03
1.808956144717862062e-03
8.383403775507711209e-03
1.610278724513151960e-02
1.674656404848919034e-02
9.131319846171466817e-03
-1.435992450589090429e-04
-4.449866509221534969e-03
-2.185346275166923438e-03
5.696614255708106400e-04
5.115832693861631190e-03
7.841181908482972029e-03
4.368413435997968441e-03
-4.802356543411935054e-04
-2.518090939507985036e-03
9.765416750011203604e-04
-4.821965320721133133e-04
-6.261899456868357840e-03
-4.798536367761818341e-03
-8.614534674257998473e-03
-1.307801453590057110e-02
-3.000025050608519026e-03
7.203370623827196235e-03
9.921470189609357671e-03
8.120550584300126329e-03
3.887156649563553671e-03
3.749545110458367241e-03
4.347552874263685072e-03
1.212915570650306913e-03
-4.437717259007185259e-04
2.941883631153303837e-03
4.269461706016685655e-03
-1.424062548029889075e-03
-3.374753647794726148e-03
7.542859602450315394e-04
3.849546381433106151e-04
-2.222227149099192424e-03
-1.583222938816020164e-03
-2.877518299682314904e-03
-7.898883235296000338e-03
-9.614055142492359748e-03
-4.091231574893583120e-03
2.085941525388075070e-03
3.498438618787532263e-04
-4.818597839098971714e-03
-4.364113891186436472e-03
-3.937629594699246227e-03
-9.494614268290724884e-03
-1.252600920393089241e-02
-7.394901631645346869e-03
9.274863728483414378e-05
4.824501109148403993e-03
7.042766462120951532e-03
6.168843245549223558e-03
5.979230229423101485e-03
1.261388856550797570e-02
1.611588406187187267e-02
8.486014027529456202e-03
2.631833701342220933e-03
3.713925613799133347e-03
1.025044244801121777e-03
-3.781218191116037311e-03
2.173552554322049236e-04
5.884177735840562945e-03
3.205062227814821970e-03
1.303209932211258542e-04
1.605890755859593023e-03
2.035758233698298919e-03
-1.895787601985324125e-03
-3.940860425548262450e-03
2.323747572081711569e-03
6.424738163345144852e-03
3.744101826002798825e-04
-6.807501051305233156e-03
-1.021554287612775128e-02
-1.174829626279850353e-02
-1.088301545572233769e-02
-8.137360617048495365e-03
-8.542764913543547667e-03
-1.005141056536088158e-02
-6.095509156489701229e-03
-2.851788112742819920e-03
4.360099821374243453e-05
8.542287956686885064e-03
1.254899052878231946e-02
8.673299130849101285e-03
5.011127821116381255e-03
4.403617579924809858e-03
3.959700215724793089e-03
2.912562462806901793e-03
6.345610457129088715e-03
9.291136228628375099e-03
7.124328832469598548e-03
5.163005328111968176e-03
1.693482557456999025e-03
-2.787551158577361403e-03
-5.945405767788842881e-03
-7.075479642059547859e-03
-4.929528640218934152e-03
-4.600563565107231197e-03
-3.992042622242860002e-03
-2.542408261082586881e-03
-1.199363500553872822e-03
6.464214717160657493e-03
1.114268310180368399e-02
8.597193486983879807e-03
1.981062645073554482e-03
-1.348298267406418741e-02
-2.366649518334672242e-02
-1.770723337477822165e-02
-3.381304367916078586e-03
8.151765809822582309e-03
4.255612814750652992e-03
-9.057936465742415927e-03
-1.360793597496237975e-02
-3.649946745769773460e-03
4.994053775304092661e-03
5.044127194051362464e-03
1.062003456857469816e-02
9.694449241035659262e-03
2.451571123327223587e-04
1.649063240668172765e-03
3.943084467935424262e-03
5.832101292729472732e-03
5.358637223973726146e-03
6.153249751466721706e-03
2.033040439448099632e-02
7.173003608757683863e-03
-1.921081378032792400e-02
-6.119990064282682975e-03
7.769827609190965885e-03
8.261983844981689307e-03
1.291871439971255600e-02
5.558085857629587942e-03
-3.435973379771481775e-03
-8.336714997652920622e-03
-1.027371650627823506e-02
-4.771847326890349926e-03
-6.010332404734198587e-03
-6.637317346851343003e-03
-3.581743746349052519e-03
-7.363051902491210901e-03
-5.843015746502106672e-03
-1.322858026111381393e-04
5.261434207864501382e-05
3.571455251617375662e-04
3.899238057059102418e-03
3.209194170151257949e-03
-4.809574401683758792e-03
-6.936707596260779755e-03
-2.411867878374638913e-03
1.212665079650909489e-03
7.626466376617147339e-03
9.669797454744943899e-03
4.844789319814713294e-03
2.000934825310678742e-04
-3.557882395344392698e-03
-3.166953620575529895e-03
-4.996971242073100505e-03
-1.195182734896098331e-02
-1.319982597443815700e-02
-9.519308076037043612e-03
-2.643405512376853766e-03
8.039393493433643484e-03
1.642752538100704721e-02
1.790870694230966079e-02
1.182610694937295988e-02
3.825854073854225747e-03
-1.486433376381806259e-03
-1.082736243417315976e-03
4.565794764609365161e-03
7.522156391885064658e-03
8.042624493896298812e-03
2.803182845894637738e-03
-8.946759882633279273e-03
-9.266713374406558915e-03
-2.228913596476496135e-03
-3.231954999951928108e-03
-3.224978695828716567e-03
-2.765831495711011418e-05
-5.800346778471759772e-03
-1.317982969813430612e-02
-5.260897586756248245e-03
6.867357156818838446e-03
9.740327903584280328e-03
8.664375830847496907e-03
2.323263910251582333e-03
-1.334647052246122362e-03
-8.880304446488599345e-05
-6.573513641170009025e-03
-8.798864736474409226e-03
-3.922141858183811856e-03
-1.823789770259446642e-03
-3.139971827976482596e-03
-1.060199178203204834e-02
-4.499140366316938151e-03
9.747847786721455798e-03
4.843276069205951391e-03
3.772194970544815503e-03
1.008965799560497013e-02
3.530306227851673709e-03
-1.356323701897426022e-03
1.591673050355041147e-03
2.860432387315621841e-03
-2.291770124329514831e-03
-4.066623732525777996e-03
3.373183928307693820e-03
1.280683749723960773e-03
-3.614151518694552062e-03
4.434335755554315479e-03
1.227045555968992591e-02
1.391590488336389916e-02
8.442159819543279889e-03
-3.434776607150601992e-03
-1.195386113358143029e-02
-1.335312610648763457e-02
-7.533960562184210778e-03
-5.018832922798825398e-04
-7.536100819798123053e-04
-5.544196765080512332e-03
-5.957477880424898870e-03
-3.054805842319130958e-03
-4.738171681064506230e-03
-3.629987254433509301e-03
4.542093748511740088e-03
7.612280638536333098e-03
5.146848679138938537e-03
4.094848008672749042e-03
2.454197524834351735e-03
-3.238804284290777193e-03
-3.345420234719324697e-03
9.187038234083962085e-03
1.264738149174632169e-02
-8.201293515509955161e-04
-9.627304086168297914e-03
-9.193939667486125331e-03
-4.955818229156153110e-03
-2.985970236378018405e-04
2.369276936937132934e-03
6.289967014758787549e-03
2.816690420552930320e-03
-7.294779221230351246e-03
-7.303745499944124669e-03
-2.211033233522882290e-03
-5.716969817548521200e-04
1.942167741837592292e-03
6.029021067946471225e-03
8.642841830668483716e-03
4.950190676322797391e-03
3.309452128177960703e-04
2.953924226669265088e-03
5.306996818772302150e-03
2.769090946131427637e-03
3.958260485378001367e-04
3.624490358598050736e-04
-1.230532485232707640e-03
-5.211845862016080584e-03
-4.981837122995566233e-03
-5.608830139544811015e-03
-8.930992274593284319e-03
-4.599564560943830011e-03
-9.131940440694426330e-05
1.432973184126116410e-03
6.300305378869653500e-03
7.297456937320386146e-03
4.837415944036620001e-03
2.198738189075904667e-03
4.619997826954489730e-04
2.282118594831286304e-03
-9.145017566892345642e-04
-4.871238674792416345e-03
7.609561485045137231e-04
4.631765373747226237e-03
4.970928165967472296e-04
-3.609260204775427069e-03
-3.500113370661750867e-03
-2.276820088432659345e-03
-4.289717463584306542e-03
-5.604959678745509953e-03
-1.962928489227602508e-03
-7.887903199924669196e-07
-3.751701613170101146e-03
-5.796197135283970986e-03
-3.084361067319064259e-03
7.881811149695538369e-04
2.006125809662150355e-03
9.084120305298424777e-04
4.794060551097554038e-03
5.368266676795064446e-03
-1.034720792458414251e-03
2.921328258507203870e-03
6.571108453611852057e-03
2.201082535620938266e-03
5.263922826842679266e-03
7.216459356738280997e-03
6.555519891636721157e-03
5.271307931894750852e-03
-5.130751892074192529e-03
-6.558130541475879448e-03
1.142653481803191078e-03
-1.540427567494892036e-03
-5.219801929475431992e-03
-3.643286225169787250e-03
-2.628938176167279917e-03
-2.238413523507646816e-03
-1.809257098649938791e-03
-3.413210729748551156e-04
1.023204937587071130e-03
8.660796928141411936e-04
-2.480924025462251468e-03
-3.979227188764671540e-03
3.650766335366621793e-03
7.188408441442399426e-03
-2.714931346766782678e-04
-5.488085248912745635e-03
-8.390199528858267169e-03
-9.342784446237510296e-03
-1.062838376914829186e-03
7.910319877314567205e-03
7.881707608142527605e-03
2.677754922574326034e-03
1.163791269984639203e-03
6.362660216016575304e-03
7.723626064266378606e-03
2.645026559661459945e-03
4.196168471408994642e-04
-7.222611161579022823e-04
-1.417041687231915649e-03
-4.811592572810427081e-04
-8.299011247256580463e-04
7.868750652888075944e-04
1.238105632377442707e-03
3.256346182005894971e-03
6.850532041899495481e-03
-8.141102628216335610e-03
-2.681769050085913014e-02
-2.075587805606513708e-02
-3.331079736978130677e-03
8.318501863409799232e-03
8.401842558021127214e-03
1.314328402726162772e-03
-1.861339648386328401e-03
-1.994427371716800575e-03
2.337343552316920904e-03
7.902943720660233692e-03
8.375323132132489468e-03
7.783367621997955114e-03
3.015124077182414208e-03
-9.499801581585956035e-04
1.073505689933720387e-03
3.368042028828404201e-04
3.557895852505168176e-03
1.077777200463922273e-02
5.939276189368326853e-03
-5.979619649781031318e-03
-8.827165261000333857e-03
-5.458657324055949181e-03
-5.429003373279211314e-03
-1.928871032824438668e-03
1.355831974943508787e-03
-5.509910876312985525e-03
-8.242702516536264470e-03
-3.411863774585589901e-03
2.125680545580904690e-03
8.674784632029421474e-03
8.111695549275840453e-03
3.465596109731308716e-03
2.600636445772800971e-03
2.319084862508273798e-04
-4.730022881031864176e-03
-4.206564124864299765e-03
4.197987357676192730e-03
7.727796334606865970e-03
2.501854839449610488e-03
-2.553394552245809909e-03
-4.418509959951574112e-03
-4.438090017124431651e-03
-8.046739944914275966e-03
-8.343388749829778323e-03
-5.831625543702157735e-04
2.561003939537631570e-04
-4.659665047582074032e-03
-4.331934308049059310e-03
1.810158270946968934e-03
6.291457720126356415e-03
5.996889612714915302e-03
8.113147727963645334e-03
5.405416275276332672e-03
-1.387231130678342225e-04
-8.618905576447841122e-04
-3.952247065573549073e-03
1.696202225058034228e-03
8.728790979738021774e-03
3.101102029544866232e-03
1.389287830067012421e-03
2.258046430437096654e-03
1.456587428325405165e-03
-3.587675492177920837e-04
1.696796666376572393e-03
6.852874918806752154e-03
-1.424204322624094202e-02
-2.982793019338211143e-02
-7.860205069735686292e-03
1.723527159867403909e-03
6.476692792757255063e-04
7.856340332656825548e-03
2.709671035561939112e-03
1.736510686181560927e-03
8.063863752774293528e-03
2.897247936966747175e-03
-3.420770205229977604e-03
1.836060366305129711e-04
1.140088853297290504e-02
1.467843970125824044e-02
2.940992854034970259e-03
-6.885998258460173348e-03
-8.475416359074477990e-03
-6.352852739627157241e-03
6.218809945050755156e-04
4.103096163571575208e-03
9.230734518224185123e-04
2.946200582519351713e-04
-1.806153232553767921e-03
-1.066934809882003326e-03
4.967511498836012403e-03
-1.817016655315941993e-03
-7.009782174331345359e-03
-2.315262108902690257e-04
-4.382001821031206515e-03
-1.167036415464082696e-02
-6.801082637575608589e-03
3.290713657372760625e-03
5.836013677342051509e-03
5.771625577095430316e-05
2.777839821180324957e-03
5.408259199331760629e-03
-1.903571060685273599e-03
-4.257338255357350117e-03
-1.972672435531712225e-03
1.521778560924628683e-03
1.965288035768592879e-03
-4.105146884055490761e-03
-5.276763325730140196e-03
2.263132473901917872e-04
9.277351708719698900e-03
1.476184050199054812e-02
9.554705793061777849e-03
5.130028657633506697e-03
5.074883969483494871e-03
2.606342910270111665e-03
-1.572993160619396650e-03
-1.831330546011484444e-03
3.794987626361510501e-03
6.292390517867446111e-03
6.013953841057531613e-03
5.023074299644698579e-03
-2.713425079356701977e-03
-6.923750632550298816e-03
-4.161677131995599258e-03
-4.265392916022987292e-03
-4.807693337685313775e-03
-4.656478191150857648e-03
-4.661214362745776454e-03
-3.267133390593124440e-03
-9.335758091178331369e-04
3.284607011344799817e-03
4.018129583518909032e-03
1.152080451650470050e-03
2.736172697393947102e-03
3.699336100648073326e-03
3.059498066852769753e-03
9.634003531854260644e-03
1.686000882909721721e-02
1.486044975021825337e-02
1.038912611828100331e-02
9.496381319565953480e-03
2.782094961818210727e-03
-6.934342188220435355e-03
-3.435044899656943072e-03
5.514338760696405745e-03
5.098920487918856201e-03
-3.350138628219008832e-03
-1.000256970981561015e-02
-6.559374049140241983e-03
-6.013398484825952482e-03
-1.124794439955606809e-02
-6.298906394444319171e-03
-2.543757200232534769e-03
-7.492851408906855450e-03
-8.691837993513504973e-03
-4.449169125656328438e-03
2.909731824903843619e-03
3.600319042724019897e-03
-1.206417495419005725e-03
1.982046758737195796e-03
2.746680962497617673e-03
-1.807375368265557326e-03
4.382008704935196324e-05
1.728563027421387227e-03
6.278651076544513460e-05
-1.589501025586707774e-03
-6.108036129587451728e-03
-1.093316187470067327e-02
-8.824119133199687451e-03
1.717213932944774155e-03
9.732831786484484257e-03
7.071250243885453778e-03
1.009646129604086038e-03
-5.246419412927767062e-03
-1.799442683376313232e-02
-3.520194800182952638e-02
-4.417601249671899294e-02
-4.198978422137635003e-02
-4.075416986115634049e-02
-3.720661495343120101e-02
-2.817060184333311165e-02
-2.658361453063480540e-02
-1.535737449975027070e-02
1.722281746372432767e-02
4.621655820137963305e-02
6.894259798375888815e-02
8.982629681011190803e-02
9.967446273127208989e-02
1.033760048765176853e-01
1.038342387304853065e-01
1.031775394442085159e-01
9.410047195957622901e-02
5.550829693899905076e-02
4.496050581465932394e-03
-4.173506321360644089e-02
-8.363076984697527527e-02
-8.556336402486337811e-02
-5.366893424380057842e-02
-5.529255302438963737e-02
-9.728034647286458447e-02
-1.248381467649583298e-01
-1.003402312059278600e-01
-3.025223512249593238e-02
2.533735021992349762e-02
1.049893988838821249e-02
-2.909668882785503355e-02
-3.999960077309201723e-02
-4.778981048770192946e-02
-1.877974286414134039e-02
6.617496140544133765e-02
1.128734769933853743e-01
9.769841981133248199e-02
3.684909345047679419e-02
-4.088183810675106306e-02
-5.792158066358529117e-02
-3.962856755916600165e-02
-1.181200725079290317e-03
4.979325217028061218e-02
3.662636020953365795e-02
4.564998266145479933e-02
1.096765663285421966e-01
9.025884002551877450e-02
3.402460801424808841e-03
-7.281800842508381888e-02
-1.276183937043844918e-01
-1.709740439650625221e-01
-2.032402113887568085e-01
-1.907858604621065768e-01
-9.892851231728541639e-02
7.793501313228137772e-02
1.662479642289343973e-01
1.017193569480096121e-01
1.168675628944214478e-01
1.626924558168288404e-01
8.717766406232264897e-02
-2.323595557053913241e-02
-1.185203445209068729e-01
-1.061411042590518494e-01
3.940510358605517349e-02
2.518209825482939923e-01
4.400931676804454296e-01
3.753440058736840501e-01
1.734186034327378223e-01
8.842737992838696492e-02
2.440347193219231242e-02
-4.321686579622738972e-02
-1.307819300891014114e-01
-2.962945199070676772e-01
-3.910615121685100948e-01
-3.575491948001635056e-01
-3.197005588462784043e-01
-3.246920990224076986e-01
-2.543246804463782373e-01
-7.214078263025658355e-02
1.228223146976622770e-01
2.524303348989312412e-01
1.764945120476238694e-01
-1.797919852991303191e-02
-1.067585315142070002e-01
-1.120980166126394062e-01
2.703827800564135089e-02
1.896922698803166496e-01
6.015485986060520318e-02
-1.264794965125237702e-01
-4.955987850674028333e-02
1.637909404900054489e-01
2.690257197799010846e-01
1.781963953025059444e-01
7.720853900795639213e-02
1.086994684663648847e-01
1.634617296581050983e-01
1.805265321094171871e-01
1.836154962253883360e-01
1.374132395282670338e-01
2.690305248298680008e-02
-8.508016999170069095e-02
-1.452383570857354311e-01
-1.275620383976894812e-01
-9.723681669418643425e-02
-1.800312664269007323e-01
-2.365611868942189000e-01
-7.475639050718028977e-02
5.261801682918751388e-02
-1.327891794836058015e-01
-3.300782251322911254e-01
-1.600637180043591457e-01
1.129180533947259091e-01
1.417721960638308187e-01
7.796343798325758301e-02
2.992448169666239027e-02
-1.493003861540489682e-02
5.686485257494098416e-02
1.633598684084898167e-01
1.481693987252922506e-01
6.177465853077658553e-02
-1.164951649669467362e-02
-4.955953150288494591e-02
-9.157282471436858917e-02
-1.198202378325741446e-01
-3.376559791684586448e-02
7.384312397444993403e-02
5.733617712611760453e-02
4.981195090126254443e-03
7.542228776831613572e-03
3.535186085788494942e-02
6.193423671571807870e-02
7.520831884249339072e-02
5.845928106470035801e-02
-1.615082978078463335e-02
-9.106074788281125210e-02
-8.822915479363084568e-02
-6.307183485738446227e-02
-2.928099877989931779e-02
1.121852418412641085e-02
-6.715980048299893465e-03
-7.352260836610588317e-03
4.157647049482453977e-02
4.463721222994664062e-02
2.014222026174521812e-02
1.065099816960136080e-02
1.839789609280371042e-03
-1.248726366346441900e-02
-3.987280421743496193e-03
3.878688960649128575e-02
4.520151282469501985e-02
2.042459556362558049e-02
1.418698644543544066e-02
-6.726013068853841335e-03
-2.493832936807466663e-02
-3.174264005970922620e-02
-6.022389835255283902e-02
-6.757556954559224005e-02
-3.455043902273600975e-02
-5.410352981317406024e-03
-9.554855802911852575e-03
-1.488393097418844700e-02
1.612118474106383204e-02
3.054328961282561788e-02
1.372176634933113155e-02
1.220309520491218852e-02
1.067563480501650640e-02
1.213752510635077685e-02
2.886521783780056707e-02
2.842690914758613449e-02
1.869950781433586326e-02
1.223751743617979178e-02
-4.432774649168799881e-03
-1.638968532316631074e-02
-1.347413356717151386e-02
-8.088782886793597846e-03
-3.374286432336994976e-03
-2.319252201278808670e-03
-7.785771514183081020e-03
-9.936323637275727358e-03
-8.557156599790378612e-03
-1.409400701699954107e-02
-1.946515067429221285e-02
-1.471642426814235953e-02
-6.753957560066138968e-03
-9.806589029046327080e-03
-2.372989757027007748e-02
-2.028836479072192167e-02
2.008774653278586238e-03
4.498176128033826160e-03
-6.051333003250295751e-03
2.196486328010630908e-03
1.827518754245619978e-02
3.107759448522536688e-02
4.316443725844783946e-02
4.576286192407887782e-02
4.125970964285941706e-02
3.480901416400433712e-02
2.040709699361235516e-02
9.216713929696032474e-04
-1.191637263462671202e-02
-6.451010617703435354e-03
9.750506184884858221e-03
1.199329026001854683e-02
-2.697049159627001261e-03
-1.469120146354754852e-02
-1.494426029174589395e-02
-2.083587981971652195e-02
-3.720396469113027016e-02
-4.093678539444160075e-02
-3.533134472938944531e-02
-2.737312319477522640e-02
-1.519542104214074117e-02
-1.409925560188931767e-02
-4.092452436187606762e-03
1.367864774817955688e-02
-1.496028726992241521e-03
-1.334401045498959798e-02
6.806103788517503875e-03
1.670401752603806883e-02
1.155231156242860630e-02
1.262171235677475405e-02
2.058709940550457196e-02
3.048782935513959930e-02
3.452495895299270701e-02
2.664901408618980394e-02
1.460363499184011080e-02
1.314755705385679124e-02
1.388821971894473907e-02
5.633345466102466191e-03
-5.507823535817175584e-03
-2.322317476078626305e-02
-3.750316342683119447e-02
-2.763323281929015718e-02
-6.540823138831022496e-03
4.728290309314658532e-03
1.124221984104207921e-02
2.611586249825952749e-02
3.816169242351159091e-02
3.282147350074756526e-02
1.634832728852076908e-02
-1.453814608910018388e-02
-4.910633826352522879e-02
-5.257566948873776402e-02
-3.040950088590181274e-02
-7.858081549236712801e-03
7.626116049619630945e-03
9.900042198756908024e-03
8.307025569498686923e-03
7.455723916394539283e-03
-9.836840728905565153e-04
-3.465866071621198077e-04
6.782673278890637494e-03
-4.236705644852683736e-03
-1.769962568490510493e-02
-1.523393922445142289e-02
-5.679028693479397198e-03
3.075083388744562305e-03
9.665961517336936135e-03
1.402696771819694418e-02
1.198684078679813220e-02
7.325301989016245845e-03
6.878470408744731014e-03
7.478417483854617187e-03
8.791414806583004379e-03
8.389156717101341892e-03
6.602974604343867654e-03
6.245706397981130864e-03
5.851156066423521783e-03
5.968812437980688598e-03
-2.725810824193044060e-03
-1.226142805529890738e-02
-7.030698046609403125e-03
-3.871448361614912917e-03
-6.458686925617813240e-03
-8.378050900250283775e-03
-1.005726683623587268e-02
-2.300076847358571621e-03
3.792014677282182396e-03
-8.937480248484542221e-04
-6.028869318552609706e-03
-7.844819165398812105e-03
-5.751022081375431298e-03
-3.270572853155182371e-04
7.313345141202834757e-03
4.806699318800113259e-03
-4.837369586772711366e-03
-2.572372977667759970e-03
-1.562247639105846485e-03
-2.433701191524028327e-03
3.176854090010020060e-03
3.853632534689511481e-03
7.161194929152250865e-03
1.079238191620676343e-02
1.209415865424780419e-02
1.835436855447431306e-02
1.622186936175949376e-02
9.307932329999704310e-03
6.912592576256141284e-03
1.046139955912317454e-02
1.025943776680043364e-02
-1.619913350574145317e-02
-3.563619731908954091e-02
-1.467618192761129328e-02
1.149912662509114912e-02
8.853809417468600299e-03
-1.680612004869033727e-02
-2.715512473926949555e-02
-1.161810330190148413e-02
9.025180897769424391e-04
5.686076501237217508e-03
6.154501834228322428e-03
5.702594998473048231e-03
7.670400847168946067e-03
-1.141160986561187999e-03
-1.292804246327689845e-02
-6.198538970123923866e-03
6.801318387195080459e-03
-7.609216451766852036e-04
-1.297802536539837022e-02
-6.469428527830451379e-03
-1.951878459441300749e-03
-1.059672017571346722e-03
1.214275452433340868e-02
2.812301525283818215e-02
3.637609961098941386e-02
2.447569103667748130e-02
8.029090961090880069e-04
-1.263790231244480908e-02
-1.968831265950683404e-02
-2.190786383280178551e-02
-1.895628532901183147e-02
-1.366654352357809903e-02
-5.174561613531994571e-03
3.682623132451053917e-03
1.625518369977447738e-02
2.635318401344733871e-02
2.492081746856144100e-02
1.050609573147327259e-02
-1.203212382835808572e-02
-2.175840038924834255e-02
-2.005580208330180400e-02
-1.617602577301202951e-02
-6.242707713231646603e-03
-1.636582964490365753e-03
2.005096552276102936e-03
1.242241546091510558e-02
2.158659277494513057e-02
2.566157320490678601e-02
1.620596328062373984e-02
2.270201759970709096e-03
-7.244403465665480955e-03
-1.669320126460647341e-02
-1.728737827924181625e-02
-1.361305679271372984e-02
-7.899056804039756435e-03
3.536219053032848246e-03
6.916575069943130608e-03
1.658109690732374134e-03
-2.906685354156533525e-03
-7.312654234491147882e-04
1.211934095821357374e-03
-3.172466907371169608e-03
5.835294997226698338e-03
2.381433647087072975e-02
2.865844739813187478e-02
2.021137989734439477e-02
3.429329901151156575e-04
-1.947603023247193588e-02
-2.459681876859227262e-02
-1.961376376312538861e-02
-1.672447817842822801e-02
-1.659937687483423185e-02
-1.317683001900895289e-02
-8.817465959447236962e-03
2.670225750143524149e-03
1.836481694311028340e-02
1.921313877621210267e-02
1.197518831813892785e-02
4.421301504044655717e-03
-5.583015826963555125e-03
-9.250927607207207193e-03
-4.879861768588717938e-03
5.763053218874498139e-03
1.243080475882315898e-02
-1.048969152739214362e-03
-1.744685079388529417e-02
-1.254573607745095541e-02
-1.911407420331847403e-03
-9.713759761621151324e-04
1.944509639807997028e-03
5.770650875340259042e-03
3.596950773121721824e-03
3.312018105070771868e-04
-1.840368096420150505e-03
5.784028880785874443e-04
3.913265633990372326e-03
4.749788203188706759e-03
4.938846158031274039e-03
-1.440023106404684020e-03
-5.757365124487929912e-03
-3.908115192065638767e-03
-6.665115942439406999e-03
-7.202493254776791594e-03
2.523231743212436817e-04
9.480964441537880621e-03
1.091934419695115080e-02
3.556079412163307141e-03
7.746169030486722970e-04
5.989344251340098652e-03
9.030880629843906007e-03
-2.069678558825747972e-03
-1.074110035038061510e-02
2.037869808628584543e-03
3.802350062927653887e-03
-8.723569528681446306e-03
-6.240576477164151356e-03
-1.522991897008682191e-03
3.059646428706510896e-03
5.244567549472289175e-03
-8.755137133656065024e-03
-1.061502695044137107e-02
5.504003709083807663e-03
1.098808373361549739e-02
8.166452587662543020e-03
4.700798435188097320e-03
2.245048932150853823e-04
-5.151004301863684048e-03
-1.141277843718847308e-02
-9.949754059298845238e-03
-7.064948572869961252e-03
-6.167708967729765290e-03
-5.432347265083008192e-03
-1.828422216701297912e-02
-1.463132206832970343e-02
1.344322747343850571e-02
1.773687813730420032e-02
1.758739066776314822e-02
1.641618552223891858e-02
-9.932919357764939325e-03
-1.102196088127401809e-02
5.636448428603037242e-03
2.761281797698745145e-03
3.199681555329522177e-03
4.025152087707139018e-03
4.046986936049118237e-03
-3.511011135268487030e-03
-2.368176270933574495e-02
-1.633151345136063873e-02
2.900364654912483946e-03
4.085099466074127231e-03
5.645451744745406085e-03
5.073023259971581878e-03
4.445662924597057301e-03
8.327966463856154022e-03
4.253336999257742446e-03
2.086914080917415606e-03
2.954230100814273993e-03
-5.249504618487205350e-03
-8.332275631916420330e-03
-4.059044101600441969e-03
-6.782264549854203489e-03
-4.973530426154999622e-03
3.903265329621482399e-03
1.506726643402841147e-02
2.921199239168667527e-02
2.189251879208346449e-02
2.605304835755673995e-03
-7.755828026190417224e-03
-2.394205498119600720e-02
-2.722976802213399050e-02
-1.432329507338317084e-02
-9.423315940618412836e-03
-3.757309608342055893e-03
2.102010874170424492e-03
7.526573082135187484e-03
1.368905246006894838e-02
1.234903958487637218e-02
1.181679947513359155e-02
1.068680736403979960e-02
4.796550980306371788e-03
-4.417397254061796764e-03
-1.335926027970013585e-02
-1.113266556289892184e-02
-3.406082679207179161e-03
4.041986434826074469e-03
5.761296021790219754e-03
-2.419777425136521165e-03
-8.215076291909213790e-03
-1.079668013250242517e-02
-8.879509103393735253e-03
-5.481604899601554871e-03
-8.980995454577891252e-03
-5.640938027347463558e-03
2.011517216936232425e-03
7.862535842445873835e-04
-2.407918315183261646e-03
4.135555931118726786e-04
5.654892346219188640e-03
6.486914084672864081e-03
8.805677867859660474e-03
6.747533560322178416e-03
-3.086724362535308956e-03
-6.609059259040957332e-04
7.921884891399994313e-03
1.222229935876651720e-02
1.218692412190909742e-02
3.580353673856124207e-03
1.892476941400885772e-03
4.540541398139715142e-03
-2.269653372998604174e-03
-8.509232083461664917e-03
-9.053619644247517043e-03
-6.502393154080700864e-03
-8.675869858080692554e-03
-1.093878567410045029e-02
-2.945789052699917220e-03
2.569286016809451453e-03
5.218995513892293013e-03
8.697702081883579642e-03
5.973509580172243691e-03
5.401028318162352359e-04
-6.046075390751227095e-03
-6.770379852976841917e-03
-6.257502993607027891e-04
2.412666544638788005e-03
5.800592744307575023e-03
7.544684857914077739e-03
7.201755790279183896e-03
6.836623944262927403e-03
-1.949723790613832643e-03
-8.802155048989011507e-03
-5.129278075714203272e-03
-4.490056441781437903e-03
-1.084938474433471550e-02
-1.309818529932334392e-02
-7.620947925657838885e-03
-7.384790137538376105e-03
-1.131990199184243831e-02
-8.993313769917106806e-03
-8.961127821438152896e-03
-8.136829882290452440e-03
-6.533416866317074290e-04
3.429708619058019752e-03
9.375871971888591339e-03
1.600894326771441084e-02
1.065174486674654725e-02
5.736948580165882744e-03
7.433060018481069120e-03
1.236235628749923895e-04
-1.079729193869388704e-02
-6.646012681929972313e-03
7.660011750507577516e-03
1.455071622382199739e-02
1.185035924751627438e-02
1.182372141220533641e-02
1.859099412519748390e-02
2.112851780325282133e-02
1.119704454002205113e-02
-5.936274291483480646e-03
-1.441825045373600934e-02
-8.515242571245562261e-03
-4.129873763979283532e-03
-9.190405970522189105e-03
-1.755286986235826338e-02
-2.301125630833326940e-02
-1.870683079594378725e-02
-1.083295875553072843e-02
-7.595250082240634880e-03
-6.126464296208351118e-03
-7.029050927315806836e-03
-5.844540657044024722e-03
-4.257250202006326346e-03
-9.403660013572455109e-03
-6.918651919007151249e-03
1.799146220732494514e-03
4.012886909421862699e-03
1.001970505828298462e-02
1.473555582516721842e-02
1.155033785688171048e-02
1.233974118185915750e-02
1.089471321217542338e-02
4.812553975535641647e-03
3.694496543863094555e-03
2.840213027621290957e-03
3.912039996599876376e-03
8.477008081021858779e-03
4.399040049750289720e-03
-3.876051260323391465e-03
-5.898338822141516689e-03
-7.767104308418944399e-03
-9.090602487445935756e-03
-4.723139823512082641e-03
-3.849647261887155936e-03
-1.090765720340930098e-02
-1.272876335754064003e-02
-4.227522056150041264e-03
1.850371564303641969e-03
2.981341434565520053e-03
5.533498606349147517e-03
5.531207558501145295e-03
2.894404409526026966e-03
1.080944378717294419e-03
1.878061590174850927e-03
4.861876079596766029e-03
2.594632048572610705e-03
4.184542901765370138e-03
1.068817127824885430e-02
4.353579168674448323e-03
-1.048585019442383783e-03
1.026646386773202423e-03
-1.237993691163443485e-03
-1.149257242133963153e-03
-6.376380005739650143e-03
-1.490168363154537393e-02
-1.070106845558851764e-02
-4.673145044271233457e-03
2.872110224107207385e-04
6.138248665411480051e-03
5.193739661758018343e-03
7.558305350167883376e-04
-1.367630041897825374e-03
8.180974080157374590e-05
-4.745139565674710413e-04
9.534403704109667161e-04
2.224101590183177098e-03
-1.494680841666924317e-02
-2.532770605993535373e-02
-8.918979871074268762e-03
3.896948723082585466e-03
5.836366576242791281e-03
3.909375863347385426e-03
8.933729147487276361e-04
2.970199979337874007e-03
1.891459021051725966e-03
2.547010001903071610e-03
6.297914215311387585e-03
3.112432202879427713e-03
7.861265798634803348e-03
1.588782096654214535e-02
9.253661058223120600e-03
2.355440800042576336e-03
8.189313508154733067e-05
-2.818614326059253918e-03
-5.157292358186281152e-04
1.520323642675147548e-03
1.118102998588928502e-03
1.963030022115824953e-03
-2.344672855195224434e-03
-6.779769943864889618e-03
-6.299033791571269358e-03
-7.665836263089873329e-03
-7.583448980742930889e-03
-7.965344704513573418e-03
-1.283504086249500319e-02
-1.036431156257901567e-02
-2.288571050214233040e-03
-1.294787016597807264e-03
-1.048744867294591505e-03
4.189667860868923240e-03
4.232284002340430153e-03
7.868168316088805774e-04
1.347356564251289430e-03
2.791019639744609770e-03
9.361991778667994729e-03
1.573748962562438597e-02
1.365526354691251262e-02
1.122784252672981258e-02
3.762617346914798322e-03
-1.152276117334424116e-03
3.250106550086056569e-03
-4.226014187491747981e-03
-1.116074295027420782e-02
-7.428553967342812689e-03
-1.121778047547510211e-02
-1.424224636122769540e-02
-1.014407661078907744e-02
-2.439823699556976401e-03
5.646793044995988484e-03
6.619501134872121141e-03
6.065433910233810483e-03
3.671301666677969418e-03
-1.956919151651170027e-03
-4.907830751128103471e-03
-4.671409441678348040e-03
-3.103875220530442078e-04
1.414622674897533404e-03
-4.866689564806936895e-04
-1.230485529516222015e-03
-2.340927010074986443e-03
-1.084841022124891346e-03
2.062114002069287758e-04
3.485321674396921112e-03
7.654865984681147664e-03
5.586812413887938707e-03
4.701324171373970351e-03
4.149066923600504969e-03
1.049105951171796103e-03
-3.308471085275197388e-03
7.935040496747877183e-04
1.643615980957797984e-02
1.320068188791154997e-04
-2.920373392932035933e-02
-1.386290192072280394e-02
1.809596378571518005e-03
-6.934291948472014883e-04
6.947228905590132134e-03
5.125708036990047831e-03
8.265771832734488235e-04
3.994811053684239367e-03
-3.498313778431615898e-04
-4.684960925154356068e-03
-7.442290344314317352e-03
-8.517251569388775700e-03
-3.264921016801777039e-03
-1.624730265732873542e-04
-1.079481250187900969e-03
1.731729815961506255e-03
6.964905785624040183e-03
7.179038778925731640e-03
5.762193845355071189e-03
1.691672408632809632e-03
-4.730269368887917228e-03
-1.897856127074287790e-03
3.073631150833844826e-03
6.805525219844768027e-03
8.744516823088787152e-03
-4.197838140644160991e-04
-4.386950151541437956e-03
-1.755489540659411823e-03
-6.508637393438255342e-03
-1.063274822071388209e-02
-1.036121152092158576e-02
-4.064095087631474333e-03
-6.132540393492303971e-04
-4.461158124708371892e-03
-1.540598510377215328e-03
1.542608387428887366e-03
6.738699215064395884e-03
1.562448164158431081e-02
1.246896921591759272e-02
1.056249571474817198e-02
1.125762827312878737e-02
2.514673101711775542e-03
-4.931909310316919676e-03
-9.068967031013773841e-03
-8.601221127613158796e-03
-6.231945505952177743e-03
-9.009228006799275754e-03
-6.097168581776629508e-03
6.485808395174457418e-04
1.128462108948598622e-03
-5.607910413593279004e-04
-3.128792104150763132e-03
-7.128022461758290809e-03
-6.475561198562237303e-03
2.740590292931301499e-04
6.008752689087776440e-03
9.884653507437227843e-03
8.923876320499785422e-03
-3.721756003840292560e-04
-4.266739082591974354e-03
-3.654902785251815198e-03
-6.796619702588829401e-03
-1.485497053963800562e-03
8.655275486640015212e-03
1.007871270276810768e-02
6.299283324321232336e-03
2.013412594203520603e-03
-6.855030400468474158e-04
-2.352280649416763417e-03
-4.531928885597274505e-03
-2.962260059320316434e-03
9.422958725475166645e-04
-1.131268801224874585e-03
-4.919131500670857401e-03
-3.514390488211547627e-03
-3.091335070560415760e-03
-1.111939312163721244e-03
2.325715183225033570e-03
-3.433456816518028198e-03
-7.921972078308062507e-03
-6.202222724160712589e-03
-4.370201634473289652e-03
3.981785572761444014e-03
1.173134811596691224e-02
1.309172501214541685e-02
1.281497352349150395e-02
7.088065333597664414e-03
5.429887340189968421e-04
-1.920392318420016415e-03
-1.931866624498648939e-03
-2.294714698425729684e-04
-1.399811397605935743e-03
-5.835638315731439020e-03
-1.139752663989883515e-02
-1.193427661998765210e-02
-1.505023771924481014e-03
7.649077856149729890e-03
7.348707244659660916e-03
6.485913995428287809e-03
5.320483260066151757e-03
-1.199742682100931462e-03
-5.691484471679932218e-03
-3.553297459139749623e-03
-7.608838885171835065e-04
1.397545215164038316e-03
2.505836141247295111e-03
-4.327278187409277490e-04
-4.513813077946528772e-03
-5.666862268520603263e-03
-5.067014227769439487e-03
-3.101698027811576781e-03
4.658800360216718700e-03
1.141717255568936752e-02
5.408551479305698587e-03
-7.241830461443612803e-03
-1.185297645281253691e-02
-2.184335896522603040e-03
6.568776037573893778e-03
3.160723856762658913e-03
1.315446081742288782e-03
1.509046552576995444e-03
-6.775037343250403174e-04
-2.255977490904414497e-03
-3.799016381720063222e-03
2.521658699733989907e-03
7.561678682969645744e-03
6.205546562419372511e-03
5.970157717144006747e-03
-6.125933318914965689e-03
-1.314539101331686603e-02
-2.661107035927494716e-03
-1.181584756982819156e-03
-4.949617675461354289e-03
-5.894538082431217615e-03
-4.575145052668295152e-03
2.504840763077106208e-03
6.317629523738032930e-03
9.974917674385519462e-03
1.395812657536085050e-02
1.417703147571513882e-02
8.045006689560155883e-03
-2.874782524224787916e-03
1.625120166431091211e-03
-4.320239898110563265e-04
-1.951903233207512647e-02
-1.231500657401648179e-02
-9.775284914962853716e-05
-7.571122831683444777e-03
-7.515502004342507550e-03
-7.693904270276180450e-03
-1.185875541962676423e-02
-5.659918140752927436e-03
2.232769046789536121e-03
5.944429498289232131e-03
6.146929312430948061e-03
5.479874856110755234e-03
7.225447731817321445e-03
6.760123063909939667e-03
5.164548033133081056e-03
6.391518749337018329e-03
3.755248177758757026e-03
-2.155525535195370376e-03
-9.058736695146070222e-04
5.210855270342973182e-03
8.905323538336824482e-03
7.409152187060955713e-03
4.226179787007916348e-03
3.845045145420444409e-03
-1.400768880677615838e-03
-7.571228498541922314e-03
-7.797025774818193943e-03
-8.844400973958561896e-03
-7.287859865318238768e-03
-8.852475032685542047e-03
-1.407143222336691701e-02
-6.212172432790321122e-03
4.173430913325435788e-03
6.857544853215742989e-03
5.231743931096969995e-03
-1.394770541815579853e-03
-4.505500583338394038e-03
-4.160367590649980199e-03
-2.082630713076618397e-03
4.425703505280114206e-03
7.311784139668472959e-03
8.294681490780728486e-03
9.749552051480403145e-03
2.474958446533861295e-03
-7.759743634465860428e-03
-6.267485893634085724e-03
-2.257877136842709621e-03
-8.194732079713488992e-03
-1.015209136176343022e-02
-4.066983663941225492e-03
3.444174738543441180e-03
1.141865134039733373e-02
9.390044518894784947e-03
5.469481927082965947e-03
7.039753106977089669e-03
1.352014435818438753e-03
-3.594144823713858478e-03
-6.307802804815396125e-03
-1.055434168029749029e-02
-3.723595469911693441e-03
3.154351277271882220e-03
-2.116221154477779254e-04
-2.580982931409295071e-04
3.920793530984896351e-03
4.560114488036260370e-03
2.813944627315449233e-03
3.983021634302634506e-03
8.364050333220766562e-03
4.344659993562296520e-03
-1.177450143274340853e-02
-1.706064895473310625e-02
-2.985836040931924909e-03
5.596583643253071928e-03
4.399016755450488141e-03
6.340885723942675870e-03
6.771490197621562145e-03
1.962463044628132581e-03
-4.198995970543577434e-03
-4.447268825876625649e-03
9.130897635132639639e-04
1.712524494364061397e-03
8.739800478836927834e-05
-1.632878303580058378e-03
-1.749404138042423822e-03
2.610572669089232609e-03
-1.162434586637922217e-03
-1.055425058123219371e-02
-8.673726787267835650e-03
-2.308951369677712221e-04
-1.008066616583002274e-03
-1.060670327685610606e-02
-1.008433786648971035e-02
5.351580818156286955e-05
3.579627662245275267e-03
2.798957132443268079e-03
2.157781602453991317e-03
5.694566429873256647e-03
8.099522958883385512e-03
4.869973703946953560e-04
1.749528339226067569e-03
1.027728788653592407e-02
8.501107381001588720e-03
7.159847740002160676e-03
4.000647780500736495e-03
-4.192353609428704775e-03
-7.626438876581309416e-03
-8.871550770904847519e-03
-4.157346889331207766e-03
2.060556284144064894e-03
8.986283570486630450e-04
6.348400979723713318e-04
3.098063761580002913e-03
7.237110487874956304e-03
9.307078420357006027e-03
6.169759307225132841e-03
3.354666286186082716e-03
1.214439547119124411e-04
-1.200777135104916715e-03
-6.731097140576741342e-03
-1.645403301394802661e-02
-8.143368815268278021e-03
2.025197624252498066e-03
-2.233857091750255514e-03
-3.814858206809343269e-04
-1.230802797443455044e-03
-9.988123948838769500e-03
-8.096809493573803307e-03
-1.488522570759491688e-03
1.301935642006148922e-03
2.631669857765758813e-04
-4.879890950930497982e-03
-4.535539455648334058e-03
2.624572234075832431e-03
6.103899862249766682e-03
6.645392562503769224e-03
5.721958433590711157e-03
-5.279977385153591029e-04
-2.606245703148666985e-03
1.982605266910629580e-03
5.080816554250594357e-03
9.144915087981748611e-03
1.091477036234256986e-02
9.215798711748433500e-03
5.582009383929046296e-03
-3.517382664294473483e-03
-6.210466759959241793e-03
-3.139494089088402939e-03
-5.366205601500406534e-03
-7.625221973707006252e-03
-9.103007581992545935e-03
-7.895996505771364637e-03
-4.725625763590238573e-03
1.305787367281817249e-04
9.114338341794918363e-03
8.021980026486498494e-03
5.361413441964811739e-03
8.994981825883409388e-03
2.262048159989486079e-03
-5.337711036954373781e-04
4.074906431183698656e-03
2.167248765860200002e-03
3.743670082481027374e-03
3.643647059317319144e-03
-2.808043461929391957e-03
-3.312720079359741769e-03
1.380736850521157005e-03
4.174273761339081235e-03
5.056578802092611021e-03
6.405556112507132700e-03
2.398393970390008331e-03
-3.644921107608201614e-03
-1.896219404241024972e-03
-4.135393405681909301e-04
-3.850404108953457347e-03
-7.567266524703725357e-03
-1.000837305028188899e-02
-1.603901923337882132e-02
-2.650712233166213627e-02
-2.627056895978364254e-02
-1.696512337574958285e-02
-9.457828508959960703e-03
-1.081938804912441557e-03
6.254848753658978459e-03
1.255282756861313478e-02
1.426234159778178197e-02
1.282594859510027482e-02
1.887486200623509497e-02
2.411668808558958821e-02
2.477582043123160993e-02
1.925612556167539263e-02
4.816277758689282290e-03
8.565969737120602504e-04
4.386596719435397092e-03
-1.358623135504332573e-03
-1.004201283594498284e-02
-2.437554271048430338e-02
-4.236871831539870681e-02
-4.637096111869667969e-02
-3.998679802564261698e-02
-3.070829451421085154e-02
-1.393973612555075153e-02
1.468478850664651624e-03
1.036109882141273732e-02
2.276748653842355224e-02
3.504998173292370178e-02
3.959324240077031348e-02
4.303071472363311639e-02
5.350650196375792561e-02
6.129330007400879410e-02
5.164695480859403387e-02
3.411668224455682852e-02
1.788217606840815377e-02
5.156928891674885697e-03
-4.871144327474999369e-03
-2.238045940868690908e-02
-3.246274167660980620e-02
-3.963766337971783016e-02
-6.176339972521353167e-02
-6.232431400043290937e-02
-3.322380039612882197e-02
2.261122946015488560e-03
