8.234155370829110421e-02
1.098880828930027254e-01
5.856311547107793947e-02
5.843275271086501022e-02
4.031848979408825251e-02
3.696836443901677094e-02
4.090428773382755873e-02
2.720262960718524553e-02
2.291349704738466359e-02
1.125950243396894174e-02
1.173317720568027925e-02
1.803505184001357939e-02
1.585002562824864430e-02
2.310920937456771573e-02
2.848820105239367739e-02
3.511989774359947081e-02
3.077869965131436666e-02
1.391806770975383828e-02
1.007430305976042377e-02
4.473259639447585423e-03
-5.265753625746514253e-03
-1.319625103089911572e-02
-2.598178011128559825e-02
-3.656176377027767210e-02
-3.977853960814167755e-02
-3.455302517086455277e-02
-2.993426724743343884e-02
-2.724971351387522889e-02
-2.160437589785364765e-02
-1.878148604379095699e-02
-1.468035666903073910e-02
-8.977555574665875560e-03
-4.490120467903580687e-03
3.843527929728571594e-04
3.958998410410994283e-03
6.419494676911225405e-03
6.814135293613033870e-03
8.230239856129754200e-03
7.020278834332776066e-03
1.532830953608561690e-03
-3.766111596442353886e-04
-1.916116135211644441e-03
-1.390609076095180620e-03
-3.576530431054172898e-03
-1.019153046561703871e-02
-8.098714515364275474e-03
-7.324205054065361861e-03
-5.576925475965861280e-03
2.354422041340311494e-03
3.901449438242893773e-04
4.656126773349207495e-04
7.308664112756739148e-03
1.071853442550074753e-02
1.557874010551541302e-02
1.663666794647574235e-02
1.408067289983591826e-02
1.292677454723731821e-02
1.043559046413301133e-02
7.164741547768281767e-03
1.655266668988028891e-03
-7.386541608344850997e-04
1.059867878038026328e-03
-1.086797552947299517e-03
-5.684778227211036150e-03
-9.626173199618767717e-03
-1.182345045079852795e-02
-9.015899918399525662e-03
-9.060496097627032458e-04
8.701696145839177624e-03
9.659557184828561349e-03
3.615467573068452747e-03
2.561203335530119491e-03
3.748235438976486606e-03
3.352885727919403033e-03
9.474960028491795881e-04
-4.296435054664943069e-03
-5.288468661870322600e-03
-4.789094011049138851e-03
-7.792902343357987864e-03
-8.058518528674073894e-03
-6.612452693988436596e-03
-5.442881462679167656e-03
-2.701094976654440719e-03
-1.150510609894579977e-04
8.269891895676763144e-04
-2.648516465756377541e-03
-4.542101015985169563e-03
2.013102120717955718e-03
4.768927774953962175e-03
-2.279111003336032628e-04
-2.241081731681572771e-03
-2.338066314662174110e-03
-2.247898661436801941e-03
-5.872583977499995023e-04
1.541167969627892597e-04
1.339346366152827615e-03
4.412916991052427858e-04
-3.533851479646746112e-03
-3.645305867760530259e-03
8.278726811198338243e-04
4.884260239151199355e-03
2.504871075060663942e-03
-2.156706025380087342e-03
-1.810763928274840631e-03
-3.496934022165521742e-03
-7.194448078390067863e-03
-9.776448631986579471e-03
-1.073278982089706339e-02
-2.276212700424496294e-03
3.702372322051395749e-03
-1.567282356285651726e-03
-4.165212163653616434e-03
-5.032977107680627546e-03
-6.582519904329727639e-03
-4.618103757534919480e-03
-3.148055451594394989e-03
-1.194931962279315463e-03
1.231833497677077820e-03
-1.467346665470019816e-04
-2.160567219837704854e-03
9.351966245491137152e-05
2.268480783214853018e-03
2.566768687948234057e-03
7.016277651938939916e-03
7.512809638585262427e-03
8.734783879221034173e-04
-9.632830208315426536e-04
-4.646389610062153798e-04
2.804632799614545195e-04
1.962330457070893264e-03
-8.160014027677112277e-04
-3.687545747430788241e-03
-4.422789726254028157e-03
-3.932269560754668783e-03
-1.608313807950412623e-03
-9.924842335188822570e-04
-8.079321048062459596e-04
2.648236424673766306e-04
-1.467961190735782089e-04
-2.476539194671734286e-03
-1.640709702030557346e-03
2.068591629292611776e-03
-2.274359100418146178e-04
-1.795291208493133856e-03
-2.321478334914311211e-03
-9.076047040519069284e-03
-8.042494665762133649e-03
-2.768518624717573005e-03
-8.275105036906346082e-04
5.448263480949721085e-03
4.491417246812450838e-03
2.838696473347228962e-05
3.882764293630164374e-03
1.649364610315942050e-03
-6.272673140314661243e-03
-4.835162652530648926e-03
4.603984763777080845e-03
7.019166522056199779e-03
3.468121317799508830e-04
-2.673901731985942141e-03
-2.841906842309200199e-03
-6.543155170603170740e-05
5.300161074015393055e-03
3.211025268214217493e-03
8.944565034521039697e-04
2.575551741499009471e-03
1.914084404878027947e-03
2.924685237388971112e-03
4.017398354986611436e-03
2.053785375936197782e-03
1.192565451513632069e-03
-3.070933345713328707e-03
-1.196484869044326868e-02
-7.547841197027787760e-03
9.641604832366945134e-04
-1.378187189799407950e-02
-2.015757269314215686e-02
-1.268489427346994195e-03
3.005158978559375419e-03
-4.598733285182083166e-04
5.431389735394091117e-03
7.451823340905333257e-03
8.250968813383035422e-03
4.477286485351453064e-03
-1.607808611006535365e-03
-2.312288279274053065e-04
5.122277419527708963e-04
8.832765956249719833e-04
2.353337404685733325e-03
2.991802797438454248e-03
2.948557021402595929e-03
5.416977490510200503e-04
1.583224828383461699e-03
2.716629187564688526e-03
7.589056849784185351e-04
8.734332710481982742e-06
-1.555511909605991746e-03
-1.684886446633142602e-03
-4.528634180324125555e-03
-7.973246829357120979e-03
-2.980147250088699580e-03
-9.457103340591828736e-04
-2.435184760941839881e-03
-9.471713840490192729e-04
-1.385040780166403628e-04
3.346516748862173995e-03
5.411068389035835445e-03
4.680423852081212407e-03
4.321440081212263654e-03
-1.395600240629738236e-03
-4.711612919300662942e-03
-1.135548201349200013e-03
6.584075467662894843e-05
-1.331931398795156143e-04
2.773471652731574096e-04
-6.099759771072708675e-04
-6.192086870202059140e-04
-1.580482848706479739e-04
-3.516429233227706848e-03
-6.025949806166306516e-03
-1.018349915521991325e-03
4.555078346634782132e-04
-4.040839177950074877e-03
-5.927814569123906422e-04
3.966784684822773251e-03
1.600584635660624346e-03
-3.664120501655883594e-04
-5.833634703068013398e-03
-9.735261153361870340e-03
1.668066410001931444e-03
1.248783488149214117e-02
1.000260774694819617e-02
5.953634308112801081e-03
1.831474466965640670e-03
-1.404192538726845539e-03
5.580503527926272906e-04
8.691325803822287123e-04
3.543784241174690371e-04
-1.477545276685502610e-04
-3.823664990260820448e-03
-4.997478833964687749e-03
-5.697485697158737386e-03
-6.270129033058564720e-03
-2.517222736612406003e-03
1.917157314984116109e-04
2.632559690561136947e-03
1.305092891809797985e-03
-4.435686551102717597e-03
3.609174194702558262e-04
6.626819759308627197e-03
3.590293739153213072e-03
3.313917530884444903e-03
1.223581289125005031e-03
-5.455625374167875040e-03
-3.472818067502890342e-03
2.680552015308725750e-03
3.377457542807636454e-03
3.146340006269137627e-03
4.770867528477736215e-03
5.879165530854054723e-03
5.348307131004046214e-03
6.494292138851020992e-05
-4.083419031933541339e-03
-3.269509122495657151e-04
-1.216543161335055176e-03
-6.652209757619535757e-03
-6.761710182870743491e-03
-7.226419181784331930e-03
-3.586935711889820393e-03
2.341720397442138054e-03
1.399265368726771569e-03
1.081478112733429879e-03
-1.954332913767309245e-03
-5.833863315975617962e-03
-2.620572744960625571e-03
-7.557467540863661696e-05
3.796510612074037189e-03
3.474014609606441376e-03
-3.788700015233523091e-03
-2.601226564288231045e-03
1.430933615110383699e-04
1.225734054324936935e-03
6.481233571447725383e-03
6.152278221333688964e-03
2.479452339766881775e-03
2.489074266290679910e-04
-3.046734972746961700e-03
-4.094630980386096235e-03
-2.076172251363285915e-03
2.534254608001962686e-03
8.337895726632099658e-03
9.451455266052092782e-03
3.217768590626378291e-03
-1.446586916450462966e-03
-6.350239020157249928e-04
-1.194103939960920041e-03
1.219958249535551880e-03
2.321575378527242738e-03
-5.368087870609450536e-03
-6.362380648795420979e-03
-5.564222090778141909e-04
8.857766037508877288e-04
9.903824411270391315e-04
1.431933526593667577e-03
2.268857688193634450e-03
-6.681000748100772175e-06
-3.602899142576871001e-03
-3.670681911609829148e-03
-4.095552628608038585e-03
-8.525261698204356434e-04
3.330765245746077855e-03
6.953136067376790622e-05
-2.682361957399777373e-03
-2.439299385732964908e-03
-2.930076822866695997e-03
-4.913524454897727836e-03
-6.924671398385826362e-03
-2.478102311219808427e-03
2.148693065052253645e-03
-3.007613432080852452e-04
-7.436645754738735242e-04
4.754742530848754013e-03
1.132202751335821718e-02
1.313589418805212461e-02
7.608878053823258693e-03
1.523815599340345344e-03
-1.758091214142581959e-03
-4.139505721998857322e-03
-2.522283224039001490e-03
6.787599379272695127e-04
-7.602087524964876576e-05
-1.366947368016757560e-03
-2.269032497305554629e-03
-4.841114613425948586e-03
-4.152288319239780083e-03
-3.357897289483680503e-04
-1.086613058377743557e-03
-3.219878954070016369e-03
-1.429520756571535660e-04
4.430908916856701133e-04
-2.965430793045507538e-03
-8.851597752901540703e-04
3.184939056880021005e-03
3.662371029173849303e-03
3.156460781876255402e-03
2.553989666222326871e-03
9.006542773388301511e-04
-5.217959166172316888e-04
2.560175138427179045e-03
4.410507791965887110e-03
9.707136109818105020e-04
2.162468730254289186e-03
4.863912265710707526e-03
2.752788041530303004e-03
3.153654237071050600e-04
7.429308519390980881e-04
3.740241050645576326e-03
1.747167245202047676e-03
-2.050183693732427533e-03
-2.429973997808200850e-03
-4.254799816379611563e-03
-4.834983692582354477e-03
-1.248794011300297969e-02
-1.953327664338470535e-02
-5.021961176127459105e-03
7.551811334949555359e-03
5.603833978808779592e-03
3.671712626786758499e-03
2.273416018809801264e-03
2.746043050970851333e-03
7.050702655225646797e-04
-1.014775696020096905e-03
1.216917110708336898e-03
-2.533728994056020940e-03
-2.269124944516643250e-03
3.185722753312015404e-03
3.388629449589368545e-03
2.899535087818413091e-03
-5.135932954330676720e-04
-2.815485205195094806e-03
-1.089817827262345518e-03
-1.888182130523908923e-03
-4.701776630921136149e-04
1.571861500356359995e-03
9.091868305373786499e-04
1.762097726931564272e-04
-2.349835598412048417e-03
-3.279544986302149450e-03
1.233821196249730839e-03
6.434645249612871293e-03
5.170810773712203323e-03
1.989114657436241457e-03
1.778241823475655353e-03
-2.839259240845729438e-04
1.541614794431990802e-04
1.118284623837391455e-03
-6.996704036914751061e-04
1.632276640322287593e-03
1.146028772490079823e-03
1.676386652550931021e-03
5.391480225370489342e-03
-2.126849777491245097e-03
-5.013358417068325065e-03
3.255104442149546126e-03
3.173181973294768744e-03
-7.068064751355630912e-04
-1.208666939648407644e-03
-8.204125521039127905e-04
7.947523323861924865e-04
1.902452695477145714e-03
3.027757914211904374e-04
-4.645854904939915146e-03
-6.473697047815945259e-03
-6.335610441563048478e-03
-9.356645584088336964e-03
-5.444023987462664679e-03
2.878238709065173741e-03
2.932411826276162727e-03
-1.616890495448284563e-03
-2.756400026708450118e-03
-8.336534714855594252e-04
-2.368065950646838086e-03
-3.029093349655793532e-03
2.248074001605979751e-03
3.569315383318608613e-03
2.440541041948560575e-03
3.687203771185149168e-03
1.814492472972042405e-03
6.971634167557530558e-04
2.742524662670908688e-03
4.171909335840464500e-03
4.283740491069276679e-03
2.519624667326146421e-03
1.917947570006453854e-03
2.854387530038440552e-03
2.664523775350506694e-03
1.648920633190859453e-03
-2.301971564964772760e-03
-5.614332719363880619e-03
-1.934944765402535263e-03
1.489862438770090140e-03
2.087227295615484333e-04
1.467576442018184374e-03
3.064751307024365240e-03
3.472166534577735865e-04
-1.286954815286467987e-03
-3.374092351401325658e-04
7.785850196865960358e-04
-1.786564165461260070e-04
-3.392147909907279168e-03
-2.597152847052123029e-03
6.819601396101353111e-04
1.945737814999843501e-04
-1.126934664551865152e-03
-1.265606446438672988e-03
-1.695753638348283018e-03
-2.584468017212228092e-03
-2.296350048103279994e-03
-1.022263760409265320e-03
-2.360692038398833330e-03
-2.742535577440555379e-03
-4.011450686875249016e-04
1.041348190684408034e-03
3.444106935689228953e-03
8.714894064731044466e-04
-5.711598097531890572e-03
-1.609952119162721138e-03
5.105833911854514365e-03
4.788530834506238461e-03
5.185942681310568535e-03
3.875494007743859534e-03
2.347983223464489202e-03
4.769163954880369094e-03
3.074694138443624832e-03
1.198944571442677538e-04
1.519254608316086786e-04
-3.085215391659802773e-04
6.288433205886819269e-04
-5.802120506054236947e-04
-3.482194092925959984e-03
-2.560288530567253300e-03
-3.114986710084642705e-03
-2.576507656521367668e-03
1.523188883269337634e-03
6.260192397630475348e-04
-8.001929799526828280e-04
1.472057674972748840e-03
-6.372179855104772965e-04
-5.337078330193380758e-03
-4.830753265374456047e-03
-1.992056847244188730e-03
-2.921933480456723273e-03
-5.816762543247334764e-03
-5.247167951698153074e-03
6.466228678991436290e-04
6.263182284317391629e-03
7.414436350553377068e-03
7.702390568427365872e-03
2.699289793214019757e-03
-6.043316115380461227e-03
-4.624397747812524287e-03
-1.253866956283881907e-03
-2.549996158595860089e-03
2.770082340825196724e-03
8.298040559050035014e-03
9.890314490796773758e-03
1.144460818294460412e-02
4.545356045717776315e-03
-3.866654612448537382e-03
-1.304188326781310307e-03
2.610428244426424120e-03
5.730857301071408481e-04
-2.729147174045641090e-03
-3.834100109331277546e-03
-2.615278119715000894e-03
-1.552400200897088899e-03
-1.891304947569020546e-03
-8.301504862615683225e-04
1.293347423390718348e-03
-1.729242371208023279e-03
-6.700863439922931895e-03
-3.732109617504658465e-03
2.612764202616509133e-03
3.963862411808796553e-03
9.055601669267373220e-04
-3.052856428491280711e-03
-2.162155511384000056e-03
1.242723698533094426e-04
-3.076772786039007942e-03
-3.305596940144307945e-03
1.585132834786324215e-03
1.562316896002187601e-03
-6.630921735471836768e-04
-4.453894224676701414e-04
-1.254984568210353122e-03
-6.208230443835803091e-04
1.929035841537606911e-03
1.481116253087115054e-03
-1.430921525235277075e-03
-5.308547294443337165e-03
-4.643367279079703598e-03
3.427692085750047666e-03
7.881040673735014573e-03
6.616442144118930488e-03
5.414579815229798691e-03
2.707406818080257058e-03
2.729192170749143525e-04
-2.216481134186825894e-03
-4.192851892677144920e-03
1.119678782009987401e-03
7.897029197472555523e-03
6.628661792264405224e-03
7.473860303138998851e-04
-2.722891949794679824e-03
-3.213862776602183224e-03
-1.870483899954371049e-03
2.327929910466051792e-03
3.754306254709478992e-03
-7.622496976519141029e-04
-4.105554321032986627e-03
-2.018101938017232040e-03
3.472535048435154009e-03
4.816999716767485402e-03
2.809948696592437425e-03
6.170645923301560200e-04
-1.377908930664295192e-02
-2.864474930339189554e-02
-1.846274616367954424e-02
1.638060681308662692e-03
9.815849799651233873e-03
1.008419927070733184e-02
8.189174924628304930e-03
5.353002391946032855e-03
3.383863970624628823e-03
1.717376143341009043e-03
9.546370653566356185e-04
2.160046710816708980e-03
5.957457302181343953e-04
-2.683506575761219950e-03
-2.333560066292323775e-03
-5.380804983182260097e-04
1.119683387387424879e-03
5.410615000019319094e-04
1.590619211524556698e-03
5.961474478252037391e-03
3.312759422798783587e-03
1.538486698132681156e-03
3.667753778173185337e-03
3.030010728299479183e-04
4.647348677667049142e-04
1.665226937306768344e-03
8.343705725926333239e-04
-6.530292641865156119e-04
-8.623010359019713661e-03
-5.824179218593872678e-03
1.498352043244067285e-03
-3.581219863517983316e-03
-2.396813191519504491e-03
-1.671296885722269032e-03
-5.996534321574080277e-03
-1.147754542907645668e-03
-1.624790013689784312e-04
-2.039433085755723487e-03
4.052610433733471991e-04
4.066305299378868143e-04
7.374819104562671361e-04
4.588339211707871809e-04
-2.028565615135381783e-04
-4.326820417968656532e-04
4.239336636274927293e-04
7.105447743293244640e-03
9.229541342332635290e-03
2.958557832710843535e-03
3.228023085583125442e-04
4.128834045269463154e-03
6.467218756247904848e-03
2.657376942473378342e-03
5.194403270172005642e-04
-2.596879493659854168e-03
-8.425968395501377134e-03
-3.877171573593454421e-03
8.871014053475241037e-05
-3.556890689428402223e-04
5.806297588067840278e-03
3.772362973407488319e-03
-2.842115693282261987e-03
-5.375419768665992172e-04
-1.513637743177816564e-03
-5.302510339083262199e-03
-2.541182473098009022e-03
1.243590750896440443e-03
-2.944450689904303756e-03
-7.762360784474779674e-03
-3.136512415417142680e-03
-2.058529820826663064e-03
-4.706371059537037618e-03
-1.902761203413128564e-03
-3.591330287555649214e-03
-3.862692711795666714e-03
9.622903392077970276e-04
3.143693391483659376e-05
1.208294649066377416e-04
4.078746132274521478e-03
7.497983395174366052e-03
8.740186385249423123e-03
6.392920825837081732e-03
4.930864313223386544e-03
1.026643070996561971e-03
-1.399757121108870499e-03
4.423313398281813677e-03
5.567282622756594343e-03
4.471245980570915692e-03
6.075437294215310473e-03
8.474673001167851247e-04
-1.328569066451640562e-03
2.185180401190802910e-03
-1.510534506018500981e-03
-4.596141517246532700e-03
-3.715995910073711527e-04
-7.917597903161085159e-04
-6.439060717762281824e-03
-4.827679490040332616e-03
-9.162784051373971256e-04
-1.947923962058233918e-03
1.048859711264920084e-03
3.647380016275257597e-03
-2.040507840617078114e-03
-6.613350993675022951e-03
-5.737044043912986266e-03
-3.270105706586934075e-03
-3.925121796839797436e-03
-7.599058823768364834e-03
-6.638417690978346344e-03
-2.135026585439941255e-03
1.263946214218153582e-03
5.731696913261926686e-03
7.524968286088685662e-03
3.468641228331447238e-03
2.931297672795432022e-03
5.833180626463267855e-03
2.091921731483886108e-03
-1.570710178824487454e-03
-1.655798527929466411e-03
-2.972494022899227657e-03
7.681733858370551555e-04
3.251634167784074169e-03
-8.919141246326281101e-05
8.840288397253515638e-04
2.017322214392607612e-03
2.654906258039722248e-03
5.032828117380374992e-03
2.651421850106546949e-03
1.509756127966252514e-03
3.831708799433568031e-03
3.109113437142937888e-03
7.983034415380921029e-04
-1.164622273913421815e-03
-1.273235036949329829e-03
2.850923465866619586e-04
-5.064396145522929733e-05
-2.376245231385665322e-03
-3.758295766431651256e-03
-3.087106689935293410e-03
-7.528815126135075808e-04
2.146932861274917104e-03
1.099990475432534396e-03
-2.861260796553795598e-03
-3.491147241243345613e-03
-8.305724786566582706e-04
8.113718801121126050e-04
-1.218281579009081661e-03
-4.002617097859721392e-04
2.949370387638944151e-03
-7.005844462480789346e-04
-2.648504083125940468e-03
3.183404892487370279e-04
-1.592903898658621698e-04
-6.069446791322819813e-04
-2.062965199128367379e-03
-4.531003286253972376e-03
-6.862260976969969568e-03
-8.929844066158884944e-03
-2.063618658062538625e-03
6.616487002988454859e-03
8.783037635640481705e-03
8.123094748939388779e-03
4.984547990227446677e-03
2.948136738511789555e-03
5.562096867467717547e-04
1.012919635274632741e-03
4.810435973544924422e-03
1.345581875018005309e-03
-4.974817610698549540e-04
-5.081330419842474810e-04
-3.763572096993419557e-03
5.800749415080368740e-04
1.951572525061341136e-03
-3.011512524058437747e-03
-1.070098436411766113e-03
2.160804945791941999e-04
-5.519891013388543606e-03
-7.988958179175869451e-03
-1.300055815857118022e-03
1.301391898469009527e-03
-1.598601172535342192e-03
2.563701720738542893e-03
3.625358816586904832e-03
-1.086627527758538426e-03
-2.987824956634347294e-03
-1.973788966482080322e-03
3.597636682100687107e-03
6.432978239981379173e-03
5.577268077669643095e-03
3.278391524102148690e-03
-5.690249988136911576e-04
1.612855196421655044e-03
9.105412262263436023e-04
-6.715950418451856110e-04
3.941051577337037655e-03
4.506953069497730336e-04
-3.341364807477867436e-03
-1.280088260102304684e-03
-1.495534930050468033e-03
-1.461503088708171732e-03
-2.913868902949274392e-03
-5.409489011860362483e-04
5.588674201457066379e-03
5.852811994920546421e-03
3.594875987724055737e-03
3.271041190480949296e-03
4.285144822927118005e-04
-1.553764371057944453e-02
-2.406925449140200762e-02
-6.916230617299322543e-03
3.183966866684825349e-03
3.655264579486957634e-03
7.165242619457547375e-03
1.869096090173900677e-03
6.855616326502658384e-04
2.627233611583680052e-03
-4.490526183369043258e-04
1.937138941875608898e-03
1.399319079089558033e-03
4.637456230787459326e-04
2.041315961385434512e-03
-3.508264094850229321e-03
-3.245266346646831154e-03
1.186023519183397905e-03
-2.641095431400359433e-03
-2.158021395320862835e-03
5.828614424756625896e-03
8.935682638222487359e-03
5.685221827491615011e-03
1.477170918748673583e-03
3.276848434322585666e-04
2.558713795216844417e-03
2.686880824685169110e-03
7.368229745013026109e-04
-9.296851200691234537e-04
-4.380247052353481232e-03
-4.520545802273089053e-03
-3.543627024854196107e-03
-4.634006642176749687e-03
2.602719483290031233e-04
2.976105248295307648e-03
1.122596897092718914e-03
3.989859801754745174e-03
3.933280014798198193e-03
1.418552499792376329e-03
9.651764402193958924e-05
-2.319789426207630439e-03
-8.881579487798554494e-04
-1.195012008532216887e-03
-4.561975050761288633e-03
-3.122655011662735236e-03
-1.297876056877442317e-03
-4.969398257669812224e-04
1.896287496774294850e-03
2.829463355218325184e-03
1.128636055613237675e-03
-1.873201472036717125e-03
-2.775064963803247978e-03
1.177344498913180174e-03
2.734121782753109672e-03
-2.678542756377117525e-03
-1.864918614155961461e-03
4.544394343506097909e-03
2.032816122735443994e-03
-9.045293223256322757e-04
1.488917075435100361e-04
-1.214130801918564219e-03
1.445150996532030586e-03
4.280000336401904547e-03
1.353533407117726113e-03
1.325112718993779371e-05
8.088257430455443597e-04
6.575552562877786398e-04
-8.611176493728612581e-04
-3.295443111820292072e-03
-3.461089779856632055e-03
-1.756225941344752295e-03
-1.105468690208637498e-03
-6.427879213944164092e-04
2.577160525422801836e-03
6.391900408881007883e-03
4.535339804858075363e-03
7.295989283794167756e-04
1.479639591522664008e-03
-1.359215872563565445e-03
-6.883133555188528444e-03
-1.542603154504397153e-03
3.445193075586161936e-03
-2.750842089614185301e-03
-4.509283460780066227e-03
-4.623477128981045865e-04
-6.392452365732964169e-04
-1.870408548121691751e-03
-2.190778671528201965e-03
-3.390416199377164781e-03
-5.152224463053790143e-03
-6.108957686911458199e-03
-6.852738917849066427e-03
-7.331387350328594232e-03
-2.795172917906433002e-03
5.261346162837113663e-03
1.086985342655088713e-02
1.151700681671262265e-02
7.848100431197140708e-03
5.274242683789570271e-03
5.506786743156606191e-03
6.963409565067505205e-03
8.361243846051151854e-03
6.349367991887009885e-03
2.315561283250674920e-03
-9.755401666967518891e-04
-1.843356404654129203e-03
-9.615089659767342813e-04
-1.606603482079933982e-03
4.221006482533359535e-04
1.899721853917631315e-03
-3.753021693621357013e-03
-4.608503138871442896e-03
1.082509655612838703e-03
1.629313591284169268e-03
8.228647694014625457e-04
9.076178632067160613e-04
-2.085481607866464769e-03
-2.086124172776158796e-03
5.346282679960680370e-04
5.822855171459315323e-04
2.781268713190812331e-03
4.820355358925277646e-03
1.538421971206886934e-03
-3.255115846317498552e-03
-6.834038250001796787e-03
-7.577375797323863092e-03
-5.866238200985295428e-03
2.664368928695226482e-03
1.802773440775815722e-02
2.263556037055868345e-02
1.621113238229898029e-02
1.268697464854439891e-02
1.213004433180700330e-02
1.077520206632416079e-02
5.749051173438413619e-03
1.115541836604063211e-03
-2.284004842298218655e-03
-5.646036450121141859e-03
9.404933559883140587e-05
4.272754696482198439e-03
-3.458169975001296366e-03
-1.027228495752290777e-02
-1.400115172499925668e-02
-1.874860451601650935e-02
-2.498236362344147948e-02
-2.497693982316217740e-02
-1.399484702368032282e-02
-7.078801737792097398e-03
-8.759278446055143025e-04
7.554790237680741004e-03
4.618738380654221522e-03
7.072884283731230987e-03
1.954316472292986356e-02
2.150415195065652832e-02
1.718898115093930867e-02
1.120113688510678343e-02
4.601802410503185586e-03
4.587932277940929247e-03
6.463289119754711022e-03
5.477775750943729774e-03
2.198514081171633154e-03
-3.486870527657523131e-03
-9.456904571896629363e-03
-1.436317091585070579e-02
-1.644994472973415611e-02
-1.667268533499609989e-02
-2.007443799863501896e-02
-2.646879187590351484e-02
-2.668415246200420490e-02
-1.601458836015894061e-02
-7.979402431445271893e-03
-1.250384699693197696e-02
-1.573581642213551374e-02
-1.107993794265187820e-02
-2.361527093488383251e-03
2.493743674726198178e-02
6.221154345097145572e-02
6.955358525491131538e-02
3.590066831090130139e-02
-2.047559209226734733e-02
-6.081387865563017692e-02
-5.903499433265091412e-02
-4.618276771408678233e-02
-4.511021284166199380e-02
-2.975858568452749431e-02
1.907220468422318391e-02
7.057681401085950934e-02
7.969139369975529463e-02
6.133397904670920969e-02
4.047999526353138200e-02
-3.534898767285221330e-03
-6.858014828152364517e-02
-1.065680420423053276e-01
-8.394885809867448645e-02
-9.851600526222470400e-03
1.087913254757169879e-01
2.184785184748999631e-01
2.045145759644787786e-01
9.244328823508315973e-02
-2.355445884749509181e-02
-1.189940999823319023e-01
-1.418633408519013039e-01
-1.309759287771159464e-01
-7.765817721196016654e-02
1.234105311226948165e-01
2.481074095940788704e-01
1.763914795526295709e-01
1.721226664371906245e-01
1.712509872102510877e-01
-2.051590177281221311e-02
-2.218558395608655476e-01
-2.703679056124792535e-01
-1.941078781447335699e-01
-3.792469983868873573e-02
4.749695199270884821e-02
-4.165149854261782081e-02
-1.393411023308938623e-01
-2.144939391629979430e-01
-3.139672647140573369e-01
-2.121419880223683052e-01
5.600360851174525367e-03
1.196313369114673786e-02
-1.006621789116219634e-01
-7.503980095002335537e-02
1.228893220226290189e-01
2.526742398131897049e-01
2.220228026727885662e-01
1.804697473349290426e-01
6.116212234326202229e-02
-4.313763271481459854e-02
3.362034245055942755e-02
9.012706514888479958e-02
8.256860871419038905e-02
5.429596889826312361e-02
1.116366697621460312e-02
1.344275929835325734e-01
3.209860412548105613e-01
2.719541473249841856e-01
7.162550941218988332e-02
-7.880339308946911333e-04
-3.782953227139364272e-02
-1.833155164988594654e-01
-1.659464984723241776e-01
-1.139055495425868141e-02
1.041748491811869855e-02
1.462101060482744706e-02
1.595961677034132484e-02
-7.889512646364074677e-02
-1.629145272920041188e-01
-1.504464438163795603e-01
-1.129458477162488816e-01
-1.984125693418169190e-01
-2.760299622445466783e-01
-1.842321881108844039e-01
-8.053500082011076644e-02
-1.531307024022020118e-02
1.401143521356498223e-01
3.662510444446137048e-01
3.734491245324956799e-01
1.207238097836396407e-01
7.773526821293996573e-03
3.820263840210157136e-02
1.355494113641046890e-02
-3.750475828099676147e-03
-4.863568618867562809e-02
-1.121515378544451769e-01
-1.741355923412262752e-01
-2.666941487852600989e-01
-2.670975466934296660e-01
-6.682317179104757532e-02
2.465571803174340382e-01
3.169380370934322677e-01
1.340571073801469504e-01
7.530228966584294470e-02
3.286231546519195745e-02
-8.173616736536339078e-02
-1.301174450230294100e-01
-1.745067256301798542e-01
-7.482874769717264007e-02
1.100836001010424836e-01
7.794342447416188757e-02
-2.198403552028477953e-02
-1.989278891247946678e-03
1.038536981674497289e-01
1.941015047608811162e-01
1.457168523916682334e-01
5.133986237146817566e-02
3.522175937394302070e-02
4.013378828052761860e-02
2.985541333060461044e-02
3.269190626077707329e-02
2.459116334071262053e-02
-9.531051405607377999e-03
-3.186253555932416076e-02
-4.971905253217943910e-02
-6.005009468329222666e-02
-5.724306728155845181e-02
-7.951288201443974801e-02
-1.343874582075122726e-01
-1.853842628433224060e-01
-9.779198186273516114e-02
8.191636141284312778e-02
6.715131475750282797e-02
-8.225217073344448515e-02
-8.332455830628063276e-02
6.316304794855330529e-02
1.389580354092259940e-01
7.444572203721550041e-02
5.484296199422340062e-02
7.530142013587609595e-02
-1.282914688926840505e-02
-1.843703385350364821e-01
-2.896853098153106543e-01
-7.170946564897263953e-02
2.619598868400548342e-01
2.240953991185671290e-01
2.811367709356532574e-02
-1.712106899239959623e-02
-1.089406296036406034e-02
-7.377147166079604627e-03
-3.157179235741172652e-02
-3.407726158487828227e-02
1.870252272364818918e-02
5.824231888791985695e-02
8.712457773133013006e-02
4.291923509347300714e-02
-5.534303814136855293e-02
-7.605026958493286970e-02
-5.760589495594079651e-02
-4.316728618309992327e-02
-2.490054772735524752e-02
-1.760422912537549026e-02
7.179495275918444490e-03
5.240656626122076889e-02
7.967175812513203892e-02
6.549662246824104750e-02
3.904062237772252392e-02
3.365846980821959877e-02
2.719740817744397549e-02
2.416384161343922317e-03
-4.168942131300148318e-02
-8.560895961180381430e-02
-9.426304609091959441e-02
-6.720024338620290971e-02
-3.018517105339332124e-02
-5.258485159019571191e-03
1.436942661403970214e-02
3.548948994954435887e-02
4.285589214948504200e-02
3.457718088768411968e-02
1.460562795985395450e-02
-1.814586098810010064e-03
8.532534074894330359e-05
3.852063096334185609e-03
5.550659152720556141e-05
-5.574111321590970516e-03
-1.052034794788500593e-02
-8.213016252259697572e-03
1.542079812506145500e-03
5.035540310173352088e-03
-1.095231283018894240e-03
-2.970453966720978077e-03
1.156145591787833063e-03
4.793184681589849477e-03
7.132494243358682671e-03
6.181099177766618928e-03
2.838168966997699216e-03
-2.311490369730221945e-03
-4.755321878123430594e-03
1.922926692777044864e-03
1.036807408833611069e-02
1.404418243485967485e-02
1.525208778802296210e-02
1.537273984092260397e-02
1.262806822099840284e-02
6.867095627030841455e-03
-3.965424868824971548e-04
-9.330063445226449009e-03
-1.263514406285441878e-02
-1.041852610899988464e-02
-7.122917398159873438e-03
2.592252421296500908e-03
6.992644417956487245e-03
3.016073231310137902e-03
4.543799602810745172e-03
5.049350509578800356e-03
4.161782355902355485e-03
4.937627967594311953e-03
2.786762311568226434e-03
1.555672328108354853e-03
-2.936173940674665587e-03
-9.546065848229787904e-03
-9.577004142106710152e-03
-7.120298226386307869e-03
-3.175248979369309915e-03
4.059880225613034417e-03
6.448512307958353257e-03
5.331207977641101887e-04
-2.347608232127659702e-03
-9.453737095196142887e-05
3.168034809749496750e-03
1.251926769855783543e-02
1.761001308184475395e-02
1.474886209423914574e-02
1.616577935796288668e-02
1.462712985384568599e-02
9.797573030076193665e-03
9.252150225125471000e-03
8.068143512447917276e-03
6.849820662954985567e-03
5.378828008731255730e-03
-6.499956556279427346e-03
-3.361992959992312485e-02
-4.584728733290857616e-02
-1.966417328717019394e-02
6.389401222421148621e-03
1.187661461319608307e-02
1.355315182853537512e-02
8.119007158767810664e-03
1.388907725482598464e-03
-6.233445348374072863e-04
-3.944107550525748768e-03
-4.216825343765659602e-03
-7.130289612224854738e-03
-1.352914598317535473e-02
-1.226684988956894956e-02
-7.500614759800165558e-03
-4.497896866453262796e-03
-6.033910565618166421e-04
4.607592295021834851e-03
7.139915944867045866e-03
5.448354806818218876e-03
4.520375663042062314e-03
7.917103109887227777e-03
1.578531135621037348e-02
1.987694563762424163e-02
1.619376979688161647e-02
1.702097645270625112e-02
1.948049943978242410e-02
1.267925068635670366e-02
3.045276949661393333e-03
-7.465576824687975704e-03
-1.616046994243960228e-02
-1.471453871311649390e-02
-9.663090132136384347e-03
-6.929275976645196504e-03
-3.387400625549642514e-03
6.366205707778492713e-03
2.266306469220691691e-02
2.670808829765390635e-02
1.097159870449596064e-02
-8.312413265665641662e-03
-1.935246669905009084e-02
-1.466408219248656157e-02
-4.060791739434676043e-03
-1.692344472160752910e-03
1.250732106045285242e-03
2.388528760228900236e-03
-9.331541856781897870e-04
9.775790997741317864e-04
1.574095847058274832e-03
2.045568539833524015e-03
9.723882069221421011e-04
-1.226945112072830649e-02
-2.012001077013911635e-02
-1.128056693204256521e-02
2.493747141007340937e-03
9.727170792308569708e-03
7.570314854643933611e-03
8.619435009475902645e-03
6.656720760436409673e-03
-6.386938689841416619e-03
-9.507363067949728755e-03
-5.708587549238849923e-03
-6.571214208756536931e-03
-3.101675048075154019e-03
5.221213661482918727e-04
-6.563882932294465202e-05
-2.124769199314727360e-03
-3.217454763114129847e-03
3.101395597603688820e-04
2.099930689950322421e-03
3.098205909048885355e-03
4.669444066674830612e-03
-1.363512244741781412e-03
-7.742316769145191936e-03
-9.781482582937199577e-03
-1.330707978640335853e-02
-1.414839179712435238e-02
-7.211386603505727348e-03
1.606419079235351342e-03
2.197244481340947242e-03
-2.343528122506559688e-03
-6.952999539508769762e-03
-1.228813164758213970e-02
-1.151948854834973501e-02
-1.074674119879403394e-02
-1.525609626576347917e-02
-1.286328316447196869e-02
-7.879986831512302003e-03
-3.824949507367361463e-03
6.146302558199568354e-03
1.393186794877778606e-02
1.589566687806922077e-02
1.665557152633012628e-02
1.330769822835385988e-02
5.293804637767426588e-03
4.214842828396831928e-03
1.568466948168777825e-02
2.175597944600930755e-02
1.329846443324496190e-02
6.558913235154672193e-03
1.073710806026776515e-02
1.745317378941983397e-02
1.980340429475157399e-02
2.207992882318166386e-02
2.105417966763099835e-02
1.143968817292528167e-02
3.316320525912908046e-03
-3.008203954610716956e-03
-8.818106190016954463e-03
-6.827799264461312072e-03
-6.249202946789688892e-03
-1.374368487060255266e-02
-2.418649253173653021e-02
-3.295293694058392536e-02
-3.048691116470945289e-02
-1.787808806436416015e-02
-1.215402816907561884e-02
-2.213317544388580457e-02
-3.409254305500784843e-02
-3.466578256350198034e-02
-3.336011051599561961e-02
-3.274122267892872612e-02
-2.368246897489536401e-02
-1.435286048322151169e-02
-1.108878804826842791e-02
-6.299667934900985734e-03
-1.178598624880019142e-03
1.042978067583896773e-03
7.794010073099389910e-03
1.740213790328126731e-02
2.155269081500657199e-02
2.413788468611578752e-02
2.710470480647557759e-02
2.820988457421583911e-02
2.813467479461996892e-02
2.628665075477933447e-02
2.790604046020559934e-02
3.452653058344656162e-02
3.876290766451768316e-02
3.654925114992595148e-02
2.725166740041824742e-02
1.467954700500852597e-02
2.138093946427318225e-03
-7.665611429903816665e-03
-1.215137130631526591e-02
-1.495432805666342332e-02
-1.466366795923149807e-02
-1.022647829821653372e-02
-3.306845427031811484e-03
3.952823453388266441e-03
-2.648799343594558913e-03
-1.864665459706623535e-02
-2.495067361134714265e-02
-2.480509599193479048e-02
-2.305803812142021708e-02
-1.949570290209525977e-02
-1.349505052710957623e-02
-2.324236211163802947e-03
3.964876807359751960e-03
-1.250498935660602443e-03
-6.316420165591459489e-03
-2.945976177191264589e-03
1.052436797944978448e-03
2.698036524596280489e-03
6.620549677975833339e-03
5.565175704597478783e-03
7.392449263751372027e-04
-2.962451378493276711e-03
-6.729975853327331559e-03
-8.343684766798995097e-05
6.873937643150773193e-03
3.009550773111123022e-03
5.991788262738970833e-04
-5.375542465860861686e-03
-9.750886802250209248e-03
-6.827415526041952926e-03
-1.148372140317452383e-02
-1.200092632771351288e-02
-5.877225053692871140e-03
-5.140322862877361697e-03
6.183303957803773813e-04
8.906881001678539425e-03
1.564518271950517125e-02
2.100680181783588091e-02
1.566839382917322235e-02
1.172738985106023049e-02
1.580490055516926839e-02
1.311638953374537342e-02
7.515331331072548811e-03
9.518012971865092917e-03
1.396902475578939463e-02
1.271316875587819722e-02
7.806585565785535176e-03
5.915004326717366451e-03
3.841066992399343877e-03
-2.060699797854545490e-03
-8.264337971196401150e-03
-1.267295292116001754e-02
-1.234170926980887942e-02
-9.999420257878532947e-03
-9.784828843442431104e-03
-4.661137679657118872e-03
2.191588026935947786e-03
2.910451120689228240e-03
-1.975338977853600270e-03
-1.742752805026138302e-02
-2.880096898766374564e-02
-2.014609940626940765e-02
-1.122570629253583259e-02
-7.205536465750228547e-03
1.858209038048770721e-03
6.946027006449598251e-03
7.414272067070134566e-03
8.120364903773713561e-03
4.837804395724835081e-03
-1.507654684969524225e-03
-6.848761227185676606e-03
-8.312946646882929044e-03
-2.937243961356534715e-03
3.233882413469097491e-03
1.858538446790101084e-03
2.599083070013456700e-03
9.979721597059369384e-03
1.052192825542337846e-02
6.199209898197357432e-03
3.564222789727258985e-03
1.017684586443619831e-05
-4.131732702518940530e-03
-9.982978982843226934e-03
-1.028972469840820289e-02
-2.666941655511755483e-03
1.832974151649619530e-03
4.558180999228370403e-03
4.542466478953023287e-03
-2.479391548290107387e-03
-8.009854445936926554e-03
-9.391299293462551656e-03
-7.440492307953690265e-03
-3.017756449355790769e-03
-4.252879158496803563e-03
-6.826463304714773875e-03
-1.080472928123482439e-03
-4.821570341272314077e-04
-9.424692243831600882e-03
-9.431394774174145859e-03
-6.369912936635827201e-03
-9.989582244832035177e-03
-9.686770224757262210e-03
-4.008745993929869154e-03
3.911932996666085509e-03
5.921263032806854849e-03
3.124973561987408940e-03
9.019801057812810996e-03
1.137695444666453684e-02
5.108555065054156373e-03
-3.349812609412943258e-04
-4.251482084531233580e-03
-1.406619728231394686e-03
-3.750204764831819877e-03
-1.261488815162156892e-02
-1.244605803020214056e-02
-1.193524236863991242e-02
-6.858896620721307430e-03
4.435587815102857989e-03
6.171276300219770763e-03
4.672471195831352092e-03
2.557506969391663051e-03
-1.820162771708499572e-03
-1.887091752739755756e-03
1.795100357975850996e-03
5.968136977752881885e-03
6.544733035845191026e-03
3.888867178280651805e-03
-2.154475717084349679e-03
-6.955201587549512780e-03
-4.000792307765352676e-03
-3.502853560225180265e-03
-2.909392329089352785e-03
1.372702641680273103e-03
-1.131850013960746621e-03
-4.948314878612652783e-03
-9.161015973576071975e-03
-1.137973665409252287e-02
-3.560311406858371677e-03
2.588690697392235693e-04
-3.434995808944062926e-03
-2.756068673136502674e-03
-3.184787468547701627e-04
-3.557085151502098821e-03
-4.742607501829034303e-03
3.832345747682663201e-03
6.680908866650258661e-03
2.097928304822800454e-03
2.798487206084241796e-03
2.648131125274199183e-03
2.406233226901853940e-04
-4.855713234870415868e-03
-1.089010211167990884e-02
-5.717898321132537133e-03
2.003469901433707536e-03
1.362906947999546368e-03
-1.425440675977865087e-04
8.173729725363631377e-03
2.395942766613606834e-02
3.082703981953088118e-02
2.691050183252999273e-02
1.272994442295314471e-02
-1.107491954260366590e-02
-2.364181744357830503e-02
-2.217899379291757636e-02
-1.871763400804062408e-02
-1.378897057255557175e-02
-9.641807363045649601e-03
-6.595325167363626402e-03
-4.694619992329094466e-03
-2.895373179104756764e-03
1.415101545844229831e-03
6.003995882549262655e-03
7.852745586633746305e-03
4.443687881001409179e-04
-7.582355940940761763e-03
-2.937136139949138997e-03
3.879586681865356251e-03
6.496328300267327494e-03
7.067861120601272827e-03
5.294337048386880094e-03
8.229024818013837587e-04
-7.269866978534193606e-03
-8.211181346613178819e-03
-1.451627020050576256e-03
3.894291979970462662e-03
8.916651460472003674e-03
7.358082192373593781e-03
3.031581094168779317e-03
2.134337842351912654e-03
-1.953970594815114883e-03
-2.725706906289010033e-03
-1.977887693396633735e-03
-5.193709105711885772e-03
-6.025109807715796871e-03
-5.843946061446249167e-03
-2.471357917314806127e-03
-6.935666450135656233e-04
-3.627290749884599756e-03
7.203136990416036684e-04
3.889321932276024012e-03
2.058696435620835461e-03
3.624805977157718063e-03
9.848314855149813314e-04
-1.214577007785687781e-03
2.923577168154416293e-03
4.190773286176184380e-03
2.947618426200596890e-03
3.886175500317994025e-03
6.451906065196195972e-03
6.588671625033641968e-03
3.998810192397250253e-03
2.422345581145694728e-03
-1.677112875452890599e-04
-3.738372532272575630e-03
-5.599447686145478560e-03
-6.342165395448844979e-03
-6.910834384453871763e-03
-5.927771866224167997e-03
-3.152225043072433459e-03
-4.341070451286478497e-03
-7.329395576675582988e-03
-6.735023275848094071e-03
-4.221466081817393246e-03
4.204368924114455092e-03
1.176901883331612185e-02
7.588029760553454892e-03
2.422423198292445335e-03
1.122662423658376141e-03
-1.869781550675455152e-03
-3.609465592716112371e-03
-2.766230399934819367e-03
-9.457179499939670627e-04
2.718402339626721682e-03
4.976362004418167020e-03
1.814284964840086724e-03
1.287341111251099864e-04
3.586593830338286742e-03
6.611331337899820776e-03
9.505201492949928721e-03
5.839945690630639515e-03
-7.699112592238140616e-03
-1.228662374389433327e-02
-5.454216224951956814e-03
-4.845453068325926080e-03
-5.137402416593818584e-03
2.154322350036869029e-03
2.095594535102854924e-03
-2.808081654789336499e-03
1.299531029257841846e-03
2.017992495200835769e-03
-1.178245986330696228e-03
8.500410283194493807e-04
-6.588498765771890701e-04
-1.631045528404501165e-03
6.331101023449728165e-05
-7.274244310289080476e-04
2.725887659956069149e-03
3.439691739619959391e-03
-1.953486316685283403e-03
-3.046673512124764647e-03
-1.788221853803240126e-03
1.908994754510302773e-03
7.366405731784026086e-03
5.785045221586246691e-03
2.434429642767140835e-03
8.452865689318125528e-03
1.248975074393354930e-02
-7.772894237452858401e-04
-1.369488581586694037e-02
-1.013731660095588093e-02
-4.274359496935905764e-03
-3.724740607976704827e-03
-3.301039592777087802e-03
6.030614381535403645e-04
2.974080405855276509e-03
-4.102373032385839974e-03
-8.203119958651246962e-03
-3.014751609179746553e-03
-1.088338003516648670e-03
-1.305365076487584233e-03
-8.303378252591715487e-04
1.258027492504026597e-04
4.067017951789615032e-03
5.955719100893891275e-03
8.912759676659982519e-03
1.054774604259359552e-02
5.274443820366796383e-03
8.192539579516969553e-03
8.981196629070927612e-03
-1.643177201854044986e-03
2.273414999362695105e-03
3.338891967257149457e-03
-1.397656284842908880e-02
-1.569390682946926463e-02
-5.825950131711014369e-03
-1.706397585634562668e-03
2.836463217560987026e-03
3.404080900540070766e-03
2.946861636729275914e-03
3.253650639676976177e-03
3.495679792704282658e-04
-1.470429897573891607e-03
-6.122037399075489980e-03
-8.835434990607722236e-03
-4.074863732712757404e-03
-2.835398860891695863e-03
-4.036108566793927821e-03
-3.776398892088311896e-03
-3.312080630178094835e-03
2.612784264695400087e-03
6.278603023207150399e-03
2.627504065658726844e-03
5.254505571706020658e-03
8.394329395403826721e-03
2.770503032653504148e-03
1.509221659999053933e-03
2.671873027560276500e-03
2.059669797514618664e-03
6.300809173800265076e-03
5.468526635908847744e-03
-3.161882539281474051e-04
-2.826006083910002475e-03
-5.987081498570611879e-03
-5.626531331266339600e-03
-1.884250897396075927e-03
1.598382713540195325e-04
1.265182241581750159e-03
2.788304860309108696e-04
-4.570574021500502378e-05
-3.033386654679783587e-04
-1.342835267998700177e-03
-8.506339347097716585e-04
-1.763338351585748290e-03
-2.012720459625203743e-03
-2.301533035008732596e-03
-5.280366561133736578e-03
-5.712132317200449907e-03
-2.180471141820690406e-03
4.367796602628530589e-03
1.252250542137359202e-02
1.710181810033455790e-02
1.264335680481310994e-02
2.333762990768780028e-03
-6.081012618720973983e-03
-1.206854982680123992e-02
-1.019225261438084368e-02
-3.070156067724728269e-03
-2.657831719124448613e-03
-5.453071330812175703e-04
6.700507444287366957e-03
1.008544459458640859e-02
7.221405986846054711e-03
-3.783336282366161259e-03
-1.412383109950236457e-02
-1.425188381623433698e-02
-7.424758220608144652e-03
-1.479633949987762881e-03
-4.249706611476290405e-04
4.289542830266270153e-03
1.016020294674017596e-02
6.256160682950922571e-03
4.094347396236079888e-04
-2.040521362046201180e-03
-2.476736291944811423e-03
1.606755449080700003e-03
5.728052061678779242e-03
5.189931312449385867e-03
4.030868046040243617e-03
5.744033140626706412e-03
6.650930998826289249e-03
4.910197401132866332e-03
1.617617740032587306e-03
-2.137429895271160743e-03
-2.336412848301612933e-03
-2.175716959730557894e-03
-4.539042146876975936e-03
-4.500112420122787810e-03
-2.962293276189466654e-03
-1.922825705468658069e-03
-2.350776666909482667e-03
-4.116014746577779937e-03
-3.321452136572462886e-03
-2.144052225383091988e-03
-3.522338248939056726e-03
-3.364519719017603112e-03
2.078638499498039558e-03
4.802965893508761956e-03
-8.908984410103269920e-04
-2.825216314733906657e-03
-1.137814260182313641e-03
-1.979275308351152729e-03
1.883599653386029433e-03
5.032888383882317546e-03
4.295473847314403709e-03
4.043584593658961640e-03
-5.666272394220053278e-05
-2.073174004537084360e-03
1.396752566486801281e-03
4.669994967295989195e-03
7.888650915296962010e-03
7.427071818478205717e-03
3.757361027441754459e-03
5.417533607942322336e-04
-2.798628572272004577e-03
-2.107863238103370538e-03
3.418503641506162789e-04
-1.238629056645630124e-04
-4.797598757011282684e-04
-1.309745894825971530e-03
-2.360318567642192070e-03
-3.107948013693608014e-03
-4.313798269393774414e-03
-6.650886166756093260e-04
2.484518732315758177e-03
-2.630038416937413755e-03
-6.168231829795573981e-03
-4.603611795756966038e-03
-2.298596377349573002e-03
1.470678071667430023e-03
2.373122570577480307e-03
4.833773347726866808e-04
-9.017760175747120514e-05
-1.119512559507934799e-03
6.892195509628025376e-04
5.390795618683287202e-03
6.868075995781573913e-03
4.497711126415305898e-03
1.744270382169894168e-04
-1.007107289689567397e-03
9.332156188680711172e-05
-2.246915021819034363e-03
-2.402547347384341881e-03
4.662617724123213191e-05
-1.970555815113783464e-03
-4.683031821945053512e-03
-3.926320305498474245e-03
-2.328729711644812392e-03
-7.888711918583475851e-04
2.983067741571747422e-03
5.352239252852636353e-03
2.270107565124655346e-03
6.394573529053450972e-04
4.648399096341086908e-04
-3.686363555722020928e-04
3.338222223044021685e-03
3.805141684249759449e-03
1.537330995732860044e-04
1.368766386078867220e-03
1.680804554106480036e-03
4.924014841125395024e-04
8.831969967172917553e-04
4.498107687435101785e-04
2.401485179488239020e-03
4.505852360751495811e-03
2.230281395659586014e-03
-1.188334256581969305e-03
-1.169765586132208652e-03
9.697182136775863142e-04
1.412557390530235369e-03
8.999968408208078568e-04
-5.650685940053404820e-03
-1.236709441840172681e-02
-5.963444609827145415e-03
-2.001991844655605715e-03
-2.747391720386497486e-03
5.028964916556300825e-03
8.181881945673393983e-03
6.130974118710930815e-03
1.752273205403218678e-03
-1.025796424764684363e-02
-1.011634583490328074e-02
1.774711909356506542e-03
5.521701542346163158e-03
6.461061188401785206e-03
4.638550132692469824e-03
-2.517642792104859192e-03
-4.126171474343812151e-03
4.511701086562015274e-04
6.442619986135028794e-03
3.199711812698122389e-03
-1.392521392150114327e-02
-1.871642978145763442e-02
-4.730018687635146636e-03
3.902896014842857295e-03
7.868498018160578755e-03
1.028770130520178031e-02
7.480120919249748195e-03
8.397185441097939143e-03
6.914888335241547307e-03
4.337364733226706042e-05
-2.772987162308192689e-03
-3.802903670998342232e-03
-1.918483546313888349e-03
-7.464815650763042274e-04
-2.798114046595111867e-03
2.017111710877791779e-04
1.759450449547216586e-03
6.723606641511886825e-04
2.190098214598313209e-03
3.125600727407331497e-03
5.918390273191893522e-03
6.053375562990080498e-03
1.171211140617312409e-03
-3.320726583884819807e-03
-6.373191670328571569e-03
-3.725468155114860201e-03
-1.115976670895440625e-03
-1.449465508244873746e-03
1.514205291882028443e-04
-2.265728803348130479e-03
-3.826991777979417506e-03
-3.053587264445295057e-03
-4.355072420585007556e-03
6.367438294498555321e-04
1.990987575180864794e-03
-5.260604548768155371e-03
-3.797735436021055632e-03
3.042334342424964956e-03
4.521380190705430804e-03
4.940396272903441709e-03
5.504756334338258873e-03
2.410910128587322697e-03
4.169126097614849250e-05
-7.716201273522016891e-04
-3.346828226175632085e-03
5.376217500744190608e-05
3.957167226732134953e-03
4.710543248067721291e-04
-1.305488590826463973e-03
-4.009061308903908924e-03
-4.563079285634503296e-03
-6.799259369815640122e-04
-4.043980155128234014e-03
-3.801256110364750144e-03
4.119405146949722059e-04
-1.821588579559900358e-03
1.979317328122355644e-03
7.310402153082954865e-03
5.308339783312185541e-03
4.450759010361815884e-03
5.018117073513440884e-03
6.198658516410182097e-03
7.086120379857988386e-03
3.698562146963491146e-03
-2.380108037962552076e-03
-5.070641191604875059e-03
-7.691250172453333684e-04
2.742018701316862803e-03
5.915447676258843521e-04
-9.022470924690273453e-04
7.680267811876860399e-05
1.300020046961164000e-04
-2.255026201492892448e-05
7.858568139030456872e-04
-2.965815956719061730e-03
-7.387503156851698422e-03
-4.127672770403879345e-03
-3.124902549066728430e-03
-5.019697152134903681e-03
6.285081143480712208e-04
4.410464488137754401e-03
-2.716562421489586779e-03
-1.058442851477307996e-02
-7.925376210294255569e-03
-1.302176531058314669e-03
1.632176339485858798e-04
2.259116984051144639e-03
4.294969867975990604e-03
2.726712203277898480e-03
4.848982580256657772e-03
8.299040819363369403e-03
4.393668996396726291e-03
7.502724263395123207e-05
3.815672530744301360e-03
5.566355137960840929e-03
1.126668415109703713e-03
-3.871667339930196699e-04
-4.392892805881997440e-04
1.253503538592168961e-04
1.322937369785530913e-03
2.301705477793016550e-04
9.563124697509898034e-04
4.467780887290600123e-04
-1.541188403555481977e-03
-1.104011273865187917e-03
-9.789747799494915702e-04
8.289078131294819705e-04
-1.338616894076124272e-03
-4.889333207548151455e-03
-1.440475021900508947e-04
7.143417156249799119e-04
-1.501421285612859714e-03
-4.905119644099490426e-04
-2.183887774472388372e-03
-2.055964262890382175e-03
-2.838948799005536639e-03
-4.222264949453820998e-03
-1.631383533112589152e-03
-1.715608859465484869e-03
1.113793474471765988e-03
3.360541734433016015e-03
-4.743089069027447958e-04
3.305092139366370800e-03
6.661049658010387113e-03
3.364852248151300931e-03
6.695504426007553578e-03
1.074155257401332095e-02
6.612732249718799096e-03
-1.025614648990917643e-03
-2.700494929128226078e-03
2.494921453313668925e-03
1.262621969444664748e-03
-4.205626391552592935e-03
-5.205912504871211717e-03
-5.752920845155791614e-03
-2.511059008535500379e-03
2.379924910419648366e-03
5.661622347069209362e-04
-2.162112615778392141e-03
-2.232528336686539876e-03
-1.182097684635306789e-03
-6.558720640566324464e-04
-3.743443961712212848e-03
-6.010154081901094604e-03
-5.691854952601870313e-03
-5.123045814103947132e-03
-3.053286857432062958e-03
-1.408470889691773153e-03
9.466401090630880994e-04
3.565643927990911396e-03
2.341822369462214209e-03
3.150052522853245916e-03
5.997445037377559934e-03
5.163281533658902259e-03
4.399602540420381042e-03
3.059538588205052475e-03
6.469047234073737294e-04
1.421080006107872584e-03
1.914196544318183578e-03
1.148863427542232054e-03
1.517043349671976307e-03
5.791891549957292780e-04
-2.472320591842559843e-03
-7.332055989680606213e-03
-1.058911668787288624e-02
-7.629039334144850464e-03
-3.868755015420273329e-03
-4.837677638786563004e-03
-6.439908428099366117e-03
-4.645252821706648792e-03
2.704008319204332712e-04
5.933127969164259108e-03
1.126132873970157877e-02
1.775502840997700976e-02
2.224311593667341325e-02
2.054352598705712352e-02
1.570139170253766897e-02
9.001632793138076780e-03
2.203400101291842425e-03
7.874767141665013886e-04
-1.006449294791367938e-03
-4.928577594574369732e-03
-4.734382701918216779e-03
-1.024072404374064271e-02
-1.917599132219151986e-02
-1.710993978589481906e-02
-1.305984716993970236e-02
-1.041505079668445140e-02
-5.969251100273716484e-03
-4.441833341354601769e-03
1.700945995736948338e-03
5.203711066451624338e-03
