-1.362829488329489296e-02
-9.997579490738321001e-03
1.281443760497839781e-03
1.726240832292956972e-03
1.024646029176358268e-02
1.537073867383468261e-02
1.611432496822037472e-02
1.386884654462109366e-02
4.136598826839719967e-03
1.157255271369921588e-03
-5.826876856099081747e-04
-4.071997415567468401e-03
-4.853780858043273833e-03
-1.003066639583551946e-02
-1.279884932221381742e-02
-1.357495883163887390e-02
-2.070411532062460189e-02
-2.494041565676317213e-02
-1.783139905520540053e-02
-9.719805965317400431e-03
-7.558178861070033450e-03
-1.296011638033710842e-03
4.459825100903766840e-03
8.107233233033127665e-03
1.658583204421216345e-02
1.847800608927444715e-02
1.778222601675435999e-02
1.469195346441999270e-02
5.859456415426084891e-03
6.816219500639038135e-03
5.042625344245516006e-03
2.385137087145923680e-04
3.089445905110549135e-03
6.617639777725596410e-04
1.781347301287809553e-03
-7.666782828536469925e-03
-3.252978154443406100e-02
-2.730229149604709166e-02
-4.486558402273977883e-03
5.068387414936099955e-03
8.880792232388884377e-03
3.306191902389374153e-03
-3.383763853822888395e-03
3.083278135613538688e-03
1.085779399870109678e-02
8.867343365993495680e-03
4.940785675964305852e-03
3.271670848029067501e-03
-1.208538883952907069e-03
-1.905846013328687215e-03
-2.800052283203208203e-04
-5.613065768628875589e-04
1.801628775950960817e-03
-1.243921759029933353e-03
-3.028482882598954734e-03
-9.656915170220024347e-04
-7.407099253124484368e-03
-8.860165052206110670e-03
-3.985199773946701031e-03
-6.672368255591567144e-04
3.383882084091825032e-03
2.135185177866154912e-03
3.365655260635530468e-03
4.940395719804286691e-03
-1.427925504447024707e-04
1.061175069142983145e-03
2.082310584402595303e-03
-1.591265359258043363e-03
-2.385359868349599781e-03
-1.132866808918178919e-03
4.143339011134552705e-03
5.927273768266125460e-03
2.951527553578249877e-03
2.881134807853410942e-03
2.736386952622922759e-03
2.545188866950100996e-03
-6.877429098624271301e-05
-6.410441023302897601e-04
6.871761884620480702e-03
8.058728705637794101e-03
-2.159757386510318972e-03
-1.137419991077572544e-02
-9.031400723222126475e-03
-2.192292392981251472e-03
-3.385039749251622827e-03
-4.085017912204005723e-03
-3.222146363268814720e-03
-6.019945722151392141e-03
-7.791797028859088342e-03
-9.840680327423505930e-03
-1.974264383858584122e-03
1.172154757536026000e-02
1.057066033021898839e-02
6.755584210924162059e-03
4.113391566085212656e-03
-5.707851810656995421e-03
-7.775518950283634260e-03
-6.314252069598039153e-04
6.440444266415795704e-03
8.852755559345193773e-03
2.811419881975922748e-03
-5.282588384666500429e-04
5.645014343401648762e-04
-2.319013214234858563e-03
-2.324980661449958536e-03
1.663056942077441877e-04
-7.304969878522610044e-04
-7.057995175460598375e-04
-2.702217610851374505e-03
-7.155895630077247112e-03
-4.063370054683657084e-03
3.081504514559559125e-03
5.110409214386406850e-03
3.227069098828816603e-03
-1.503109970329101334e-04
-2.071824239582641374e-03
-8.368007816248755658e-04
6.972189020836901813e-04
2.429828290396445802e-03
4.952315478111274198e-03
5.001993658671215377e-03
2.133991753043711168e-03
1.801532754122404066e-03
2.976146133690473448e-03
-1.967666934276557020e-04
-1.848226793114117255e-03
1.187575664341721567e-03
-1.044274122843029786e-05
-4.987542840761392121e-03
-5.410883642583913175e-03
-3.663894990580526898e-03
-5.325890333235216122e-03
-3.686412643181371032e-03
2.310568114548919652e-03
2.979405542714915617e-03
3.421667604093281455e-04
-3.425919242120828954e-03
-6.503093465316000729e-03
-1.511298385480613253e-03
3.230833465872483615e-03
3.042739480579808187e-03
4.104347609119978792e-03
1.662166103184170921e-03
-2.651202140705891455e-03
-3.417701255502858439e-03
-1.983357934692488601e-03
4.955139932021988998e-03
9.422527192837237484e-03
2.629393285558389269e-03
-4.541849772977935820e-04
3.718143474024466523e-03
3.330617669347679839e-03
3.644618115567847469e-03
3.202200792112636866e-03
-3.221597637713485406e-03
-4.212822014213767063e-03
-3.992730716686212870e-03
-5.149165929390902598e-03
1.825048190371917354e-03
2.463136843380520254e-03
-4.643816989598240422e-03
-1.697164546401107657e-03
2.770932577577902428e-03
1.907233462213155919e-03
1.984756012898866717e-03
-1.040443048747891844e-03
-4.838844795681709887e-03
-6.699827135310411526e-03
-1.244692035604839930e-02
-1.162428761277632672e-02
-1.306630514552049871e-03
4.777052182517203122e-03
1.046681108873136895e-02
1.080205107240147198e-02
1.585718810082908589e-03
5.610140368370809989e-04
1.223350333388748684e-03
1.095796171626505985e-03
7.684455388923536363e-03
8.879518175876118663e-03
8.352577612230040888e-03
-3.286877085604573458e-03
-2.506257632741774877e-02
-1.612918191688201761e-02
4.906163901050004418e-03
5.908871548529027323e-03
5.571068112519166060e-03
3.679966902409042683e-03
-1.621613475267789147e-03
-1.477881411653499816e-03
-1.955055445224572735e-03
-3.825201615133432985e-04
5.254066580018454218e-03
5.724767316744452245e-03
5.259655667614001641e-04
-1.829772417157642973e-03
-1.581934801535685815e-03
-2.404565796052773180e-03
3.280276770592015050e-04
3.650689253566848872e-03
4.370177961334542616e-03
4.616287479909407521e-03
1.847756365178004250e-03
1.351227095372691499e-03
4.229545793401072624e-03
3.327559694883020815e-03
1.167865500920813862e-03
5.034847941164330995e-04
-2.645008738959357588e-03
-1.209258692332924531e-02
-1.664475868975499179e-02
-5.750652712818285495e-03
3.609947342493649396e-03
2.130490129382059828e-03
1.855013205512117281e-03
1.916121760907479616e-03
-3.347164515472316002e-03
-5.918997267858249964e-03
-2.751768910059172908e-03
-1.768411282491806321e-03
-1.481316208165317332e-03
7.784598234012894344e-04
2.513106765935971525e-04
-3.430189348953605099e-04
-6.881483201982222919e-04
-3.133497763186624853e-03
-1.469893382959671247e-03
2.391360298350374280e-03
5.546097343550862504e-04
-2.033931298899513320e-03
3.636731912774651796e-04
2.115969881658846721e-03
5.430145239280561448e-03
1.255548416555546734e-02
1.118672558391146585e-02
5.925445091580740058e-03
4.331468109725404754e-03
-2.031804403892849189e-03
-5.225535036890710874e-03
-9.557435297427143220e-04
1.388171563126795955e-03
2.167829140885869834e-03
-2.867794733289997199e-04
-3.861380801237096830e-03
-2.677919550812041336e-03
5.511531588760896659e-04
1.921396232463269032e-03
-1.281034468176076805e-03
-4.781599367293908054e-03
-4.713806774892451493e-03
-2.879681095198606197e-03
-1.142708526341491967e-03
-1.647136867836387387e-03
9.645806284870467318e-04
3.832414456624449756e-03
4.191325396358992913e-04
-1.761713964394719502e-03
-2.971593916908041918e-03
-8.942510669529902308e-04
5.672820323628307605e-03
4.685990870859041250e-03
1.687648373078047114e-03
1.493837538729228358e-03
2.667113521768165602e-04
1.021509124125754035e-03
-8.608971084031344584e-04
-1.859796606157861250e-03
1.197496950206786452e-03
-2.752001641900677590e-03
-8.857587020458643559e-03
-5.248430597966723121e-03
1.563351182558088805e-03
6.082932074949658013e-05
-2.228403613615649939e-03
-5.791881670672531643e-05
-4.017907764742009551e-03
-7.336249041497082228e-03
-5.450692811594434924e-03
-3.954605495527742896e-03
1.990140980700879064e-03
4.640262334474521029e-03
4.154613317284018212e-03
7.135478026341770565e-03
3.454987249858031042e-03
2.136365768846550540e-03
7.017485587837280110e-03
4.635010922569901722e-03
1.537700836222094742e-03
8.423764347548520597e-04
-1.379689600242110488e-03
-9.121801073431612264e-04
2.447752340345692255e-03
4.734666423468833138e-03
3.554752172704662636e-03
2.683589603173877711e-03
2.517470835654644391e-03
-8.273249591357526413e-04
-3.366785030352962508e-03
-1.421282064113737597e-03
2.443763064997604359e-03
2.145315214514639628e-03
-1.396378620552268194e-03
-2.385017593361868447e-03
-3.921770329596078498e-03
-5.934717416420068510e-03
-4.696467757948112436e-03
-1.085965186994708931e-03
1.229681765992698354e-03
-4.162225151549588283e-03
-1.067391596747270695e-02
-9.448369273877639182e-03
-4.192399074809130544e-03
3.135792528596754135e-03
6.879259445218319224e-03
4.898598554149318982e-03
4.116080321950543741e-03
1.660116146438649293e-03
-3.017988099834633276e-03
-1.262742527928538633e-03
4.526018121984960903e-03
2.913141365225203980e-03
-1.318622298534557298e-03
1.648008840876245005e-03
1.080295273670469529e-03
-2.183630395481662816e-03
2.416128172841372317e-03
4.928243691904789225e-03
3.483223048741362210e-03
3.778622635228068424e-04
-4.054747129557929528e-03
-4.211202902558730272e-04
3.084207505486564332e-03
2.193651426403249970e-03
4.649636187017872069e-03
4.251527066930628311e-03
2.793771346970555167e-03
4.268399924044511892e-04
-5.860263530963185849e-03
-4.870315108269791630e-03
-4.770158050011473515e-04
-8.306322576949465297e-05
-8.548002998893706214e-05
-2.558746842824599372e-03
-3.573883043459498941e-03
-9.088814485174417750e-04
-2.849403935790401467e-04
-8.117706253238810704e-04
-1.517393410017369793e-03
-4.180129461388561347e-03
-6.890420987761482381e-03
-4.683134834596989864e-03
-7.127685886650886966e-04
-5.439557144137393673e-04
4.387077466763018288e-04
1.369481356916643893e-03
9.044770934574524910e-04
2.289317843982895638e-03
2.598604799326371603e-03
1.701758673037590550e-03
-1.713795272075581844e-03
-1.367300990667257759e-03
6.732161405023816964e-03
6.249808354960368316e-03
2.324606575009275332e-03
2.236067748657429022e-03
-3.078548093834155251e-03
-1.406794077408400276e-03
3.304128455154071910e-03
-7.920174664631703934e-04
-1.034407488452255414e-03
1.864911294121547939e-05
1.418818616329856693e-04
4.530992347681479272e-03
5.419751791957212912e-03
3.497318712211498672e-03
3.389347547366210536e-03
2.661705860852907508e-03
-2.456941917128621341e-04
-1.411433583625471434e-03
8.853831974006283988e-04
2.167259643403311037e-03
2.429995822919338473e-03
-1.647350665868264289e-03
-7.797301806184632478e-03
-7.142482970114126528e-03
-2.791964884095874278e-03
2.357721385088832472e-03
-7.433466164904743191e-04
-1.047115737861391629e-02
-1.000358100846892792e-02
-6.209057131379700986e-03
-3.342536258910072753e-04
6.566260243900826597e-03
5.429427660612079487e-03
5.195719990125817825e-03
-6.543673818990278224e-03
-1.978573565978686277e-02
-7.264307195253463800e-03
2.306945286384774318e-03
4.681021950565172202e-03
8.607158989739453758e-03
-8.517325862924829969e-04
-2.297164160611307217e-03
4.790891788580304601e-03
3.988320777030072289e-03
6.214530069271300729e-03
7.364205493793684297e-03
6.409969565861857108e-03
4.505743016088915344e-03
-1.134069799774929796e-03
-5.877596460675413520e-04
1.282058124684613961e-03
1.309985732038262962e-03
4.182297506027408095e-03
3.128489840350150066e-03
-1.236198204573544504e-03
-3.252569706225214019e-03
-3.367098531762602927e-03
-2.567104440733539682e-03
2.603459050170439659e-03
6.230419208174439553e-03
-7.218382411714364824e-04
-4.499031707978121998e-03
-9.597811048961635240e-04
2.780389037963143560e-04
-3.082582538920432963e-04
-5.062918652018054584e-03
-7.089651860051716242e-03
-4.701299654855378186e-03
-4.570510111566156337e-03
-1.496435287017541414e-03
-7.075157996050424752e-04
1.358098978440707002e-03
9.259492435327374218e-03
8.476284271206471072e-03
3.744413067205794570e-03
-9.408917327999637365e-04
-6.181555349052673953e-03
-2.140124360728815501e-03
3.806637890956602200e-03
2.707409805472269209e-03
-1.239507623299627341e-03
-3.787884202962933395e-04
1.358440666894918016e-03
2.389072615837591323e-03
1.008391892134052024e-02
-2.077554028805976821e-03
-2.412729090062130932e-02
-1.101411949879493347e-02
2.295044319046614205e-03
-3.468826670892957448e-03
-1.342733016598389147e-03
-1.944268805162978689e-03
5.617598893663388205e-04
7.390860420555761187e-03
8.757336736990547262e-04
-3.183682493912520436e-03
-1.218896465926353617e-04
3.641456480292599475e-03
9.110004424079864646e-03
8.042663665521110686e-03
3.349590979523641831e-03
1.565786030878286474e-03
8.855723151224069532e-04
-1.281237206056472840e-03
-2.753755379648668063e-03
2.774529548214769558e-04
2.469430023847909972e-04
-1.601086554123326046e-03
4.280988367099741666e-04
-5.773163308586018276e-04
-3.438000537279652818e-04
3.843159345029082199e-03
4.001761203250500144e-03
1.367658370047750366e-03
-1.581337257318459659e-03
-4.411042334789443999e-03
-7.040653863237729577e-03
-6.029569315807049162e-03
2.407020691820563676e-03
7.251691859046100960e-03
4.887302355864169348e-03
3.316804024629101295e-03
-6.489804999831110758e-04
-4.294356045462012668e-03
-2.326353770038024852e-03
-9.929628186821652571e-04
-1.482471096281546283e-03
-2.712824460741588943e-03
-4.472459260039625926e-03
-3.684433653791429827e-03
1.865972782229882840e-04
3.735257416176022537e-03
1.877752325819386772e-03
-1.158974913602497155e-03
-1.217532440847257473e-03
-5.536360038119995811e-04
3.241735519283409171e-03
2.550504453942991148e-03
-3.834337332346492502e-03
-2.046638522964876628e-03
5.197146685257225240e-04
-1.425771275654791901e-03
1.794845878219519016e-03
4.722803112770887490e-03
1.753075781172388700e-03
-8.965439816193737557e-04
2.357063294231611251e-03
4.702702655674142161e-03
-2.565466071243347780e-03
-8.021568901448285563e-03
-2.822924371270530471e-03
3.625689298362573879e-03
5.427231220563925006e-03
6.972611024108917206e-03
8.720217708724508493e-03
3.816480060009860495e-03
-5.356894939228158854e-03
-9.928480422401166072e-03
-7.173364394282949821e-03
-1.408100072862670128e-03
-1.787672479996729345e-03
-4.940345421022099628e-03
-8.490112522989965750e-04
5.627418461156325283e-03
5.961889744701516329e-03
3.725005948063700011e-03
4.810179886151263844e-03
9.788611638096851413e-04
-8.100344620912929353e-03
-7.728402383167701228e-03
-2.689646703308596221e-03
-1.482522457040259757e-04
3.834021276217054394e-03
3.947171128108410351e-03
9.591485506618539509e-04
-1.177155852489279514e-03
-5.630111695045643579e-03
-7.602251645216638772e-03
-1.511178271057777092e-03
6.558252402622748167e-03
6.976026872031813701e-03
2.363720106054221538e-03
5.531249750972902371e-04
-5.624335128493628986e-04
-1.415398152838778529e-03
1.255173736777291248e-04
1.699881428177141621e-03
1.882270225672185273e-03
-2.210575140758088992e-03
-6.892810237643910709e-03
-3.287268853930032028e-03
2.363845721407546816e-03
3.675632958315828459e-03
5.251899273672310485e-03
4.987913162053840901e-03
2.234303084266666111e-03
1.002035994488704573e-03
2.792981551468765554e-04
1.955004718025522489e-03
4.456847816135330216e-03
2.434372983920308261e-03
1.153161865643689799e-04
-4.768824807312325781e-04
-5.195785475430141076e-03
-8.356620658915028810e-03
-1.973908243540491939e-03
6.262073976720886623e-04
-2.481909689897573122e-03
-3.039258400630469314e-03
-1.412982371986521574e-02
-1.834956380554749258e-02
1.106265353720523080e-03
1.339676164221688913e-02
1.570199866684320045e-02
1.202818054175521650e-02
3.405571081235285891e-03
5.272551716110395262e-03
-9.213311939765827727e-03
-2.614315456126388784e-02
-5.448538650441741432e-03
1.097229369559385610e-02
5.099656502169059094e-03
9.672573516677992773e-04
-8.166768625635572676e-04
2.270278575133651347e-03
4.490497361452894069e-03
4.058160707300246042e-03
5.031388900779037651e-03
1.723267260877623004e-03
-9.141494969127808394e-04
-5.115804052577797856e-04
1.411039594387417757e-03
2.371314838896340649e-03
1.322813383681607910e-04
7.283946120738874971e-04
-3.529643142245690981e-04
-4.229713348745823415e-03
-4.493134977270492152e-03
-2.380952555956758476e-03
1.499734641703192716e-03
2.215111127193274652e-03
2.755185447741797470e-04
-1.206181212500096692e-03
-3.281858651090311350e-03
-1.656251381327435634e-03
-2.051929140022439035e-03
-2.606989805609515390e-03
1.100065585191682769e-03
-4.121200641467441007e-03
-7.636940406368421599e-03
-5.263303461849651180e-04
1.312359997198221488e-03
2.283700886896252672e-03
4.305013493477025631e-03
-1.405438809562422806e-04
-1.415842592936084835e-03
2.191733868997481575e-03
4.704032447963172117e-03
5.893560692524012039e-03
5.428689126488910922e-03
4.601459681909622103e-03
1.522439842789607631e-03
-1.340149100914257100e-03
-1.148914284543427460e-04
-8.254810065842351982e-04
-1.640133277458738709e-03
4.697826255977860001e-04
8.440717381602792693e-04
-1.370540825413021739e-03
-4.850809200799161350e-03
5.299756101052972498e-04
5.594397877481564058e-03
-1.223416682660262780e-02
-2.125879477010070295e-02
-4.501012913338548870e-04
9.925906250197121666e-03
3.383293398197057249e-03
6.028451031915154105e-04
6.680426343161878304e-05
4.608509273624657870e-03
7.881636013296377044e-03
3.090617559262042423e-04
-3.158179496721906770e-03
1.193446622293823159e-03
1.132467133963674637e-03
-1.437657184683711312e-04
4.971209503741584775e-04
-1.029324612810653865e-03
-2.894301096067470984e-03
-4.814029023951880461e-03
-4.351261754511222095e-03
3.232372480941963187e-04
2.014891875070428003e-03
3.955144649564804570e-03
8.451628617701573143e-03
3.318507176302379000e-03
-6.168192076205660998e-03
-5.499267903794231686e-03
2.476725915499699421e-03
8.296539324606614502e-03
4.259794033510662034e-03
-2.047952855315576630e-03
8.347137017283489877e-04
6.176930558006682274e-04
-2.983461583075460496e-03
-1.539346053729609550e-04
-4.639800969042524523e-03
-8.822169663622951227e-03
-2.456267598400729835e-03
-3.703863787751168497e-03
-4.398119865640268480e-03
2.238805212879916185e-04
-1.515463112128300231e-03
1.918455697255644181e-03
5.437399091952033539e-03
2.520479462974333298e-03
1.749088639099872621e-03
-2.432699613928905515e-03
-1.308875603697570375e-03
5.931999768135633525e-03
3.103139450957726007e-03
-1.497560675840136669e-03
-2.518073570574780578e-03
-1.582789373226316850e-03
3.051654173602935845e-03
3.607630632258872986e-03
3.319445324683977482e-03
6.783992821451431156e-03
5.204067602259222249e-03
6.735452096288290554e-04
1.665596376978115915e-03
3.136390345835999346e-03
1.809858200670293659e-03
3.094302055120133881e-03
1.752126841544040950e-03
-4.733421053197069822e-03
-9.002093767347610007e-03
-1.019605147517777498e-02
-6.532509372966206242e-03
-2.282911737388610557e-03
-3.250306649325323659e-03
-4.302276472097282985e-03
-4.680718832005333931e-03
-3.287704516450133761e-03
-3.292846116744568537e-04
1.208539982875474379e-04
2.571869540529767278e-03
6.120481784956086774e-03
2.912983608452199280e-03
-3.540356385596207019e-03
-2.706794037984067060e-03
3.896121910988460668e-04
-2.068086002362949042e-03
9.299946291427688746e-04
6.728417337147941067e-03
7.404190049160206885e-03
6.836787315798919552e-03
9.838824736160718676e-04
2.979014088919627185e-03
1.096426253963521738e-02
1.960777860637910033e-04
-7.094104740800327713e-03
3.231218516081209345e-04
-1.078694915324496587e-03
-3.766718019719179911e-03
-2.055513088668244753e-03
-3.445757510020732925e-03
-2.478823816757238889e-03
8.500634445732659734e-04
6.812362791091997223e-04
-1.428094305939891888e-03
-1.175235456194771363e-03
-1.749109031610160446e-03
-2.010784900060393673e-03
8.348966094364471732e-04
-7.817918085721616960e-04
-3.654320625502621017e-03
-3.486075811281511960e-03
3.010237743974572187e-04
9.424021481346847237e-03
9.203016945684421024e-03
3.421840206768471480e-03
4.311717504172165455e-03
-1.023577565758106774e-04
-4.570802596072053373e-03
-2.959188611889697514e-03
-2.975075927944835323e-03
-1.285895128011032553e-03
-2.982327078603664271e-03
-7.042411001309430152e-03
-4.084372740616497993e-03
2.153475601061555309e-04
3.990728164047840226e-03
5.481013253861734442e-03
3.117198999535479836e-03
5.836280509853850659e-04
-3.631363293294509638e-03
-2.661880526780468787e-03
2.892410646461507362e-03
2.765810700571978090e-03
2.155055363123410585e-03
2.494363854023072622e-03
1.201835405433413027e-03
-4.397607769446784925e-04
-1.697728887752513989e-03
7.936291058217671618e-04
1.100072628615152018e-03
-1.800226704568192457e-04
-8.374406774276754294e-04
-7.605534387029224373e-03
-6.466249460972610212e-03
1.889818481914633773e-03
7.063584244523396245e-04
-5.444621013490267246e-04
-1.373384264417276766e-03
-5.089329495541489862e-03
-3.443634080464836721e-03
2.198406237793671986e-04
4.453629344664761756e-03
8.383724011540983831e-03
7.630171140626286486e-03
3.283188755479072348e-03
4.818322686096030566e-04
-1.421224019043894945e-03
-9.422127805177092294e-03
-1.042171743673511210e-02
-1.591711185447412845e-03
6.874269445453432947e-04
3.385599860118682861e-03
4.645260657527255747e-03
2.585732298008743425e-03
7.913150418035280742e-03
1.135427164329429715e-02
1.214211755066668674e-02
8.945138345946231778e-03
5.787330632973308568e-03
7.852093279841806939e-03
-1.424385902020076228e-02
-3.299031314281520438e-02
-9.894088096995171111e-03
6.193972717121964955e-03
4.322983567506849425e-04
-1.629249842253605984e-03
-3.052743698843880457e-03
-3.129814187117369636e-03
-1.713972269222181028e-03
1.271911652973580940e-03
4.111996385891899738e-03
1.123486939009580091e-03
-1.852634267838408275e-03
-3.504582891268742412e-03
-2.013789142421985867e-03
3.600111941243563148e-03
7.573729613707246011e-03
9.160535454441634529e-03
5.251646105870027594e-03
-9.838308269903119421e-04
-3.231030759824194201e-03
-1.285960107303716314e-03
4.138717190318832832e-03
6.295533008316369153e-03
5.381149570226032193e-03
5.796689627276149261e-03
4.632832277680945000e-03
2.032108917524135579e-03
1.326964046044411694e-04
-7.208865987971625798e-04
-4.832429983294924715e-03
-1.070205619534160546e-02
-1.225806593231948925e-02
-1.263739139399810106e-02
-9.863793264097314370e-03
-4.271151516738628390e-03
-1.664680859561036910e-03
-1.262561592114542662e-03
-1.089034121237849413e-03
3.166942614406079680e-03
5.662526589796456657e-03
5.638558102501137897e-03
1.344374218699470949e-02
1.829017321409176153e-02
1.321199465666773355e-02
7.103316981256685425e-03
6.076540500851105447e-03
7.001367702275598445e-03
3.051060083596742346e-03
3.643697997242844287e-03
8.426751768941156528e-04
-7.873179331644849718e-03
-2.475799201017110825e-03
-1.138167559105426885e-02
-3.169776538013881206e-02
-2.002656010900196945e-02
-1.145476900887326416e-03
7.420973469803305612e-03
1.486213001513470022e-02
1.436740649596014545e-02
1.308158885889744438e-02
1.175277279342087922e-02
1.169186258849152539e-02
1.684112537621247283e-02
1.737794675624348625e-02
1.566986018286966459e-02
1.463296285483454973e-02
1.313102818517170728e-02
1.300405920273019732e-02
9.372757640569929355e-03
4.121958141776490940e-03
-1.248821131363608578e-03
-1.099629030043182062e-02
-1.692138024814559411e-02
-1.243756307218650894e-02
-7.951728785539680100e-03
-1.021484781975284285e-02
-2.068175779462255032e-02
-4.408127976387347241e-02
-6.920066729496499036e-02
-8.412500053934941768e-02
-9.004293762456458405e-02
-9.162817094655195671e-02
-9.365589684272369875e-02
-5.967776601850373341e-02
1.477520891376331649e-02
4.564034897951457087e-02
3.999979320082381468e-02
7.023933390381280339e-02
9.545113415971939741e-02
7.629540941437597257e-02
5.390906782634975747e-02
4.627253019221825442e-02
4.794753776410190516e-02
5.225845870660043857e-02
4.669415777951058805e-02
4.405070625745903523e-02
4.701252438548252782e-02
4.137126982265833947e-02
3.881209781591675456e-02
3.790689958273547877e-02
4.015313792920442021e-02
6.282219248017356650e-02
6.495043595815974680e-02
1.540942641206729906e-02
-3.732840732268886963e-02
-8.433746215240801869e-02
-1.541278213176448253e-01
-1.944241067313540183e-01
-1.834920571902990960e-01
-1.840967076400039648e-01
-1.787444747842435178e-01
-1.037041280155543421e-01
-1.011209982237500256e-02
1.141932711091061918e-02
4.317663638703968937e-02
1.819342245494656451e-01
2.545718803166813204e-01
1.534191918443452984e-01
2.434459026101014681e-02
-4.813071090953791042e-02
-3.081529975495524501e-02
2.531318270922649008e-02
-1.004785449026429460e-02
-6.750059972483325732e-02
-3.007324712672930153e-02
1.265022191585227496e-01
3.361731042044049933e-01
3.339773500553536723e-01
6.213000528780691228e-02
-1.433646171381497969e-01
-1.336423289522055968e-01
-5.067917977909800614e-02
-8.661855211018941458e-03
-1.092812505167657378e-01
-2.587678372111978931e-01
-1.838885686580220002e-01
1.772686586406800602e-02
1.004271466155534642e-01
8.066465396045102709e-02
-1.506012318428484424e-02
-1.008213419585715920e-01
-7.226490112721255243e-02
-9.472330227736303065e-03
-5.235309259723969905e-02
-2.670670011639944552e-01
-3.124931886046743990e-01
4.322226784372427966e-02
2.614147889434527694e-01
1.458068629853816189e-01
7.724397604727822886e-02
8.605736296620646042e-02
1.569019067777889243e-01
1.934132372241061382e-01
-3.298810968731484550e-02
-1.802586151895635980e-01
4.725463409893434358e-02
2.902595514114263420e-01
2.567875656405697593e-01
8.036044371164861866e-02
-2.489391445252683507e-02
-1.408148007734021656e-01
-2.893299556481020995e-01
-1.571753287490109952e-01
7.936101243221847790e-02
-1.921987571789680275e-03
-1.125941062502605616e-01
6.015558744011959003e-02
2.689696952801978180e-01
2.746736786329325164e-01
1.342924779058700391e-01
-2.007951231037514300e-02
-1.422079479444920691e-01
-2.002243389646829186e-01
-2.298821683295019513e-01
-2.549689488756713973e-01
-1.872148490585948122e-01
-9.916667022845949975e-02
-7.423996382602966737e-02
-8.219692898345627718e-02
-8.912546685346801889e-02
5.656578417199922826e-02
2.495396637642815496e-01
2.304219575264820630e-01
1.126003044066665321e-01
2.797917163010982255e-02
-6.683261283501852439e-03
2.130625936623458533e-02
3.636115140550153640e-02
7.123012475163830771e-03
-1.016062549092131700e-02
7.979692003158700420e-02
1.551922649217549743e-01
5.286619819380678625e-02
-1.607684533956219713e-02
2.089767621204365045e-02
2.964548949307914058e-02
2.924841996462387503e-03
-9.289687750617448003e-02
-8.599562326947736424e-02
1.130203955195069609e-01
1.726884453395951535e-01
5.234265659207993499e-02
-1.529918707739293809e-02
-4.511260241861256293e-02
-1.051839614738095535e-01
-1.422526986977091790e-01
-1.014332491920265783e-01
-6.267428020175190573e-02
-1.043596125303795918e-01
-1.137355755844531996e-01
-6.121285540060842495e-02
-1.189470209150580021e-01
-2.724747488256772376e-01
-2.319898483198138961e-01
1.006881816666464202e-01
3.744899502474765551e-01
3.245539195837597313e-01
1.996635874937190136e-01
1.739186782982450885e-01
8.544351846378356319e-02
-3.526360887527944105e-02
-8.785155522626762747e-02
-1.066942896322974066e-01
-3.447036266128258863e-02
7.018165570533928255e-02
6.551357179862742075e-02
2.821996404916721560e-02
2.806626984416177306e-02
2.259960538860644741e-02
1.145429741952980283e-03
-2.532843180878824318e-02
-2.330491981281080163e-02
2.178289507231109031e-03
-1.462845100295034895e-02
-5.551429043725385204e-02
-5.028412987863010997e-02
-1.805290823795454788e-02
-5.157970847179559797e-04
3.804181399597289515e-03
-1.412393760511529775e-02
-4.959167894236662238e-02
-6.736973640795869411e-02
-5.452522870889231488e-02
-2.955251634252712215e-02
-1.357448447785381679e-02
1.740542613129534861e-03
2.765196284008011526e-02
4.313584037748671024e-02
4.169437851331276451e-02
4.264383627144316402e-02
4.337800672956319131e-02
2.895536118407410903e-02
9.858206421128914293e-03
-1.573274333759673484e-03
-8.033871465119345537e-03
-4.112591465410879617e-03
-1.019171094700356637e-03
-1.395350493972348158e-02
-2.483048515158711722e-02
-2.439250698198507442e-02
-2.083207665341840764e-02
-1.474444013865240655e-02
-2.907073129282594648e-03
1.275513357233781613e-02
2.002365580093744268e-02
2.102060612190239514e-02
2.288484366345269055e-02
2.027331194261567521e-02
1.509638081621244785e-02
6.529494406152767071e-03
-6.237587290445665514e-04
-2.680379758094964503e-03
-9.586513431898324028e-03
-1.347937414572273306e-02
-1.346353867405472929e-02
-1.708222779352213186e-02
-1.691939907976109519e-02
-1.418708163518639202e-02
-1.009293384170469911e-02
-8.649686360808176919e-03
-1.120216640658793991e-02
-5.898152470108656252e-03
1.263283561730515862e-03
2.349115669544790414e-03
2.461487756605875224e-03
3.997958988546808888e-03
9.610773825146219987e-03
1.838809281783570712e-02
2.842344186022991576e-02
3.710403916125475793e-02
4.401841145893825580e-02
4.781602315968428579e-02
4.030043604135558066e-02
2.527503415653636898e-02
6.364830384340266350e-03
-7.688950484867673740e-03
1.237363808063692569e-03
1.841090864537514582e-02
2.766006977093470043e-02
2.534813161991440050e-02
-1.638607334808505830e-03
-3.421587253968463166e-02
-4.853500687466175828e-02
-4.762405247648822393e-02
-3.445535440831846291e-02
-2.769561169126402017e-02
-3.339675530318308994e-02
-2.986973175655465232e-02
-2.210996370742076764e-02
-1.975127508286429051e-02
-1.194757166833555588e-02
-3.023196746209316256e-03
-7.222718789205581028e-04
5.136942886538890286e-03
1.583504356930809029e-02
1.881632287110679078e-02
1.508821773146040018e-02
1.371825332016671055e-02
1.234096780770076521e-02
7.088932430853001759e-03
2.590882805313107946e-03
6.589363104562164473e-03
1.680757092931540672e-02
2.265395175728051116e-02
2.210064130793510870e-02
1.407527185944416372e-02
3.444204165061347158e-03
4.490597876680324507e-03
8.452797605583383528e-03
7.693505534141144298e-03
1.100737002918547591e-02
7.909357790877173319e-03
-2.117235638474295866e-03
-9.317659516669296593e-03
-1.917573606492858213e-02
-1.985939774218504345e-02
-8.189614607485183259e-03
-3.047012836794885972e-03
-1.056386055087909148e-03
3.726267328531835538e-03
7.402156525850638220e-03
1.383016475346224815e-02
2.320833955079339844e-02
2.817955468208600128e-02
2.302051936991511907e-02
1.168222089789960720e-02
2.468590798437968626e-03
-1.598385318007560733e-03
-3.492565392450442362e-03
-7.762290992075438975e-03
-1.147697450478264367e-02
-1.799879763646508243e-02
-3.179042847619111684e-02
-3.947993463215238030e-02
-3.766689290418973046e-02
-3.120979093338835733e-02
-1.910369416323885045e-02
-8.155169856876320206e-03
-1.976817309965700313e-04
3.094951194856088161e-03
-7.112456546453987602e-03
-2.281396408576468263e-02
-2.509792589015085243e-02
-1.527507904568221539e-02
-1.190627970438372721e-02
-1.169338504114224471e-02
-2.959832209973436556e-03
6.234757188808325370e-03
1.587144413058638390e-02
2.476312852365955552e-02
2.175412529961571334e-02
1.178174061104524627e-02
5.008431718519062645e-03
6.906042454521924695e-03
1.039561432998971531e-02
3.640339503496924090e-03
-5.120900681821529202e-03
-8.324115052526125796e-03
-1.025192660705516803e-02
-1.320992634322481867e-02
-1.343957927816992817e-02
-1.001994378451019976e-02
-1.217138765120461159e-02
-1.398208542754347111e-02
-4.313448246636146510e-03
1.304022825829317597e-02
3.022723030661123717e-02
2.389377920515683637e-02
-3.097258150567403900e-03
-1.093142297257044225e-02
-3.059462774562184129e-03
-4.387847575850558485e-03
-4.325742425473464228e-03
1.699988230247739818e-02
5.433085877948640174e-02
7.565223721709878058e-02
6.787361745380381117e-02
5.184263585701855831e-02
3.722028958107364421e-02
2.065932445614895863e-02
1.163210334774934102e-02
1.022797416895890842e-02
1.807882408463474437e-03
-8.740349698625783648e-03
-2.119414767414989562e-02
-3.770176535345620000e-02
-4.014363252935485710e-02
-5.124340814325713950e-02
-7.864070828604100005e-02
-7.349325981250295903e-02
-5.217039025894427279e-02
-5.023502819367679090e-02
-5.227021128683072282e-02
-5.781438740844907498e-02
-6.274972831549559260e-02
-5.654221030726409164e-02
-4.600380307727688217e-02
-3.228963084424227997e-02
-1.748518497711414044e-02
-2.370727741749183008e-04
1.177681712119781586e-02
1.079259278757392637e-02
2.502379179456009142e-02
5.712024819784416313e-02
7.061843805128772966e-02
6.321706469155798092e-02
5.647102345171797072e-02
5.797271745638296614e-02
6.320467293817300103e-02
6.372052635086551675e-02
5.887639679372625584e-02
5.279192967227972627e-02
4.257282155268370810e-02
2.843843008900180658e-02
1.907121552563458000e-02
1.502109029969628078e-02
9.045705289499189616e-03
-3.714427812789443026e-04
-1.036474779295253230e-02
-1.952049225990482376e-02
-2.753366317993059115e-02
-3.152758534581202171e-02
-3.148810510001153612e-02
-3.294815023036621465e-02
-3.606045074794347188e-02
-3.665634353682031138e-02
-3.391388789706473172e-02
-2.725505199166146017e-02
-2.081354375772549378e-02
-2.130680484614198497e-02
-2.003052830737361845e-02
-1.209576908871460264e-02
-1.032088831886543781e-02
-8.146332194591099363e-03
3.340208862319863845e-03
1.052470429446890343e-02
1.276746494228625170e-02
1.288147891643080106e-02
9.418137685822587993e-03
7.080649089362976711e-03
-1.926447088705525099e-03
-8.778663707280668846e-03
2.919384528800632751e-03
1.200858525910568873e-02
7.740467061417368594e-03
5.632334357873165255e-03
4.446120466910513311e-03
-1.811302632847297447e-03
-5.015165631093617717e-03
-4.151790398378915072e-04
2.423354921905648135e-03
-1.856853982209027542e-03
-8.067683680292146373e-03
-1.249564828309630317e-02
-1.022235220335490982e-02
-1.520649936852531102e-03
5.289431459659239311e-03
8.990213761864785172e-03
1.156104202947906036e-02
1.139213772149128001e-02
7.317735325024539092e-03
1.971924316460037761e-03
2.324256293763178518e-03
7.564479318832152341e-03
9.725039901832677539e-03
8.546276043519335924e-03
5.807078472850415313e-03
2.274988669710989713e-03
2.146862164048044604e-04
-2.222414457560855771e-03
-2.276463969854424473e-03
3.285044024780131924e-03
6.712933030898291659e-03
5.626804011916109599e-03
2.026340914572946194e-03
-3.613971160458644746e-03
-3.444152093148056346e-03
3.585964659363376694e-04
-1.396562339367184592e-03
-3.956734795862831312e-03
-5.908579968317059956e-03
-9.325483894814865296e-03
-6.396346300844913020e-03
-5.439331245719277493e-05
-1.559405418360180302e-03
-5.251469156573481539e-03
-5.050441880938580028e-03
-8.070947737562212884e-03
-1.122925723019380789e-02
-7.331335904617261763e-03
-6.028326030071912492e-04
2.231830390258394796e-03
-5.151556275965129932e-03
-1.193910207608963464e-02
-6.380607055559262865e-03
-4.383383792101133193e-03
-6.212727240101047037e-03
-4.089647500038013674e-03
-9.123206806458424370e-03
-1.155489355244010419e-02
-6.190091584265277648e-03
-4.869674499785740622e-03
-8.302138704265778213e-04
3.619524609197438420e-03
1.799814623785317728e-03
1.155603280217278473e-04
-2.480133816684117285e-03
-5.042777158706147206e-03
-4.701870514644847059e-03
-2.191159759693068251e-03
2.552773631108380984e-04
-2.074804450856576003e-03
-5.246702093024914818e-03
-7.005141711346775206e-03
-7.557586328775635007e-03
-5.371148673328624695e-03
-6.012161575926420511e-03
-4.444628592537669919e-03
1.890203508699001998e-03
2.571738083213692509e-03
-5.774019809103769687e-04
-4.432627354889850761e-03
-6.200546230314610621e-03
-2.552873838573391490e-03
-1.969728811499551601e-03
-5.070451240494662504e-03
-6.920492206893945862e-03
-7.572524090015802720e-03
-6.424803107997256735e-03
-4.741966892520067638e-03
-3.173853610468320777e-04
3.330899819923797273e-03
-9.646296339707111566e-04
-4.474006959763789266e-03
-4.025211997072910457e-04
3.743969822918781932e-03
3.959057193242713699e-03
5.075107500728030796e-03
7.098926948160995225e-03
4.319678253778243618e-03
-2.070088590488931932e-03
-7.147981729292827817e-03
-5.341202837895115026e-03
1.459788975006656849e-03
2.732348130384017280e-03
1.366030815716833067e-04
-2.655603727453773738e-03
-5.253742055072417594e-03
-3.884803922820298516e-03
-3.691782067106647285e-03
-4.153594353794458176e-03
-2.092932205912181008e-03
-2.861173200679976384e-03
-2.409431991220277371e-03
-6.287269969636149862e-04
-2.192361177339841472e-03
-1.456874437476230735e-03
2.763269291954402983e-03
3.950885609133905109e-03
-1.117917236015220778e-03
-5.203652333107416234e-03
-3.074433882885840939e-03
2.420947333484415112e-03
8.498492265197134937e-03
6.921572408237082127e-03
2.878592844025109048e-03
3.732885123643533802e-03
-1.582034483876878627e-03
-4.597654788949441865e-03
1.071774894015494395e-03
1.358481723623832654e-03
-8.525682313134839378e-04
-2.663193796108047438e-03
-5.792937908348992117e-03
-6.424003444886963385e-03
-3.764872430057444354e-03
-3.041884799344839792e-03
-1.401099862146349198e-02
-1.709843172280487572e-02
-6.046007648759573350e-04
3.628726539434684942e-03
-1.544436608081923299e-03
3.506588320048766288e-03
7.570725702772690240e-03
8.644862157056617397e-03
7.666172280343982147e-03
3.870636012055274529e-03
1.424184786004940818e-03
-3.778178857263598416e-04
1.058390929894969493e-04
2.820874801716461897e-04
-4.039525117369177176e-05
-1.883807968703816093e-03
-6.907911097287347535e-03
-1.047772863178470090e-03
9.154356673898134122e-03
9.215575904493619047e-03
8.515864441854606448e-03
5.398643206675329473e-03
1.951981941636627923e-04
-1.107730010490257447e-03
-5.686552298973008776e-03
-7.427244147648519659e-03
-3.481470314384947726e-03
-4.135332484087853380e-03
-7.257142684266081577e-03
-7.898655371521245278e-03
-5.236430665346169036e-03
-2.301546936868782874e-03
-1.258033208263078856e-03
1.494497286000475052e-03
3.425907400628759938e-03
1.602071836096323303e-03
-2.802366847394472879e-03
-6.730164079786795511e-03
-2.697303572284608011e-03
6.019595471320624870e-03
8.935881791956486186e-03
5.604508234578751621e-03
1.098663409473944058e-03
-7.430847365522598056e-04
-1.171967438927141048e-03
-5.845432476266563529e-04
3.150119372874721820e-03
5.169515847217714781e-03
3.637023962022112658e-03
1.586975290616590055e-03
-2.016280450801254467e-03
-2.488590732474655308e-03
1.562926052722193437e-03
1.418122601995078311e-03
-1.096714483251219358e-03
-2.491276371382555085e-03
-6.088406842803050639e-03
-6.562076986196817806e-03
-2.141940437438548221e-03
2.484380869590529909e-04
5.134016660428850423e-04
1.354833589299925863e-03
2.357522794663845060e-03
1.506258488296117852e-04
-4.205455706966870766e-03
-3.685793212509132829e-03
6.493967922920568323e-04
5.135700203459695259e-03
6.667163688883414110e-03
1.402268961640403509e-03
-2.308920853973132990e-03
4.701203343277990387e-05
1.556382694451695402e-03
1.670818809687467377e-03
1.193399357576027317e-03
-8.494489597407892719e-04
-3.115374225864339566e-03
-3.262196429565224296e-03
-2.429166691601154348e-03
-3.316032409790097696e-03
-1.192442425837797687e-03
8.259374925895573635e-04
-2.174821810096629060e-03
-7.688129340563164618e-04
3.179625480624242821e-03
4.694437493023844062e-03
7.768226829656331087e-03
6.341542779180128764e-03
-1.362553021421910541e-03
-6.920371237533142275e-03
-7.224218566873121493e-03
-5.034271912772588300e-03
-3.690100449309419509e-03
-1.938849907344862957e-03
1.779407160142568688e-03
4.671506821875948123e-03
3.157798234177692717e-03
6.118464448493431086e-04
1.960054894151109194e-03
2.479732328029639159e-03
1.160625409212184735e-03
1.857732163655349432e-04
-2.298123499440380985e-03
-2.323362502230269348e-03
6.271233053611399580e-04
3.224288187900812598e-03
3.914313011363860367e-03
1.977940024667965667e-03
7.219895157476456833e-04
-1.529199007878051910e-03
-1.277379871839923750e-03
4.226328437920834694e-03
3.029856890512927330e-03
-1.440292056435168305e-03
-8.838201779505483989e-04
-1.042929098037019640e-03
-2.876542644776772500e-03
-2.867492290897930875e-03
1.564487727116420715e-03
3.019834053706376906e-03
-1.100875733666062438e-03
-5.236638606897728743e-04
-1.141931879559153267e-04
-2.413344940791326779e-03
-2.573913414734468278e-03
-1.975988718743226531e-03
2.602103021965090912e-03
4.405611966335646300e-03
-1.127772734734947338e-03
-7.648572086052293079e-03
-1.223689450491889652e-02
-7.638487778488405044e-03
-2.555483768603860131e-03
-3.070323141806511648e-03
6.346674487868812255e-03
1.399554838570280131e-02
4.787690969921380019e-03
-5.695980196183979445e-03
-6.047304857785140535e-03
3.838898405842876109e-04
4.185939626440520617e-03
2.402450660164491200e-03
2.940263118708610901e-03
5.134709552992977252e-03
9.896467936883841712e-04
-2.763019661925600074e-03
3.367816664667096574e-03
7.037334086620136535e-03
3.427528286667316185e-03
3.923118188365167826e-03
3.582286207920609613e-03
-5.010192469393660994e-04
-1.368935777171102590e-03
-2.972135860404400277e-04
9.937034959301639832e-04
-8.882618207301266541e-04
-4.563336598476375530e-03
-4.368066078187710956e-03
-3.237915254071182126e-03
2.608040900598562251e-05
5.068454066109706266e-03
4.309288702417770310e-03
7.761021748984427105e-04
-2.250194129780284675e-03
-6.663029407537124707e-03
-5.362759444824707379e-03
2.159165031712724243e-03
4.595005182962933095e-03
3.274602133463026810e-03
1.588540139314420724e-03
-4.041316088571083286e-03
-7.016384519819417187e-03
-5.824405848368231081e-03
-5.873455773742535836e-03
-6.823155438255383391e-03
-9.065944597759825405e-03
-6.613156081546341103e-03
-1.933491624812632478e-03
-4.555981066152315143e-03
-3.179493022773424455e-03
5.083234862528910984e-03
7.285785244481725147e-03
5.795061061098322371e-03
7.423322832449723296e-03
8.226509918384743159e-03
3.470276743814694736e-03
1.221880738923190922e-03
6.498717572844471720e-03
7.548832907978903113e-03
3.754087715744759170e-03
3.098188141168523469e-03
1.239373373682877387e-03
3.608458195945325872e-04
6.554873680120428849e-03
9.921652594923578705e-03
4.603381169662694623e-03
-1.111990422853164793e-03
-2.535652478006656177e-03
8.354501774033040208e-04
4.963751431985189561e-03
5.875372740803151694e-03
3.588684878888509251e-03
-1.124328042174587913e-02
-2.928567909152867202e-02
-2.290779944047937125e-02
-3.401415407520402487e-03
3.066897580637443360e-03
2.736268593505644621e-04
-8.143535837421446563e-04
-3.934837247084699112e-04
-7.491659681969813425e-04
1.734930478420490920e-03
3.761299582573101805e-03
-8.578669497917139081e-04
-3.876986881030481009e-03
-3.953182038650469507e-03
-8.223283208539131778e-03
-1.007160852558939244e-02
-2.920214254540597770e-03
4.713936798271095227e-03
4.343805756537840249e-03
2.975677271540787608e-03
6.782289931425857822e-03
9.655600294413436632e-03
8.349127687478931012e-03
6.805896840485419624e-03
7.873036185132286160e-03
7.460717912207326559e-03
2.883415027651498128e-03
-2.167278172331408171e-03
-4.804372057623166117e-03
-3.043016817726828041e-03
-6.647354365230736129e-04
1.298536706174894964e-04
3.332686317418920643e-03
5.072489481233188185e-03
2.165258051791239032e-03
-3.333598543760839857e-03
-6.079426289085936366e-03
-1.100317082878123597e-03
1.585520388074701265e-03
-2.735566600765523739e-03
-6.250206154251172937e-03
-7.358391412844230740e-03
-5.400531594115136509e-03
-2.409561651174105257e-03
1.827695339650925498e-03
7.796418544050502837e-03
5.434942460087801956e-03
-2.698347166487942818e-04
1.285639469242192291e-03
-7.723935631330820111e-05
-5.768564551086609836e-03
-3.924095059985542415e-03
2.230911700081704765e-03
2.136893803346682965e-03
-2.313011385166098902e-03
-1.713742601313942952e-03
2.319872732387495001e-03
1.607911529391565369e-03
5.123744792641596194e-04
2.907643729107259063e-03
1.800205918707347211e-03
-1.571482088972014132e-03
-1.082274226208511164e-03
2.198151103780153926e-03
2.800942922998871619e-03
-3.032498099888912470e-03
-5.641063421038302293e-03
-1.410754036055597484e-03
-1.617113764659669885e-03
-3.232708445368851977e-03
-1.481222693788742956e-03
-2.804584084936526719e-04
3.240121633863957628e-04
-2.318242732617630062e-03
-4.564342187064721230e-03
-2.978266767297768104e-03
-9.530793402297621291e-04
4.903619000776364770e-03
9.311646613108208112e-03
6.686923699486976153e-03
4.412136481841934070e-03
3.099894776921024216e-03
-7.231103230023762634e-04
-6.381966287938369529e-03
-4.210882758770386793e-03
7.224504724949057030e-03
8.153326687508948012e-03
1.626960338485603907e-03
2.633171490138070010e-03
2.087248711452297997e-03
1.047224486088210889e-04
2.057654702542831109e-03
6.136243932916568425e-04
-3.449018686327803927e-03
-5.865141450029285469e-03
-5.510789576409206268e-03
-2.905973478582113238e-03
6.536637842307987012e-05
3.294432668257856953e-03
2.269124538488317272e-03
-9.150682898917850572e-04
-1.825226576788145996e-03
-6.748310977309204470e-03
-8.816034164636119344e-03
-1.888279267348945368e-03
2.509607908302012667e-03
3.273149179320235681e-03
2.177751274700711736e-03
-1.811844226643948572e-03
-3.674054094695310135e-03
-2.637709428103711569e-03
1.452990354503828560e-03
4.565082985798262286e-03
2.240540880149378359e-03
-1.777336430941328866e-03
-6.208659195442652566e-03
-4.769071051203038931e-03
2.555348555265004803e-03
4.749746424697700621e-03
6.972409383087435630e-03
9.972220303262009644e-03
6.314602492100967503e-03
3.090891859655700916e-03
8.701994389558099542e-04
-3.678133278059157827e-03
-5.339043605030541206e-03
-3.214878542640273867e-03
-5.794084768976224186e-04
-1.022847781069255836e-03
-1.247719448725975212e-03
2.291652678964346910e-03
2.461468588114317305e-03
2.130720837789903596e-04
9.493298295825589560e-04
-1.169637784973379222e-05
-2.423089994381980201e-03
-3.411709355165485312e-03
-4.178960284172310476e-03
-2.018884385686578031e-03
-6.359107092559495461e-05
-3.195404282809189041e-03
-3.066053117101311294e-03
-4.194205464801064936e-04
-2.828689637966014334e-03
1.436390657147396241e-05
7.216863169186358076e-03
5.761346702506065995e-03
2.450645664847701192e-03
1.714895158733364695e-03
2.028180367995584613e-03
5.434812508576865320e-03
3.503158342232587895e-03
-1.472816741852345452e-03
-1.725617228393913627e-03
-4.517008556264601529e-03
-7.570047655551228639e-03
-4.814137625283881547e-03
-4.075643452007395918e-04
3.690681947795213750e-03
5.252786562726530044e-03
2.643490728674213058e-03
-7.458148782149954343e-04
-1.452927935773361918e-03
8.425967696592111819e-04
5.557821476875860096e-03
9.225379182752863755e-03
3.861305614814546702e-03
-4.683888779762632702e-03
-3.844428646801092281e-03
-6.941095488335947191e-04
-1.724678429924861658e-03
-1.695608423840140643e-03
-1.322263418813936393e-03
-1.468994910017192403e-03
-2.136907664667454278e-03
-6.971725658786790542e-03
-1.122268311009605272e-02
-7.195748157976369040e-03
1.045315040078054376e-03
5.574067525627528739e-03
4.741563065621917476e-03
2.421962480389011716e-03
8.978127198676095350e-04
-1.454352536305914944e-03
-8.694850092079564738e-04
3.117354839389994709e-03
3.057311168104083661e-03
-1.549267810816612912e-04
-3.321150337104228790e-03
-4.411366007034137060e-03
-2.886309466514378006e-04
4.617540853195146316e-03
6.142970106785301289e-03
5.005043484552946197e-03
4.149362134893365764e-03
2.755799202435285731e-03
-9.166375428110954283e-04
1.676643626832137425e-03
5.836204036604426305e-03
1.443847269595766123e-03
-1.271126021503008168e-03
1.972143996336960838e-03
4.519981553754328155e-03
1.949295605588451542e-03
4.507927489193864568e-05
5.079384697122040155e-04
-1.395514233606916232e-02
-2.602741629166389209e-02
-1.007556560145339911e-02
4.988991646743192766e-03
1.559309494175282551e-03
-3.791113651970426032e-03
-1.421644771366380503e-05
7.594029918268560553e-03
3.360907925719511680e-03
-3.914592831380047863e-03
-2.185503095705754618e-03
1.421014915430520841e-03
7.078956417676984976e-03
8.515177077168622696e-03
4.350989389310487912e-03
4.527001250620273781e-03
2.676637763179038568e-03
-5.185185657191893061e-04
2.165039646023889444e-03
5.337249505951277909e-03
6.698024900729885982e-03
3.636350630337884752e-03
-2.998876366499863156e-03
-3.127148829918587579e-03
-6.757022590307578108e-04
-4.228603718755712983e-03
-6.171796392228517253e-03
-5.033286864533507814e-03
-6.751713554114887987e-03
-5.501795204564664116e-03
-2.089240083601270025e-03
-3.441560424871072544e-03
-4.898728316537772319e-03
-5.806984564910994129e-03
-1.058847063115755417e-02
-1.239652989162104250e-02
-5.785299359291166087e-03
1.215716042419794172e-03
7.113496066274726561e-03
1.491942370694248829e-02
1.629271183731825431e-02
1.224635626838747014e-02
6.987239310369555700e-03
-7.299997564963291228e-05
1.709364063294117018e-03
6.317980716461214091e-03
1.918001555580901721e-03
-1.349727481091250443e-04
8.073968760229077984e-04
-6.553198819074585379e-04
7.387011241241842659e-04
2.956577772334610926e-03
1.188350303298336009e-03
-2.734135027215228286e-03
-2.727867833613935398e-03
-1.948565168505697815e-04
-9.904815650060988519e-04
-2.429628444068338607e-03
-3.177183398822836392e-03
-2.296715955295600825e-03
-2.555419462245930623e-04
-2.881904814461018829e-03
-6.033430179826934810e-03
-4.511951843925432297e-03
-7.134345970686006020e-04
2.569885660909582321e-03
1.701162204308207058e-03
-1.159672200213279162e-03
-4.039860563392408399e-03
-8.693600761257604809e-03
-7.748226105384070812e-03
-1.231763187755068956e-03
6.321263877453708576e-04
1.993091585379754439e-03
6.289840466147641855e-03
6.953890342626387229e-03
4.186633113044306923e-03
-9.281450691149076022e-04
-2.630902093187655576e-03
4.068258202190588001e-03
5.681131912727475052e-03
-5.512301471881543439e-04
-2.772917751898126403e-03
-2.123288645939241416e-03
2.313266710191099200e-04
3.855685583255280199e-03
3.912122050779204274e-03
3.067468803199499376e-03
2.336746514471231898e-03
1.069776237716212096e-03
8.687921975969361676e-04
-6.009305708573113537e-04
-1.375844655348235079e-03
1.776866456780326013e-03
4.184111235633426740e-03
1.983932692203651052e-03
-1.387275400883855722e-03
-2.192744268515920813e-03
-2.172309092198046378e-03
-2.104394006304384415e-03
-1.693438960621659493e-03
-3.489260679974344730e-03
-4.899175666598970871e-03
-2.123534266201123916e-03
2.307240293915916135e-04
-7.999948603959083264e-04
-1.861128587038886990e-03
-1.980545591658667594e-03
-2.752481572310635713e-03
-2.594038057047259177e-03
4.044085285961635662e-04
1.305981802204648091e-03
-2.166060946794703870e-03
-1.635025460207653689e-03
2.327163359754563961e-03
2.714002153664903366e-03
3.697870567159420360e-03
4.313938292670412011e-03
3.049851567323918870e-03
5.939554162264143629e-03
5.579179966859464102e-03
-4.607389752929716875e-04
-1.986519574703147443e-03
-2.428758228546258786e-03
-4.021203870588027987e-03
-1.763173409208863666e-03
1.115746198684955132e-03
2.475124225685060905e-03
2.834565080785576407e-03
4.064866171741355391e-04
-3.859314370275384980e-03
-6.329254789588644771e-03
-4.482235159621738782e-03
5.028556993918242087e-05
2.703287715342239834e-03
2.705114093401780016e-03
1.726265204604117117e-03
-2.886069200372584197e-03
-8.414168739437255864e-03
-6.014508056430802746e-03
-8.667997976162085611e-04
-1.620510015791090793e-03
-2.876317722203734512e-03
-1.946408704268091927e-03
-1.301219999689922366e-03
1.437413738836929803e-03
6.658693636982092323e-03
1.114098683754902348e-02
1.185399357054355875e-02
7.816684680900500004e-03
2.952509302765101481e-03
1.694000389997769298e-03
2.191088058093413650e-03
2.420763949481905680e-03
3.708471380361254722e-03
1.845035965072964329e-03
-3.827113291698310080e-03
-7.390735030372452656e-03
-1.033268485291176896e-02
-9.091438678294271741e-03
-1.617136330388737556e-03
2.234179591130877032e-04
-2.131008490498654054e-03
-1.841879202052214629e-03
-1.493664947294273421e-03
1.325483558507061475e-03
5.914352976662550637e-03
9.839156643589742207e-03
1.080138071106301507e-02
4.292212607261290842e-03
-6.486635910952300065e-04
-1.248805608625262460e-04
-1.324656702747224355e-03
4.572267362267111359e-04
2.443130608504790347e-03
-4.711105219186251768e-03
-1.229227400835861128e-02
-1.565314122533675162e-02
-1.977977814155795766e-02
-1.818309561680892320e-02
-1.089320822972357494e-02
-8.628557565638315940e-03
-6.986975290305542929e-03
-6.301658742552907963e-04
6.344140168650396448e-03
1.322434731405777546e-02
1.704749602454954868e-02
1.757412154855170563e-02
1.649353757904882881e-02
1.358495204511495774e-02
1.136483937386307923e-02
3.873231173832420663e-03
-3.775307291427440655e-03
-3.916663787731105087e-03
-9.825980328738218722e-03
-8.183277214704659519e-03
