2.982485981650763278e-03
1.731312494242732503e-03
2.488916365099896368e-03
1.811836713867440033e-03
3.234606931335693358e-04
-5.162932331425609464e-03
-2.265474439539780834e-03
4.543865077407624811e-03
1.576549779953920736e-04
-1.555054965925228199e-03
7.676991546436942766e-04
4.534051095381003323e-03
1.155081044346036208e-02
6.746456370852016264e-03
-2.486737129263005830e-03
-3.364090167330587022e-03
-4.522222161408170037e-03
-6.266698513354175375e-03
-4.281725124098872785e-03
-2.598860262110931629e-03
-4.886523643171130325e-03
-5.030847263201543643e-03
-2.056352688192669524e-03
-2.564019531527991173e-03
-2.841562204023123758e-04
5.023476595187153712e-03
5.200197901762449587e-03
4.952945322762380455e-03
6.074535163839223269e-03
3.147574271721786769e-03
3.816176403860547335e-04
2.272558083103576147e-03
1.219827093998225153e-03
-2.544457773574916332e-03
-3.362098147655464674e-03
-2.413226587493011357e-03
4.156674568324504604e-03
7.121877959388819672e-03
1.787775782279477001e-04
-3.652873820327989622e-03
-8.008313510119310918e-03
-1.179138830299062378e-02
-8.555502540151182014e-03
-4.844435740914174865e-03
7.793098737143059306e-04
1.992916113113373227e-03
-7.943618250012798225e-05
-8.891077062039827808e-05
-4.992779730718499738e-03
5.038865461479518889e-04
1.059358881794441286e-02
7.843285516615675773e-03
8.387847206022843241e-03
5.884224083038899072e-03
-1.746186709131132119e-03
6.398452076564001018e-04
3.070206216699161456e-03
5.471219562439891791e-03
4.888676693026491014e-03
-2.889626390138120768e-03
-2.523698217452146567e-03
-2.551529681577065483e-03
-7.391000575366585106e-03
-3.797259640048146739e-03
2.222245523184946834e-04
9.998924583937897240e-05
1.898753587274932067e-04
-1.108519086619132090e-03
-3.845705859827192128e-03
-6.251215603086220790e-03
-5.536339085914675044e-03
-3.905842179558081592e-03
-2.947050769162658148e-03
-2.835071918363019517e-03
-5.005473882195404269e-03
2.818529409265030242e-04
9.888273379048644410e-03
8.837419044897931730e-03
4.956476049922571743e-03
5.265048243434023410e-03
2.635725425893378510e-03
-4.026499383515056742e-03
-5.755443941668508638e-03
2.240331725590842104e-03
4.256345750043365010e-03
-2.029431663626677859e-03
9.280364838598204047e-04
5.360326296282604680e-03
1.296816002662102424e-03
-2.116350122971239010e-03
-2.084733228883652771e-04
4.094089728542150627e-03
2.523874428911772154e-03
-3.349945937378482133e-03
-4.295076418056162706e-03
-1.841997097021932754e-03
5.458117481193885913e-04
-1.785497696807378763e-03
-7.062417140758780153e-03
-5.062211060304391309e-03
-3.959587555508599604e-04
1.460032502948534379e-03
4.244174023117186847e-03
2.951316013488734704e-03
-7.374723124417006340e-04
2.333746974033805259e-03
3.039182219687043378e-03
-1.612330408523730829e-03
-7.116865546780961000e-04
-7.672056162419767971e-04
-1.888276417081437893e-03
2.639954841521402387e-03
1.149842179108950639e-03
-2.962063842421566989e-03
-1.840026338939919782e-03
-3.602199527928231452e-03
-3.479603306796514792e-03
-3.766089913979301772e-07
-5.447223056105424946e-04
-2.007725639485954451e-04
7.751457256669467590e-04
-2.590061393780838939e-03
-2.754370971683023882e-03
3.964436236601823205e-03
8.490105144920106692e-03
7.234667791085283399e-03
1.408363825274852946e-03
-3.428866358124824532e-03
3.568990954738219222e-04
3.756794371491251321e-03
3.196963039273434046e-03
1.416651705765108573e-03
-5.082143692820503128e-03
-2.466673358059932354e-03
5.691332821101991422e-03
1.385248377652120028e-03
-4.326911637017756378e-03
-7.410734741787303875e-03
-8.949045960235355729e-03
-2.219919084902681125e-03
4.715046242628040570e-03
3.726346201383451320e-03
-1.028019339522743278e-03
1.778794367281172047e-03
4.121480561693877456e-03
-4.131068141147119926e-03
-2.471701482212019206e-03
2.371033482308072642e-03
-7.103231316538221631e-03
-9.636673202539735097e-03
-2.414045964809834969e-03
2.162045645380241028e-03
7.545750395548308023e-03
8.935156346908421782e-03
4.537671633699932872e-03
4.695959797475252051e-03
7.113220226614773781e-03
3.605637808297927367e-03
3.706862043588131372e-03
4.474915897728899347e-03
-9.668753818750095916e-03
-1.719208485437091760e-02
-5.896470844908740204e-03
1.921539421567811958e-04
3.077518115057719435e-03
7.970690532459122693e-03
-4.910304013279821517e-05
-9.886693409026377222e-03
-5.096964602967153472e-03
2.082678685733022148e-03
3.364616132825144941e-03
3.524167858608499761e-03
-3.291574374452160162e-04
-3.609269070970902785e-03
1.273924612491482943e-03
1.551810622400371297e-03
-6.040091847011523456e-03
-4.553230405789862774e-03
5.497978519606981293e-03
7.270094014950589760e-03
3.264224831909544105e-04
-1.217551138723640090e-03
9.390253075735478100e-04
-1.278303199666532171e-03
-1.047241004441532182e-03
1.030403548556097729e-03
-3.513200979405941833e-04
1.619102511157754717e-04
6.596497044990170654e-04
-6.089728203606682277e-04
-2.301441441513341502e-04
-7.443864821192756930e-04
5.685585426622298631e-04
1.515612083619680356e-03
-4.881276394242748187e-03
-6.194803492816491203e-03
2.673157807731001666e-03
6.677977394263826319e-03
3.761167785831525875e-03
1.843175363780865305e-03
2.727709805993722321e-03
3.983892230371701045e-03
1.098731540043194769e-03
-4.172308349961875024e-03
-4.321112142525667700e-03
-1.517559219152890906e-04
1.724912495867535070e-03
4.274431017542443603e-04
-5.381103487686302728e-03
-9.361610132539546422e-03
-5.697135148794631870e-04
6.053852011299867483e-03
2.102630902988861933e-03
1.302785881697576104e-04
-3.345776443609000186e-03
-6.301395109678910485e-03
-6.032031270776273997e-03
-8.734565581974365958e-03
-5.962480161390313477e-03
7.392437850580061212e-04
6.002979568943541885e-03
6.790783454707277796e-03
1.223946328748171976e-03
5.382198806131720768e-03
9.357266009377215518e-03
5.225858742809645283e-03
9.021946091808038040e-03
3.240037726590987328e-03
-8.551514823803738410e-03
-3.014667976737289094e-03
1.715522740333922129e-03
-3.775072908405565698e-04
1.075850295132653933e-03
1.298221838335316975e-03
-1.686621019805558362e-03
-3.371926578411477485e-03
-1.110413156926965111e-03
8.759548594571066890e-04
1.294068620586102470e-03
2.706498794111278253e-04
-2.498152805327528633e-03
-2.654234657260122737e-03
-4.379718299653487246e-03
-6.353448592336276637e-03
-9.246150800552070887e-04
6.078972839579554512e-03
7.573539303241767426e-03
2.603088497892347072e-03
-3.098983006519944339e-03
-5.974247638718611225e-03
-6.682780269412309446e-03
-3.199082654080315745e-03
7.114182497403131848e-04
4.084161715524029131e-03
2.564597665684117695e-03
-6.177421373889025423e-03
-5.643871314021144114e-03
2.256836117101714955e-03
4.686956711131861665e-03
4.728631959961785911e-03
1.752473123484227669e-03
-2.825161655880281588e-03
-3.177967408434251555e-03
1.286902687905647951e-03
5.781916369884102305e-03
5.038301184631210732e-03
3.469221028554835776e-03
6.454823783636579613e-04
-5.679856057916672814e-03
-7.015617332196652164e-03
-1.316363322620727958e-03
4.862277513879289734e-03
4.587136587425468849e-03
1.512954680558592935e-03
2.958051254557563566e-03
3.055496605134207060e-03
9.111666173229498490e-04
5.101273317205651638e-04
5.197799409889977120e-04
9.801473604760941845e-05
-3.070596606233221698e-03
-2.792744845352319177e-03
7.849523762173428714e-04
-5.054059222952063564e-03
-8.667913086216854149e-03
-1.216888325874323573e-03
2.999077593976541079e-04
2.680109909497317266e-04
4.835035421724183033e-03
-6.130895179930845535e-04
-6.817104474514179731e-03
-2.337510666779826340e-03
-6.092223184816894553e-04
-4.076247185182494195e-03
-4.418901629114352879e-03
-2.686085322250832737e-03
-2.336166481402277180e-03
2.587489988137693306e-03
1.072908044738561141e-02
7.585797575411067778e-03
1.135516530432306628e-03
2.442355979227049927e-03
2.549872593693685695e-03
2.234828402233128217e-03
2.733817685194725976e-03
3.836533437319807147e-03
6.064092577971082546e-03
3.468866895175286898e-03
5.325334977713123063e-04
-4.431253851723620032e-03
-6.956380329155935870e-03
1.714141305713659871e-03
1.488843726655853222e-03
-2.894326246067990219e-03
6.834032157663059341e-04
-4.931631118325954626e-03
-6.593299813010051157e-03
2.198398390500104754e-03
9.358096518440718950e-04
-2.874991275453212241e-03
-2.247892723575766177e-03
-3.129175918955706334e-03
-3.426279844344303199e-03
-4.097425072234752060e-03
-3.545600465596305748e-03
1.538029566672426216e-03
2.716541741167962341e-03
-5.846714048464903566e-04
9.206539364672424114e-04
4.441630424287171925e-04
-3.636410019352919083e-03
-2.486069591230307373e-05
4.566551603104361881e-03
3.775311618733042610e-03
4.354908002115949993e-03
6.566526738267358318e-03
4.295532895968462092e-03
-4.424994189863426866e-03
-5.595793175199380992e-03
5.371603611537463865e-03
7.921953863084614869e-03
1.091908213082560652e-03
-1.246061697291784556e-03
-2.552145822188184743e-03
-1.444590398560138605e-03
2.742254142083848118e-03
-3.683464750465479266e-03
-1.157040394897619964e-02
-4.181296950917625169e-03
5.195883931721109218e-03
8.367051200208813419e-03
7.790353768896593825e-03
2.000356846365442583e-03
-1.024199107533065945e-03
-2.579155706157569995e-03
-5.748773694293359340e-03
-3.237251927885419558e-03
8.639114724337061723e-04
1.286691997784162548e-03
-1.771054421651082744e-03
-1.411737910774479854e-03
3.037302575878756978e-03
-1.597338647596827088e-03
-4.374276996671174270e-03
1.436237825845648091e-03
1.529578695724932063e-03
-1.237075276852059747e-03
-6.422541952697736166e-03
-9.280496068936687146e-03
-4.101657667528787327e-03
-1.622092658834511144e-03
1.640619443030828881e-03
1.668410509402851660e-03
-1.994606527094082253e-03
4.477439115348455338e-03
5.875417848981121481e-03
1.843249829324663126e-03
4.875963817752758389e-03
3.571347263267160566e-03
-1.175217581203283736e-03
-3.545859667927312581e-03
2.576848165109684786e-04
5.149641864426095748e-03
5.655151345369226678e-04
1.551930699406474335e-03
6.467404985289279366e-03
4.324788929390240531e-03
3.301011282537566656e-03
1.145174559847714083e-03
1.992036268460490363e-03
1.049913112242176899e-03
-7.342017138319691799e-03
-4.894297273910531987e-03
5.261306040966162419e-04
2.101949930022789341e-03
3.908313141753354779e-03
-1.458596440671483616e-03
-7.536661985585503022e-04
-2.032353401418399586e-03
-1.298336839639924016e-02
-6.766139418058870515e-03
2.016716159762154022e-03
-3.239063322373985938e-03
-3.103515699538539774e-03
1.746103138855044585e-03
3.682100571742804793e-03
5.764839807287922176e-03
7.373532252429296566e-03
1.921098044092802749e-03
-4.511340940247881258e-03
-3.285493686877518846e-03
-7.362785566440536132e-03
-8.154930699167417876e-03
3.442161532340244374e-03
3.442446163704588995e-03
-2.522537265556220286e-03
-5.154582862021192383e-06
1.144218952168014588e-03
9.616681522498959000e-04
6.043227347456647195e-04
-4.468565663352266860e-04
-1.082718822016779606e-03
-1.769745523750313170e-03
1.343840993690394300e-03
2.227756556102674333e-03
3.257853158487572899e-04
6.157013757452540169e-03
9.683030720763308868e-03
3.212067852221092614e-03
-9.865223349582693852e-05
7.719864042315019003e-04
-7.752786136346992191e-05
2.715254592150555214e-04
-2.182102742349478059e-04
-1.439277755350788519e-03
-1.809227085608983501e-03
-2.914957205953780644e-03
-9.232166679020465273e-04
-6.893925094134709759e-04
-1.637600353504541952e-03
3.525114174214533623e-03
2.445570342699770246e-03
-1.929177068097309928e-03
1.449541948991270920e-03
1.139205852825822454e-03
-1.822110744695810709e-03
3.657872968410006862e-04
1.413845506674072435e-03
-5.664967207926753859e-03
-1.052261697855069907e-02
-1.063142741428482188e-03
4.353993004479669686e-03
2.338995311960796568e-03
6.542790981026405661e-03
5.181047448081121942e-03
-3.136461540719123991e-04
-1.250530635994371665e-03
-1.424306979734035403e-03
-1.225203057539528927e-03
-1.867014778080857947e-03
1.570505434238985733e-03
1.318201413208762744e-03
-5.573846363833599889e-03
-3.468077509358878825e-03
-3.108997180727861992e-03
-5.609663710172366202e-03
-1.370763003922910494e-03
-3.290909413511232482e-03
-6.378154460112496309e-03
-4.061277737011436545e-03
1.189933754280722740e-03
7.264353162256502808e-03
5.331750186206692110e-03
5.635014180214727511e-03
5.091684612507195971e-03
-7.566448490093836965e-03
-9.822473819781856949e-03
1.116801833249339701e-03
8.425712216719017864e-03
1.080008508519135491e-02
8.348044646633013405e-03
4.365494641809975103e-03
2.744009454946548261e-03
4.223146827882284099e-03
3.068773143007171977e-03
-1.584610878785845710e-03
6.950724985381810358e-04
3.171336435117464488e-03
6.745985163174599182e-04
3.168162669934706372e-05
-6.196089844810475809e-04
-7.250811392092964668e-04
-3.178874624042402758e-03
-5.448193410351603871e-03
-3.722800378887705999e-03
-7.969906320407482356e-03
-7.199645039593240321e-03
1.141739179812961301e-03
-7.662984315740794259e-04
-2.948287163268475519e-03
-4.775598891755163241e-04
-1.276035056637962566e-03
-4.054689704839319932e-03
-8.398559921413736862e-03
-4.646962440688354873e-03
4.722107181628049100e-03
5.571480501306256237e-03
2.465464554793394929e-03
1.148116674464226246e-03
2.836355099396569573e-03
2.614333541726842573e-03
-2.419574678216932558e-03
9.900961426801814600e-04
6.760604993813605114e-03
1.271254504352268590e-03
-3.004094339254312265e-03
-2.493372989590136608e-03
-4.799949110827687708e-03
-1.226259229712979484e-03
8.733106783036985107e-03
8.060464299111391728e-03
1.521306391637451249e-03
2.043037995374330854e-03
-1.906843295574052292e-03
-6.318122730250198653e-03
5.975074152919255741e-04
2.871061321315825348e-03
-3.624384221734731838e-04
4.230808370718450477e-04
-1.276302682379377822e-03
-1.700236300323236700e-03
2.664657148852936017e-03
4.207157398040399683e-03
2.146698051747465957e-03
6.992621387738373389e-04
-6.443954710271949764e-04
-3.914567929646044914e-03
-1.852858334372284831e-03
4.343309267904812976e-03
2.368832428403625043e-03
-3.912938441236660085e-04
1.294352060401392571e-03
-2.504290088486893755e-03
-7.041068552209588105e-03
-3.890704185219819554e-03
4.547997969453734975e-03
1.030276140015956576e-02
4.733048028952895753e-03
-5.728901025409884051e-03
-9.487285292943171272e-03
-1.032240898362553165e-02
-1.084195417255826542e-02
-5.464777723075773391e-03
2.334865439901235868e-03
6.991538060882292530e-03
7.388346643413258065e-03
1.673796265898951476e-03
-1.868375164260232396e-03
2.249886717885596875e-03
3.507584045503635371e-03
1.389345976243211217e-03
2.200844092767698448e-03
1.098121102435239407e-03
-2.078147642193048979e-03
-8.699021157084364103e-04
6.017894885417803073e-04
-1.565581195109677247e-03
8.197656203888263257e-04
4.451464963202237182e-03
7.927574351544519138e-04
-2.678334039595227801e-03
-2.244389650195014428e-03
1.108953618587462699e-03
3.795690508386481352e-03
1.380155351620937108e-03
-3.074791207845611061e-04
-2.709798036787924944e-03
-5.310014651410866924e-04
6.957275233778425182e-03
5.171235849403549171e-04
-6.204311038436265135e-03
-2.843316186150786004e-03
-2.326614785320166388e-03
2.330545640026014231e-03
3.756456199181538481e-03
7.636756240576862871e-04
4.836928777398766775e-03
3.604057501761846402e-03
4.128972291200626722e-04
-1.719340829851028363e-03
-5.853392097213954565e-03
-1.292435361819434204e-03
9.880965731736582151e-04
-2.286861358220711616e-03
4.050587563858014557e-04
2.056487243553632195e-03
-8.303912762288861039e-04
-4.214528346045943140e-03
-5.817198867348667701e-03
-4.060080444356995409e-03
1.325663314814491895e-03
2.918590555831140215e-03
-1.221716294985021080e-03
9.776333391591767591e-04
-1.111771719669229976e-04
-5.512954734072578362e-03
6.352254450637026930e-04
4.974064087581869971e-03
5.849732360333014143e-03
5.405513887470352226e-03
-2.251011004146845438e-03
-1.917732473821472626e-03
3.733385791471122237e-03
9.163254526575624268e-03
8.227626195653019864e-03
-9.418424131603769442e-03
-1.481512048300044279e-02
-3.622597895094196215e-03
9.261685177698981367e-04
4.217058313406322687e-03
4.310744511489938979e-03
2.421862448150656282e-05
7.263454198483071476e-04
2.034854033964967560e-03
-1.475311639256473911e-03
-7.010347062266253674e-04
6.561390474946942296e-03
2.644227226213182597e-03
-2.653330602734221225e-03
1.608369586475813561e-03
-1.601882619751263332e-03
-3.320178246413525453e-03
-2.470818486757195807e-03
-6.761581320753348376e-03
-4.636067120765658550e-03
-4.183755805073755864e-03
-4.149954442923605748e-03
5.716360732412763658e-04
3.612481835505028296e-03
8.286787458569882039e-03
5.214890606577011513e-03
2.597865207833034403e-04
1.300872672388986078e-03
-2.449410940922146143e-03
-1.054943472249685998e-03
3.634563506126269310e-03
3.665146469773973830e-03
2.018076206169915933e-03
-2.478626605775214112e-03
-1.278718690296998684e-03
-4.058818655075509090e-03
-9.090724921830464073e-03
3.143009076871453207e-03
1.047250314025915605e-02
4.471061442853915130e-03
1.313786140409997378e-03
-3.647630974142959670e-03
-9.260592275701015619e-03
-6.306582858721469613e-03
2.556927384038032349e-03
6.103496815793200275e-03
3.264109405421597183e-03
-9.808632295437388383e-04
-1.640714412345924914e-03
6.453523022489045420e-03
7.654053034378686601e-03
5.339134481037407544e-03
8.303495839621314462e-03
-9.977066967680449372e-03
-2.650834608932499045e-02
-1.095903114130054694e-02
4.307284051279062359e-03
9.020217512623449410e-03
8.691097581666753016e-03
2.869907985123144184e-03
8.258520306746364083e-04
-1.396519720674180417e-03
6.109833724677982234e-05
2.514434382166822780e-03
-2.645271633427604459e-03
-2.656361906935782429e-03
-3.446561603586373052e-03
-6.130429756925121279e-03
-1.374174542729607275e-03
-3.208164471999594685e-03
-3.036522544178338508e-03
5.514841514518161944e-03
5.249094206845411614e-03
3.321493901744782592e-03
1.043414364149321044e-03
-3.977790501449691811e-03
-2.172199310400033351e-04
2.308690523930659235e-03
1.390458820504319451e-03
5.757537018223534732e-03
5.082234178831185681e-03
1.186969525651609221e-03
9.915842139794303102e-04
-2.018383464632888483e-03
-3.765862972940719339e-03
1.665599633172389115e-03
4.659715448911541658e-03
2.059719590739731224e-03
4.155146419388536239e-03
1.670574996666575850e-03
-1.401414354217801229e-02
-1.556513749114063830e-02
-9.457121861759851115e-05
4.720330180423558050e-03
3.418869130217332304e-03
4.123451821069813034e-03
1.533716125106066204e-03
-1.435758086795502512e-04
-1.988697620944356471e-03
-1.589871946287920931e-03
3.054789900058737639e-03
4.212820075752656468e-04
-4.175435258215312757e-03
-5.214950729908255896e-04
3.147757063194062555e-03
1.150961917080813241e-03
-3.683305827061789713e-03
-4.399220438902356860e-03
-6.613742235510926227e-04
6.391466107380881908e-04
3.989952530561367144e-03
7.864442504854267033e-03
5.739992788333898345e-03
4.382919242876503509e-03
-3.257365178873460445e-04
-8.058652728519608704e-03
-5.629787584859058565e-03
-6.144785866458782591e-04
-4.474718556708828484e-04
-2.435876668122697371e-03
-2.388261142290366585e-03
3.497500411826200053e-03
2.236515731179114768e-03
-1.111378553898579669e-03
3.933588174185302482e-03
-1.034972020374697694e-03
-8.067482266589334761e-03
-5.038111716267697562e-03
-3.518595535152063518e-03
1.966721132952323030e-03
7.344755175807697080e-03
6.059209546744848476e-03
5.464432895596571700e-03
2.654393789361508132e-03
2.765512424117256857e-03
2.331154426127481603e-03
-3.827370747043122752e-03
-2.015480173399545206e-03
-1.226763566246364973e-03
-3.825755529044468518e-03
-3.204418063900719353e-04
-1.745707899664387030e-03
-7.320054630115627745e-04
4.942611538531075169e-03
2.810972177232030824e-03
7.684618228105264326e-04
-3.991256638545313297e-03
-7.302934107602749268e-03
1.312211447320239636e-03
4.526929492241865932e-04
-7.297038508464725667e-03
-2.572064563020401342e-03
2.071920027150636438e-03
8.755277347334572023e-04
-1.435179753227467129e-03
-3.986684987786132291e-03
-6.123585266430245670e-04
5.778158200883926933e-03
6.325431434185876771e-03
1.317341800381138187e-03
-8.891323080672865762e-04
1.841446134114720252e-03
1.709941635059589096e-03
1.373603408516369103e-03
4.590719097085023230e-03
4.997806465948240531e-03
2.541869871283118990e-03
8.283452363810904539e-04
7.057432394785489657e-04
-2.273246455188252576e-03
-5.976516804599333633e-03
1.418198585204481516e-03
9.238798644971226923e-03
4.985580909929514422e-03
-1.475877086403444300e-03
-7.967629323865327295e-03
-1.059267681540581978e-02
-4.990980976756677172e-03
-3.102621111752867662e-03
-4.008426860616674109e-03
-1.943562253343118643e-03
-1.126267269560078275e-03
-7.636729881962396431e-04
-1.492110622280792701e-03
-4.722420231102847864e-04
2.363804539253082891e-03
1.086377988893109893e-03
1.222899043948167536e-03
-1.285890165812897737e-03
-5.492497580881120813e-03
2.739004941307584141e-03
7.747796429090974060e-03
3.972680844797334652e-03
5.295930403291901518e-03
1.794574865331824377e-03
-1.990602391860717656e-03
1.646965607192780448e-03
1.275003343488518475e-03
3.136635592860561022e-03
4.683952802625562274e-03
-1.193132622184837682e-03
-2.308200655837684342e-03
-2.937413561987612960e-03
-3.225950452965266856e-03
2.556070529681830211e-03
1.260835281428139554e-03
-6.579101490606393144e-04
3.125902498292852140e-03
-1.773808612486694374e-03
-6.243530280225712166e-03
4.706538338310679349e-05
3.208442982111293050e-03
-1.366877597169529089e-05
4.019605362422498033e-05
6.854624135050441883e-04
-2.966772045917684918e-03
-3.683995610719212853e-03
-1.121107129518480452e-03
5.864194509270287056e-04
3.465170061374605974e-03
4.132779532318602012e-03
2.364458651116264042e-03
-1.123349439336265333e-03
-4.589232732874946007e-03
1.729475170784109685e-04
4.684308168359440847e-03
2.294609342710646725e-03
-1.225147284878994958e-03
-5.080048175625298361e-03
-2.138709956258771309e-03
4.702256222543187147e-05
-5.527578210729797333e-03
-4.101353506763891557e-03
-3.468903572445365159e-03
-5.438891587488883447e-03
1.984338597084099056e-04
-2.390885799295785954e-03
-7.275295600022402623e-03
1.670842699406626655e-03
9.970514693706225909e-03
9.731582072186517954e-03
6.587258565618907095e-03
4.270860246704785528e-03
1.505201492621707814e-03
-1.792880540915173715e-03
1.941479529810454267e-03
5.254669043384362082e-03
-3.585153380424913028e-04
-3.009179447678392034e-03
-1.271777349413613471e-03
3.771135901848660858e-04
5.529086028667445050e-03
4.796976419084965186e-03
-4.314423259659025574e-03
-7.509369752459492398e-03
-4.694420511299586367e-03
-3.656242348806668313e-04
1.107140046632019374e-03
-5.056692561929818433e-03
-2.787639522990206439e-03
5.760163721448162931e-03
-2.769491850296441340e-04
-4.579995001045869887e-03
1.780805702899368372e-03
1.849119782961834669e-03
1.943724915301777269e-03
5.552699183624451064e-03
4.511039922972843660e-03
2.380775033342922512e-03
-1.688164157582209678e-03
-3.233995347154743245e-03
3.495259477262786926e-04
-7.219267487385198738e-04
3.595594888410129017e-03
1.029213146948733913e-02
2.983922821341635509e-04
-5.354272056076411941e-03
1.695076966019408134e-03
1.071818894149214945e-03
-4.380737129421639691e-05
-7.095360641588614693e-04
-9.025913890411907392e-03
-1.349103942659046762e-02
-9.688459441349736231e-03
-2.407876305447727208e-03
4.182423627332580197e-03
1.010875508360745481e-02
1.034529136059205399e-02
6.505966064197775964e-04
2.662075237075983594e-04
7.852244816983463063e-03
7.425963254366536349e-03
7.989314848525122525e-03
4.912219793318921626e-03
-2.015881444500410621e-03
-2.870084440711830921e-04
-7.988928553142918255e-05
-4.257567567576584985e-03
-6.233130999370483857e-03
-2.573641680858559846e-03
1.970604448023666709e-03
-2.375111125411559672e-03
3.396606274300122260e-04
7.025156326038549739e-03
-5.213032018600645585e-05
3.955977117122201105e-04
8.812484042965312500e-03
9.386506852741144380e-03
1.353790328707777345e-02
1.796012048295692748e-02
1.615345164280607149e-02
1.556986321910973012e-02
1.277411645002524306e-02
4.042792489597529966e-03
-3.874735417948775226e-03
-6.221634441113231204e-03
-7.147783059286975070e-03
-8.950855360432233288e-03
-1.083976317477963573e-02
-1.676364443390836526e-02
-2.301890509659128281e-02
-2.518070762713665520e-02
-2.617202533166063452e-02
-2.165303748866368588e-02
-1.432459348838172573e-02
-1.167867642664054476e-02
-7.528106783667358123e-03
-1.953937452342365162e-03
7.772566753351386332e-03
2.248943662744814012e-02
2.488514357525394016e-02
2.277546720775178515e-02
2.828269665961310325e-02
2.333630395297049340e-02
5.330755144121258719e-03
-6.575461040023562048e-03
-8.502256170544878269e-03
-1.044842595260041945e-02
-9.080856084777277210e-03
-4.771659043779344009e-03
-7.287335880226334349e-03
-1.167438814668700538e-02
-1.618996116269202923e-02
-1.579337590734809088e-02
-9.621471666979629009e-03
-9.846529677155064358e-03
-1.193709728548035531e-02
-2.310248701672718008e-02
-4.425356872825231269e-02
-5.602874658254348300e-02
-4.986745106212085721e-02
-1.768226127097331790e-02
1.768541657557523572e-02
5.850678525336887315e-02
1.086933883953155461e-01
9.612275271965811663e-02
4.433499406747038601e-02
2.727025753404817288e-02
3.819486463956962841e-02
6.097279844716887304e-02
4.277448516661949696e-02
6.826384068893513735e-03
2.059387978100758049e-02
1.770775502597663614e-02
-1.305329365865044548e-02
-1.755714920008744767e-02
-1.587969220469609768e-02
-4.419212301454487901e-02
-9.922483303017794187e-02
-1.320594115177328443e-01
-1.518443900007123426e-01
-1.246837316833875609e-01
1.764090552750525315e-03
4.303980077493247541e-02
-3.842513345242946909e-02
-2.835332999977346197e-02
2.833809476066989630e-02
-1.176700258492220305e-02
-6.217235595180067853e-02
2.976492006707174599e-03
9.433038001874465006e-02
8.626188008538311636e-02
1.428669766889004988e-01
3.526945847037146198e-01
4.508169633335216697e-01
2.587234514276866570e-01
-5.015208800232522773e-02
-2.185094548252624891e-01
-3.046008502887429525e-01
-3.445802809905113007e-01
-1.679247145853243195e-01
-1.180164537096527883e-02
-1.579842777389069142e-02
6.351780083554794953e-02
7.439032252802366130e-02
-2.997286518924660581e-02
-3.291467804897796334e-02
-2.995584254321443513e-02
-7.748699638584473359e-02
-1.733697204730513530e-01
-2.384104828902600115e-01
-1.661515166601232885e-01
-1.049482267330111851e-01
6.916685557883976709e-02
3.153101367705921088e-01
1.974991994213360913e-01
-1.640924682669496482e-02
8.384341711827981991e-03
5.160568431656932520e-02
1.516801189942386940e-01
3.119462109179561016e-01
2.473109801896146154e-01
3.907853077416902771e-02
-3.026023360906627754e-02
1.332167635607324659e-02
9.030372166580159787e-02
1.877967290251344179e-01
1.460888934100366132e-01
-4.829549394667613516e-02
-2.895832495418129704e-01
-5.082915168241396442e-01
-4.315907155376644821e-01
-1.215163693748579493e-01
-8.259160548353529016e-03
-1.777691355070228768e-02
7.789157047596755035e-02
1.197199534596286447e-01
3.854298110223110252e-02
7.325512778802100670e-04
-2.725017515346428096e-02
-1.038101750919965816e-01
2.491341118274366211e-03
2.102290863500230478e-01
1.852465088347626798e-01
6.309191863996339855e-02
1.671156044692206910e-02
-2.267299036853829761e-02
-2.132504391412090583e-02
2.435878009191406665e-02
5.675873359794603168e-02
5.984398654510207638e-02
3.309684762617182835e-02
2.987189434644570239e-03
-2.561641696114052777e-02
-2.651985824447771270e-02
1.003215221893829188e-02
1.638056930440672312e-02
-1.894341596677759712e-02
-5.943264740279351893e-02
-7.397126591924203798e-02
-4.843739722977680184e-02
-3.138688757196211182e-02
-4.339706475497519950e-02
-7.225667996633768075e-02
-8.493357415236850450e-02
7.824176933656068868e-04
9.258106566204778176e-02
4.405023195576235340e-02
-4.895237432917261960e-02
-7.520956899654811234e-02
1.919433573883014277e-02
1.769726708748891042e-01
1.671806147563385248e-01
4.171232869775366031e-02
-1.058191196022606126e-02
-3.680300738706785563e-02
-1.567649283456210366e-02
4.077227597417693028e-02
7.843991599850164143e-03
-4.119847700675095120e-02
-3.108809019780605851e-02
-1.817009912766912386e-02
-1.736608916863739693e-02
-1.337663875734551935e-02
-2.687222505954308359e-03
5.543541896145759082e-03
9.995240404958765160e-03
1.493969844193710275e-02
1.049910237403381234e-02
7.888520529763902445e-03
1.545620754779475879e-02
1.436329478954334431e-02
2.883065495141729460e-03
-5.513173846595271869e-03
-1.280362445013308488e-02
-1.562497820971664279e-02
-8.961881543198789435e-03
-1.169440286104117543e-02
-1.896250109013997501e-02
-1.576010840243565261e-02
-1.317009745177338646e-02
-8.131038445848396551e-03
-2.757328957160272778e-03
-2.116920398798768314e-03
2.236253193360962337e-03
3.241921150986557063e-03
1.325536757135310165e-03
1.596448767932801428e-03
1.839078952337000559e-03
4.482375174352938585e-03
7.223153061048307420e-03
5.309823461782699726e-03
6.025911335446137128e-04
6.022548101895082613e-03
1.188490440289222995e-02
1.858977434851852382e-03
3.550475973119616015e-04
5.219510053857445535e-03
-2.509814200233335957e-03
-6.999967344985522089e-03
-1.233150952532504306e-02
-1.483079882454145862e-02
2.554966439190899889e-03
1.414308876270489040e-02
7.646180632617420939e-03
2.376341507870566912e-03
2.792409389424421566e-03
2.476011493830857467e-03
-2.473804772484373797e-03
-5.446430546373634204e-03
-1.931783198247705212e-04
6.708098053879467740e-03
1.069469568852502404e-02
9.409991686995397564e-03
-2.474615237761264557e-04
-1.484466264224317510e-02
-2.823267725433160208e-02
-3.102663543108319030e-02
-2.098626817857882076e-02
-8.781334950440120718e-03
1.434495323100476590e-04
5.756446508739508985e-03
9.750304812655371384e-03
1.184276055705384828e-02
5.877959550231414559e-03
3.415250285136645948e-03
1.372923219629715481e-02
1.737981349458465885e-02
1.088109923655980818e-02
7.875031103524632661e-03
6.173952185662094118e-03
2.192670213009541725e-03
-1.731465554341369206e-03
-1.934393800998420766e-03
2.179897240731483877e-03
6.094340625502536225e-03
1.060353386734702932e-02
1.523691733866521826e-02
1.903575140951732636e-02
2.208019448850193078e-02
1.115033944454140065e-02
-7.024624486114737151e-03
-8.655357175839709788e-03
-1.021696056581969554e-02
-2.076573238849942563e-02
-1.890717662689458609e-02
-1.421230635846194509e-02
-1.329365700699261695e-02
-9.302404055245334577e-03
-9.018653327813213813e-03
-4.441642417021498916e-03
-9.920225356771349839e-04
-6.632713448232973458e-03
-6.422303128268413118e-03
-7.560689031206215341e-03
-7.158968560661130298e-03
6.339980038614162483e-03
1.438878307836738944e-02
1.069557328888700275e-02
2.564032911337848011e-03
-1.585642634387838656e-03
3.472834758825178638e-03
1.153337452764872928e-02
1.451860059821585142e-02
-6.263131107241865251e-04
-1.442565191042801710e-02
-6.386277789141657502e-03
-1.856230016381211112e-04
2.592990047577266657e-03
2.591843095594085090e-03
-1.714219264829148961e-03
9.382509702701387344e-03
1.997279877087030850e-02
2.072209030378911049e-02
1.548296465829993203e-02
3.757807327418474438e-03
1.256207003965231772e-02
2.160292041117122669e-02
1.551785306080366101e-03
-1.882300515000491850e-02
-2.718217798280497463e-02
-2.148931770118437876e-02
-5.073711560083751793e-03
4.619753641101803469e-03
6.065371053455862957e-03
8.414204424270746354e-04
3.904378033839711539e-05
2.234185857778471593e-03
-5.159261977901155073e-03
-8.586644396588105285e-03
-7.017622163040054817e-03
-8.176196377847288338e-03
-1.444201164710763943e-02
-2.728158289720333460e-02
-2.317178735202440540e-02
-2.208758033251731077e-04
1.498164560682828730e-02
1.804134581244790439e-02
1.390570925221385444e-02
5.461185655098440249e-03
-5.665395958364713262e-03
-1.176570151519635947e-02
-4.442646978067885978e-03
3.032496728577429700e-03
2.487323486698131934e-03
2.479767069898715631e-03
9.442572430853260826e-03
2.167366282983144640e-02
2.536027918256783531e-02
1.760240184760816784e-02
8.435846701456284000e-03
-4.057794657450313792e-03
-1.693018124354746246e-02
-1.978504926034291636e-02
-1.611621540404005806e-02
-1.073501345336766791e-02
-4.943010360080769307e-03
-3.215190994688983781e-04
8.832174493762509973e-03
1.650477156092017630e-02
1.009241749546656471e-02
1.435925441788441555e-03
1.525045937808624207e-03
2.495427139716188420e-03
4.366615347304517300e-04
-3.727901004435673661e-03
-5.380335163178830669e-03
1.092592493425737854e-03
5.748004616081643300e-03
1.111609959542803451e-03
1.745967626073229896e-03
6.950655866664506681e-03
4.691313980951209600e-04
-7.300184958740404267e-03
-7.273877951372593326e-03
-5.295906959722447745e-03
-5.147049003173989178e-04
7.651298700429307389e-04
7.863433822130924504e-04
6.427569374095142181e-03
8.205133128598111197e-03
4.404306588760324541e-03
-4.015257694214909891e-03
-1.016037533766274946e-02
-3.788430237429880193e-03
-2.621071207306982552e-04
-6.314123390427339375e-03
-8.901548331102656156e-03
-5.226695563595875650e-03
-3.680398370838934303e-05
1.488985263392658340e-03
1.012808044926559676e-03
-6.983644767879085627e-04
-3.104993378878981043e-03
-6.619266918768348679e-04
1.312690729141736609e-03
1.711227800451125148e-03
4.418609834126813185e-03
2.326419929100244800e-03
-3.644755696398666554e-03
-6.533401482580226093e-03
-5.739464608262231926e-03
-3.629846939670648524e-03
-4.399034772677288055e-03
-4.134303841309930339e-03
7.059278803082161095e-03
1.976465221059280075e-02
1.470081910340482155e-02
5.741529388006406942e-03
1.059252478325923771e-02
1.086882262949663731e-02
-6.378637518937399931e-04
-6.834803250467634886e-03
-5.907030695676538691e-04
4.672606983009698102e-03
-5.734111975503342236e-03
-1.410363716039515769e-02
-8.722451198494985194e-03
-7.126373289382233536e-03
-8.298380992070052142e-03
-5.053334739018812763e-03
1.069359880955532676e-03
1.127339151623670509e-02
1.791447318909115266e-02
1.205548101835797123e-02
-3.493779869027801785e-03
-1.024525696985087095e-02
-5.292349760997316389e-03
-9.780325953869803760e-03
-1.152370520505681395e-02
3.848199306818156015e-03
1.091452327036766638e-02
5.623206081957187082e-03
4.419123402257411903e-03
1.829665245176836800e-03
-6.604837176701012016e-03
-7.583854418875040672e-03
1.240072582411679046e-03
3.111956564430586394e-03
3.390779886327513135e-04
3.892591140293519790e-03
4.976173531454003603e-03
3.481039478393611625e-03
1.626613638505440204e-03
-4.189452838522803035e-03
-6.422275091215076150e-03
-5.851586999978038509e-03
-4.701171886516124047e-03
-2.094965763842506455e-03
-2.983672179661278623e-03
-1.035623708430310347e-03
1.894091230918981076e-03
-1.647178751378203373e-03
-3.982905694866146519e-03
-2.819423034460758620e-03
2.467646045835358935e-03
7.758535501552891664e-03
5.984229230554368763e-03
4.106071744466174671e-03
2.469163492865888206e-03
-1.081543472871980853e-03
-6.350915140371762337e-03
-1.303382421659216722e-02
-8.367536152013793985e-03
1.980162751872859266e-03
3.937138261413028126e-03
4.193003098638699473e-03
2.398115506577106794e-03
-1.241414190060850450e-03
3.894429199190592656e-06
2.292688962457740433e-03
2.413221444437864231e-03
5.025339597561486816e-04
-5.691371833025714137e-04
1.552703880763138316e-03
3.105052338738495225e-03
4.729855590247103621e-03
8.116250382781683287e-03
4.712694482155551506e-03
-3.328445741043254726e-03
-1.884589899153319825e-03
-6.371972864165618457e-04
-3.098148843520264709e-03
2.256827064373939651e-03
-4.996652513595825022e-04
-5.690037520147166010e-03
7.570097085208196534e-05
-7.981272744622543505e-03
-1.894832038347095057e-02
-1.065863964285970397e-02
6.084921650677925248e-04
6.141790367977465609e-03
5.386064968754595075e-03
1.120896436465131747e-03
-1.091247281750080782e-03
3.690628131475514879e-04
1.715469793184367644e-03
-4.882900587453962125e-03
-6.866351021142575242e-03
-2.423895944455759389e-03
-2.999671710994813133e-03
-3.192348154739007540e-04
2.636325602154101014e-03
5.225766040199602072e-03
9.097432597637471544e-03
4.425814867570397604e-03
-1.140021689282189662e-03
-4.489579389847315506e-03
-1.467773270793333194e-03
7.068244484975663364e-03
2.344329385791384546e-03
-4.468698872400712549e-03
-6.738289007826367763e-03
-9.804328396028891279e-03
-5.304762766451372180e-03
-2.461914330551010985e-03
2.138713198972984342e-03
8.601543007939541075e-03
-1.449732442914218990e-04
-5.297371248564591156e-03
4.110581572085695743e-04
9.830603166021195313e-04
1.072344045089879344e-03
2.244171781375787524e-03
1.355324642751315044e-03
8.933724335542041727e-04
4.557107174144511006e-04
-2.429704279955749967e-03
-4.841889625970674862e-03
-2.603299660078149148e-03
-1.545140891233321052e-03
-2.701826405389965574e-03
-5.306647102989657007e-03
-9.917762876927332938e-03
-5.116117016782576084e-03
9.164513249305851136e-03
1.900140119727032964e-02
1.731904067080439896e-02
1.012425356637999818e-02
2.003486503809865423e-03
-1.508907669213842631e-02
-2.563608308948138806e-02
-1.419127816109609468e-02
7.598429551998775759e-04
1.167948692018209826e-02
1.383471165909811937e-02
4.790765567996503778e-03
-1.192694239272785181e-03
-4.198505407784612446e-03
-2.547950000139707037e-03
5.448191950747098469e-04
-3.095000056565010583e-03
-1.017902658665393277e-03
-1.481854362325105146e-03
-9.259952128383640638e-03
-6.951908281182798965e-03
-1.369720366337204547e-03
2.148118951103488144e-03
1.513132109733326741e-03
-3.861476095345781588e-03
-1.289744583909487388e-03
-2.778433319875624977e-04
-2.087764460560447618e-03
3.063044868274642733e-03
3.560173867803853760e-03
2.131933679897358384e-03
2.376428297396774615e-03
1.144266354914031986e-05
4.149224595376185386e-04
3.175492087069635818e-04
1.813978479274146139e-03
4.309832471173989134e-03
-9.130290728445061323e-04
-5.292919126191019535e-03
-5.580399906566421535e-03
-4.012082505052830435e-03
-6.118940640135933423e-04
-2.553784119911170318e-03
-2.708714181037845826e-03
2.639040810931869447e-03
4.113234313652276144e-05
-6.192673169949510295e-03
-1.781923909558460811e-03
8.586151725651375993e-03
9.775270527400145223e-03
2.442968860445469438e-03
-1.647341813572202529e-03
-4.528512177696873003e-03
-8.270151715121775923e-03
-6.898607571655923296e-03
-5.042682039569285936e-04
8.414589874087545496e-03
9.511131366432976769e-03
2.373090564924941036e-03
3.311291598705375268e-03
2.633722910116171895e-03
-4.206696360544603941e-03
-1.209156816200310106e-03
-1.492899289123430281e-03
-4.211210340883603416e-03
2.450342407336260526e-03
7.038597542846665575e-04
-2.417148641753969016e-04
5.114421496570021285e-03
-1.755827715798646219e-03
-5.446415458800761729e-03
-3.193328953586118540e-03
-6.093202824236658779e-03
-5.052339663404281471e-03
-5.470907449302379703e-03
-5.442441532991047250e-03
6.759164776171855318e-04
1.504641846782286138e-03
-1.536968917467134593e-04
-8.962349247942251245e-04
-1.332918901004908913e-03
1.984759044695309955e-03
3.497477671933109118e-03
2.129096006202613536e-03
2.893629304032446672e-04
-2.341131227047316479e-03
-4.886108380852219671e-03
-6.046897070018901130e-03
-2.716993841279358255e-03
7.889707566556400029e-04
3.767028041033353754e-03
6.963831646263143015e-03
1.100489813850598960e-03
-2.164945979556295169e-03
4.615461940514697763e-03
5.232611709639302042e-03
6.571658107806440177e-03
9.143149724572209244e-03
-1.205102233133074853e-04
-5.679063786213056284e-03
-2.859869852764087336e-03
3.743199397774280425e-04
4.212251522468396861e-03
-6.320101445325058791e-04
-5.864993099028800554e-03
-2.907288508188709923e-03
-2.901555956445548302e-03
-1.213141492333178395e-03
1.213133805785301901e-03
-1.571655080990575284e-03
-2.332442801479475344e-03
-2.521633678760651538e-03
-1.737639959874065238e-03
-1.184592829959850132e-03
-2.426835603682540605e-03
1.668789232367705539e-03
2.426825161718733966e-03
-2.259715002767260627e-03
-2.259763518070500698e-03
-1.250469726832741492e-03
-1.570263034638628681e-03
-2.599158317687877591e-03
-2.885799054733135215e-03
-2.097159484606733997e-03
7.589737855054402328e-04
9.125896878349241959e-03
8.556414171828037943e-03
2.028336362327810491e-03
5.376116503968624005e-03
1.562491211416777801e-03
-4.732229911112529296e-03
8.384499688293568093e-04
-9.358109204758237364e-04
-7.067538927095841014e-03
-3.975964100291347510e-03
1.185826129755451893e-03
4.228387745156020339e-03
4.214449623755322019e-03
3.511048536109160657e-03
8.303940214076606157e-04
-5.621103841320483456e-03
-6.253272447090804306e-03
-3.226224875700767734e-03
-3.734757080539881629e-03
-3.533843326940527656e-03
-3.202134014233539404e-03
-5.142813826463804062e-03
-3.946902054741963095e-03
3.246637793585318253e-03
7.337391252083824700e-03
3.573539017634495569e-03
8.130199371354072556e-04
8.229660770832582413e-04
1.325325342196272864e-04
-3.286454272111979068e-03
-6.777861939718386047e-03
3.924435582686362583e-04
4.958360278953613011e-03
-4.946198367158304368e-03
-6.878812815032223776e-03
-1.014166297024608082e-05
3.493589489000181129e-03
7.301476098002948091e-03
6.429048155084428513e-03
5.099979039162287273e-03
5.660686677991542091e-03
-8.707694289349783264e-04
-3.348142570489092296e-03
2.289649613328952234e-03
6.361768411869614219e-03
6.376221149419025389e-03
6.596106045385786293e-04
-3.298129748991414801e-03
-2.614928271332162771e-03
-3.833340456665083537e-03
-3.942329210747675880e-03
-1.622147316732597180e-03
2.831292645893246449e-03
5.086677589348868704e-03
-2.119128509985527837e-03
-6.126189481020457607e-03
-4.140428474666364082e-04
2.358907479636000986e-03
2.655094516312868531e-03
5.238461169662063724e-03
1.428704566053292822e-03
-1.326139889735238747e-02
-1.923602573177103300e-02
-5.507258990884995702e-03
2.651522444089931835e-03
-1.634611801187938482e-04
6.377684853912828685e-04
-2.431865290586174115e-03
-4.270815441316168359e-03
3.644402664265523374e-03
8.095563995031224147e-03
3.293706604037642365e-03
-5.670072242025266107e-03
-8.380651324464019267e-03
-3.134931250591914062e-03
1.572457209855725006e-03
5.622527988736204449e-03
6.849663721531082036e-03
4.877538258096948166e-03
1.041266721180547248e-03
-1.073412450020233251e-03
4.521727558117113847e-03
3.830310423422544821e-03
-3.587797560200713500e-04
3.978044400500843451e-03
1.076424728245118810e-03
-1.402109624940156606e-03
2.682283692139803086e-03
-3.102347193198624290e-03
-5.499443783461317216e-03
2.162480306728546686e-03
5.275489189409373128e-03
1.225182418761499225e-03
-5.271912065410846136e-03
-6.463104210381819502e-03
-2.149606886618480109e-03
2.731513528620775275e-03
4.755599000567793319e-03
3.158737722274117688e-03
3.429978305724443351e-03
3.420611902600352149e-04
-7.189776738175155703e-03
-6.721348736014625368e-03
-2.156885086674665154e-03
-1.257582832985854049e-03
-1.798465895496324622e-03
-3.223722715631031042e-03
-3.487950884266344254e-03
-2.892367768569992226e-03
-3.558046687547923581e-04
7.403859725967039569e-03
7.242080424735826069e-03
5.503945334121721281e-04
7.363502425658905760e-03
5.045126507586982466e-03
-1.663139380518895150e-02
-1.456747958273144419e-02
6.138328744203229610e-03
1.021036287226563186e-02
4.531636807791067888e-03
-5.330090559524391664e-05
-2.499879714972789296e-03
-2.737615627289468299e-03
-6.646057161647297030e-04
3.063548152784290567e-03
1.634939639551179777e-03
-1.209392624607672113e-03
-2.438371980165453083e-03
-2.898389539271986788e-03
5.131681827428896583e-04
8.667283338626511615e-04
1.203787454396891207e-03
2.369469388863835579e-03
-4.208417617584116546e-03
-5.626501506391275165e-03
-4.339093643399808287e-04
-6.978132291323814256e-05
-9.703653223437985146e-04
-1.845172645031410404e-03
3.433984389138642051e-04
3.371664178869708886e-03
-7.817862783194753484e-04
-3.142857253476412805e-03
2.311451918690674272e-03
8.788536721369661492e-03
9.428061921290354502e-03
3.592625488222945477e-03
4.881090235777467141e-04
-1.069715620840153077e-04
-3.341580972959883912e-03
-2.781728339192779571e-03
5.761432760961811717e-04
-4.974202616799409992e-04
-7.488767700332192752e-03
-1.371972789628926777e-02
-5.488099096183870519e-03
7.098955353559649115e-03
7.005851258727717641e-03
4.853389916751983842e-03
2.746436491823642679e-03
-3.748653591029957408e-03
-5.842109007193519929e-03
-1.888820943823961733e-03
4.285793184226796559e-03
5.222409006493077682e-03
3.908895883980199708e-03
6.574526452243808182e-03
1.159380942768299411e-03
-3.936057908989674947e-03
-3.826029125549151042e-04
-3.561637449472374994e-03
-5.255511691240243900e-03
7.140728044665226428e-04
2.658450431561372711e-03
8.660622612434218772e-04
-3.150538894617150362e-03
-6.212453426832347837e-03
-4.401312584062552768e-03
-9.985138438992277599e-04
2.823686295674841004e-06
-1.285669040711855896e-03
-2.691609540321258411e-03
-5.995292513486592811e-03
-6.037666378403580732e-03
3.621275316251784606e-04
3.396564365181965316e-03
3.611728724302777291e-03
5.266971244435040417e-03
3.983242177900860395e-03
-2.442278271200119854e-04
-8.103006309787174266e-04
4.250053512403375970e-03
5.732493913892115593e-03
2.617280347951398637e-03
1.635353193796076606e-03
3.475529052556586024e-03
6.415648937247457086e-03
4.057745200410424989e-03
2.809191008423746454e-03
4.505778894490129749e-03
-4.684155354627890164e-03
-7.792843014886813822e-03
1.200870204339028920e-03
1.564880521746725948e-03
3.871747483851322434e-04
-3.350311798468866026e-03
-1.282189828488550058e-02
-1.134421990722980084e-02
-6.894385258079622179e-03
-4.828804797002814349e-03
2.674012953147800187e-03
6.280135850625251717e-03
3.494058605910000531e-03
-9.417067021900010770e-04
-7.163494354992159217e-03
-8.579622959928907486e-03
-6.897087467834546589e-04
7.786993075498022630e-03
7.452425943575299860e-03
2.572643438649531954e-03
1.090480723878640848e-03
1.976253048171667907e-03
-1.168217838963139018e-03
-4.024848295873348532e-03
5.016934131977976961e-03
1.314826301532081264e-02
7.000783520249225650e-03
1.252778341812347705e-03
1.030404573152405700e-03
-1.338835800894225313e-03
-4.840642012070178225e-03
-2.831533449614788769e-03
3.753389888650359232e-03
2.319733551197662204e-03
-2.239670920366988380e-03
-1.825003228915934991e-03
-6.726824742015606248e-03
-1.091581163271286570e-02
-4.178013887133971704e-03
4.633270621963255301e-03
5.169433126298680035e-03
1.155118288118702407e-03
5.854535335417651240e-04
-6.323846663741348496e-03
-1.299485701708021600e-02
-1.758454022398854479e-03
6.583171588094258696e-03
3.484461716430494252e-03
4.909124121850607682e-03
4.946701415772788990e-03
1.131515091321062729e-03
3.200926635046717349e-04
-8.064448599906178005e-04
-1.922963810270118985e-03
7.335548156507460315e-04
-1.230795471126314633e-05
-5.453402417663096372e-03
-2.323299092722678084e-03
5.243097437387215370e-03
6.032967944962127835e-03
3.475149223887673451e-03
-1.633214335307924458e-03
-5.149505438686041020e-03
-4.495378092379344152e-03
-4.280665995136633158e-03
-2.195072098570727270e-03
-4.129443164774772496e-05
-5.371400442063194560e-04
-2.765780230325972072e-03
-3.048780598665409413e-03
3.806240461309212415e-03
6.226339197121198710e-03
1.592122992766181180e-03
1.959835397206472624e-03
1.700277954307983369e-03
8.068548053166997970e-04
3.922044386395455093e-03
2.222763881401101840e-03
-8.351719115739091341e-04
5.513796949971218721e-04
1.508310498060620643e-03
2.257966029215394133e-03
-1.014199976832709716e-04
-4.293491243340873467e-03
-2.089255772984443692e-04
3.688080962506310161e-03
1.949392743405201642e-03
3.696081696878916051e-03
2.617175331437097507e-04
-6.338429706620390264e-03
-4.700761759542516037e-03
-5.865245129501373000e-03
-6.124007912784974229e-03
-2.287407775441423294e-03
-7.814996831532699736e-03
-1.056355439957079069e-02
-2.195313338598548457e-03
2.664872132939488832e-03
2.155317416165741535e-03
5.358047340587070162e-03
1.012449556786033066e-02
5.062815957209739447e-03
-2.466673269722952696e-03
1.007082069047287058e-03
5.423595756810223670e-03
2.360461603451342611e-03
-2.371069017414939670e-03
-3.193334517417480319e-03
-1.044466964252801925e-04
1.348567065892326920e-03
-1.504781628748798642e-03
-3.910487521926221677e-03
-3.429726270765867105e-04
3.378505011640166658e-03
2.084381680545276984e-03
3.128772959559944240e-03
4.139827821590914662e-03
7.679448169402317221e-04
-6.042088235899229984e-04
5.770088391519764782e-04
1.690955658363228146e-03
-1.019459087186867438e-03
-5.737902239991390929e-03
-4.659658866646781798e-03
-3.551692845876989503e-03
-4.047401882111783741e-03
1.013472974049472661e-03
3.968626515854813998e-03
-1.368556252688250905e-03
-5.213516473485253246e-03
6.442242239319119577e-04
7.897228868122416895e-03
6.295072946986530506e-03
2.631586200147677940e-03
-3.631873593619832090e-05
-5.299121200400176875e-03
-4.829661656591317624e-03
3.614122342695955050e-04
1.406747434331547366e-03
-1.764662704902691405e-04
-4.039090982420855125e-03
-3.210288320544913906e-03
1.785456840811122268e-03
-2.457116920995701219e-03
-2.909419527066050420e-03
3.817084594883233487e-03
1.002388038125630798e-03
-7.377900406990344428e-05
2.399302951817185690e-03
3.288823353157443140e-04
-2.093094297229932711e-04
-3.345849224286834896e-03
-4.576810743758861306e-04
7.417643621209195001e-03
1.376522689698864241e-03
-3.642250955777972046e-03
-2.115254102924688743e-03
-4.159983913807680476e-03
-2.228610675584155251e-03
6.514507022240716757e-05
1.262042893842023079e-03
1.819597464360179703e-03
-4.061124769321598771e-03
-5.017896569267554091e-03
1.168557032512294478e-03
4.950158642553308813e-03
6.135782453025193962e-03
4.614334270576644741e-03
1.065050074099968894e-03
-2.850784444802716231e-03
-3.078684154811384133e-03
8.434963669956676907e-04
6.557192345446236602e-04
-3.716257773111570576e-03
-3.589399844008737961e-03
1.048137116518167060e-03
4.699018577240871215e-04
1.672318044057782599e-04
5.845555523762853943e-03
3.178979450940706830e-03
-1.224911823442043904e-03
1.449475040775741273e-03
2.581824294681223900e-04
-1.857087475063781034e-05
3.038780760433104980e-03
6.344557022263422677e-03
7.430940974146771523e-03
-1.100708634766572793e-03
-9.891331193637170269e-03
-1.144666646014595029e-02
-5.949195821271687813e-03
-7.093015260917410981e-04
-3.614981523151697494e-03
4.157522023270293437e-04
3.789412595411187183e-03
-9.528229360342209235e-04
1.482641535827360600e-03
-1.853849679478259760e-03
-3.474205126229434632e-03
5.135595807239178023e-03
2.991567046508673746e-03
1.056275029903652870e-03
9.452885416027324633e-04
-3.663703312584458676e-03
-1.628668137128502021e-04
2.704843780473920913e-03
1.501087147756500302e-03
7.970547956862752254e-05
-4.124033527117246592e-03
-5.238236591878532578e-03
-6.972445056733990627e-04
5.725354669342706468e-03
5.221133134438464031e-03
2.761682309015889378e-03
4.533719404364610663e-03
6.636935811224688609e-04
-2.852575181098355919e-03
-1.583473973378843411e-03
8.597411203204250851e-04
-2.140441414217321393e-04
-8.676115726213675869e-03
-6.532266565988479289e-03
-1.489453707251267925e-03
-3.435030290120971025e-03
4.371886811076233260e-03
2.430248361021973905e-03
-8.160522427337221080e-03
-4.145994639847659299e-03
-1.537555250313703162e-04
2.992998140865425413e-03
5.601861651156636070e-03
4.536205518410368204e-03
9.989697164056801637e-03
1.156084494749529991e-02
8.443874037361173701e-03
3.963107339664218194e-03
-5.091049059608279519e-03
-2.273325298620786604e-03
4.889549243689126148e-03
-5.229074078643515316e-04
-6.778927884870568008e-03
-9.374967703184543255e-03
-9.378724953147071428e-03
-6.542481232543084779e-03
-6.417281903658844308e-03
-2.345551814785699386e-03
6.512075988846463895e-03
3.771362200385905243e-03
-4.496394857991356693e-03
5.809834242006923447e-04
5.486879102059681081e-03
-5.083656420607735905e-03
-9.070633993379088877e-03
4.854497617903670223e-03
8.521001740136377803e-03
