3.514091183154409177e-03
-1.557903753418901508e-03
-5.152288574189476875e-03
-7.399499815423562360e-03
-1.172097334915945394e-02
-1.084661798480751616e-02
-5.655131692322592357e-03
-8.561626180083072284e-04
1.013064660765079740e-03
-1.770625105273573993e-03
-1.722795538292683703e-03
3.773398682987392627e-03
1.126665541334297659e-02
1.694634603839104831e-02
1.324562151781861000e-02
6.481100394018151495e-03
3.382265740440009404e-03
-2.168155606342545786e-03
-2.945655083849715514e-03
3.876628950374419371e-03
5.138697555698163062e-03
2.018689266348584841e-03
-2.106532385642047745e-03
-8.146900549706223571e-03
-5.902207837770928611e-03
1.802346374683243225e-03
2.169627249825498323e-03
-3.633173090603014849e-04
-1.397604651054049204e-03
-1.928673615163623055e-03
-1.277080865943094456e-03
-2.050260385201060215e-03
1.068754421825719855e-03
7.091298829235226711e-03
3.642109032062427511e-03
-3.737549079240032237e-03
-6.668389433484546262e-03
-5.010826242423843495e-03
1.321494091602159115e-03
4.797594956091283912e-03
6.074787342266424299e-03
4.178709122527265313e-03
-8.050902136246164062e-03
-1.365584381065845440e-02
-5.581609878012457407e-03
8.145483645491550856e-04
4.375934223053903199e-03
4.323670102740441099e-03
5.097466812226815035e-04
-1.053397167320758564e-03
-3.881154467478888873e-03
-5.174480866099138120e-03
-9.009960196122426747e-05
4.390443132342439041e-03
4.440250330638321162e-03
9.676617536741334959e-04
-2.085998717484111118e-03
-1.366603405283579138e-03
-1.341195899344656143e-03
-1.253041322861343657e-03
2.879275189041514797e-03
5.083798537253224163e-03
3.295537086486181357e-03
1.239224987420730392e-03
-1.492666504241815101e-03
-2.997369525586893071e-04
4.176369262902479389e-03
1.883702186311228717e-03
-1.882651901020986930e-03
-8.572525265642258951e-04
-1.424558771570972942e-03
-1.646775132550577997e-03
2.015651007936948656e-03
5.989187661538311960e-03
6.605373040563436611e-03
4.467100176872446375e-04
-7.008943393009129698e-03
-6.641518700337776387e-03
-1.229892853578319362e-03
1.900143600296262539e-03
1.789131688532397124e-03
7.710216768550135413e-04
-1.152145454117556094e-03
-1.978947308209717294e-03
6.481457257415329867e-04
1.541515476993727315e-03
1.240540335544858437e-03
3.584063127951234422e-03
2.582777928583191536e-04
-8.007882904337782631e-03
-9.776497971186796226e-03
-5.342602057271807203e-03
5.601003066635030570e-05
3.717385596517384233e-03
7.064005201266356816e-03
7.873513446206544322e-03
-1.009778547984059626e-03
-8.673080006073620452e-03
-6.285668169561106806e-03
-1.897272933291664632e-03
4.112630102233857596e-03
4.674148337435368207e-03
-1.814747784534235554e-03
-5.052522550430914436e-04
1.215585452544482286e-03
4.009190269660078379e-04
7.221262782566887153e-03
8.278060679130241906e-03
8.035517010209985251e-04
-2.691968588204045245e-03
-4.876207076607598327e-03
-4.430649424808961491e-03
2.688355774449919904e-03
6.459758460622170954e-03
2.659079125577252112e-03
1.536583165406682819e-04
-7.475248654022928572e-04
-3.051079058003448776e-03
-2.696404685361429403e-03
-1.566212569405406709e-03
2.015178428379020797e-04
2.226087737482837243e-03
-6.706412297884101203e-04
-2.564229185323364628e-03
-2.295783355942346369e-03
-1.448925908310274646e-03
4.231240777889990964e-03
5.560929607640566381e-03
7.701299649868746265e-04
-2.480396000216565210e-03
-5.644911587233316513e-03
-5.178622063885282394e-03
-6.078356474317858464e-04
1.792548693363937374e-03
1.948105601747031649e-03
3.392554333226150982e-03
4.243861616230717310e-03
-1.417332799514449100e-03
-4.968924845766623834e-03
7.866915336792485326e-04
5.050378572597521813e-03
3.110124130711358105e-03
-1.362541306778535400e-03
-3.797889744945410519e-03
-4.821457459014901956e-03
-5.830640120649071244e-03
3.777535387558487306e-04
6.132022360447645683e-03
3.467623404152954999e-03
8.599456264442142993e-04
-2.053771397001521309e-03
-3.077609044664161072e-03
7.272265570701272027e-04
3.298776643115384523e-03
5.522182321393508640e-03
5.119239422765544181e-03
-3.488534402245612744e-04
-5.473838165141902724e-03
-5.733926767922042228e-03
-5.605552622114698923e-04
2.478113063714950087e-03
1.521498776517680486e-03
1.099312736116165277e-03
2.953191281056096666e-04
-1.699001544192701052e-04
1.775649071006823380e-04
2.122987665203939465e-03
2.746482959451655020e-03
-2.029715256894645391e-03
-3.065286067908614027e-03
-2.456685647526561569e-03
-6.437423183630610994e-03
-2.737518485650681978e-03
4.816239857161414700e-03
4.738458677892721203e-03
1.440047400399357188e-03
-1.967472830732749142e-03
-2.101753158057037985e-03
-6.166725723332927046e-04
-6.913423587017818823e-04
1.718356710212527770e-03
1.542931916362729611e-03
9.291755012430918123e-04
5.204214074643652779e-03
2.132550152460925379e-03
-2.093705959440290195e-03
4.845230897514968445e-03
5.246576401462750387e-03
-3.317092550288047552e-03
-3.364547743551168403e-03
-2.650993770214266857e-03
-5.026795547839647479e-03
-2.875029780537218492e-03
-7.612702347617723506e-03
-9.397404861053384670e-03
3.691157920076446920e-03
4.446087018877725380e-03
-4.508905592174940712e-03
-3.577286662636967700e-03
-1.373976009249760740e-03
4.018952564946774372e-03
9.756841174574133399e-03
7.778898390499343167e-03
3.996693681112163145e-03
-3.817039698004359759e-04
-1.779324158255953144e-04
2.460369025453764541e-03
2.827380133100630341e-03
3.189882739691159673e-03
-2.555602396133235289e-03
-5.358530770079897657e-03
-1.604144759267401394e-03
9.319529453488479198e-04
6.550234461881130829e-03
6.581323881678223520e-03
4.076310832102083941e-03
3.208031423574571762e-03
-3.380157650491719470e-03
-2.067838141958916313e-04
-3.406099757211368366e-03
-2.163476438972449997e-02
-1.546538429176709875e-02
1.249530896073472366e-03
1.298264476047125042e-03
-1.560527956001489264e-03
-2.719737484853795850e-03
-2.138071183261709316e-04
4.418629605959165096e-03
5.815698321038891005e-03
5.231930674872409780e-03
1.928692030860388977e-04
-2.967431736685355922e-03
1.603433751510010066e-03
5.324550712436062344e-03
5.188781848427765492e-03
5.391306623971977609e-03
1.990589139338926755e-03
-3.773489508989285278e-03
-1.685476043444363546e-03
9.981992666428561936e-04
-4.040737512767826655e-04
1.345127287457400112e-03
1.124500040599289621e-03
-4.791029686595651787e-04
-3.091090458407370553e-03
-5.936597239618600190e-03
1.476003213447178806e-03
5.693459770563997699e-03
-9.455549365616779632e-04
-4.658851847292195050e-03
-6.238156934249788552e-03
-4.519803851320247992e-03
5.054897196760605241e-04
1.130215970859037647e-03
1.504417909612481121e-03
3.878303500379352581e-03
3.088569032604829637e-03
-6.297336558753343998e-05
-1.286901422040203800e-03
-1.538668474958946935e-03
-6.672835752099959142e-04
1.995414266941792931e-03
1.767458717751610063e-03
7.461508311116936843e-04
7.338797624683097336e-04
1.686288280293279668e-03
4.944936200211210060e-03
4.959872806810899058e-03
4.249741162982227996e-03
4.555133022616875225e-04
-5.672488588592013506e-03
-6.641538455732375230e-04
-2.183780385321725231e-03
-1.114255441584713346e-02
-3.557469354705260992e-03
2.110472167626901031e-03
-2.519550057615465959e-03
-3.874094441435862492e-03
-2.911935279400131547e-03
1.246712811427536788e-03
3.612559047035453653e-03
4.300252410264460493e-03
3.626651968516425312e-03
-3.321813636304336761e-03
-4.556162746295049949e-03
4.815226676317060656e-04
5.015068416210136798e-03
7.938065808863007181e-03
2.578335500130637600e-03
-3.293172696502898785e-03
-5.404651175041850705e-03
-5.685962094416832126e-03
-3.517462098129868118e-04
3.375372144381131364e-03
6.304015598348728690e-03
6.461924170530503747e-03
-1.544456204249301107e-03
-3.453733872281054742e-03
-1.957046433866710400e-03
-3.077353877187234427e-03
2.598817247826722045e-03
5.083211027193661191e-03
-1.265902651704467366e-04
-2.697673759644276885e-04
9.568655177996723826e-04
-2.502152978955909067e-03
-3.045746117902480531e-03
-1.060947234451772902e-03
-1.714944436481622043e-03
-1.267680751845410778e-03
-1.413722708388753108e-03
-2.179973795047335239e-03
8.977450896341566825e-04
3.435537462804732697e-03
4.961241674352659566e-03
3.586151868944099930e-03
-1.762570619365717980e-03
-3.735833597081132836e-03
-4.332450127429338625e-03
-1.190991650012437073e-03
4.431453410113043480e-03
2.135742717118801343e-03
1.405096701802301378e-03
1.626323637403580052e-03
-5.091384200528232054e-03
-4.355627494678333822e-03
2.939051048609894572e-03
3.812168286002527978e-03
1.201396042698754229e-03
1.108273921367524870e-04
-1.139186841231799212e-03
-3.700034515185220488e-03
-2.132281166690969815e-03
2.335890640433700618e-03
3.743914974532523351e-03
4.333216940556741843e-03
1.934752899246566186e-03
-3.372679259938698992e-03
-4.760831247561728152e-03
-3.003498364269797331e-03
1.284700210351018236e-03
4.598550457517791741e-03
1.328593468425665752e-03
-1.529940686291042474e-03
-1.492054409516034401e-03
-2.016326906462893604e-03
1.841151184508977396e-03
6.685279321998384254e-03
5.495396918210848983e-03
-4.648262744991649869e-04
-8.190287722110663887e-03
-8.787743186910950896e-03
-2.374348551307882242e-03
5.719663441306850268e-04
2.023245901455506066e-03
3.612491986220436706e-03
1.659521620067887834e-03
-2.538380740184425274e-03
-5.293904454937036277e-03
-2.175037542277189189e-03
2.942108492027676117e-03
6.199644645575940610e-03
6.964579341396234455e-03
5.557752761043483663e-04
-4.147232887510528439e-03
-5.786465041011752339e-04
1.621558291281324522e-03
1.326779256850017102e-03
-3.147089906155425268e-04
-4.332776320373103035e-03
-6.779713081515325451e-03
-6.712758244308308052e-03
-4.325494469940353165e-03
-1.233801975806394320e-04
4.697669448955173188e-03
7.038324169888002420e-03
3.492731071633521384e-03
-6.290415407825017836e-04
-2.692564111557915404e-03
-3.848206747019378496e-03
1.432482557626499451e-04
3.721185448570960008e-03
1.294148003802204818e-03
1.535215908418349371e-03
4.253562562166134618e-03
4.559824266845502808e-03
6.142024207368787340e-03
6.178201768554735830e-03
3.051605779053169400e-03
7.770855859112722492e-04
-2.304041589927624707e-03
-5.970383172955367156e-03
-6.633774188044417111e-03
-5.628023607673823814e-04
6.553673535289567323e-03
6.378156925909101403e-03
5.352275193793065017e-03
1.909786142015993705e-03
-1.341694758889037161e-03
-1.203377253834932072e-03
-1.984738363786095125e-02
-3.436862025309156410e-02
-1.451435744178410266e-02
1.805776650259837118e-03
3.633880469720218807e-03
7.596430123042719612e-03
7.019157806685450036e-03
7.335714749167670731e-03
6.714148740146300663e-03
-4.930461120077251659e-04
-3.400438062411279255e-03
-1.844836041679849114e-03
-2.055592112268818123e-03
-1.945598259190612104e-03
2.747202433031223530e-03
6.098626889814743809e-03
4.509389860977126331e-03
3.032639371840147383e-03
9.317187616560294785e-04
3.167348060779924014e-03
7.440017601487550029e-03
5.353216375153150783e-03
2.677880882391846327e-03
-5.573976886219612686e-04
-1.247600908499470933e-03
8.839388783483337559e-04
-1.090747874615283176e-03
2.323488092484987839e-03
5.052993994073463717e-03
-1.776456037297328028e-03
-5.714923026002492051e-03
-5.481625037960741707e-03
-3.683957964180453650e-03
-2.862361559719029704e-03
-2.098324638675147426e-03
2.622022979872741001e-03
-5.068776067850587009e-04
-6.781353197272014209e-03
-3.415875421726709184e-03
-5.773727328738710064e-04
-1.240575740131474175e-03
-8.414675504663922346e-04
-2.380316299058464567e-03
-5.769539006740358883e-03
-6.028647768390960927e-03
-4.124620791680265464e-03
-1.645583065071623378e-03
7.158105492599886772e-03
1.183129914905649803e-02
4.161482461640484722e-03
9.009798420013741087e-04
4.144621525120196701e-03
3.607975650024242142e-03
-1.497869991141422821e-03
-2.998096257053714693e-03
4.666352454645833481e-03
5.701416080122164061e-03
-7.313389470148404584e-04
-2.433130291290917097e-03
-4.572624437419679430e-03
-4.685695654920708731e-04
5.415622656863803078e-03
1.905779686545869440e-03
3.247254043183073636e-03
2.555480092981167635e-03
-3.759213485960563855e-03
5.958586254681925379e-04
4.684648629986492251e-03
2.609169712787962926e-03
-1.867030402589169025e-03
-1.032167110351979444e-02
-1.310760043369269164e-02
-1.038226311348433226e-02
-5.784896357035454462e-03
1.130745390351232081e-03
5.825332252290381201e-03
7.838048980519304876e-03
3.731617344698598231e-03
-2.781809634344625543e-03
-4.471051537814339262e-03
-2.594281108005060555e-03
3.647059990290130085e-03
5.333684037921291102e-03
2.642959713516354354e-03
2.844835822237619122e-03
-1.496854405406632680e-03
-6.173167594677118333e-04
7.175597676948215070e-03
5.453222485918679183e-03
8.676301426019787677e-05
-3.985322825151513433e-03
-7.935086897865893663e-03
-8.607395435755385224e-03
-3.890133825535661578e-03
5.221090827113734553e-03
6.990160137812152785e-03
4.151537412341863194e-03
2.743306634102806330e-03
-1.918563692465111376e-03
-7.425478721618779601e-04
2.702873796396297167e-03
3.083536100542977158e-03
5.364396346410260294e-03
-6.400017122888244534e-04
-6.633376098917103530e-03
-4.219972919913185343e-03
-3.733294560197449909e-03
1.938446698021865705e-03
6.857636445035050765e-03
-1.669645962118709989e-03
-8.299166619690328747e-03
-5.831095045464184182e-03
-3.567019958324595293e-03
5.665958933875523372e-06
9.029653619162834183e-03
1.305325886263267003e-02
6.736599301942678558e-03
-2.858127417757076998e-03
-1.114773015581898251e-02
-9.273653735288385491e-03
-1.211741955319314661e-03
-1.025782905764025020e-03
-4.005232982642717258e-03
-4.786370725881005338e-03
-2.914012623415758799e-03
-1.702450133134279960e-03
-3.454153474946675909e-03
2.401429347440340450e-03
7.454230162525948486e-03
2.240017192734179274e-03
5.469972828192942640e-04
1.418867653526314967e-03
1.157510673681643940e-03
2.758527894136119513e-03
2.211119243775827321e-03
2.070688119321232798e-03
1.482382998886576072e-03
-1.892633421870528864e-03
-2.284591874403203368e-03
7.079865344858842294e-04
4.517069095123219490e-03
7.725797809825597599e-03
9.679427935705376893e-03
7.115506400801358856e-03
-1.195927377958147042e-03
-3.717215743193047310e-03
1.645325159694845671e-03
4.424621070577306262e-03
4.033493611209052095e-03
4.880995399759108038e-04
-4.997996231003028547e-03
-5.383345004793698742e-03
-3.641875871479286451e-03
-3.700834453705733641e-03
-8.412345861480449802e-04
2.367159562667760231e-03
-1.679003397396481483e-03
-8.332593656179474589e-03
-9.816329745096894280e-03
-9.318507145193423435e-03
-9.181604272143194592e-03
-7.478814696530179315e-03
-5.335001080917933618e-03
-2.016750112416520850e-03
2.086317826942404169e-03
4.227211599495022017e-03
4.233435902984403199e-03
2.735361847744111410e-03
4.463183564260549650e-03
7.299884603143440114e-03
1.839942174314292611e-03
-3.914946935796914662e-03
-7.331178915871501729e-04
3.312646387843156282e-03
3.639965190786312744e-03
2.495140509609678533e-03
1.724477255995920727e-03
1.124349514680960359e-03
-1.253802424071087749e-03
-1.422703415589441321e-03
2.722426847628767101e-03
6.688777494383321524e-03
7.639000557494385682e-03
5.758557761982648938e-03
3.059012282824138083e-03
-4.346810206089666488e-05
7.296870245027214886e-04
6.018025560022545462e-03
5.908199422830525196e-03
2.483436199340609881e-03
-1.188741178271470389e-03
-7.346864050732474470e-03
-7.373140634873478691e-03
-3.020756620942767999e-03
-2.677751589221040907e-04
1.528889585997120259e-03
-5.651012778232428549e-04
-2.794129370216213385e-03
-7.235073535029729573e-03
-1.258828317185153346e-02
-6.781954439610315792e-03
3.493101540782267683e-04
-5.296270201491561232e-05
-2.147384347993420550e-03
-6.091170799061520862e-03
-7.564045968159550069e-03
-3.016325066055446525e-03
1.675321841054832782e-03
2.442033254790070256e-03
3.302845386751613373e-03
3.868280037089560572e-03
-1.158969739558199765e-03
-2.450095190094822486e-03
1.334533211112585039e-03
2.726780855003222131e-03
6.475115550016888842e-03
8.118547116599776972e-03
4.373831534588796741e-03
7.598279338002436470e-04
3.015193344806424945e-03
9.580817625963498202e-03
6.308959091730246931e-03
3.962371600716716076e-03
5.684707881330621111e-03
-4.144347706835701129e-04
3.243690385491697185e-03
-2.950031352824970289e-03
-2.659471683705322623e-02
-1.908500960564610965e-02
1.703947222187363920e-03
2.434262726748343333e-03
6.630648567045492809e-05
-3.777217749926876705e-04
2.605350052947158143e-03
7.732856200446104784e-03
7.739304427083626078e-03
3.547080672507583674e-03
-2.859205604304697942e-03
-4.330038655343871647e-03
-3.018834177307723379e-03
-4.573396696445391346e-03
-2.698626146581311735e-03
3.614335985205315970e-03
5.240456505087827573e-03
-6.567243041636079519e-04
-3.082817372663443790e-03
-4.927126329643927811e-04
4.113798213083762548e-03
9.651667521520822246e-03
5.453097879777692170e-03
-1.000390656840450447e-04
-1.824923145095054241e-03
-7.319908022261747971e-03
-5.971477851334465806e-03
-2.925162129304371712e-03
-2.487382540440794768e-03
1.925337064796604552e-03
-2.384554648079654279e-03
-9.700300828528499522e-03
-7.409029236748391860e-03
-1.103861943432738434e-03
5.712969223139573692e-03
8.639624168110968117e-03
8.164616051465116431e-03
4.041939779548238063e-03
-4.362722154883964462e-03
-5.554637405709134113e-03
4.425351504493290787e-04
1.084032302670703569e-03
-4.419589867623785993e-03
-5.865531812607405193e-03
-1.221444180571833009e-03
2.334632177388553179e-03
2.885613745726364320e-03
2.952516756573656670e-03
4.912538186921219102e-03
4.682771876923993125e-03
2.921495469784950172e-03
3.673357231594866039e-03
-2.934088924524931499e-03
-9.172402883834512161e-03
-3.184342066573808260e-03
3.272735668887522768e-03
8.051933623138557081e-03
7.115940038490141915e-03
-1.166044385850249950e-03
-1.818731146050342256e-03
2.103631060681469735e-03
4.302041167302061465e-03
3.255626328798783952e-03
-6.031451532601490861e-03
-1.200685397182936660e-02
-7.603284419470482738e-03
-3.089445850898419558e-03
-5.983665161550227179e-04
5.057993600162046140e-03
8.780239328345934222e-03
3.312978650427134304e-03
-6.413172348506609825e-03
-1.241257249495928555e-02
-8.585482909214311661e-03
2.268349368890235432e-03
5.893830317614204110e-03
1.723785361769246101e-03
4.574954929566533448e-04
1.069186928809924986e-03
-8.813144639397312626e-04
-6.759698297434700099e-04
2.869990462602512934e-03
2.074677303153004033e-03
6.062793926303171885e-05
2.478396051591075493e-03
2.088992545488659470e-03
-3.069008359298745076e-04
5.416114031854044443e-04
1.633859284175837902e-03
2.864187000624381866e-03
8.471209277247579439e-04
-4.748163252017551482e-03
-3.881915437563872393e-03
-2.968066547133911635e-03
-7.020041030868175505e-03
-2.317326943065541218e-03
3.630431649129374320e-03
1.743982807796587474e-03
1.028001142312632557e-03
-4.433761811734720495e-04
2.879545389399639117e-03
1.019259679632303177e-02
7.422815943561617003e-03
4.117112949558794470e-03
9.965531459831770012e-04
-4.373588762444657191e-03
-1.116401000893611512e-03
-6.121019579156961868e-04
-3.082121978165992815e-03
1.519439430765496223e-03
2.499107521010134319e-03
-2.631688678849570823e-03
-8.790589334537688912e-03
-8.766782768469255985e-03
-4.740201804886340397e-04
3.995262654869860021e-03
2.178720660162285390e-03
-1.165171768619953710e-03
-1.704729240355614848e-03
-1.846732240973673433e-04
-6.126374520634093532e-04
2.462043264766939406e-03
2.721740725606050341e-03
-4.552519549243711806e-03
-4.889804265135780717e-03
-1.384419913848571266e-03
-2.507740000733554332e-03
-1.588497484678955682e-04
6.726575351207395026e-03
1.061240222463454355e-02
7.115714829506828223e-03
-5.497356010411479305e-04
-2.911788430901976216e-03
-2.497627802291373187e-03
-4.849276682151970781e-03
-1.832080953268812882e-03
2.760884359677555442e-03
1.500407206335782270e-03
1.518630508987408624e-03
2.086579125483689330e-04
-1.308921917883813877e-03
1.885182111851713225e-03
3.450656232969953195e-04
-3.333392186430460171e-03
-5.162792566716933179e-03
-6.635156477301255504e-03
-6.600468270666467931e-04
6.235144573780237488e-03
6.742359410427538162e-03
4.446926127356609117e-03
-4.810797558515937503e-05
-1.292366149462970083e-03
-1.399829354290840809e-03
-5.540386842177098467e-03
-3.493853552193006487e-03
2.218532442191144434e-03
-1.041134619343366858e-04
-2.907969691005758087e-03
-3.568194359667636179e-03
-5.502027114512169324e-03
-9.319405603335855458e-04
4.477250042414760399e-03
3.487849538075220562e-03
2.654194076740112873e-03
1.475623273309366150e-03
1.560980777904950965e-03
2.901824980623947826e-03
1.643638780207515348e-03
3.790477006545315934e-03
7.751919025529097410e-03
6.015002872283297004e-03
-7.365273175550726822e-04
-3.528905429706858353e-03
-1.850244053115194989e-03
-3.029464874668011572e-03
2.238326578638576408e-03
4.230128846602579373e-03
-5.278361922957386376e-03
-1.197689943618437773e-03
6.814579432679076024e-03
7.451509378597176436e-03
9.331640290021633866e-03
4.862763745813027637e-03
-1.778084385296548877e-03
-2.374385959872974891e-02
-4.408848778588701084e-02
-2.001286824585943661e-02
2.521582692644980944e-03
3.110339991604660088e-03
1.118881438750638467e-02
1.060454889586958174e-02
4.868362018437264946e-03
-1.890800497179555761e-03
-1.080207666625663393e-02
-3.502134048685581671e-03
5.637236199144825093e-03
7.899639408956698333e-03
7.564565102336043810e-03
4.271336303969410983e-03
5.180580097484921778e-03
4.734109101147291297e-03
6.300886300725431002e-03
8.228162185925780650e-03
2.064974503324054980e-03
-1.560439103130101951e-03
-5.400681984925402579e-03
-5.994821904904010235e-03
4.939711580810858234e-04
9.857786149916993642e-04
1.822023384988829100e-03
2.192954085175487320e-03
-4.593585045804210107e-03
-7.625726366802540804e-03
-2.318100820746033224e-03
4.216680419492234780e-03
3.889413867838900987e-03
3.683700798565360795e-03
6.011635643792515374e-03
3.239817818249973724e-03
2.746443383924536581e-03
5.144990656949790034e-03
2.962238449624384016e-03
-5.157251007707821210e-03
-1.044092031814633503e-02
-5.532601433659826637e-03
-5.221303100169050193e-03
-7.557891807531439896e-03
-1.977710195685837037e-03
3.860065192035819302e-03
9.397520084951292013e-03
1.046209765761501459e-02
8.403205011023623383e-03
4.623946629939072565e-03
4.193209431268134528e-04
6.221636107381300906e-03
-7.925696311246774317e-03
-3.664001054525586887e-02
-2.785139631367593294e-02
-8.392440846072032890e-03
-6.067210672585763957e-03
-2.218404022048306966e-03
1.469186238936605890e-03
8.686638285597996639e-03
1.668791916244922319e-02
1.481935426333730495e-02
1.064719874324027669e-02
6.394834624142209552e-03
5.290768024636088689e-03
9.070680237078455194e-03
9.489139436568377536e-03
6.174216241988789849e-03
9.713522921278585579e-04
-3.921922215689315795e-03
-1.771664752085906191e-03
5.110082487841996132e-03
5.926832867412124700e-03
1.480635521047449438e-03
-1.265362065114470800e-03
-3.807265939039970130e-03
-6.605740467133388964e-03
-7.836243202605553543e-03
-5.355926337305651729e-03
-1.255752765986506165e-03
-4.431594791188264715e-04
1.350885482858750399e-03
4.754886092765798567e-04
-3.920600092915508400e-03
2.686653843165908405e-03
1.395380950005793361e-02
1.715076064956919458e-02
1.674984993530080624e-02
1.339025180827432479e-02
8.727869764887709672e-03
1.004490463462420421e-02
1.287567826805872777e-02
9.476259461617357951e-03
5.430392755888864553e-03
2.182036200256012339e-03
-6.311835649720587242e-03
-1.244265363184232295e-02
-1.179348315035835121e-02
-1.082030173191442061e-02
-7.985362411376858982e-03
-5.256866286215957848e-03
-9.670488373866817366e-03
-1.547635542106076158e-02
-1.390842516031585291e-02
-6.972658369367002763e-03
-1.285019556976757125e-03
2.896703354429614602e-03
8.637828692808231096e-03
1.158675945591667797e-02
1.177285267551749122e-02
1.668313736946840792e-02
1.930050000899809562e-02
1.393361261255630056e-02
1.054357271807603892e-02
1.247260429178207938e-02
1.258954506957771051e-02
4.852705396920283659e-03
-1.453152198376981381e-03
4.884988055025585481e-03
8.652552798331878889e-03
-4.589729353756735568e-03
-2.026850955620561681e-02
-2.509874439599427479e-02
-3.152488271039901452e-02
-4.082175597414772900e-02
-3.851050858727227827e-02
-3.643052328467717010e-02
-3.997805267837944987e-02
-3.407383927744027374e-02
-2.293046919428403524e-02
-8.817325838214040701e-03
8.435028545912000297e-03
1.974934991124983538e-02
3.244798928774043911e-02
5.709745911677025637e-02
8.180884817885915317e-02
7.658802737882068612e-02
3.967133777194251781e-02
6.905582719864031618e-03
-1.762521444931184830e-02
-4.701230044693335830e-02
-7.052906479925190320e-02
-9.237355808012340241e-02
-1.227935846692031902e-01
-1.421307591441486329e-01
-1.372995306135008364e-01
-1.292311206218741959e-01
-1.114847836014319082e-01
-4.350447864133732273e-02
4.633031527139656880e-02
9.108116263173657301e-02
1.121950687916910966e-01
1.605575094500208966e-01
2.204148486800897588e-01
2.473422021344463539e-01
2.121081931863278702e-01
1.481417361354697704e-01
1.063325912076046459e-01
7.332047270352293200e-02
5.430485286134786177e-02
5.148061787028657132e-02
3.636359436446940513e-02
4.750588138248548753e-02
7.416414390786929545e-02
2.801587785201985550e-02
-7.442986452171580780e-02
-1.166824553191324609e-01
-5.864389039200412768e-02
-2.151666642144978159e-02
-1.031285459318597997e-01
-2.327420728503078740e-01
-2.655150765940809121e-01
-2.444421714458461792e-01
-3.755324409861520718e-01
-4.341264585196230041e-01
-1.714470680636422939e-01
1.169006391131391723e-02
2.340825255882706887e-02
1.249565473357145962e-01
1.089138173441738106e-01
-2.455316797787523986e-02
2.899381820311357216e-02
1.508154628480663229e-01
1.196372058303179359e-01
1.054284724412783147e-01
2.804970160932311884e-01
3.483228329393033285e-01
2.307158417069484768e-01
2.946243056977039254e-01
3.825974337532231928e-01
1.910149441128008996e-01
-7.160060135032411677e-02
-2.978719201218432144e-01
-4.819088765577120848e-01
-4.442921943427856069e-01
-2.714741109513547079e-01
-2.014332875552975188e-01
-1.144392754026672399e-01
8.709707936194645284e-02
2.024949546273660528e-01
1.612164948153012867e-01
8.001233455437207001e-03
-1.007900474018469106e-01
-2.072174665323106221e-02
-3.632925096561519934e-02
-1.869192671414065254e-01
-9.137428070719301465e-02
1.993358336684503129e-01
4.057988367211882164e-01
4.129052572667598064e-01
2.772478658731135082e-01
1.785869536144010783e-01
1.048103679622736650e-01
5.678697086792006653e-03
-6.262589442252469718e-02
-7.621487119018884038e-02
-2.224642851504009602e-02
-1.389681167157054073e-02
-1.042317458272404851e-01
-1.781996881790358089e-01
-1.824923005905486617e-01
-5.528982603247311473e-02
8.849933641827924247e-02
1.798404033709876185e-02
-1.365261987666426258e-01
-2.184619871333600694e-01
-2.687491754090419738e-01
-2.251829444898332533e-01
-1.178998541800267280e-01
-1.188079435260855493e-01
-1.921251789969958268e-01
-1.622311192716241468e-01
-1.496597855347500845e-02
1.213467721530312460e-01
1.995920751000565263e-01
2.389402158914624430e-01
1.935250036990715239e-01
1.091176969009028386e-01
1.352311370899718368e-01
1.938510110097512451e-01
1.354567329375601370e-01
7.911171621757835670e-02
5.995312518526604156e-02
-4.955968601197013879e-02
-1.437629466747952778e-01
-1.299319963708979730e-01
-7.769820088920534329e-02
2.962431486086130120e-02
1.145740379683998084e-01
6.045338920719533354e-02
-2.461088709454693074e-02
-2.928683564656313701e-02
4.421214419477377533e-02
1.354227355074593131e-01
1.386723765621157012e-01
6.419089452953032071e-02
2.162994593679585208e-03
-3.944884003032581021e-02
-6.528228765263184574e-02
-8.229785929546891421e-02
-1.258379696960271743e-01
-1.301929645090537657e-01
-2.713025819692362756e-02
6.399963135013114757e-02
5.942229542387095220e-02
3.502451717898640016e-02
1.497439494467586035e-02
-1.381277115528762277e-02
-4.286851438210433768e-02
-8.478091713876852176e-02
-1.087643068634455562e-01
-7.044506986828234785e-02
1.490591958447303779e-02
7.524330815065864708e-02
4.936209574009398082e-02
-5.492281359654744254e-03
-2.395239583557169302e-02
-3.468242369852912038e-02
-3.076554267491788536e-02
4.000560890459860588e-03
1.910264856675021258e-02
6.255004282865014170e-03
-1.997592048229345288e-03
-4.591675004917820414e-03
3.211839878219898900e-03
1.982982043340602435e-02
2.813930242333491025e-02
3.262161357518298527e-02
2.915501333739045284e-02
1.489134625284600950e-02
8.607339019717118872e-03
4.787705187449319694e-03
7.503437064162231471e-04
3.005069655976329215e-03
-3.623301748844774163e-03
-1.428586516839830747e-02
-1.465946285059996183e-02
-1.186186886900967435e-02
-8.371956265968243799e-03
-1.719841072419008672e-03
4.215194796163698569e-03
1.685862717308183331e-03
-7.352037687039405904e-03
-1.048584043548027658e-02
-8.098648065158678758e-03
-3.574089096123196120e-03
4.422341794397758284e-03
6.896830144026476136e-03
-4.007997665699540753e-03
-1.366288992787023822e-02
-7.328847636256633630e-03
1.191148249545348091e-03
5.766618386056429277e-03
1.433717651313610487e-02
1.722492192505054032e-02
1.500665011748745711e-02
1.476450897606681849e-02
7.209148799500380254e-03
-2.688705057985908611e-03
-9.006665098514936296e-03
-1.650789290272536639e-02
-1.384995921428995407e-02
-4.491529113175944492e-03
-7.667218680195396485e-03
-1.391973380726510209e-02
-1.201760882520816302e-02
-6.988642642282913257e-03
-1.156012093788884093e-03
-9.312870052719057041e-05
-4.475953609121952059e-03
-5.593081480167979777e-03
5.070467278090434575e-05
6.917955290628789201e-03
7.910253240759456544e-03
7.367259853136961384e-03
8.215754376469496661e-03
3.997181835528813496e-03
-3.066183978119532087e-03
-7.572097335460474359e-03
-6.251059928088810447e-03
2.693636467862730016e-03
1.564842462487564534e-02
2.728839371627195601e-02
3.317063548570772791e-02
4.250836122807703787e-02
5.813109494762577073e-02
5.583932517086390157e-02
2.508331276544810418e-02
-2.286954941406202715e-02
-6.611226522927092508e-02
-7.177899570874347879e-02
-4.068802512764837370e-02
-1.062832333488233395e-02
-2.520991429762036926e-03
-7.924763976451485240e-03
-1.040644342002010857e-02
-6.999395159263780385e-03
-7.887537086977949169e-03
-1.285014815396183681e-02
-1.044671897763132032e-02
-3.212020174721666281e-03
-3.808950683700653567e-03
-8.968066562657681096e-03
-5.578823035306742020e-03
5.614394396890901202e-03
1.070085285297802183e-02
9.187417014720282091e-03
1.138754503368205086e-02
1.113195587601420108e-02
6.158519677407259078e-03
4.700157780562213769e-03
3.765210873047468692e-03
4.618299656716167746e-03
7.849629039594512026e-03
6.147912469318245893e-03
2.340496516407448557e-03
-1.993747701243953237e-03
-7.612668130169329694e-03
-5.701589952674803591e-03
4.195381264612002212e-03
8.792378780849950670e-03
5.204550916432561410e-03
-8.330838323344882035e-04
-9.052498296915328230e-03
-7.995634265007725561e-03
4.917085832720983173e-03
1.148949201369637262e-02
1.383085006510915288e-02
1.433932856650228099e-02
7.180713754306457600e-03
2.300937237779182055e-03
-9.495228261907058358e-05
-2.664718994512320967e-03
-1.478034264901987747e-03
3.697695513762084066e-03
9.364094615130972091e-03
3.429177157563420477e-03
-6.664110394987925179e-03
-1.058057203882621471e-02
-1.249694904735030622e-02
-6.184767814946926651e-03
-4.272324252231954160e-03
-8.809829855404073887e-03
-4.756349094657467622e-03
-6.575831756523770576e-03
-5.995241749732448111e-03
-5.540171828117574498e-04
-7.414194501011919271e-03
-5.755611067127801468e-03
-2.582995508594320994e-03
-7.165230545896537906e-03
3.531038460032885715e-03
1.174968575229950671e-02
9.190412309213462361e-03
9.170855659973787752e-03
6.291263736485351067e-03
6.713662585807481965e-03
1.026371100259135596e-02
1.105234273561334427e-02
1.039262888186012236e-02
5.634460971703343646e-03
1.717377424775097874e-03
-4.864108606380764845e-03
-1.449619778876046032e-02
-1.796567465340293338e-02
-2.238774701282832819e-02
-2.340908952211659053e-02
-1.620220205158029447e-02
-1.544290560351419678e-02
-1.952255168998542206e-02
-1.710665652559174854e-02
-2.571246231598400302e-03
1.843776162268462651e-02
2.847147497630408974e-02
2.406002416554183301e-02
1.474812884324089649e-02
1.236163307607718830e-02
1.595111885350859737e-02
1.423521174759718663e-02
1.473159434271549550e-02
1.364519281786108311e-02
8.332228702329146997e-04
-1.023840187180205530e-02
-2.126955416821258577e-02
-2.173431227782401248e-02
7.006396559525974836e-03
3.514204618226684368e-02
4.439997316354726137e-02
3.709233255941756652e-02
1.305105203717898260e-02
-5.789565375037919980e-03
-2.064227473440726282e-02
-3.294985387783718606e-02
-2.123277160618420450e-02
-8.810885874994575997e-03
-1.418271453938721276e-02
-1.626037425487445592e-02
-1.620346731543701249e-02
-2.164008756573228623e-02
-2.270202535380497905e-02
-1.580653592680810945e-02
-1.137650050854771035e-02
-1.606236253798084407e-02
-1.564362409103860554e-02
3.436043392462223046e-03
2.042967731670160964e-02
1.320202428891179697e-02
7.313064306880989567e-03
1.523399426446914520e-02
9.766961987253190008e-03
6.837820329433182869e-04
4.437389213937532537e-03
5.935350596914311209e-03
5.888613358087935179e-03
7.711238918791151267e-03
6.684243214655575735e-03
8.179027478887400393e-03
1.360686348960239364e-02
1.485832082976192535e-02
1.042159657150771440e-02
7.833732631809506991e-03
2.553550590743419810e-03
-5.569902193793823710e-03
-5.122612764965306723e-03
-5.018303298501848239e-03
-1.112477551412936576e-02
-1.260699718121088830e-02
-6.894267566568587982e-03
-3.567502383524419427e-03
-9.022172310137929405e-03
-1.152178489016618575e-02
-1.154477889719437815e-02
-1.257421456777800192e-02
-3.444726710165229959e-03
1.345930456143833599e-03
-3.880512961550674177e-04
4.349779078985581762e-03
2.206993859188770019e-03
-5.791580452368793198e-04
6.408570598647233066e-03
1.145330454264139111e-02
8.050933410480454883e-03
-1.198057621464894938e-03
-5.486196656191027338e-03
-5.157593798491905655e-03
-1.902802595385934444e-04
8.891113875053383020e-03
9.876257170848227324e-03
1.052701937874691955e-02
6.233340019715906399e-03
-3.912251253650122010e-03
-2.993399774580269819e-05
3.204646758605342836e-03
3.572454400512009055e-03
-2.740917746606064565e-03
-2.559867513780352682e-02
-2.222915410110883755e-02
-1.544709847284443519e-04
4.928703536832082684e-03
8.524551666345440634e-03
6.544388604740207505e-03
1.058845813781191620e-03
4.926002335829101145e-04
-4.858311625013514608e-03
-5.415924576762745982e-03
-1.035109771550842949e-03
4.919364115311965560e-03
1.117577608920031738e-02
1.125486825454339625e-02
6.358176650438179117e-03
-5.703996488156105188e-03
-9.337379918404191056e-03
-9.301245961328375930e-03
-2.137399763054014662e-02
-1.893350691096250607e-02
-6.747105184085885193e-03
4.600752059287398395e-03
9.644497165473093700e-03
-1.361957350423448516e-02
-1.112145700291359250e-02
2.510737886052295809e-02
2.305627877366867723e-02
6.188898737023514236e-03
4.095622771189626199e-03
3.174468671121289352e-04
-3.105223398526267596e-04
-4.000586370319370207e-03
-2.686949639537839461e-03
7.668994795936263237e-03
4.973542106104077848e-03
-5.460944978364125520e-03
-9.994196456577500096e-03
-3.949067714025868495e-03
6.310887605480012749e-03
1.052395609898539378e-02
1.239863879561462108e-02
6.492937952094783929e-03
-5.837101545664224664e-04
2.183062800661652366e-03
-5.211531344920186529e-04
-6.057499624833377790e-03
-5.266695248151897525e-03
-4.399192078575772311e-03
-6.543011084805016794e-03
-1.081433001441176565e-02
-7.086999214420881300e-03
-1.888555724816881306e-03
-2.718358067729377374e-03
3.631034472515304442e-04
-3.170578214337498556e-03
-6.199120794845951882e-03
1.595879051350727190e-03
7.725797811237742957e-04
1.649836780673194503e-03
7.950117068719359664e-03
6.545406892718568480e-03
5.820759611405225062e-03
3.736108938737124630e-03
4.092762981032042717e-03
4.248400058954963573e-03
2.011347910826646011e-03
9.313127000622263563e-03
-6.956143951983051119e-03
-3.462915160724236441e-02
-2.058951771822805504e-02
-4.622999843354338545e-04
3.927157978367436242e-03
1.228776988957619096e-02
1.068214621535128195e-02
3.401304113824749498e-03
9.156136840421917221e-04
-2.180067538743144656e-03
-1.026309975766993019e-03
3.998415778959829754e-03
5.261522316618711531e-03
2.790947936868402954e-03
2.960348369497865697e-03
5.144411304437762535e-04
-4.342003501901332656e-03
1.198741143491040577e-03
7.114726669253371508e-03
5.480426268324418287e-03
1.146448444985873207e-04
-9.584061434788461800e-03
-1.060230771740634792e-02
-2.385711814614435797e-03
2.719334810232095726e-04
-1.372148517870854824e-03
-8.383154803512904950e-04
-1.210834094983363014e-03
-7.166060938851331885e-03
-8.132212620387718402e-03
-5.734459153205335698e-04
3.804413101303244851e-03
3.421999004661238197e-03
-5.064736944970448483e-03
-1.407705176202409848e-02
-9.295847655813446395e-03
-2.199382849266943822e-03
2.619725775552498789e-03
9.081254364760121822e-03
1.042673043453683224e-02
9.875425860233754197e-03
9.353743935409461127e-03
5.632151503191111346e-03
4.492061310118478090e-03
5.699723007836877270e-03
5.388174380397042773e-03
6.645941014356706623e-03
5.092350950526517567e-03
-3.799823233544798650e-04
-1.701353546565885716e-03
-2.868135751572847749e-03
-3.256879723836597715e-04
2.540082884103299615e-03
-1.648512739320431159e-02
-3.042044675026786549e-02
-1.250213254182182612e-02
3.209638933157728941e-03
3.629057115004193871e-03
1.655035461537970832e-03
8.828372467811659548e-04
1.900352503176973946e-03
-4.039501721272362178e-03
-9.508701840723951873e-03
-4.775248329061034663e-03
-1.386761124671130000e-03
-3.857127578825544261e-04
1.948403632680793416e-03
2.034493162874013820e-03
-2.538607401723887678e-03
-8.099529762896238647e-03
-1.682352238166957533e-03
1.004325710512051460e-02
1.078381315552092920e-02
8.226746229672149413e-03
6.153142834254566804e-03
4.476728275241828917e-04
-1.788936225788713549e-03
1.453681053909520581e-03
3.344284910541177932e-03
7.917635546184931825e-04
-1.426462685947303601e-03
-3.226454704038358122e-03
-8.418004567139756797e-03
-7.623644188697571190e-03
-8.212344916670008457e-04
1.315859797039224286e-03
3.585503314251320579e-03
3.995134792764618720e-03
-3.038047360963822951e-03
-7.329341866989766939e-03
-4.831391494121812895e-03
5.542656595903628714e-04
3.909293094642257889e-03
2.410291085195963735e-03
3.057956582814971326e-03
5.665757619625393961e-03
5.607118516999529470e-04
-8.016904272154267916e-03
-5.554006068007200786e-03
3.509122004536599330e-03
3.424767019846760956e-03
-8.204284026006467218e-04
-1.317523331561821966e-03
-5.917791406461508810e-05
3.945824013614155495e-03
3.583302640939659434e-03
-2.058301007030680085e-03
-1.866948336391223038e-03
1.029437351289430288e-03
7.332117057556493400e-04
-1.210535891128421485e-03
-3.198153757241362517e-03
-2.899602757366131437e-03
-1.142158276301789713e-03
4.301134754670262448e-04
-7.889351654755526883e-04
-4.918568028731161446e-03
-3.910749575234762423e-03
2.979328480518223573e-03
6.492896437150763242e-03
3.781623870450381928e-03
-1.473487424226987627e-03
-5.328641486492999811e-03
-3.807368406544673570e-03
-1.929405148231342704e-03
-3.822794937269106096e-03
-1.789533133649488881e-03
-2.558646297068528121e-03
-8.496959666164906333e-03
-3.993204446772593945e-03
4.646367727689917427e-04
-4.209169066428375405e-04
6.684522698592129490e-03
9.056966625630486281e-03
3.459731913277620374e-03
2.373899682581777782e-04
-2.483119865660235979e-03
1.451376390148769943e-03
6.938374152684270366e-03
4.285012208901503236e-03
1.152215168660577745e-03
-2.009093934633277879e-03
-3.028513180200035921e-03
1.293763737627826732e-03
2.201946154449377097e-03
1.779444215434995398e-03
4.021403610989235551e-03
4.189288087307127886e-03
1.992375598596226628e-03
-4.129329922174134089e-03
-9.021299200826168180e-03
-2.664210971264235894e-03
3.281621251225510637e-03
-1.608760008961017136e-03
-5.052079792768997268e-03
-3.293740104012287794e-03
-2.686496744614605241e-03
-8.550134856975442031e-04
3.477267679311490337e-03
4.470757722812902964e-03
-1.723789839621693012e-03
-8.026011713736631858e-03
-7.519720702954970845e-03
-3.478642264750927016e-03
1.637771112372597227e-03
5.782521843022420636e-03
7.549124902674736980e-03
5.501519770894914597e-03
-2.073766962545910055e-03
-4.315094433588461363e-03
1.313518425087690860e-04
4.457873291427797151e-04
2.717939077347881951e-03
6.259992937796529482e-03
2.900189262935010202e-03
-1.319670230289615286e-04
-1.689146196406288896e-03
-3.950504201237762213e-03
-3.702417472944279173e-03
-1.772609448186880481e-03
7.944117332718496740e-04
-9.319802174576826163e-04
-5.468905521400911629e-03
-2.550715770627176061e-03
2.588463233981609744e-03
3.625575718617449206e-03
4.669358507468804147e-03
1.993954187780479573e-03
-4.832513744345296423e-03
-8.357141704251679765e-03
-8.156965616775998726e-03
-4.898098708390286569e-03
7.614492103511868613e-04
2.964051371575680480e-03
2.612370461838115204e-03
3.186205304094984550e-03
-1.076476452524475165e-05
-1.794627186050352452e-03
5.414119653277668295e-03
9.417526578568294685e-03
3.930702452684808369e-03
-1.091310280270100597e-03
-4.186666097548511498e-04
1.656668012561624730e-03
-1.546406511694534353e-03
-2.099138365474956681e-03
5.601377035013553954e-03
5.265823481838090465e-03
-1.828164905471760466e-03
-1.601143110094588361e-03
1.954618959972251628e-04
1.107128699265935061e-03
3.268209357341675999e-03
2.063788554314095487e-03
-4.280573611834448855e-04
-1.497955602711406424e-03
-2.806454845058919435e-03
-2.107675746363937494e-03
1.878179111447541086e-03
3.238452526362316751e-03
-2.451978021859784439e-03
-8.987717987077569956e-03
-1.087487967780222976e-02
-7.482997124163892622e-03
-1.510381027454873104e-03
-1.646490280995559306e-03
-2.157579021850630427e-03
1.407343089441104832e-03
-2.488774550597496003e-03
-3.823151473777997630e-03
8.356962593764923194e-04
-4.343599169354223316e-04
5.022164525801311313e-03
8.748332559996426991e-03
-1.191672900090424460e-03
-5.001594817194895135e-04
4.681563069873461748e-03
9.040700371011952535e-04
3.140005193941465718e-03
4.195546844697742826e-03
-2.337058188870812150e-03
-2.544669420951847436e-03
-9.620322268240516278e-05
-3.502706623174146362e-03
-3.556509313491362876e-03
2.209323908125375262e-03
3.381863258310869799e-03
2.545842255046384169e-03
3.281325887056541803e-03
-3.753214188147331316e-04
-3.292907843797843095e-03
6.931193528654375690e-04
5.499901121037698709e-03
5.259559495092024257e-03
2.534486321661422615e-03
-2.325099792082186041e-03
-1.080759661169102166e-02
-9.664203383009935949e-03
2.453287374515036347e-03
6.584533801466507796e-03
3.112744226515943777e-03
1.254362520878291422e-03
-3.151024941605294919e-04
3.543003065770345848e-04
4.189000341576247337e-03
4.581339370436547133e-03
5.498832108194858827e-03
9.215320869614995400e-03
4.941875117375620378e-04
-4.830964678000146569e-03
1.342876387449244897e-04
-2.065936718541232231e-02
-3.295056043977738491e-02
-5.477505167931083670e-03
6.058333628963261629e-03
1.568181248257470659e-03
5.312546763870300802e-03
7.985345535902500791e-04
-2.337764074235900021e-04
5.218125630172449486e-03
4.385222600216883392e-03
1.732273887806610449e-03
-2.224237623586348359e-03
-4.502120828406229111e-03
-2.880171297445185616e-03
1.962413462551156323e-03
8.499714132560261606e-03
1.029637140905265667e-02
3.774474272192762138e-03
-7.167094945708541581e-03
-7.412473069004750850e-03
-7.468424884170746366e-04
6.328128576943126658e-04
4.281225811685774631e-03
3.145889170900560868e-03
-2.008958769687459959e-03
6.758318601737044553e-05
2.070184284523768348e-03
6.776482642398596462e-03
8.581549905944070578e-03
4.068176199698061426e-04
-6.395219070751658602e-03
-1.049181148986472883e-02
-7.298493236209875092e-03
-2.479356954638075455e-03
-3.113668072970726241e-03
4.953382997752969752e-03
1.039400972693428279e-02
2.866336444321257882e-03
-1.827804306156197763e-03
-2.073775958655792694e-03
-1.966386950668393813e-04
5.443278429946196012e-03
7.581988531130596544e-03
1.778101382639108797e-03
-2.391225999804489927e-03
-2.812345074601573566e-03
-5.964475495433656238e-03
-2.582287726546382903e-03
4.370508916863716405e-03
2.849829941867351810e-03
-2.319442675304632644e-03
-6.332101444057774628e-03
-2.825463081423607720e-03
-1.087119865506008549e-03
-8.900523593599881517e-03
-6.512217493094488684e-03
-9.657417869748292655e-04
-4.608135556836209269e-03
-4.213487431147173654e-03
-2.633558786050896718e-04
2.869407123383421569e-03
5.529557067331502401e-03
7.564911930844842730e-03
5.812157976967101923e-03
-2.877368640233222280e-03
-5.509602182360937711e-03
1.054249521852699016e-03
4.712686906577636531e-03
4.124088400278912159e-03
3.962290714538026226e-03
3.282417931399893556e-03
-2.088379685922969048e-03
-3.820740474214417721e-03
3.576902710402660493e-04
3.575875292407099896e-03
9.959720106176841656e-03
9.437003755735298358e-03
9.047175778412613629e-04
-3.229389884235831735e-03
-8.714837909740626165e-03
-6.257170450448631786e-03
7.452636921463049206e-04
-5.180064310765523407e-03
-6.224915793666701072e-03
-1.686615081949342310e-03
-3.807990350128918292e-03
-1.505686135499035606e-03
4.138634231279877604e-03
6.244562599193376716e-03
5.501231102975991105e-03
2.562132865634328925e-03
-7.745082770302077254e-04
-2.694523431408908480e-03
-1.945706719536989841e-03
-2.417234606341771806e-03
-1.133383601651914447e-03
4.400887589235077425e-03
2.013173852321007221e-03
-5.423413879525937516e-03
-5.659079556909170708e-03
-1.734322547862465194e-03
3.322041912173494260e-03
6.407223533222559074e-03
2.267253619454945562e-03
-1.865780324321627756e-03
-2.392049814200567469e-03
-4.297991077598314197e-03
-8.830529552835736547e-04
4.570125837120429801e-03
1.333171643734211952e-03
-9.739898597617926588e-04
-2.086755824748081495e-03
-5.961806467696536931e-03
-1.616724695851983612e-03
5.314781878139541310e-03
5.131706096435150431e-03
1.070852404155322015e-03
-2.325439123134107836e-03
-6.708202356586744639e-04
2.408289090314169861e-04
-6.760019049178962259e-04
3.433615117636288402e-03
4.737563407744414812e-03
1.542343675500590199e-03
1.438685339776132020e-03
1.630417780402564618e-04
-2.756832762481127141e-03
-4.163434920784956213e-05
5.648220139527915067e-03
5.044223659634860212e-03
-1.930311875480443442e-03
-7.224434802278112064e-03
-7.947372153180332424e-03
-7.759753206422842671e-03
-7.109214126164332438e-03
-2.057775311450013751e-03
4.180663355914890703e-03
4.861224501958718441e-03
2.161537130959735944e-03
-1.084453272335393582e-03
-1.699318304514373145e-03
5.055113389460070931e-03
8.842551110063429434e-03
1.634003460843353687e-03
-2.237244541014668606e-03
-1.303943200098770351e-03
-6.334410449681328152e-03
-4.999647074413257966e-03
5.306251846897910851e-03
6.573016098975564825e-03
2.409340924642469194e-04
-4.082461245367316645e-03
-3.300041785541147840e-03
1.258979213133766192e-03
3.189344300955870674e-03
4.172052740633538752e-03
3.485519588956152368e-03
-1.036807981853181924e-03
-3.942025279593965210e-03
-7.031564745294821214e-03
-7.686660765752455042e-03
-3.234917992397346939e-03
-2.852878606409540193e-04
1.112166394747004768e-03
2.918738149754906866e-04
8.329924134419868734e-04
4.731278920126620949e-03
5.334311068580076080e-03
6.637991624254243987e-03
5.424495577967869409e-03
-3.186889912261376507e-04
-1.278494060088921714e-03
-2.986525759889590344e-03
-5.185043626874155306e-03
-2.179120861901758400e-03
3.446923626091114023e-03
8.153771378064708641e-03
5.657970964088040317e-03
1.277107501195283825e-03
-5.618192162026936290e-04
3.350535815652543742e-03
6.383833640243122623e-03
-1.587868339155755829e-02
-2.672667827231712395e-02
-6.100434722227263628e-06
8.643048080304369454e-03
-4.913458990747792722e-04
1.853817690550556632e-03
4.477492420740312833e-03
5.645578430193906594e-03
-2.104167132216818760e-03
-9.959847957116097286e-03
-5.705388927915782879e-03
-3.257091949024335398e-03
3.119275669221223922e-03
1.020233417665158439e-02
8.484125494587291608e-03
4.420902627548687486e-03
-3.057667222231443774e-03
-5.620524204629669118e-03
-3.531244139404760961e-03
-2.227484295052471665e-03
2.575485990705484417e-03
1.233996418097259296e-03
-4.290686881976122496e-03
-5.122609340997885501e-03
-2.867027986572306345e-03
1.869652442588270579e-03
4.121006747789802277e-03
3.576274588109998147e-03
-7.652597007101433505e-04
-5.820157382303436586e-03
-3.790666751812263313e-03
-3.043875981456439751e-05
5.197943568357454858e-03
8.947226299087170792e-03
7.530632898020154543e-03
6.085877601631152836e-03
7.645361562859131523e-04
-3.902352487949824200e-03
-3.251037597357966068e-03
-7.172180812159552018e-05
3.812870079607219576e-03
3.529552822018077341e-03
5.005679512381836470e-03
6.377809933577363545e-04
-6.546102460921865603e-03
2.891818195975448536e-03
6.501648476290602940e-03
3.066832404612948419e-03
2.987212131036693155e-03
-5.079254764064041264e-03
-2.612578757764915868e-03
-1.077242321399123938e-02
-3.302624884707435621e-02
-1.372414069466663250e-02
1.021650616963549162e-02
3.288613580462004544e-03
2.236739949312257451e-03
1.095591955769834513e-03
-3.713036625205455837e-03
-1.687419551769998079e-04
1.474275847020108283e-03
2.845152178355558285e-03
4.693283289272071057e-03
2.465533132286524404e-03
-1.375575436383638835e-03
-5.436209012300430429e-04
6.136990055712764416e-03
5.595434684299993230e-03
9.016510659847767287e-05
-4.092266602859967787e-04
-1.105082358359899767e-03
2.527763480985996620e-04
3.914949319487239648e-03
4.338904537696017250e-03
5.292290961528773111e-03
3.668692612297748835e-03
-2.702179032074823999e-03
-4.915959207285113680e-03
-3.724501002365293145e-03
-2.761229774373119908e-03
-1.515107293683433008e-04
2.215176086013947716e-04
-5.159139449037001028e-04
1.021881003107871040e-03
8.899013851933915229e-04
1.227634630668430040e-03
3.766067457374470875e-03
5.764082004892212736e-03
3.924672478367526723e-03
-2.713628728695607808e-03
-3.998648397410270103e-03
-3.388398033167730646e-03
-6.739938217000531265e-03
-5.100685113377232717e-06
5.258775266787045835e-03
-1.938598628875093420e-03
-5.779802491604489655e-04
2.345577647563964422e-03
-4.361076957724027009e-03
-3.061471173085745460e-03
2.267985413420161092e-03
7.492029733567740065e-04
6.553032150890590688e-04
-1.886043040651816990e-03
-9.070803984635191636e-03
-6.320101156195570211e-03
2.676890099393282579e-03
4.000682320172760029e-03
1.289478561665781528e-03
-6.321448856307881718e-04
-3.374652797441747305e-03
-5.314822062910878192e-03
-2.221792369575722233e-03
5.530098728537333544e-03
1.071349055949186169e-02
9.319063500378602094e-03
1.750927619642714738e-03
-4.285038240385255666e-03
-3.019244525269862791e-04
4.151171443641746110e-03
2.627882225481131383e-03
9.285035400854080474e-04
-2.764484008129136465e-03
-6.471168189214196627e-03
-6.129498688433682174e-03
-4.103719471680418278e-03
1.142568856066508644e-04
2.311514247926785628e-03
-7.299027111615492922e-04
-3.970561733162894166e-03
-4.573563765956870954e-03
-1.158544928411865248e-03
2.271046196790221360e-03
3.526643520367757009e-03
8.905998250642669853e-03
1.236981738804278537e-02
8.130233147956357834e-03
4.599666255274878143e-03
3.536723306558867564e-04
-3.876739908599577660e-03
8.768926993811019610e-04
4.621850763860700650e-03
-6.533007228485309195e-04
-5.775248535574388845e-03
-7.248763226613377450e-03
-6.087535364905864027e-03
-3.214254311593000256e-03
5.833857618966935884e-04
5.778544704691407916e-04
-7.794056673664864938e-03
-1.022313028061336976e-02
-2.389372565990919781e-03
3.151963371341913196e-03
7.722919818146421235e-03
5.268794677359358095e-03
