1.076203993871906878e-02
9.140962766244167814e-03
1.361762750743483958e-03
-4.350303323110779477e-04
-9.661015629087808115e-03
-1.748640279640602258e-02
-1.977338698472807729e-02
-1.635092665237901713e-02
-1.008064476582406534e-02
-7.093738888536213830e-03
-1.608767887111392470e-03
2.138151868964048748e-03
3.376159296276777955e-03
8.013063666651594127e-03
1.146665623172114616e-02
1.648067233653006947e-02
1.974573323423109428e-02
1.504515049676515177e-02
1.097199636382457238e-02
8.448670557960532082e-03
5.824712223520816558e-03
6.375891092163832839e-03
7.559085147808172062e-03
6.828781768560911007e-03
2.483315580948243333e-04
-1.095038603325324857e-02
-1.617772338326784257e-02
-1.493760723415770396e-02
-1.215334645880368145e-02
-6.615888003311800811e-03
-1.528455089402217795e-03
-4.135903153031062450e-04
1.338336069505783373e-03
5.506364602609677139e-03
7.278988457962929856e-03
6.184032062386396293e-03
6.296139506428734961e-03
6.042908274190006250e-03
1.016132819417615027e-03
-6.171392317266434849e-03
-7.649210157466362903e-03
-2.438166495759466756e-03
-2.890622591404153215e-04
-2.946834455480775231e-03
-2.035995103678080089e-03
-1.263168998575003778e-03
-6.442457815917969864e-03
-8.625681366157137223e-03
-2.949207661231603456e-03
1.094693505430328765e-03
3.754189984560683964e-05
5.326201907866149471e-04
1.772331355423387590e-03
2.432018327309578079e-03
3.355402499967588548e-03
9.801360812892396038e-04
1.502927072795073610e-03
3.948924456857331837e-03
-6.754122982509959666e-04
-8.068822818186021772e-04
4.440975864165986817e-03
2.732425349350842223e-03
1.381556749902078298e-03
2.080399938344046698e-03
-1.663545557616775018e-03
-2.054275505360365472e-03
2.036189069528340431e-03
-5.520160433510248182e-04
-3.586426279607832744e-03
6.068883783636064852e-04
-7.487681490136022635e-04
-5.472919614518210324e-03
-3.493820559918605316e-03
-7.682298989323561172e-04
1.472938446682273009e-03
2.117549087461661431e-03
2.557740214406190905e-03
4.534078538057638788e-03
-2.879472262628796205e-04
-3.971266582367048888e-03
-1.752826486915684719e-03
-2.217033678631800692e-03
8.821184384510800621e-05
3.788735083083580053e-03
3.299239927419120484e-03
2.516714311001585352e-03
6.517533020559562349e-04
5.550167881721560946e-05
4.061429821363026285e-03
5.785572083836177694e-03
3.208372664947113672e-04
-2.965919772095749335e-03
-7.562171726362073047e-04
-2.232433631071045928e-03
-2.165307075382040015e-03
4.660161712208327374e-04
2.772035202959572059e-04
2.857374239371071340e-03
-1.313311251547406768e-04
-5.806580344574843039e-03
-1.213894861251308202e-03
1.802003074949195009e-03
2.522478540976474427e-03
3.989617249262929731e-03
-1.979256975128283660e-04
-4.190667382243083890e-03
-6.668034501100505475e-03
-6.106112998469444622e-03
-2.469818827959184213e-03
-7.888902595784342588e-04
2.949248600738464416e-03
3.507837326893355895e-03
-1.074518185957512193e-03
-3.269346103142434928e-03
-4.503701275477418366e-03
-2.276084620087018891e-03
1.597974289757892428e-03
2.037008316034856579e-03
3.536106204313472189e-04
-4.239194327420062365e-03
-3.747627641013720305e-03
2.622489759184716378e-03
4.214694597877705409e-03
4.840667701690438279e-03
4.927002157533826032e-03
3.714500210861472083e-04
-1.364321933891496407e-03
1.020974837089155384e-03
3.783351798305084699e-03
5.982549287176873627e-03
4.063675916265553981e-03
8.302988657426714925e-04
-7.114593897657027922e-04
-4.324289327429881209e-03
-4.693440271746099693e-03
9.828048084776666408e-04
4.064794686451794758e-03
2.865635490078858628e-03
-1.781361249585025467e-04
-3.766481528449591720e-04
1.923512182834732215e-03
-1.474594517377285623e-03
-5.426817416006347872e-04
6.184903556374549138e-03
1.959325500896765514e-03
-2.687596182231908378e-03
-2.996127447710637999e-03
-1.009182392087302170e-02
-7.147335620650719507e-03
6.700862846930082627e-03
5.438649212827418276e-03
-4.179417045497591313e-03
-4.564220827273647932e-03
-2.941715647509238196e-03
-4.294599245827358217e-04
4.170667628467297598e-03
1.667811174035823459e-03
3.726354892996035922e-03
4.070894611867245487e-03
-1.813865238261696405e-02
-2.238915926524750327e-02
1.494440375626754402e-03
4.270887052956020766e-03
-1.330546483987213747e-03
5.017870993738108958e-03
5.658187741974007694e-03
3.363586945391815186e-03
2.082166912476749419e-03
4.502439024307955395e-03
8.730494338581069533e-03
5.046768735372430571e-03
3.193866788169675425e-03
2.505498322859245515e-03
-1.602822872752939203e-03
-9.484564975152691901e-05
1.351945447307068568e-03
1.112165414146710715e-04
-8.080591069608593553e-05
-1.940855616234303180e-03
-3.505234302270083396e-03
-4.585927267158467283e-03
-5.897645331967911464e-03
-4.176453342027177523e-03
1.292946595269670474e-03
3.445996238365413127e-03
-1.108881546623048837e-03
-3.474360088923038759e-03
-2.807628529304551090e-03
-1.474492515894305130e-04
5.775876523723900285e-03
5.375661289287343540e-03
9.798426981516145107e-04
2.777951800371576598e-04
-5.373437161145030051e-04
-1.505674127318357277e-03
-2.523301033046147779e-03
-1.336547370276037691e-03
3.659151408784181228e-03
4.315416913963957338e-03
5.863999710243420231e-04
-2.313396604441941926e-03
-3.232870291010564705e-03
8.058789155105413986e-04
5.709638967873595025e-03
7.366294073290134171e-03
9.179948053995893101e-03
4.620741046589478193e-03
-1.741464669192747949e-03
4.656053554693412137e-03
-1.435955126600573330e-05
-2.139886980805425984e-02
-1.951473288345414656e-02
-4.185457998937542994e-03
-3.059246380710050998e-03
-7.176485109188300137e-04
5.023774144798641775e-03
6.334957398742065843e-03
5.767524773908468128e-03
8.376673789811606098e-05
-5.784108492823663433e-03
-5.797834350812151871e-03
-3.202655599107258593e-03
-1.375030068421931491e-03
-1.412998558398682490e-03
-1.401046706445622679e-03
-2.203081464117967545e-03
-2.713452705049024249e-03
1.316295445322205855e-03
6.486620252265728505e-03
8.196721325247265447e-03
6.877381512403851239e-03
4.193256469367177310e-03
7.235218697819622473e-04
-2.353924618091569974e-03
-2.888240856312608747e-03
-1.103108779199634282e-03
1.988726572255773272e-03
3.860117780377114206e-03
2.445462832547559782e-03
-3.760729602890740351e-04
-2.296649724410925776e-03
-4.728794258885566770e-04
3.970983988472329140e-03
6.596482206467255485e-03
6.460509736692824495e-03
3.052492046273400442e-03
-1.678039110844051695e-03
-3.680983026308382641e-03
-1.958770994372921979e-03
5.654831388347414259e-04
6.142962145779261350e-05
-1.305227358121317490e-03
-8.928733508024954248e-04
-5.598464964580296540e-04
-8.098906964718140993e-04
-5.589077178821896547e-04
-3.852919208535629525e-04
-1.626642942059830944e-03
-4.904305992981714511e-03
-1.068017466555883262e-02
-1.138032575350666348e-02
-4.483909245498881972e-03
-2.943053489525436408e-03
-3.501220899624857014e-03
7.596747153717560864e-04
2.480547626825712476e-03
3.444535070005760608e-03
3.051245686425806125e-03
2.863549105720745048e-03
6.344017853500750516e-03
3.604776684568662681e-03
-2.391582400321554504e-04
-9.080360510389702284e-04
-2.884450904548779837e-03
9.383377009405691757e-04
5.324158675189665305e-03
7.241239843728502872e-03
8.484494231397333996e-03
2.371930052659107935e-03
-1.724787000755563125e-03
-2.367053483986316341e-03
-4.019074588526397838e-03
8.071733010103579204e-04
2.759825416987039121e-03
-9.229443151373866502e-04
2.226827546805174398e-04
6.533954111010468416e-04
-2.676576147854264811e-03
-3.076772298620041209e-03
3.191902341491479451e-04
1.324463840665485257e-03
-1.137875237364156756e-03
-3.072360714524534266e-03
-4.216540100698883652e-03
-1.872264122972841114e-03
7.565675272280487440e-04
-7.533472495744419732e-04
-1.298161845060100388e-03
-2.583403724176392639e-03
-4.002712214299299076e-03
-8.808116334082204124e-04
3.832810260563368487e-03
7.370275902741518607e-03
7.266276454599580534e-03
4.682122859932982828e-03
5.663488763226278994e-04
-3.356816059469481736e-03
-2.744774374472049028e-03
-2.522566816733185814e-03
-3.176932832713190761e-04
4.108321275143237035e-03
6.887787764011252733e-04
-2.095505698156753006e-03
-3.883673911731381828e-04
-3.671018831628622804e-04
1.062726141515592162e-03
-2.269941821145724751e-04
-4.344782807653735715e-03
-4.957712523520116550e-03
-3.847787743573773817e-03
-2.941194897189956282e-03
-3.025815477911590785e-03
-1.656658202207822624e-03
2.649876546655436423e-03
4.028195006569829789e-03
7.939980181576804068e-04
-6.783410534275530201e-04
-2.021799521807904083e-04
-1.894589451503601776e-03
1.441166396826594823e-03
7.455238390417383634e-03
5.829299195323213792e-03
4.742417118069628366e-03
4.029316062237024362e-03
1.060438755223723105e-03
3.695974774505476554e-03
3.551771463652701744e-03
3.853434898188711323e-04
1.187418008290950806e-03
-2.282815190735919784e-03
-6.046568601982333334e-03
-3.195498629864732161e-03
-1.971895824752704050e-03
-4.297289084385256738e-03
-2.799223296674134467e-03
1.788076901834100875e-03
1.417884088283598862e-03
-2.542321105363346250e-03
-2.622481455105972513e-04
7.880656378559836028e-03
8.778702294080271626e-03
2.605525841141131602e-03
-3.298327917178480069e-03
-1.676888959348864228e-02
-2.336302436966394835e-02
-7.913612157370570124e-03
3.519706249482522798e-03
4.112930185361699832e-03
1.603384059995753173e-03
-6.511874449587073260e-03
-4.576116436479754114e-03
5.482362454047666825e-03
9.379596220715867919e-03
1.011028049643360703e-02
6.568675168262556180e-03
2.977232091886211109e-03
1.732943571673725095e-03
-2.341575054382051199e-03
-2.638555847460444161e-03
2.018846681392875639e-03
4.511049904427573247e-03
3.520094536279251996e-03
5.417078158341876370e-04
-2.248457543517276037e-03
-9.790696473711850336e-04
4.615228125360831823e-03
5.388037379967005810e-03
2.127149222002544440e-03
2.502561980912241992e-03
-1.599684957460428955e-03
-7.296524225206751230e-03
-2.903257840257864823e-03
9.532521495816890763e-04
-7.508880707163452257e-04
2.678706807716036624e-04
-8.199168406133074388e-04
-3.973818643495523849e-03
-1.540103353777681977e-03
-5.150067101696493600e-04
-1.689810613296261789e-03
1.857523718298595113e-03
3.907692975029563101e-03
1.656963354941202093e-03
-1.813831888791754077e-03
-4.942800792565351688e-03
-5.991176088745604582e-03
-5.040641875418618890e-03
-6.382747487177350357e-04
1.698292745205855691e-03
-4.616083519015662254e-04
-2.477541542271356929e-03
-5.965480395871502681e-03
-2.121892085288461845e-03
6.442102499220715012e-03
3.979826620511038061e-03
-2.300672782161342989e-04
-3.206609653342953545e-03
-5.723290520010932553e-03
5.860543600173517831e-04
4.545905615855856154e-03
4.604958769387467940e-03
4.677543516047820080e-03
2.012953441347436676e-04
1.394433438504229933e-03
4.649559832652218165e-03
3.071308313150710248e-03
4.868896329414137622e-03
4.165794043043662825e-03
7.544294724375641501e-04
7.557739182354703553e-05
-3.429985022208161937e-03
-4.325511194190860206e-03
9.885646992034216596e-04
4.628889075443400405e-03
3.191009685177818855e-03
-7.816899232458863339e-04
-2.002649310955736429e-03
-3.928338268243500297e-03
-7.961943809263290900e-03
-3.674879180533274781e-03
3.734148019693704201e-03
2.974534982993944521e-03
-1.233544532781325181e-03
-5.591063395061315541e-03
-7.566559661077242038e-03
-2.744207443498288684e-03
2.376358285445653949e-03
3.750201951859180333e-03
2.778920541114270407e-03
-1.942523683584326767e-03
-5.751147365865094153e-03
-5.586887913489132010e-03
-2.472385352867445020e-03
4.162828675127528029e-03
8.155191698646011705e-03
5.916076527774425005e-03
2.707084639513570256e-04
-3.812689053610890649e-03
-9.265711975909418207e-04
2.914035827086574725e-03
6.667197947156492700e-03
1.087763519748027874e-02
3.710004406076904127e-03
-5.067425951965563204e-03
-3.669371720290940872e-03
-1.643803245551038157e-03
5.739615349524605867e-04
1.658042933799026798e-03
-7.323020874452641337e-04
-3.655895896840903776e-03
-7.847746095579213876e-03
-5.807502966840595408e-03
4.832305709637393617e-04
3.176158163650132180e-03
3.679532772921107874e-03
-9.598175481432977491e-05
-2.616967802803544987e-04
1.955945099067479646e-03
-2.552541872045121195e-03
-2.695695462150764395e-03
-7.219723091937101100e-04
-9.110843637623674976e-04
1.473365072036146063e-03
-1.014206195140282107e-03
-2.046212130471568823e-03
2.107933975689839021e-03
1.471166808511159812e-03
-1.595680188940491436e-03
-3.168099617007689474e-03
-2.997398333738447978e-03
-4.804638825146882210e-03
-3.503141206269560440e-03
7.237881301302838410e-03
9.578538747491335478e-03
3.405860110179767357e-03
2.550300977079883284e-03
4.277478530411491886e-04
-1.491205540894984948e-04
3.034483025421712190e-03
3.173763593775370904e-03
3.638058333150489404e-03
3.067326650465699960e-03
1.517511783048782316e-03
2.188019129914996544e-03
-6.413947960297755081e-04
-3.974935566712372963e-03
-1.954837375161433671e-03
-6.117789207529272409e-04
-1.330514680525210058e-03
-1.837116392370672160e-03
-4.388877183045508668e-03
-4.225044486296776133e-03
4.045795185622099539e-05
1.735693483981620635e-04
-1.047514270506834638e-03
-2.162667021820192958e-04
-1.849062084643251233e-03
-4.334757403505185708e-03
-6.400628676671833370e-03
-4.728824709457956320e-03
2.727301400936256101e-04
-7.090222395518612193e-04
-2.562779582589529408e-03
3.570411373784056338e-04
2.611571195574635511e-03
4.997825793652012176e-03
5.488180363464758779e-03
3.438216375568973939e-03
3.413503557277674984e-03
2.153448910442565169e-04
-3.099909814658320922e-03
1.763490438964123450e-03
4.692977375021179995e-03
3.354423567746002595e-03
4.855635080668742158e-03
3.055709945064648270e-03
3.124145778531689684e-04
-1.711121186077554912e-04
-4.199381859867485668e-03
-3.991317675865671023e-03
1.501987086707300774e-05
-7.218915053685888861e-04
-2.072988978505019633e-03
-3.696961519984996811e-03
-3.834268951347116153e-03
-1.667544609916317725e-03
-1.113628254559582151e-03
2.893080326094885166e-04
1.108913666828323678e-03
1.663083049996538906e-03
1.120719400629217573e-04
-5.422125243530847259e-03
-3.336101083191078762e-03
3.718792945332238548e-03
6.230592727879274290e-03
5.180452549468107619e-03
2.438795834724378706e-03
1.361536449425906209e-03
-8.034943554046595614e-04
3.964004377288426334e-04
4.954750401024700379e-03
2.682751031442628595e-03
1.378044840576807305e-03
-1.003786252121779347e-04
8.728401789381543853e-04
7.635629819292058355e-03
4.931035579740605627e-03
5.686549013333055090e-03
-2.925544590445496290e-03
-2.642666472940049388e-02
-1.834293885190966741e-02
-1.267778868271785334e-02
-2.325277959430704575e-02
1.437433223324148513e-04
1.500374270394323403e-02
6.191133342147620705e-03
1.000442138792100900e-02
7.722130191417206531e-03
3.395621623310281570e-03
4.430554884973618435e-03
1.150631972416497418e-03
3.739605311652545797e-03
3.536948715881815461e-03
-7.878746294116567312e-04
4.590625264973504272e-04
5.847842019535482621e-04
-1.005449752145154592e-03
-1.401020734854591457e-03
3.017993259112343625e-03
5.344469234823445540e-03
-7.270542432681775021e-04
-3.251026074798824862e-03
-3.116479104868149878e-03
-1.047803357044482179e-04
5.549990295427871707e-03
2.123600121442345556e-03
-3.357212506601349889e-04
-1.500676752510782036e-03
-7.480350751716955369e-03
-4.394941123908827074e-03
6.009932972397468917e-04
-1.215637170684713639e-03
-5.656232663244084406e-03
-9.024605264715506239e-03
-9.747923723193061777e-04
6.286781445461940739e-03
3.656439426502423699e-03
4.449699654267507895e-03
5.162015641695572379e-03
9.886301761793958327e-04
-5.038589915512532540e-03
-4.419562343294202236e-03
4.320526610222266695e-03
4.467211261923987285e-03
2.853718262489130571e-03
3.651641793987925495e-03
-2.449530221837420071e-03
-2.243981878842961006e-03
-1.932873393898141255e-04
-1.198652938334111070e-03
4.266104203408254379e-03
5.330164539394817089e-03
2.647784035425460232e-04
-6.862797108687583580e-03
-9.775937237035545874e-03
-1.376459191494573036e-03
1.247075111071948563e-03
-4.585687033156904272e-04
2.630889421898140092e-03
2.936399289773265677e-05
-3.054080123432474560e-03
-2.440019821880509265e-03
-1.235378044565747227e-03
2.064820587244087756e-03
4.535234550134746752e-03
3.187355369002158479e-03
-3.125652525082825775e-03
-6.654971449557364402e-03
-5.366746821141831977e-03
-3.210293952756126945e-03
3.448219335418542964e-03
7.065130571721338869e-03
5.608518380156598745e-03
3.669177349316066119e-03
-2.129445766511686797e-03
-3.198260775659409177e-03
1.441453116420926377e-03
3.049514945735494822e-03
3.150741922010892853e-03
-5.710912388730399170e-05
-4.381706649931899934e-03
-2.505006323062135797e-03
8.879326925988677115e-04
3.696200313045563068e-04
2.739431911905817855e-03
6.487167995670051028e-03
2.053138215485775415e-03
-2.229076637191811441e-03
-2.211099896039754771e-03
-7.221637728731086694e-04
3.626606140257006197e-03
1.439878949854897982e-03
-3.834032203817738533e-04
1.535745362928015584e-03
-5.954169422612464596e-03
-7.424895562556372078e-03
-1.901028301562986307e-03
-3.360429592916173037e-03
-6.768589261492775119e-04
1.991907430418596390e-03
-3.005844082576679139e-03
-5.891906986194663833e-03
-2.497914914592912206e-03
1.316195209326006654e-03
1.025420061567602122e-03
3.042529896887408072e-03
2.163930296342948117e-03
-2.548966026052633307e-03
9.894446331059362967e-04
1.695367322859973489e-03
1.293695905672084508e-03
6.771112037159390286e-03
4.442688062698197521e-03
3.070868748577911932e-03
5.014406781697382937e-03
2.140965897346067126e-03
3.229457971518874711e-03
2.957946706940172994e-03
2.537810309179033981e-04
-4.875499159048875676e-05
-5.179129222204057435e-03
-7.444226720456093190e-03
-3.626469378217844850e-03
-4.041919710438208850e-03
-4.047453915831594924e-03
4.720562852014579310e-04
2.208967673132783503e-03
9.263105129762818539e-04
-1.283016242198842683e-04
-2.376225350782934422e-03
-1.424333059530107472e-03
1.539330632620150704e-03
-1.790853366809817349e-03
-3.718627391341084061e-03
-1.397895099661258106e-03
-2.298707948976008546e-03
-2.275155684430158008e-03
-1.830171919852609458e-03
-1.950390062405560950e-03
5.176166252140910421e-04
-5.031119509120743306e-04
-1.450287027922780815e-03
3.821572559995639346e-03
8.890862773100111083e-03
1.037772115990746348e-02
7.515425997320818001e-03
2.900825798113691994e-03
8.290804540633732694e-05
-2.511769531639207985e-03
-1.375487291760077576e-03
1.726401434036027409e-03
1.271665975309358614e-03
1.879528149110604824e-03
1.404714182432464584e-03
-3.602298906591388204e-03
-5.536870879672061915e-03
-1.746497806109708782e-03
2.148317634061408694e-03
6.358712699067415805e-04
-4.193624043069393501e-03
-7.002035722826161109e-03
-5.646713940323133847e-03
5.873907326741235457e-04
4.417976664611389034e-03
3.506705580140674801e-03
3.182532281358788767e-03
2.920075999221879342e-04
-3.847231704536102203e-03
-6.808594373953738912e-03
-6.998454978526685334e-03
7.733150885188552282e-04
4.855728446052032243e-03
8.125636419351661352e-04
7.853402454556904265e-04
1.824960770065222997e-03
1.038845785988194497e-03
1.534826895340182839e-03
1.728080388015660294e-03
2.447278794841903013e-03
1.596494431936661519e-03
-9.088420101807493474e-04
-1.593738904659678908e-03
-1.225454936530550546e-03
1.619969804210134976e-04
1.931596727838738982e-03
2.690955974853433737e-03
1.653968459746260611e-03
1.450346099761762797e-04
2.332652431733923623e-04
-1.576470042893311470e-03
-2.170436771507772145e-03
1.974291082304360356e-03
2.479965327854953463e-03
2.470915387460956509e-04
5.592941511742011975e-04
-3.476361311727113818e-04
-1.850965780715581148e-03
-1.959158006699519318e-03
-4.333263335035139781e-03
-8.692694113024512434e-03
-6.925502640257770459e-03
-4.767611567508817766e-04
-7.725141754527521231e-04
-3.847964515470954274e-03
-1.648147550500069988e-03
3.152330296777170610e-03
6.349486266116412432e-03
4.306898313528205111e-03
2.296930083427090302e-03
4.165280460133292083e-03
4.796654651067594824e-03
4.727331074553993602e-03
3.843434993842732243e-03
2.568709109939580626e-03
1.398285012440808345e-03
-3.521747758388838801e-04
1.595414556569068687e-03
3.108847192787111881e-03
2.335235722374936086e-03
3.973664614182911251e-04
-4.486591021636994990e-03
-5.573750697808888509e-03
-5.645783250233157684e-03
-3.529327037125445151e-03
-4.221201171103233416e-04
-6.559230810552966855e-03
-1.824508497053444270e-03
9.142461272674472575e-03
6.219670983021006669e-03
2.866914861078984512e-03
-9.254718533687084428e-03
-1.713193184838060143e-02
-3.092611117968056215e-03
-7.533103616480549096e-04
-3.677892373037599822e-03
2.218790365301893767e-03
2.919597332350656882e-03
6.350642417665345978e-03
7.169668626545367372e-03
2.816318034365685591e-03
-6.410515710245156618e-04
-7.479116644245484280e-03
-6.410057302429002235e-03
-1.399527183178596009e-03
-4.823388462080763369e-04
4.801696387935821750e-03
6.784175214494942568e-03
2.052445167337154080e-03
4.588570712440976588e-05
3.091293022260758940e-03
5.643154456332986207e-03
3.952626985684867811e-03
3.364011999032616700e-03
2.885111290296788443e-03
-1.417257729308287698e-03
-4.178448590104431870e-03
-2.804379481189014055e-03
-1.173991610508848650e-03
1.091957654777367696e-03
3.926885036091841939e-03
-1.363273297263694912e-03
-7.403102116320905979e-03
-3.299467756585043252e-03
1.501916010475408522e-04
2.261533159756079058e-03
4.383626584610569865e-03
3.301481589526483826e-03
4.893648812813958943e-03
2.342262740961011634e-03
-2.325072532007639841e-03
6.006936777981990942e-04
2.793106252645120597e-03
3.405495193064005024e-03
3.255559785147531509e-03
-8.994921002342853899e-04
-2.606105232547000373e-03
9.834898393867429894e-04
4.292139983995389881e-03
4.240851865693043635e-03
4.157007396784298883e-03
-2.844872711330338733e-04
-5.653277452590027043e-03
-5.074897212167338691e-04
-7.507119809398959780e-04
-6.541676108927947132e-03
-1.238452372797882754e-03
2.122534995015405712e-03
1.604918877638671906e-03
-1.130099795824964816e-03
-9.866049928537703323e-03
-4.340753167275038585e-03
9.439509573119895733e-03
1.030943144815237543e-02
1.064202151958414111e-02
1.337445074079023771e-02
8.897286159695417390e-03
7.718597293045331709e-03
1.175913369408810964e-02
7.166136282940452351e-03
-9.401935615223090941e-04
-4.606196316091436781e-03
-1.016579655161571269e-02
-1.281524515248084854e-02
-9.644586337949472357e-03
-7.467778478689568455e-03
-7.127023376995621912e-03
-9.282585531558657649e-03
-8.580070887956517747e-03
-7.527558353720802814e-03
-1.391223390107972427e-02
-1.139917002118859615e-02
1.208912120669643035e-03
1.604341623974715227e-03
-7.988325342711252719e-03
-1.182141791825426502e-02
-7.783830151450178182e-03
-5.033830180133091158e-03
-4.404971967669176272e-03
3.465141490101963928e-03
1.578984691820349215e-02
2.401986983893496935e-02
2.409549058566223118e-02
2.008792719237879887e-02
2.263161188441811106e-02
3.079619914931670810e-02
3.565785329937311982e-02
2.797577026741676978e-02
1.175580746443564105e-02
1.029316391746050918e-03
-8.159707293502909894e-03
-1.702512522860575792e-02
-2.268703062128884368e-02
-3.162318337623727660e-02
-3.988012597309357338e-02
-5.206174667703453857e-02
-6.580270768108904822e-02
-6.624042967619592215e-02
-6.230836122073043354e-02
-4.395164053412407845e-02
-3.149492997527955467e-03
4.159034054719729784e-02
8.957280289740182644e-02
1.132242978386252680e-01
9.013037189479036759e-02
5.548349613345494868e-02
2.982057268681224255e-02
1.258833859820479746e-02
-1.856818431746930839e-03
-6.507810591389256299e-03
9.289768398962727769e-03
-6.880874513062351649e-03
-6.197309570643207838e-02
-8.665034198786951414e-02
-9.171787831573788297e-02
-1.082493943028414868e-01
-9.975741406508348286e-02
-3.786157616726666675e-02
5.564329552387456412e-02
1.080969937579664003e-01
6.762283561020902833e-02
-2.019540530842503859e-02
-7.037724136320144819e-02
-5.022702122393669227e-02
-1.126427890428490473e-02
-4.249727361436793707e-03
2.272834628966089593e-02
1.121906395663486433e-01
1.724867556772036736e-01
1.214329051807235688e-01
3.844479218991040531e-02
3.228480852818642333e-02
7.624192142800870209e-02
9.009528199245245283e-02
8.159999043487004000e-02
1.275561031370148479e-01
1.953291360371912366e-01
1.653392330450236813e-01
8.606152260258413678e-02
1.905427510730385229e-02
-1.210467033382901653e-01
-2.908525957516747140e-01
-3.859081828585760876e-01
-4.432480782094884164e-01
-4.443523566895531407e-01
-2.835504913528386073e-01
-8.671450627237931030e-02
-7.807205381006525335e-02
-6.357107039148962579e-02
1.258075215629062549e-01
2.026161210110107580e-01
1.064644001855288430e-01
-1.393887329966532647e-02
-1.129002019952074221e-01
-3.901511990402886654e-02
1.288152110587186816e-01
1.795223600685618148e-01
1.810930176301266681e-01
2.110828403266067910e-01
2.602350344167799201e-01
2.809256353716662047e-01
2.303051730515162654e-01
1.519832946665262141e-01
1.238245545735211922e-01
1.535370813902177944e-01
7.992365830802170001e-02
-9.198137518888568898e-02
-2.013196025011372570e-01
-2.579509563896736912e-01
-1.660766923091528402e-01
4.193626501272655627e-02
7.943967543114210939e-02
-2.301606731247824236e-02
-8.475666286674846117e-02
-1.206102271857337482e-01
-2.050842195045888550e-01
-1.992008058676586479e-01
-2.248034494151898363e-02
-4.132415690377739745e-03
-1.322037836698818081e-01
-1.277670908565767538e-01
-1.121639243927384094e-01
-7.049692347766997602e-02
8.029297082121748808e-02
1.946121107554668883e-01
2.441926552987325194e-01
2.295799250250987189e-01
1.488672734166585077e-01
7.233598174374807066e-02
6.988069431265923892e-02
7.329522136294663870e-02
-3.426758719533576358e-02
-1.313165897407201632e-01
-2.182315987818234104e-01
-3.298580470096637574e-01
-2.405148593293440218e-01
-2.674194615768554772e-02
4.150696378588971530e-02
-1.100933633306082488e-01
-2.194782727900533859e-01
6.199133693027585046e-02
3.058888452139714165e-01
1.680910669480498998e-01
1.221092659453776041e-01
1.738791622712193841e-01
6.714584913768074925e-02
-1.244532124816136870e-02
-1.771388866712012358e-02
1.429642166477128849e-02
7.337686040078660044e-02
6.443371292263572192e-02
6.213325488164882227e-02
1.210126445566448439e-01
1.377975922439116097e-01
1.181552252040882905e-01
1.000786551166047839e-01
5.056712692330374292e-02
8.661361174348401401e-03
-1.505848976213947955e-03
-3.443791364704917174e-02
-8.445111015716214031e-02
-1.437718392037131976e-01
-2.057269406277472401e-01
-2.173511715031676284e-01
-2.153466340832932702e-01
-2.157309491423247683e-01
-1.324891261240105089e-01
-2.926718869468198855e-02
-4.550027783205683879e-02
-6.405907247659299586e-02
8.057367149790443939e-02
2.029768624941553912e-01
1.184878156011521244e-01
-5.264180679805535897e-03
-4.173247965661961573e-02
-1.995642475489271470e-02
6.509999234178710792e-02
1.310734082070713347e-01
9.929719275234333287e-02
5.137912181809722173e-02
4.013403489012646458e-02
2.976725492715193155e-02
1.702377494892775428e-02
1.583764970745423981e-02
1.436354283077349164e-02
1.021464925065563439e-02
9.324389486672662875e-03
5.082530773749824662e-03
-1.780950723260339534e-03
-1.110900510665500766e-02
-2.205757237975889545e-02
-2.533535374646645605e-02
-2.767719021148503517e-02
-3.079428089537599583e-02
-2.837544755770187235e-02
-2.514996544943721990e-02
-2.157927266476796987e-02
-1.697799397104171257e-02
-8.139288058353955080e-03
2.346644710927782949e-03
7.073362814931609746e-03
1.364937992858675404e-02
1.997975724190600988e-02
1.902190327003236772e-02
1.171697159460806034e-02
-4.741463192260118864e-03
-1.547600739937225918e-02
-8.047815762678394227e-03
5.527617386088996138e-03
1.381187714642897330e-02
9.597253181078639964e-03
1.310157515719172824e-03
-7.234962260688502849e-04
-8.260173468061822802e-03
-2.153194879328610561e-02
-2.768438895276668574e-02
-2.470341063067374096e-02
-1.285348908167174321e-02
5.308660178008853085e-03
2.347994248996542604e-02
3.628541202859595499e-02
4.167362493516210686e-02
4.033397811500157720e-02
2.787738035318810051e-02
7.314599471428411687e-03
-7.472405502087324514e-03
-1.751912026578453241e-02
-2.794823548219617024e-02
-2.877567442999319838e-02
-2.067597636653348975e-02
-1.377053448384642914e-02
-6.564286103727105803e-03
5.122064283747155503e-04
3.684277944406869672e-03
4.478819341305671428e-03
1.200860212563030537e-03
-3.312879915244251391e-03
-1.494043945143067780e-03
2.344560851499912554e-03
3.380570695539915869e-03
4.323383721578598175e-03
5.494401499575624244e-03
7.391857030646100182e-03
1.203653606509784597e-02
1.652763773599629643e-02
1.626639138921755559e-02
1.556964471752165895e-02
1.711568700261043019e-02
1.282902774302227197e-02
1.377107667680124324e-03
-7.558970682687516686e-03
-3.768563948514999130e-03
4.177921561024513543e-03
-2.939893615643335636e-03
-1.265944605512499092e-02
-9.177938989779681894e-03
-5.657277703326747155e-03
-5.421688517755562410e-03
-2.022694574618597290e-03
6.957711098337442893e-05
-3.660968404458091706e-03
-8.788208808286228357e-03
-1.045593119102918717e-02
-1.317318406771667005e-02
-1.178808645863005725e-02
-3.249026588502398633e-03
2.389168378757162026e-03
1.030689768793481911e-02
1.745239443949176891e-02
1.591546178712479470e-02
1.647093926925438656e-02
1.639232482603851515e-02
1.252545257296778201e-02
8.913522306528557856e-03
1.725077484678417834e-03
-2.906910319384315832e-03
-2.823530989454492608e-03
-3.057434616811872778e-03
-3.640991125530180107e-03
-7.109144418863357594e-03
-8.690175841752025357e-03
-6.338872085948956021e-03
-9.540609803111962592e-03
-1.456093032811538353e-02
-1.093425847759125005e-02
-5.182070992027742497e-03
-1.333878888177454473e-03
6.002595446302956723e-03
9.459202016231559387e-03
1.062102662797335777e-02
1.409893150337690471e-02
1.056336622785753430e-02
9.851065320582262988e-03
9.269804815201090203e-03
-3.206636207557244083e-03
-7.624625759848679962e-03
-8.185677830167058938e-03
-1.231092746627787497e-02
-2.843610200190638693e-03
2.230397990055875239e-03
-7.389725965025847193e-03
-1.184487140163762754e-02
-1.196183388678526832e-02
-1.189061330101096048e-02
-8.734036912937892527e-03
-4.440107190781366828e-03
9.839448609206863545e-05
1.170647911632566015e-03
-3.376852997059393013e-03
-8.433765654592717889e-03
-1.288425049576541817e-02
-1.409565830527755720e-02
-6.464135275078702197e-03
-4.845718237112546338e-04
1.841416660061072656e-03
5.146110906570171978e-03
-5.873439970129058080e-03
-1.221500860176833944e-02
8.333558274079373371e-03
1.920957978239666922e-02
1.371807808497280991e-02
1.432984845693472883e-02
7.273676475483328678e-03
-5.344107277401039923e-04
9.314494355500944206e-03
1.537194543442033275e-02
1.101924980362408574e-02
1.205781196369737872e-02
1.183673886680890706e-02
6.691511381190331717e-03
-3.112325770424129211e-04
-1.228252843694180134e-02
-1.572200565603083799e-02
-6.825028843582276426e-03
2.478392835348194531e-03
9.832533486423808422e-03
1.197090694122900090e-02
1.493330400526813803e-02
1.599544343468476196e-02
5.796467705938181635e-03
2.102316340239719986e-03
1.814994115394830305e-03
-5.325346327287593627e-03
-5.422433070352179751e-03
-7.586832594581998171e-03
-1.700146644446678609e-02
-2.158666063060032253e-02
-2.422809598605790704e-02
-2.752481190556448770e-02
-3.074006714096542969e-02
-2.915184593425825324e-02
-1.913721066772645918e-02
-8.041480494388266592e-03
-3.841720977653263758e-03
-9.110235589596879513e-03
-1.409726289926236525e-02
-1.663159436941073072e-02
-2.015646563264882757e-02
-1.230039402920083715e-02
-8.728476448193477110e-04
-9.886595866975991624e-04
-1.892912893633126115e-03
2.050228909052151122e-03
9.429846870632923803e-03
1.809691732982366547e-02
2.365925998748024880e-02
3.089769057253863652e-02
3.503300141207233570e-02
2.974773166200685853e-02
2.875283855249377227e-02
3.188740390816855591e-02
2.779080215353001843e-02
2.662719574536891523e-02
2.766830579442376356e-02
1.677496987617591029e-02
7.776979974490817737e-03
1.106821660843576582e-02
1.211269569998674710e-02
8.110727572280363590e-03
1.201511220707072785e-03
-1.412526721187061345e-02
-2.805840968994586723e-02
-2.895967059579352548e-02
-2.737573202168911563e-02
-2.771728556596131376e-02
-2.283736912190100637e-02
-1.947576419580376514e-02
-1.796078708608717794e-02
-1.125370976047198636e-02
-6.953613636536190058e-03
-8.435849273615680932e-03
-1.299443588505379624e-02
-1.643335226032404534e-02
-9.072786717720920241e-03
-1.446532364788934459e-04
-4.305776914347012908e-03
-9.376108624383979601e-03
-5.666117356765178192e-03
-2.175393756827102149e-03
-8.650943983400415701e-04
7.374049437583098804e-04
4.681614278212118015e-03
1.082863243685935374e-02
5.519103395639092698e-03
-4.984434982890174025e-03
1.898924697898623191e-03
1.412053134004232977e-02
1.722117424271298047e-02
1.590483511665415767e-02
8.012081259273851411e-03
1.033119813783048638e-03
2.943047825897875548e-03
2.936383593372479065e-03
-1.170289347177324137e-03
1.003789501475977329e-04
2.984392959104389866e-03
1.381040661003728361e-03
3.932654340125876953e-03
8.436068404939281451e-03
7.708569039721051286e-03
9.142496283479727495e-03
8.200299284202520328e-03
2.821995041194579751e-03
-3.114340530445213308e-05
-4.301143580331234784e-03
-4.568981123159975878e-03
-8.597365370768623094e-04
-2.708815611604332768e-04
3.688590622186968017e-04
-3.834040474600155114e-03
-8.608500953140267933e-03
-9.649056792546066574e-03
-1.297219371862409591e-02
-8.807997984367998273e-03
-1.214753802677831810e-03
6.193828981683018042e-04
5.852326738931624799e-03
8.758940959284583841e-03
1.948596141259229930e-03
-7.374528832113494414e-03
-1.162806436677247049e-02
-1.191678512753765844e-02
-1.436814066298620733e-02
-1.154118208624162895e-02
-4.057483041154625464e-03
-2.821107678754309483e-03
7.826218174737409891e-04
7.808350704133377833e-03
6.039121598137178401e-03
-1.265889858901946387e-03
-3.942472727315842786e-03
-1.719912942407880122e-03
-6.262565123253060421e-04
-5.542756729414440118e-04
-3.019227677017444472e-03
-9.448927190349126412e-03
-1.110359925462588680e-02
-9.952238451706764411e-03
-1.059341946977587594e-02
-6.043309242658551420e-03
-5.842197669442224022e-04
-3.024769945460615249e-03
-6.048847299238226637e-03
-1.155789438609718534e-04
6.649983045266327948e-03
6.188568429261082603e-03
6.738126258503439672e-03
7.126800107423066945e-03
3.214557160688134504e-03
2.826626778015642414e-03
1.363377644627906645e-03
-5.363792651842854038e-03
-7.963687923877192307e-03
-3.921974427248548986e-03
2.720107530765614439e-03
4.828337488111113414e-03
1.813591930442624671e-03
2.724775790755606854e-03
5.706084323095965069e-03
4.081427241886122562e-03
-5.529651021919444569e-04
-6.271860237295946543e-03
-1.162665308352063033e-02
-1.154603689144434106e-02
-7.136647208234894041e-03
-7.303202445725959571e-03
-7.582628919217402827e-03
-4.011110083638704492e-03
-4.686455204286433217e-03
-2.915853737140863908e-03
-1.821385150676618173e-04
-4.911327476413343725e-03
-4.767915428345247467e-03
-3.402302660979432489e-03
-6.718152841935941776e-03
-6.547621223822010401e-03
-6.770903804745798636e-03
-3.678195214588265982e-03
1.094355763750732777e-03
1.370395972699565371e-03
4.709951032141086215e-03
2.693433076079883564e-03
-2.847911865071397174e-03
-1.380584633419245462e-04
1.487165450329400217e-03
2.062974269613218441e-03
1.674444530881591051e-03
-1.853274233251941874e-03
-1.885851883093534517e-03
-2.123913283824473315e-03
-1.548368662622312758e-03
1.903961229689080494e-03
5.975967399879367897e-03
1.019168132019416563e-02
5.974711117971078823e-03
-7.847925673549728748e-04
2.018438411758270278e-03
6.605234455990008531e-03
4.691012110570129054e-03
1.154257446733983035e-03
-1.867450054424697487e-03
-1.585448068986343093e-02
-2.927317845376694455e-02
-2.094700087787505424e-02
-6.669333444046640115e-03
3.193984941557112631e-03
8.777966228020177286e-03
5.015314898530944844e-03
3.910406188549074742e-03
3.927541301727533254e-03
-2.723110690937092637e-03
-5.792102024710754637e-03
-3.390561187054555274e-03
1.570358667601082052e-03
6.107127827439115877e-03
4.601020725914410983e-03
-2.921587401868587681e-03
-6.546907557450065522e-03
2.029065622186771757e-03
7.027387185925209646e-03
2.694485518631808008e-03
4.514578595831835253e-03
4.857808268667869120e-03
-2.181093011513974070e-03
-4.570362686189902331e-03
-2.051463152909834432e-03
1.385186893236906589e-03
2.530449645472628191e-03
-8.617207278618489816e-04
-5.776302598850002225e-03
-1.103120347680479688e-02
-1.264243507618181481e-02
-7.799474295652164893e-03
-1.108530328383059175e-03
3.389643235250764525e-03
3.170400602712141348e-03
-1.606569985243136228e-04
-2.567318132325854124e-03
-1.105112136156940865e-03
5.052385630601942575e-03
6.750665967545102508e-03
2.270252741055514209e-03
4.076977917966290187e-04
4.805247032103937739e-05
4.649840697306422375e-03
8.577692241043276961e-03
-1.330163643337034995e-03
-5.046290465717987762e-03
1.375833404850793215e-03
-1.184743256108577742e-03
-4.627013291453704511e-04
3.768430900373499846e-03
1.890175127397678142e-03
2.904564787933379237e-03
-9.786843663784493448e-04
-7.105289545522875880e-03
-3.113771287952673411e-03
-7.143400736679155665e-04
1.461138666714041461e-04
3.004068692213066744e-03
4.800226839706607952e-04
-2.048859543676399136e-03
-2.765692304811219818e-03
-4.290581432738044092e-03
-3.612423911633043817e-03
-8.103095606369822021e-04
2.512851289834318411e-03
1.352444688452982512e-03
-2.490445172822295522e-03
-1.183387267055555341e-03
1.132682076258008895e-03
2.961620655798580465e-04
-2.140782051140878569e-04
4.646991009905770270e-03
9.314957499321803100e-03
2.444524616022750608e-03
-4.603700349919915592e-03
-7.057036208372460817e-03
-1.341220785319365005e-02
-1.211905946506641220e-02
-4.450409524783999031e-03
2.617973612334418415e-04
1.740329490545450058e-03
-4.254063968666147930e-03
-2.446863250381185913e-03
7.352296135636393094e-03
7.476655804614811864e-03
8.594673011419680028e-03
8.663543702048909570e-03
2.843498555033211958e-03
2.300213759804803880e-03
9.502794095902455636e-04
2.910194821579337177e-03
1.075123896546246322e-02
9.559745445294908286e-03
1.543190567542923088e-03
-7.124271128374274481e-03
-1.109929306191700937e-02
-5.240966099063187889e-03
8.622733882564683058e-04
-1.483121492583475533e-03
-7.177529597981396371e-03
-6.774951859325215563e-03
-6.353900069472849348e-03
-7.273500874885437985e-03
1.295530085591975597e-03
4.809064128528656515e-03
7.499848043722645227e-04
4.886995373636179169e-03
3.638508726980347382e-03
-4.178183324162338709e-03
-5.716537399398619913e-03
-3.810520862937830967e-03
4.865150651838005824e-03
1.068933947423520055e-02
4.410374223331058399e-03
4.394598636191884324e-04
-1.264476817351082975e-04
3.385933289254520768e-04
2.553482923747739473e-03
1.636339544065153933e-03
3.972724828523014479e-03
3.424460420301174337e-03
-5.290708300637061989e-03
-5.277555356611007831e-03
-1.265511990022003376e-03
-1.813347013774425052e-03
9.807173256385067015e-04
6.051968477422322180e-04
-6.180655805019114914e-03
-9.968938035208903606e-03
-8.119180026051593321e-03
-4.173218130040001576e-03
-5.834620869410092744e-04
3.545629559060917146e-03
5.912691677165813307e-03
5.353931017929888618e-03
2.650590358838024810e-03
-5.078787587382814234e-04
1.745449576081633614e-03
3.212206596201366490e-03
7.820995704387605392e-04
2.997290316644264738e-03
3.451827126637226073e-03
-4.158707901947566749e-04
-1.724298385094922290e-03
-1.341722331304704644e-03
1.508908215017405784e-03
2.836354593893735971e-03
7.908847097949530097e-04
-7.395230262986238288e-04
-5.535490419895815715e-03
-4.537362845392569830e-03
6.066736682556347904e-03
6.607012033364380484e-03
6.631751088642466162e-04
-1.722381578182911530e-03
-8.051025022896503985e-03
-9.004255405013457739e-03
-3.938881532134403361e-03
-2.302675527453652057e-03
3.747229076106394982e-03
4.879286317724148246e-03
-2.589191841665638028e-03
-3.266368567941665448e-03
-1.403337842926164359e-03
1.614890261145418343e-03
3.582564139519684755e-03
2.347825379883560696e-04
3.246164746635952884e-03
7.166828105651658516e-03
5.168484681932473263e-03
2.148532598359318129e-03
-7.011494794253788233e-04
1.070777556678541124e-03
-3.895092196523235249e-04
-2.966816039666162873e-03
3.271634213141795273e-03
5.060605910413456567e-03
3.076017749459610158e-03
2.952726587038354694e-03
1.306065285932840961e-04
-2.463186407717327369e-03
-7.173657903660542179e-03
-1.003978027251069098e-02
-8.041051439504894732e-03
-4.683427158009432351e-03
2.036079056919134003e-03
2.698653903691929090e-03
-1.921761574527691609e-03
-1.903359138120449840e-03
-1.687004299499733151e-03
-7.067100293185726769e-04
6.816284055801646001e-04
-3.249101291117109376e-04
-1.443056706912483698e-03
-1.814478840191269217e-03
-7.241907992057256774e-04
-5.812165609873459456e-05
1.610372340595214464e-03
2.929191093438507192e-03
3.804209296418681070e-03
7.842902762963403079e-03
4.975827863061081310e-03
8.857980785603955260e-04
2.250032239030688806e-03
-4.413587909620208215e-03
-5.670874881096753077e-03
3.057389937273166831e-03
1.817266613757782118e-03
-3.091794152812189257e-03
-2.799965941732380191e-03
1.249175627562629188e-03
5.157600208521696469e-03
3.557919871341975668e-03
2.187637474935335939e-03
9.918395080242704397e-04
-1.063306929221982102e-03
-2.196582495424792808e-04
4.141185953885067206e-04
1.961272618330425939e-03
3.025273160651701775e-03
2.150565677793242654e-03
-4.539958231137821744e-03
-2.198668486389820584e-02
-2.278486737301594484e-02
2.224322116039072379e-03
1.736509375900728222e-02
1.706554562380379128e-02
1.355664824611355242e-02
6.513715469741854572e-03
1.853665954614629532e-03
-4.272180974766769460e-03
-9.420215859618915125e-03
-3.289982457765715847e-03
7.623590367821374454e-04
-3.723494339527383358e-04
-4.379961194376257635e-04
-6.651350207571282529e-03
-7.681190603481331813e-03
1.625338328893211753e-03
2.455280420813167521e-03
-3.545688591808657600e-03
-6.905963644828530187e-03
-8.376690864103876130e-03
-6.796158385224376763e-03
-3.422323283047614111e-03
3.537074603731516463e-03
1.023654689832296724e-02
8.075163348006784633e-03
4.444519756947974860e-03
2.579157990305610409e-03
-7.980572649464028360e-04
1.454449135052247237e-04
3.898240353584817974e-03
4.547902010497737596e-03
1.510302887520401181e-03
-2.761071137818129663e-03
-2.041772596944504969e-03
1.825463653325085697e-03
1.831786981389001709e-03
7.725609997906665322e-04
1.456238414201960815e-03
-5.865156169848526578e-04
-3.295464783383912112e-03
-9.815766750105581456e-04
2.334798493558651756e-03
2.896340997966572080e-03
5.198212879855390166e-04
-3.479612353732165504e-03
-3.260417248961806728e-03
-2.102712725805892455e-03
-3.272634878376169502e-03
-5.148256539379733295e-04
3.789686790983680040e-03
3.181332998621985274e-03
-3.264272314451951377e-03
-7.540490422913468521e-03
-1.658630668678617815e-03
5.192103533157141695e-03
5.705487817349272871e-03
1.795837999236603397e-03
-3.312275311054580038e-03
-2.730881896922206752e-03
-1.409339134053543561e-03
-4.662615198722340829e-03
-3.775591143190571829e-03
1.633925153219142716e-03
4.443565665136080776e-03
4.417735214354994583e-03
3.253766874649555857e-03
-2.030786139231399549e-03
-7.810665592034930250e-03
-3.156454180276340674e-03
5.683548147011262611e-03
7.413992701133491868e-03
6.504948804574760962e-03
4.024189541751274982e-03
-1.275357943102472819e-03
-2.676457035261209350e-04
3.520365302197022740e-03
-2.740227373961002817e-03
-7.655156189100419117e-03
-2.391024040840906886e-03
7.521517910579852322e-04
1.691140066790947170e-03
7.348502252940189005e-04
-2.459001643022557665e-03
-2.789055181296402940e-04
-9.317732333541229152e-04
-2.575622102798178024e-03
8.884564673740756721e-04
-1.880777377071643367e-03
-1.750590998551711372e-03
4.743514883572300285e-03
4.978689734061535850e-04
-6.629523241353029589e-03
-6.053617133300913562e-03
-4.873761304537004013e-03
-3.326144622120423382e-03
1.882225248794230834e-03
5.491954089566646047e-03
5.732558496542252205e-03
5.818920551856878766e-03
1.955153628334243415e-03
-2.581940851876318201e-03
1.808399585952759868e-04
4.118785311955294737e-03
3.807259868729105916e-03
1.844759086066013977e-03
-2.624433898558892241e-05
-2.721678235431412157e-03
-3.976247147870713532e-03
3.590025277472929451e-04
3.568083531132068553e-03
1.786484567790047042e-03
7.759339770011305232e-04
2.000207385011892967e-03
4.251780193310665361e-03
3.881980507602180060e-03
8.201039695527916540e-04
-9.743013354065377298e-04
-1.811156892518541893e-03
-3.248426184915694740e-03
-6.346066366987785680e-03
-6.531530167917542519e-03
-3.810794781946863323e-03
-3.323225719115741744e-03
7.507771332418276171e-05
3.891277294633688384e-03
3.561358049377955429e-03
2.734726599742541044e-03
-1.817952635886208122e-03
-4.949171640751396858e-03
-8.823596625929787341e-04
2.257046751207875818e-03
5.962970957631893434e-04
-2.879228690172178258e-03
-1.401776025818140137e-03
1.912880160146721671e-03
-1.777123976173305194e-03
-3.263335227143302885e-03
6.479060553765559477e-04
-1.730253682974475975e-04
-2.477769775171972076e-03
-8.613108652807185007e-04
7.855004313431033364e-04
1.161366402159790976e-03
2.995870907132571186e-03
6.378225663631680378e-03
7.995255343596137376e-03
5.304022635920464974e-03
1.644482042488270776e-03
2.387961821899041090e-03
4.713334086402867079e-03
2.849463698315507845e-03
-2.132210854570061685e-03
-3.119360208086868758e-03
4.269891184133927666e-04
-1.098844600983101038e-03
-3.999111882926309827e-03
-8.949757214064951987e-04
-1.072225476025632325e-03
-4.877928056247325499e-03
-6.148781768836417139e-03
-5.329975297714996570e-03
-4.217024445079654111e-04
1.771113248865161492e-03
-1.201698178832271433e-03
-2.103758376285809646e-03
-4.513506127985951293e-03
-8.214538875710473281e-03
-7.883784329213569184e-03
-3.878469855215565198e-04
9.266670479898285462e-03
6.611323502332397579e-03
3.224319756911338090e-03
8.806457891785074779e-03
6.138544010249350098e-03
5.294375661020747290e-04
2.142801966770141540e-03
5.293056880319081496e-03
5.015108851330813029e-03
-1.989671433769054244e-03
-3.362006269010817377e-03
2.827466261223409924e-04
-3.549463609390253200e-03
-3.452368852673361969e-03
1.731806255553261292e-03
3.628465843397050104e-03
1.506540769831129622e-03
-5.482905840718874449e-03
-6.749383373466947764e-03
-1.060250666761404330e-03
1.658394572373815328e-03
7.185938181220481984e-04
-1.643111831705041043e-03
-1.997106728124202653e-03
-2.287174043190788944e-03
-3.678686473085357369e-03
-3.838974081048558262e-03
-2.258953324399187376e-03
2.560719836850758758e-03
2.956597465900695672e-03
-2.475819015300851494e-04
1.825676428025289075e-03
4.365959620974680516e-03
5.230132679990643838e-03
4.987566141154206080e-03
4.045455187238450323e-03
1.474964588282904427e-03
-1.192771775717868868e-03
3.488962018683276246e-03
6.893205777818545155e-03
8.881841595937531655e-03
6.693291140209028933e-03
-1.461804109148340247e-02
-2.386432390546766938e-02
-8.454405868303900909e-03
-5.449730301773363528e-04
7.039403723974376609e-04
1.260113514838031353e-03
-9.518228199217979458e-05
1.189020780602490412e-04
-2.089443720906619846e-03
-4.168425470027636512e-03
-5.414441295562300201e-03
-2.575275426020686743e-03
3.517386810132919900e-03
2.378058785465748601e-03
-4.731434747977079653e-04
-7.467295009384853667e-04
1.191930121920274123e-03
5.357523476897043876e-03
6.236105028304460805e-03
6.756277948204037626e-03
6.833901504540130026e-03
4.189991662100166041e-03
1.740174117488151517e-03
9.302466592244558637e-04
1.129779214417218382e-03
-9.770083395496179362e-04
1.212374134552332604e-03
3.122657167473805694e-03
-5.349349958859567905e-03
-7.035499246532736679e-03
-1.034118338122922125e-03
2.709870977266453924e-04
1.514618982805102619e-03
8.162513039907962282e-04
-2.605006145022888218e-03
-4.883459123447580000e-03
-4.568019614280049122e-03
-1.766850407082922424e-03
-9.147423280229431360e-05
2.042528556958882278e-03
3.333669667750024587e-03
3.081388640178405955e-03
1.556446494814310794e-03
-4.165198546634941469e-03
-5.450645776396077259e-03
-2.743207197992531335e-03
-2.824877947503892130e-03
-8.929715790557930062e-04
2.954960086037933687e-04
-1.116986397216884508e-04
1.001039658359592762e-03
1.996354872364428188e-03
3.853536538128476095e-03
4.009583385394084425e-03
2.221834769688803366e-03
3.763260895797339452e-04
-1.149249875193122375e-03
-1.417577843764935902e-03
-4.034402028329622802e-03
-1.389499920934729503e-03
7.852395705104311605e-03
5.020977954094979490e-03
-3.422150290089073961e-03
-2.488376883986001195e-03
-1.169441449879970096e-03
-3.080067378788353899e-04
3.020208747082055861e-03
1.423461238120894961e-03
-1.532596677465467190e-03
-1.152225355863286099e-03
-9.976442910499196300e-04
-4.946904923711524169e-04
5.835033870932746164e-04
1.103548258913202062e-03
1.167218849444437347e-03
4.486377108298737434e-04
4.636433901444674249e-05
1.065089328958850794e-03
2.353011619438182076e-03
-8.984159778815790530e-04
-4.318716621819361848e-03
-5.737388956968667887e-04
-4.144334948516756626e-04
-3.530710986191237452e-03
-4.868908284120560979e-04
6.948004683942943542e-04
2.408961807401705651e-03
4.858200978163542370e-03
-5.914279148193894589e-04
-2.732930807595395240e-03
-1.533590499487467920e-03
-3.727093561464913090e-03
-1.242680024056255382e-03
1.189433218328217858e-03
-3.280659725227473892e-04
-3.832401827256983655e-04
-9.328507968770695814e-04
-9.196147814159903126e-04
2.699107993341744866e-03
6.713962192663952902e-03
3.871622195601950346e-03
-2.624169061313984253e-03
-1.373568687715979357e-03
8.216631255705470534e-04
-1.757941829081289577e-03
-6.925047745552657735e-04
8.762825750133853599e-04
-2.133220726645246052e-03
-5.537585022369491058e-03
-4.126488825049325938e-03
4.915519739157693307e-04
7.242197394636074384e-04
1.152587227729669596e-03
5.148333355745741621e-03
4.706805304259079406e-03
8.078764079140190926e-04
-2.231616124044867328e-03
-1.251732207872635312e-03
4.160461715150330295e-03
6.665101346527171206e-03
4.183648634745120061e-03
-4.261153828023712584e-04
-2.080981614372124332e-03
5.728390793423263376e-04
1.558626834565403135e-03
3.890789605121096426e-03
6.980968495432332901e-03
2.713742854300117517e-03
-3.551532949522615955e-03
-6.382837401308859987e-03
-6.273577182823353478e-03
-2.040898050628290814e-03
3.022359648214973087e-03
2.383714683894461780e-03
-2.216454804523066303e-03
-4.967783319121720290e-03
-8.821479301696308686e-03
-9.281633446510968027e-03
-2.022528076546956273e-03
1.435417542464639210e-03
2.421303354740991982e-04
-2.516543679464873246e-03
-4.621049558934046085e-03
-1.778708404345167964e-04
3.009977386981099994e-03
2.407598176616977930e-03
2.095162736808418771e-03
2.646830519284748637e-03
4.731812933402235015e-03
3.948012692143284402e-03
4.562982777818926604e-03
5.983203984905693766e-03
4.407985399465137732e-03
3.368748450428358208e-03
-3.310131324917763712e-03
-8.377897394047780985e-03
-1.076638629314119293e-02
-1.857353665421224848e-02
-1.660023343710284593e-02
-9.363182979107502815e-03
-6.666047650835000074e-03
-2.705218642252498265e-03
2.769975970947030717e-03
1.148018982937085500e-02
1.435091599165536948e-02
1.675000900712625071e-02
2.431548220072380501e-02
2.169449962013651756e-02
1.892989101250829725e-02
1.639242592023111567e-02
7.321107050968671433e-03
3.976912404993137098e-03
3.879459641593317569e-03
4.580885332734915827e-03
-4.873900568653056304e-04
-9.648958038966749112e-03
-1.454040432106999854e-02
-1.989355540779193937e-02
-1.351968286586292811e-02
-6.424876266195219017e-03
-8.090321440515666623e-03
-8.383575903819759367e-03
-2.159956514357998583e-02
-1.597366692801424626e-02
7.572161301967084146e-03
