3.649177795494053939e-02
5.573161448640172322e-02
4.077316028815576587e-02
5.233087262490775105e-02
4.822061180953261111e-02
3.920570429441284227e-02
2.340343695378028360e-02
2.385409404811160948e-03
-1.426390708833850073e-02
-4.575585435315548954e-02
-6.025096723693250389e-02
-5.599947085008488701e-02
-6.031907527048779166e-02
-6.030245791741637579e-02
-5.286761739819242217e-02
-3.963878280712004182e-02
-2.588499288008601698e-02
-1.556738419474699986e-02
-2.570027933153177895e-03
1.283730452293036818e-02
2.670182397579635991e-02
3.467463428790151792e-02
4.050484956895500366e-02
3.156483360107430886e-02
1.284410625052496285e-02
1.596313914227629610e-02
1.898838944607313117e-02
1.139090519485025203e-02
1.185781737612224586e-02
5.977545564485467824e-03
-2.870619019292316044e-03
-6.444372514462655063e-03
-1.031477938641352926e-02
-1.421407778237200603e-02
-2.250320168402576010e-02
-2.511020153477993080e-02
-1.453859957871729731e-02
3.867061522218705541e-03
1.809406732783414365e-02
1.385605051389035731e-02
7.496874126556590454e-03
9.209899016340870187e-03
9.170284439725836373e-03
1.057523775934416516e-02
9.074368097293873670e-03
1.811401368434998032e-03
-6.182291349949506354e-03
-1.230969558840193552e-02
-9.109574296028466120e-03
-3.365136660450963359e-03
-3.235619804218811679e-03
-3.139770940797306006e-03
-4.290834637787539242e-03
-5.512353376216862569e-03
-5.967698719516803356e-03
-8.807169659830109062e-03
-2.994766750808182387e-03
1.145608582247018524e-02
1.621165274423823355e-02
9.285939832029101865e-03
1.758784162991272604e-03
-5.374631298039607256e-06
1.120887883071814773e-03
-1.170710375571777173e-03
-4.422854718724522974e-03
-4.966506110539232154e-03
-3.808539022831704084e-03
-1.447065466305526944e-03
5.658636410232049593e-03
1.046356221745927371e-02
7.291066333647265758e-03
9.060153917760596295e-03
4.265919794557413748e-03
-5.292748251046692012e-03
-3.232998925563957998e-04
-1.360458340010763448e-02
-2.601493403046872474e-02
9.893363856850125211e-04
1.334159420183122363e-02
2.234635008842734277e-03
-3.106222163297607704e-03
-1.001874422695190996e-02
-1.051691833996021459e-02
-8.134869232653307511e-03
-2.857424120060269353e-03
5.934212120391665728e-03
4.324053554294230751e-03
4.337704584771229221e-03
1.545706955207737550e-03
-7.813892070731713905e-04
1.219994458618114258e-02
1.552800134927726297e-02
5.775937686828416275e-03
-4.107009349268879450e-03
-9.186542787742797006e-03
-3.999596294756991612e-03
-3.160920540447992571e-03
-4.567224215789488645e-03
-1.774989836572580778e-04
2.045488650598080438e-03
4.899117401206398974e-04
-6.048466320281605663e-03
-7.708684056357745229e-03
-4.103906111492060423e-03
-4.897593489106374758e-03
-2.011344109718591396e-03
-3.988189547706741454e-04
-2.057770143305285605e-03
2.326210207353711455e-03
5.557871034562944339e-03
8.215213143802283305e-03
1.369296054688132550e-02
1.659359055575321956e-02
1.293129798751499471e-02
-1.442470924372125669e-03
-1.285784834307990114e-02
-7.036742826026089886e-03
3.014061144680529446e-03
8.540111062749067630e-03
1.057081425115919716e-02
2.905466960648635071e-03
-4.655873887432143872e-03
-2.914004790832630271e-03
-5.549054431248771381e-03
-9.576771133380658496e-03
-8.587064126055886371e-03
-1.197998754176563159e-02
-1.353186758674984960e-02
-9.725000522411091086e-03
-4.539732385388848754e-03
9.681338508019935634e-04
3.140493761358797683e-04
3.294824512334146478e-03
1.151094371478622244e-02
1.137742296737464728e-02
1.099978337079712994e-02
7.975241927155644894e-03
-2.314903524973229484e-03
-5.038054043879894653e-03
-4.024453537478096636e-03
-4.854783502147926207e-04
6.789607782793718321e-03
2.219929347807222952e-03
-3.222895778511031609e-03
-2.424154419703952127e-03
-7.007886886276280293e-03
-4.747131335756627282e-03
4.245978447962803215e-04
-9.220157727535057031e-04
4.002890931930105402e-03
7.893326152778590982e-03
6.747835999728029298e-03
3.613359496018248625e-03
-2.474053790700902686e-03
-8.632799589399957688e-04
-4.826006138640639639e-03
-1.225044777043720300e-02
1.932385162277351284e-04
7.652094989707038455e-03
3.360058920506101866e-03
4.408587966304208794e-03
-5.490905998091747840e-04
-4.338354878256157898e-03
-3.579866717899907614e-03
-5.101938582071659407e-03
-1.780796821441801587e-03
-5.439803436814462205e-03
-9.401343806711535619e-03
1.601015415277189709e-03
8.997543908576769583e-03
1.013408984944927371e-02
1.025173662618834337e-02
4.320116566670092507e-03
-1.804264681234601583e-03
-6.226540024003435550e-03
-9.035823092895460540e-03
-7.959126888518812740e-03
-4.303729720774225956e-03
-2.194558263552657228e-03
-1.611031137469841248e-03
5.989183834891191258e-03
1.264474327247649271e-02
1.241362100139484226e-02
1.552579850383379104e-02
9.620919207075076182e-03
-8.093035964689283476e-03
-1.460499098611140779e-02
-9.679421784542159221e-03
-6.412300569075214153e-03
-4.326264163219493281e-03
6.812915766317274944e-04
4.182760771511964334e-04
-4.705744109526529759e-03
-4.492558213725170602e-04
3.753962891739769710e-03
1.491517628423565502e-03
4.511221019406902455e-03
7.294678114446626407e-03
5.235416344448625553e-03
3.013060725249132581e-03
-8.496541009196475645e-04
-6.791357201585563816e-03
-6.323440706541592210e-03
2.979965680389870530e-03
1.535818974877171386e-03
-7.926667188139216100e-03
-6.934059114720715795e-03
-1.530642793975458930e-02
-3.086019531571042307e-02
-1.485893666779938838e-02
2.476858172149921933e-02
4.622954253544118985e-02
3.778414429653139534e-02
1.682195703278898183e-02
-5.462004333817837426e-03
-1.856250037211022719e-02
-1.082947836331682283e-02
-5.878232223498615176e-05
-3.023881014083380260e-03
-9.125540560372217072e-03
-1.041338535389595317e-02
-8.431291815549010749e-03
-6.672086728723825889e-03
-3.473810533158330771e-03
6.277804291643853275e-04
-8.465973794773320842e-04
-1.230251184382925292e-03
1.960763500116382684e-03
2.554276184652992839e-03
6.105640677718651016e-03
8.687523094139603178e-03
3.112285180735496239e-03
1.328442711298155349e-03
3.605626165548067672e-03
-1.759863053873002162e-03
-6.741628748605624048e-03
-2.501167085971103387e-03
5.445907220546538328e-03
9.789147700038967545e-03
5.126965527151720534e-03
-1.148377225029291763e-03
-1.159483088389394543e-03
-5.096155811660983649e-04
1.099140960081651302e-03
8.560901674428994957e-04
-5.234737063644765397e-03
-7.225355368014628465e-03
-6.431050201385677019e-03
-4.471852976917397790e-03
4.397262681719044802e-03
6.783518562157447862e-03
1.371835845738548056e-03
1.940273651365083786e-03
1.344485450973394343e-03
-2.642138471209059224e-03
-3.465982773761882955e-03
-2.646397198256763856e-03
4.361254105055145311e-03
1.086466215015188461e-02
7.742296501663758351e-03
3.096286559235887810e-03
-6.648242044974107291e-03
-1.584034735548411899e-02
-9.583837327537488016e-03
-2.508071020495669136e-03
-1.948197109641779199e-03
-4.593329299370414037e-03
-1.011838271492711099e-02
-3.978745214060152094e-03
5.499408980077595370e-03
5.101076904486200742e-03
7.928640044512528032e-03
6.034171139137386140e-03
-6.425581091334642628e-03
-8.680800498558138151e-03
-1.958010702446859840e-03
8.419726873435001181e-04
4.683891733980479616e-03
1.002354243713259388e-02
8.660818635055782949e-03
4.159553412837638936e-03
2.666153630742584130e-03
2.756191470659109192e-03
2.176292312747747648e-03
-1.996319259181311701e-03
-4.720790188769132152e-03
-2.119003894288501270e-03
-1.046542079954091656e-03
1.793890714807486880e-03
8.221372936337069739e-03
1.146501358964642676e-02
1.263686974434651521e-02
8.097886064646491605e-03
-8.214941109589816732e-04
-3.770993586076468868e-03
-5.530869081460792862e-03
-7.201728080500408545e-03
-1.756379621908967653e-03
1.204293383963077205e-03
-3.157404133530832598e-03
-5.285964391415738130e-03
-7.010023132447726173e-03
-9.027425802482658829e-03
-6.715022599322395709e-03
-8.126976274882990667e-03
-9.069823935242147042e-03
-3.201195049216811177e-03
-4.988989815685198302e-03
-8.300891240523765313e-03
-2.795526775743014097e-03
-1.262824149514370133e-03
-4.183647255085074998e-04
3.688687772252048289e-03
1.712392645954732926e-03
-2.345132522299614788e-03
-5.436022903293199343e-03
-4.320048162485753962e-03
6.692789852465419638e-03
1.525565713488886109e-02
1.699568129061552677e-02
1.985132514034277512e-02
1.667968673744283856e-02
5.364409184007367173e-03
-4.668969926761452546e-03
-6.998148113553344721e-03
2.329791793314553048e-04
2.587230109379153997e-03
-5.826459176648629730e-03
-9.086540547774283119e-03
-7.345637198308482829e-03
-3.332977948214032021e-03
5.079114908264768108e-03
5.829371649493327034e-03
1.684721248864793491e-03
2.450879854075705983e-03
3.401840517421611358e-03
3.305147552900049562e-03
4.012952769647377266e-03
7.751118230591264383e-03
9.933668245680376749e-03
4.587749857611587122e-03
-3.653319439784424080e-03
-1.336557158027767631e-02
-1.707036154207734746e-02
-1.062749907412941473e-02
-4.806392273283421543e-03
-1.704093448620303724e-03
-3.869275452987857439e-03
-5.363200242003948390e-03
3.334108527840026585e-03
7.837292651858986103e-03
5.844329080141057522e-03
4.978702275693761004e-03
2.260745267919558269e-03
-9.074139512241878851e-04
-5.050898699417243586e-03
-4.455049161763348364e-03
1.904004393087254960e-03
2.214238710107118389e-03
-4.780952314693819385e-03
-1.697465109806418557e-02
-2.347325273199127316e-02
-1.711101591976717934e-02
-8.382607268855968990e-03
3.471344260687355722e-03
1.361591050879008488e-02
1.265807623827067477e-02
8.485733407693875699e-03
5.726933526691226246e-03
5.178262274092293449e-03
7.118172214215737897e-03
1.422607863849603693e-02
2.174237293617646907e-02
1.437680095335108071e-02
-3.249752754926448894e-04
-1.065119799328966693e-02
-1.098254940930021989e-02
1.691376663450717402e-03
5.849125471468395732e-03
-4.550492064652597243e-04
1.217827698690163770e-04
1.416093039559243897e-03
-3.780755278241513173e-04
-1.934399633513742608e-03
-1.601036584852941376e-03
-1.569609105842027438e-03
-7.071661435571306373e-03
-1.104606631017036530e-02
-9.671078651394333925e-03
-4.701219480391548126e-03
1.759754824280425692e-03
4.227857123190119359e-03
5.454758346345038242e-03
5.755617919210165648e-03
3.092730627592326330e-03
2.245637035561568807e-04
2.309814279912791174e-03
9.170813607252251837e-03
6.926834151730182007e-03
2.093662276289317420e-03
3.670613016255294073e-03
-1.259881694428434049e-03
-4.887082809915154966e-03
-5.187035190479070447e-03
-7.611440353804795056e-03
-4.977950596187840498e-03
-8.370402434316800283e-03
-1.127397276387859422e-02
-4.346507258250280857e-03
-8.439394074100601542e-04
5.219636840645832179e-03
8.721231386388706916e-03
1.036097620781699195e-03
-1.086797897556102815e-02
-2.613061405744663071e-02
-2.375213515898974559e-02
-2.928605071111737949e-03
6.847713800134605337e-03
7.673139666050009244e-03
9.273010005070834311e-03
1.025725443953675112e-02
7.012702845236931659e-03
-5.110547972572704453e-04
-1.613894580074106636e-03
4.028834416714539846e-03
9.917856670269965466e-03
1.042322120726787635e-02
6.741752659420548709e-03
6.253591570172249876e-03
5.644241059833690448e-03
1.048582523090231707e-02
1.880695712112816914e-02
1.620593893844935948e-02
9.696212715924549738e-03
-1.772417390924886952e-03
-1.447019655888227146e-02
-1.088185117482155274e-02
-2.726392662402392711e-03
6.427822832613964889e-04
2.090253870467777102e-03
5.320654181881780652e-04
-3.237746720991511833e-03
-1.461332093148622058e-02
-2.176494823822251734e-02
-1.524284436702470075e-02
-9.204427916934000350e-03
-4.515905885627851182e-03
-2.727242158865023948e-03
-3.554682473416110548e-03
1.872149304870031165e-03
3.526679347281481362e-03
2.946271955810908158e-04
-9.638198116740789509e-04
-4.731923203352472740e-03
-9.719301374287883308e-03
-1.151021184672912888e-02
-6.857488887504351385e-06
1.815693285612918553e-02
2.113862283539583165e-02
1.742148819317806616e-02
1.414759804682461791e-02
6.129485942088380886e-03
1.474922844200450903e-03
-1.844677693124266177e-03
-5.943256271585987266e-03
-7.124425130933858576e-03
-8.783981511500366102e-03
-7.757721157804764456e-03
-4.066334255485616611e-03
-1.579245677902977414e-03
-8.289366270759847321e-04
-2.281546064630076212e-03
3.699299258482594780e-03
1.428394982605240421e-02
1.049667488596043446e-02
-6.260625717537896418e-05
-1.443991481739197950e-03
-1.849890047393693655e-04
3.892304599534148965e-03
1.010427622576842710e-02
2.586473534980619424e-03
-7.009082746926679174e-03
-4.796478031911096881e-03
-7.205252148444415278e-03
-1.160374328320547092e-02
-9.171954208929211996e-03
-8.503573081840184317e-03
-9.666332573377652351e-03
-9.364754508922929280e-03
-7.581895512526818899e-04
1.028710126984491886e-02
8.535397551615492989e-03
7.124269295068720240e-03
1.125821553325492136e-02
9.361286297633303333e-03
5.253891389912382012e-03
2.648693842936814240e-03
1.834169892438830812e-03
1.367306781517084544e-03
2.891429197460152877e-04
-4.521595124618015341e-03
-1.637980992541939948e-02
-1.655065437605206247e-02
-3.385677633589712077e-03
2.635109922987758767e-03
5.970652385898404281e-03
7.985790631298792311e-03
6.397369576038304702e-03
8.655205554767314569e-03
7.125393478249905654e-03
-1.030810218760252811e-04
-5.847415859269324868e-03
-6.637687875138080680e-03
1.294116559097251888e-03
6.546510911352856205e-03
1.809538701105308650e-03
8.506892928570571131e-05
3.623638009097154659e-03
3.072996886693599768e-03
-1.544443977469888828e-03
-4.994416756386974542e-03
-6.277850907300005709e-03
-7.640026140293203552e-03
-8.605024185030875350e-03
-5.928125017559569485e-03
-2.771575827671962297e-03
-1.592149702160373416e-03
8.853232081665908786e-04
-4.556256934570614972e-04
-2.584696737770442003e-03
4.075617742835149424e-03
7.764622369047959397e-03
4.642330815010056039e-03
3.081291546224548990e-03
-4.965176366177038308e-03
-1.498307960269807705e-02
-1.180972692601503504e-02
-7.962491087049512056e-03
-1.038902202709880360e-02
1.068098709802411690e-03
2.032475812908093871e-02
2.493129839575413884e-02
2.116991261909774089e-02
1.372211451107168377e-02
4.771001433050414513e-03
4.844351625330163081e-04
-1.005672801079887484e-02
-1.796678324581817143e-02
-1.117852981969001333e-02
-4.493064081044753980e-03
2.001823643373743401e-03
8.619909998932407530e-03
8.527964383841145357e-03
6.059945982742091439e-03
2.492387412252408847e-03
2.534042254231654197e-03
5.071018774170534156e-03
5.183425629486968812e-03
6.773341608250073136e-03
4.860451014707141762e-03
4.586831661929355927e-04
-1.261151835461201375e-03
-4.380836979834440946e-03
-9.782804500090199265e-03
-1.460101450173130130e-02
-8.855230126253332834e-03
-2.875130578683670907e-03
-1.318688922660053546e-02
-1.849308163086729739e-02
-1.107759131405928153e-02
-2.649450999306034431e-03
4.291307004883369164e-03
2.682507855450989333e-03
3.736820623421619521e-03
1.251250459303385708e-02
1.212637571337684197e-02
3.620217776931782157e-03
-4.533091551001471389e-03
-6.591779802462457462e-03
-9.198874590617802174e-03
-1.439048528543985031e-02
-4.763303928683576202e-03
4.523907104551799264e-03
2.349471918769494624e-03
9.561196571551218784e-03
1.849608796937595584e-02
1.574861852656958203e-02
6.310325543497910181e-03
-1.592852844302696837e-03
1.005518104662076482e-04
5.153660179476281938e-03
6.366559018279580040e-03
4.243267710905373850e-03
3.235818583549194757e-03
3.935840127802700192e-03
-2.278531083754199195e-03
-6.011074550522885022e-03
-5.902809488505314506e-04
2.552530225142099311e-03
4.583182118332746260e-03
3.753798362258017451e-03
-1.192941501199192705e-03
-2.973639912085537015e-03
-5.439898874272770801e-03
-8.790999656467089751e-03
-8.968064078137886336e-03
-8.632377950332777855e-03
-1.145043407637248191e-02
-1.418153403381864144e-02
-8.281513989388072233e-03
4.786620829811246087e-04
3.772851789384742711e-03
2.628756452050620349e-03
8.591670465272002602e-04
7.462176136579738890e-03
1.467190486937816965e-02
9.958420511806620468e-03
2.208179908889501206e-03
3.960540272009702763e-06
7.612148014677478204e-04
-4.131510929402382008e-03
-1.036072618778678157e-02
-9.670834500754111468e-03
-1.068273903160303802e-02
-9.378117400449434080e-03
-3.082888022507244107e-03
-1.423463925320365931e-03
2.752496082454151689e-03
8.057078460152071464e-03
7.817944262303536812e-03
1.357137658989035836e-02
2.440315397985163073e-02
1.813444418280558273e-02
-8.406061091647959449e-03
-2.352814707028799343e-02
-1.282575153237224506e-02
4.531778159237142764e-03
1.548783349160778519e-02
1.577828118847413030e-02
9.115782203057186742e-03
4.697845915963679009e-03
3.011985341365127581e-03
-9.907820621137212319e-04
-6.587979876203687614e-03
-4.787611360635820462e-03
-1.858811070310015766e-03
-6.219259526801947970e-03
-1.037162851002819061e-02
-1.021761372037840836e-02
-1.963164048087708176e-03
3.744122733921552773e-03
2.499580662459391974e-03
3.386727866475653347e-03
-1.138318218276424681e-02
-2.122238041331448929e-02
-2.990334677811453973e-03
5.571576628028642071e-04
-4.966532438729968219e-03
3.497316807690122997e-03
4.580222306235985467e-03
4.528322256065922362e-03
5.680372098459324399e-03
-2.534913930518354393e-04
-3.621651238709680531e-03
-5.724893742710143382e-03
-3.878653137291989544e-03
2.202327959705029873e-03
1.245760837323690471e-03
-1.456678855956350816e-03
4.930011979841460341e-03
1.537062928782520661e-02
1.845067493179288962e-02
1.565066962411971671e-02
7.353537931755581812e-03
-7.884255970332104332e-03
-1.454209482518777942e-02
-1.029925873932818758e-02
-4.791259639686673392e-03
8.413681530956272116e-04
1.665573031407391064e-03
4.247168801072879855e-03
9.412539059380668066e-03
1.786840381074191776e-03
-7.721036313411876011e-03
-7.615696810386320473e-03
-3.630172805114630433e-03
4.698193752048394727e-03
5.495795300807004673e-03
-3.223789955477801821e-03
-3.433583749875056181e-03
-7.703906935780388890e-05
-3.393251300957072537e-03
-8.852269071659708832e-03
-4.665744567629662339e-03
1.007261930845196676e-02
1.177054987789866169e-02
2.722498216677794909e-03
1.145194028470795369e-03
3.819420944839352176e-03
1.067789592619568587e-02
1.538661154658968119e-03
-2.089212961184992029e-02
-1.297287656827677237e-02
6.773921023827829922e-04
-8.136676223953446738e-03
-7.562201923534137352e-03
-1.380814534750828861e-03
-4.200488657767743536e-03
-5.339556964576054957e-03
-4.640332600572348414e-03
-1.518341423650310020e-03
3.827593675782618027e-03
8.945946725408942743e-03
1.311865035246022847e-02
9.789759570294155958e-03
3.571829212518317937e-03
3.169319080426307843e-03
3.040704974616925335e-03
2.164181138206343336e-03
5.581527127224985944e-03
4.780854047840335172e-03
-4.815722742618139436e-03
-9.548150884054439069e-03
-2.180911606846781380e-03
5.972662747001036658e-03
3.775258477657962748e-03
1.821400570813356038e-04
2.209022692422784196e-03
-2.218077380498072876e-03
-7.898213725997627749e-03
-2.260397162065112993e-03
4.396565090639611983e-03
6.030300598555774980e-03
3.496309081809967183e-03
-3.872328143916746544e-03
-7.618984301037451563e-03
-5.729072955549478069e-03
-3.864336646496121727e-03
-1.142916023494299285e-03
1.943266217532476758e-03
2.618777585374053567e-03
2.375621225185450217e-03
2.047338925097886425e-03
-1.730293887249308247e-03
-8.239851239673936373e-03
-7.107355095244557996e-03
-2.982076083429904649e-03
-9.833660528448865540e-03
-9.631925346485534223e-03
4.069206266214204018e-03
6.272490588272538678e-03
5.182576017655346305e-03
1.110760608288747370e-02
1.092298490236946924e-02
8.284379754005088969e-03
3.143907460132583116e-03
-2.174534100341698594e-03
1.650080790592324629e-03
4.041952330457448429e-03
3.423320458382357340e-03
2.737095728758314264e-03
-1.084515437603198774e-03
2.939101015357399767e-04
3.153238366503442660e-03
-2.370006135632109949e-04
-4.654418292389207040e-03
-8.064976191517480436e-03
-1.100891372345762405e-02
-1.298825063189421904e-02
-1.182457333718056093e-02
-7.518400807013956265e-03
-5.153314812960603552e-04
9.113299667422261607e-03
1.159879315751047302e-02
6.108151014587924650e-03
2.173201942527466270e-03
-1.548674654752343156e-03
-3.744338989477745665e-03
1.420363614223037023e-03
8.588482098210691029e-03
9.178508663949798072e-03
5.488025079919887222e-03
3.816005529739288811e-03
2.562540930683995886e-04
-4.245743949556899863e-03
-4.916908483921176784e-03
-5.390511075938800994e-03
-4.894420520896041599e-03
-5.892782533211264259e-03
-7.170295890573367796e-03
-1.054356892784212877e-03
2.921720015673624771e-03
3.893506049808039774e-03
8.429869229118057417e-03
9.230230073446765021e-03
7.140148443215638477e-03
2.413136694742066147e-03
-2.476256445489662117e-03
7.938117685052736936e-04
4.062263977589526676e-03
1.109349360711767239e-03
-6.875802953260868114e-03
-1.534228380907325627e-02
-1.534711953256501400e-02
-1.054342160269668496e-02
-4.486027601090082292e-03
9.941218115388247931e-04
6.950692323782607131e-04
2.603574328219136866e-04
1.231927262820188204e-03
2.611580349132667286e-03
7.160465561820591324e-03
7.125519553934655387e-03
3.276268157557246045e-03
3.177478355534020700e-03
4.449171132033658666e-04
-5.116384452313799992e-03
-7.068717115024245740e-03
-1.951330654523845531e-03
8.616404865400578705e-03
8.655412263859300209e-03
4.954460838366178503e-03
1.027568324269182050e-02
6.117675607811282577e-03
2.698354526796043450e-03
6.647146834163358657e-03
-3.359336806556730568e-04
2.431640700719127140e-04
-1.958615818164335465e-04
-8.985913232902646708e-03
2.816667941602444582e-03
1.017520729341690744e-02
8.022313304095472428e-03
8.261023022459115447e-03
-1.002260776973276125e-02
-1.949417734653545106e-02
-2.071918915603922218e-02
-2.733285286328954178e-02
-5.172162357728322772e-03
1.271104018615209358e-02
1.089113649422517125e-03
-3.491582559180379103e-03
-2.555818060742908598e-03
-2.462058062418559946e-03
-1.976760097725484971e-03
-2.873422352352489242e-03
3.182419883594678461e-03
3.058734031705717931e-03
-6.149866674182763795e-03
-5.280680128020378422e-03
2.876175880447802684e-03
9.763467748068219848e-03
1.607563762941247726e-02
1.480616879183818332e-02
6.748133863006802215e-03
5.559738856050675491e-03
6.981078139291529636e-03
4.821789780468660122e-03
6.386007916058224904e-03
7.038424173986873242e-03
3.760674896017692208e-03
5.122647114713679449e-04
-4.282236772798834502e-03
-6.380502015213606118e-03
-4.451882791651503787e-03
-4.903320014954960955e-03
-7.148272638094991561e-03
-5.732762042894348417e-03
-2.878058130152542568e-03
-1.994507988790744125e-03
8.993871355351470975e-04
4.663197896259964684e-03
7.634884679203094576e-03
1.122699946420353118e-02
1.127493069020117818e-02
4.871551856257549246e-03
-6.912597228327603711e-03
-1.195275038334323373e-02
-3.828373696348816649e-03
1.895484180167057503e-03
3.798788208636712498e-06
-3.004710445171714442e-03
-4.878328889045393212e-03
-4.657418416521882931e-03
-4.462076949311681064e-03
-2.934376868135833011e-03
6.941798078977202274e-03
2.097986044351087334e-02
9.593905301754575982e-03
-2.012140253727043304e-02
-1.417631359249462049e-02
8.319438236945954357e-03
4.675577033395354395e-03
1.215012461053156063e-03
4.157034268367858741e-03
1.098208563515483882e-03
1.293994340622167108e-03
7.311245711215645258e-04
-1.563391663033962499e-03
-3.399464352614326237e-03
-7.457399584392574235e-03
-1.078459043334133866e-02
-1.004951608151547805e-02
-3.459526513352575387e-03
-1.244592858670984670e-03
-8.266435744337160413e-03
-9.688012069795182840e-03
-4.691278549477215579e-03
-6.413991097623744989e-03
-1.535489195117798605e-02
-2.151093393535427611e-02
-1.637509865465470657e-02
-5.905097495746347395e-03
-3.704489425009534990e-03
-2.162018459970681261e-03
4.699589245070090633e-03
5.157904873118338528e-03
6.780760782298300184e-03
1.348131172852403553e-02
2.069566316455454316e-02
3.449890078367334745e-02
4.078029320857216866e-02
4.009120356720594081e-02
4.174001231318998084e-02
3.003347002532403762e-02
1.289631423943411390e-02
-4.341431353426113658e-03
-2.816632999014853644e-02
-4.322054417685345512e-02
-3.921294898133728668e-02
-1.788443496471569735e-02
-3.693046577735845017e-03
-5.654208673693672006e-03
-5.844452765368952224e-04
6.343795947057829024e-03
1.107870616108689102e-02
1.270726998943669944e-02
2.075421171323482694e-02
7.125819770717674306e-02
1.135607374987406409e-01
7.800683861046769918e-02
2.573075175603724458e-03
-6.870616622878884805e-02
-1.209267969884404992e-01
-1.373498670214261530e-01
-1.270645701920904425e-01
-1.099246662279972364e-01
-7.787197164379471015e-02
-1.405448285586450088e-02
4.133030732901601251e-02
5.654611696778581720e-02
7.824881147590501129e-02
1.003806917942781235e-01
7.150445418597481395e-02
2.869582001708340796e-02
5.920508166844639340e-03
-1.608958307656162268e-02
-2.123084029381186802e-02
-1.002643137324268387e-02
7.759438885251041321e-03
3.295926912420966276e-02
-5.679171594280086298e-03
-7.247571225887614044e-02
-4.970155867634558355e-02
-2.581977987115790379e-02
-5.687126161838354510e-02
-3.970335429480366385e-02
2.788078329138130723e-02
7.732872107460456168e-02
5.553647528479647988e-02
-7.773954866114585454e-04
1.001591491643099435e-02
5.701030849870264428e-02
5.809427922930592708e-02
1.801801042942707473e-02
-3.339316774074240629e-03
1.608338500681520331e-02
3.543677979892342206e-02
2.488224238938126914e-02
-5.581590422851007149e-02
-1.293408904131533865e-01
-6.089977880243323954e-02
5.766317528417679722e-02
1.384258475609142780e-01
1.630756446474555810e-01
9.506790531069911343e-02
5.447735793445143693e-02
7.509311184803595107e-02
6.391125047212084520e-02
1.947965074694329307e-02
-6.434007259495216902e-02
-1.438191249027125362e-01
-2.052641956734639894e-01
-2.661252645529081917e-01
-2.005062468873300141e-01
-6.138229024929541672e-02
-4.672247260121999840e-02
-9.306938647407222986e-02
-7.147382531503945757e-02
-2.297193870430513929e-02
1.886464239803874697e-04
2.913383206247605398e-02
5.738271941861251141e-02
7.668880477798478701e-02
1.491970529408349344e-01
1.833249505865388040e-01
5.785154251838444533e-02
-5.855940495758523573e-02
-6.167568948722190660e-04
1.227456440202348981e-01
1.450022574107938389e-01
7.343156979544852858e-02
3.771051373608671348e-02
4.524795030180741445e-02
2.465705477410557248e-02
-5.312382997103869998e-03
-4.524167541243115376e-02
-6.998165805057381117e-02
7.599099049822658804e-03
1.063767548293190063e-01
8.679440423591258669e-02
-1.355037480051530033e-02
-8.888825384324497425e-02
-1.104635376456848117e-01
-1.090947594582296620e-01
-7.997404365918839297e-02
-4.021619241725859356e-02
-6.945014756999681738e-02
-1.346680586232529286e-01
-1.233876831351587017e-01
-1.130451290148152058e-02
1.019296652088270555e-01
9.830493074635274220e-02
5.204757587233552196e-02
6.522350603382168210e-02
5.781553167221838846e-02
7.114265466597314430e-03
-2.170794232991997766e-02
-2.550972290097174022e-02
2.813020349282377604e-03
6.245535318760552651e-02
8.480630074875132596e-02
2.626794341454252724e-02
-4.625204098667736602e-02
-7.452018343829321101e-02
-8.072530265168187391e-02
-4.798792786203334715e-02
1.479151180796909118e-02
2.700775651827298091e-02
9.354927274311775412e-03
2.064597306902787519e-02
2.850960796818448328e-02
1.770323682482013647e-02
7.471463648097384155e-03
-3.751812409062173226e-03
1.053722895256626116e-02
4.325676248490492593e-02
3.088732709514192820e-02
-1.676138070074634006e-03
-5.688780363048246032e-03
-7.921163363970898721e-03
-1.235501244176257125e-02
-8.533334665959310325e-03
-7.180541628743770943e-03
-8.298431868994997698e-03
-1.045908552123058291e-02
-9.352104946296756205e-03
-8.226002580865665950e-03
-1.016854396687110612e-02
-9.711727524350529869e-03
-1.066617362041117137e-02
-7.231521137528715282e-03
1.104718904108297753e-03
1.432377943052255947e-03
-4.432532500207100878e-03
-9.388823030803366068e-03
-1.169354569453232538e-02
-1.066312762623593952e-02
-5.815414275706744414e-03
-3.830258648031365128e-03
-1.761714746778148379e-03
9.628599213454167374e-03
1.534021494548750732e-02
1.775116676703452148e-02
2.957939383107227246e-02
3.673147647095199170e-02
4.092758820361129535e-02
3.492848931887504449e-02
-5.275622415061537000e-04
-3.594946288171946280e-02
-4.408356615503601639e-02
-3.463844319331034483e-02
-1.669178164064179237e-02
-5.739209525194684941e-03
-4.184216207974058264e-03
5.004361037256571665e-03
1.013236354576263314e-02
8.094833722098074974e-03
1.443397184804058077e-02
1.592953574901207273e-02
7.657771554436251099e-03
-8.780168963820712130e-03
-2.846610184783423397e-02
-2.655167722511077646e-02
-1.603466187705187423e-02
-1.328724283109030367e-02
-6.305731318772047136e-03
5.488782759504313817e-04
4.281385765583596049e-03
1.175998048307370621e-03
-6.209205734120913124e-04
1.012532832604171561e-02
1.479318006264258162e-02
1.684342935611914810e-02
1.774098170946873318e-02
1.247550434540811715e-02
1.869431641609173994e-02
1.936787991079194984e-02
6.260301462413973665e-03
-6.618153505249103723e-03
-1.707509236018252274e-02
-9.302783768539704332e-03
2.446620576392215252e-03
6.069854939102246666e-04
-6.283962447029381101e-03
-1.709258728170969313e-02
-1.234941035079367699e-02
-2.014366780422438552e-03
-1.281229513112283266e-02
-1.949043222884595805e-02
-9.981944214828187764e-03
3.305218341805964133e-03
1.468909941404861370e-02
1.956867613888805396e-02
2.202818748437751495e-02
2.186489621496454094e-02
1.686043338199988417e-02
9.132925971533848233e-03
4.666752411416329530e-03
7.310341798898985742e-03
6.466248043739303807e-03
-3.054067004133624585e-03
-1.524537541741999638e-02
-1.426981339277203810e-02
2.612064490818340277e-03
3.460912155690244133e-03
-1.428083212094678929e-02
-2.088078675832177877e-02
-1.499189626546501043e-02
-8.234268609875701472e-03
-4.964710054903555443e-03
-4.634860884378056226e-03
-2.986461244851982590e-03
-9.660060430798669785e-04
-3.424280743600313301e-03
-8.520824642203094282e-03
-1.156072947355734661e-02
-1.288910762001128571e-02
-7.424243294846512298e-03
3.001622068989382146e-03
1.017019337151340956e-02
1.695583947199810412e-02
1.750752253117325227e-02
1.542766903222042400e-02
2.184673712936576612e-02
2.404795177325150246e-02
1.782634367808018025e-02
4.207008198902880206e-03
-1.386147991863325747e-02
-1.792343229596992868e-02
-9.491711380155750527e-03
1.229324141804064106e-05
5.969090188488237851e-03
6.129081185321992760e-03
6.017700145985012232e-03
3.665217541868244847e-03
-4.309789793352806152e-04
-2.030770327303084259e-03
-2.939442723355075067e-03
7.397880182620288915e-05
3.400245283989078438e-03
1.400913023823030729e-04
-6.596725388168273897e-03
-8.419596772296101747e-03
-4.481338722463392571e-03
-7.322962848961126793e-03
-1.135137072588875314e-02
-3.896874343707390498e-03
1.532601764242642666e-03
-4.355672083542554487e-03
-9.421703718227123631e-03
-2.937497115699657171e-03
6.240167192433919950e-03
7.438141393396944905e-03
8.599654305712975746e-03
1.363643169733482798e-02
1.624765935898052696e-02
1.233038637432036684e-02
4.253341814004740241e-03
-4.195438269504612322e-03
-1.552287942604135135e-02
-2.256932077392389407e-02
-1.777295660056554122e-02
-9.915601289103140314e-03
-7.062843786527604403e-03
-7.861919314900737629e-03
-2.480463173239545131e-03
8.393812920013879811e-03
1.058251866036257448e-02
4.639225911042123111e-03
4.307525647431694610e-03
1.411715193017714157e-02
1.719842230437454086e-02
7.140745769215660343e-03
-4.096781059415510132e-05
-3.373572947452965504e-03
-4.348199836867817740e-03
-4.497448292752557683e-03
-7.265924183235188301e-03
-4.098001654228316691e-04
1.156322941946959920e-02
1.565221658713881331e-02
9.846150046547843399e-03
3.542972742481538626e-04
1.443341389210296049e-03
1.435547518140085650e-04
-6.108857898868942475e-03
-1.475535867384077148e-03
1.643004413440949871e-04
-2.340020911632435937e-04
-1.089211323669778565e-03
-3.947748862205948187e-03
7.774146024026105765e-03
1.315872842900811523e-02
7.000571884770794527e-03
9.129989204724557866e-04
-2.456720836176724820e-02
-3.822375844086717961e-02
-1.419333866737072965e-02
5.608419086827193777e-03
1.653237714033604271e-03
-1.523533175328888913e-02
-2.465751740778278009e-02
-1.392591717413058788e-02
-1.088486845607462145e-03
4.618419435109733309e-03
6.764923920966448012e-03
5.467891321969210738e-03
9.884917263121004161e-03
1.842329271281444372e-02
1.462560481007400652e-02
5.952185300676532745e-03
7.565807663517947097e-03
8.177988859600920576e-03
5.922438728469934036e-03
8.063539396230178652e-03
6.241452306339159532e-03
3.296748477049050389e-03
4.058164530290848948e-03
7.457796272230332070e-03
1.662298420952890154e-02
2.234711943062377137e-02
1.954452941513284969e-02
1.794006732529382364e-02
2.106043872207482778e-02
1.357278974085242285e-02
-2.104951130226488665e-02
-6.119723577999496011e-02
-7.588031681974316545e-02
-6.434767688128531504e-02
-3.193293199336656729e-02
2.166501930142131216e-03
7.284763736653731593e-03
1.008279383881046688e-03
8.804480093364540003e-03
-3.704452517157832622e-03
-3.122948380832220316e-02
-1.730450905037298620e-02
1.581623160863996139e-02
3.199130322866636927e-02
4.165918864825593482e-02
3.644882452102105042e-02
2.070459268974075839e-02
1.008897166794369381e-02
1.181008812504507482e-02
2.847324691377001171e-02
2.798488821868003532e-02
1.078408838521240955e-02
5.439749797767565349e-03
2.180109995282389010e-03
-3.097789158035034809e-03
-1.300590100047745168e-02
-1.782109177396341143e-02
-6.857227665307490116e-03
-1.430022062883147885e-02
-2.446182928203479226e-02
-1.013999914277040858e-02
-9.655598862724861647e-03
-1.709252389505182615e-02
-1.631999342362206590e-02
-2.912991257871832412e-02
-4.182346225951343033e-02
-3.762694991728429000e-02
-1.766970499635429556e-02
1.014554115575424034e-02
2.439830734083044822e-02
2.406966866298120011e-02
1.646009885615075038e-02
7.678954251913122295e-03
4.709413837283362401e-03
5.736450706882887871e-04
7.992316709072551720e-03
2.997957993416710057e-02
3.622355995584791710e-02
2.878494106604846670e-02
2.617110333383807289e-02
2.602122218072164608e-02
1.805467855319914730e-02
5.093151606915963421e-03
7.036740250123351380e-03
1.118405619023269543e-02
-2.952765652978765233e-03
-1.624180628599020473e-02
-1.808192402585464056e-02
-2.379525727808418437e-02
-4.825607567614285942e-02
-6.593417231375862941e-02
-4.727647242759368956e-02
-2.718253829616026560e-02
-1.980037658962216854e-02
-7.756466937301513369e-03
-6.514564046195333181e-04
1.630771079937908680e-02
3.799426065430607652e-02
2.865618933175944141e-02
1.295859510392171655e-02
1.825076860286775973e-02
1.810055080782749931e-02
-2.152895904132047164e-03
-1.653625487217359052e-02
-7.463245433219969742e-03
1.027705325359924357e-02
2.154814727437533509e-02
1.648612967255970452e-02
3.507425990838260827e-04
-6.120968602740708975e-03
-1.344821680365662197e-03
1.311293387967332226e-02
2.391145187407883038e-02
6.321796476369968831e-03
-1.280692738243906226e-02
-7.516469228202435696e-03
-3.113164683880680246e-03
-6.499649306840557007e-03
-8.190433808841638200e-03
-1.105918467480530507e-02
-1.230656620959713621e-02
-1.343483660469496979e-02
-1.002119675943853074e-02
2.427688969699042312e-03
5.177452956558185881e-03
-2.099920113159515524e-03
-5.921404764117047317e-03
-9.947842264106849380e-03
-9.582380434104795230e-03
-1.793887293016068959e-03
9.177617006268477817e-03
2.007147661235927916e-02
1.989020952382520441e-02
1.169991270640696572e-02
4.291381825663052180e-03
5.635819480775646536e-05
1.469973713048767236e-03
4.058327669210708795e-04
-2.762562635596101449e-03
-6.569072137769056165e-03
-1.312208819483217520e-02
-9.247439660703467290e-03
-8.404912289218378256e-05
3.892858454377447035e-03
1.025645277947576442e-02
1.280047720285181108e-02
4.038542663946657202e-03
-5.267493022849113922e-03
-4.680353483473783521e-03
-3.125101115379289377e-03
-9.570479734326970550e-03
-1.175800918451787302e-02
-6.482796155048286581e-03
-1.952977435843450144e-03
-2.573097739890252249e-03
-8.068703186742886765e-03
-6.428012098370987012e-03
-3.297844634550132570e-04
1.254941776024695328e-03
7.045558154809891845e-03
1.439465400559804958e-02
1.384166488469621911e-02
7.252895140356424054e-03
9.368184749520644004e-04
2.189625634637562285e-03
1.047468868010042325e-02
1.320799322818699481e-02
1.659271640447335713e-03
-7.418557541814502221e-03
-2.554572200598445152e-03
-4.819737374069575598e-04
-4.436186847811904831e-03
-9.920266133814640425e-03
-1.674266306532646784e-02
-1.427051509817551384e-02
-2.181367837415625587e-03
1.079999087364166485e-02
1.490438216500440671e-02
6.909796675339086904e-03
-5.199052692209725317e-04
-3.680617516093008350e-03
-5.970726448055257811e-03
-7.192624160754019363e-03
-7.265791717993091807e-03
-1.294329213144081257e-03
5.176360256368089593e-03
4.612986479797810332e-03
5.160764504791398762e-03
6.997856781188037216e-03
-7.816915658739239390e-04
-1.189117143178279948e-02
-8.371093421760974693e-03
1.984904422356590682e-03
1.502565538553438801e-03
-3.017185744696722176e-03
-3.663378680848968037e-03
-3.412153678280349222e-04
4.714871145714340586e-03
3.761897356612283264e-03
2.326247450676498761e-03
6.355208195964574640e-03
6.499420640513427563e-03
3.311646687032724235e-03
3.114246530890976347e-03
3.208799961892390851e-03
6.731328659998456893e-03
9.859583107845614272e-03
-6.431557572494008435e-04
-9.504520810150390159e-03
-6.380820117133969779e-03
-1.139361659386075969e-02
-1.858603972862560988e-02
-1.289060388199953985e-02
-5.533973095150769399e-03
-4.474234591485039443e-03
-6.594392380811347001e-03
-5.615470852721012734e-03
-1.033809859901550039e-03
6.435647219727992814e-03
1.460494396763594056e-02
1.448862972305112705e-02
1.245641231597743002e-02
9.002918924274187079e-03
2.155776355747819097e-03
1.088574824187230755e-03
-9.354589747897568489e-03
-1.902262101641612191e-02
-6.726780140587670757e-03
5.198509681147846923e-03
8.149458601692936843e-03
-5.696695733852686835e-03
-1.817048966713650723e-02
8.737974964616901027e-03
3.020501065893698225e-02
2.686773284130904854e-02
2.651499467650584099e-02
1.080900331190946112e-02
-8.576488011651936527e-03
-1.992286241372494618e-02
-3.571497144743644714e-02
-3.526642821703763336e-02
-2.098174437694757047e-02
-9.243462695571580401e-03
1.172252521301938395e-03
9.726768562132058135e-03
1.545158818609124358e-02
8.261199887644694179e-03
-4.508853104494519107e-03
-8.234198115516152064e-03
-7.545479040383731850e-03
-3.401241184669957871e-04
6.205452920648961770e-03
1.338581323171434204e-03
-2.728468981369067559e-03
1.616453357489359196e-03
7.126494830878220103e-03
1.019701741519112720e-02
1.080745025944837567e-02
5.072592302777214658e-03
7.783114451463987553e-04
4.202140280463139733e-03
3.335431014271052902e-03
-5.535355949983017864e-04
-6.621188613466309075e-04
2.875225376621266642e-03
8.368510831122262170e-03
7.422886699380222206e-03
3.550113068722938504e-03
-9.808760943840599128e-04
-7.352766593649286142e-03
-1.181346965522939683e-02
-1.708643105379913790e-02
-1.110250845427871412e-02
-8.580366451675279721e-04
-6.177870874784467323e-03
-9.696212650867556959e-03
-6.065137353295186468e-03
-1.277131830064755355e-03
1.789379912559968359e-03
2.281979198823397368e-03
8.999924189022722246e-03
-1.643465742825411628e-03
-1.576348797701680390e-02
3.037202955676887584e-03
1.477311269766060087e-02
1.077797711483721027e-02
1.165034567620010231e-02
6.663137655290932160e-03
2.495786957177214497e-03
-7.304774924741461346e-03
-1.560194996093653731e-02
-8.658215455539065158e-03
-7.143862690212440976e-03
-2.918833890101855087e-03
5.321951281763812915e-03
5.027212691099135038e-03
6.369595902927469369e-03
6.561967271082486466e-03
9.739126063421733870e-03
1.106656625240559980e-02
3.512701096695797220e-03
2.799591219443927151e-03
-2.696757693050910211e-03
-1.033118784335292258e-02
-3.604230660938202539e-03
-1.457267989018316617e-03
-4.325392041234148860e-03
-3.147759169569377610e-03
-4.527130115539831912e-03
-6.663061895864930487e-03
-1.054190444270781436e-02
-1.349610504764641936e-02
-6.282636239915555601e-03
4.387710161094115005e-03
5.742125103417174831e-03
3.585451859622259142e-03
5.061421308159456262e-03
1.691412551179757211e-04
-5.490792707719306318e-03
6.904902370130177030e-04
6.681137142332567794e-03
7.647540330850294624e-03
9.530147761956167529e-03
8.787522782586340217e-03
1.060341965797295671e-02
1.733686579916338469e-02
1.730862615233597773e-02
1.306200760512207446e-02
8.512974093116775984e-03
-5.041765375485178675e-03
-2.001068282787206443e-02
-2.307355700850946892e-02
-1.975803268742884825e-02
-2.115699422096192425e-02
-1.879404866202670499e-02
-8.380282925070389830e-04
8.392817043602474394e-03
2.719082665950653833e-03
5.853546267328608305e-03
2.749214428626361659e-03
-3.091453852505609157e-03
3.891923652382198867e-03
-3.328732572476407470e-03
-1.347627216980650314e-02
-1.349503793107737458e-02
-1.897934743443739983e-02
-3.224015102623569579e-03
2.486523545338557503e-02
2.025454713508352197e-02
4.286468940675719052e-04
-6.700992608418482495e-03
-2.074658370119959912e-03
7.117909247796590927e-03
9.515316820142609433e-03
7.804423616013897447e-03
1.071609738225705148e-02
1.434844085164021371e-02
1.468187509181688097e-02
9.212953300090160474e-03
-1.360767261039623867e-03
-7.693344967915790450e-03
-9.918769495899038002e-03
-1.174945788411582009e-02
-6.647641304734954425e-03
-1.825870737950715129e-03
-2.673135638803303318e-03
1.667887715751853461e-03
3.594943567357104623e-03
-2.163313584646059037e-03
-3.802712578977830715e-03
-4.208008337505312821e-03
-4.849008039969006541e-03
-1.473461445659865260e-03
-2.611562173298944203e-03
-7.727416680034664836e-03
-5.421065246552277811e-03
1.821106375428447732e-03
6.912019152526457759e-03
9.073012550476248009e-03
3.290411253941651591e-03
-6.566479908346536942e-03
-6.351618485120105392e-03
-1.191341569113164422e-03
-3.160131726787739743e-04
1.735370486225554362e-03
5.190342009343013908e-03
6.970392694572098355e-03
6.076396175987161009e-03
2.609175028795242268e-03
1.773378988363641297e-03
3.552011506534856478e-05
-6.185184360430204600e-03
-8.424282806195367360e-03
-6.962130856443256126e-03
-5.433251617847239569e-03
-2.028566707229977149e-03
3.208013579572994425e-04
1.500172621486561136e-03
1.829359215098292062e-03
2.668267532357294957e-04
3.048163583435238057e-03
8.402379144753361825e-03
6.166482112934925340e-03
2.510857119749209266e-03
8.042696677390043583e-03
1.194471016249847029e-02
5.442904904806190186e-03
-2.262580957103274386e-03
-7.610425011245171983e-03
-9.479291514671459029e-03
-7.065088483241837788e-03
-5.926054664667786999e-03
-6.397530499188660257e-03
-9.709107086514824625e-03
-1.006069336776086072e-02
-4.058540677779889742e-03
-4.847257954224485667e-03
-1.873353033307958299e-03
8.143382082204789207e-03
2.609446999774231359e-03
-3.014583146114714011e-03
7.708180482484452804e-03
1.769338718404590144e-02
1.625283714979827362e-02
7.146021610926287654e-03
4.680217129960997230e-03
4.914053230680259440e-03
-3.815452896247385761e-03
-8.947095396221722494e-03
-1.002826614992119621e-02
-1.034851130361887604e-02
-6.191234165595448265e-03
-4.824144098558543967e-03
-2.356571011996149963e-04
3.960786279919444389e-03
-2.254687581533657177e-03
2.405932449780990180e-03
1.550085591008662500e-02
1.104197654663397095e-02
-1.499904313766224845e-04
-2.720523568309267132e-03
-4.724061641303853656e-03
-8.008968795783132089e-03
-6.095427297150380307e-03
-1.514681254212158195e-03
3.823460322445310891e-04
1.736988036349135798e-03
1.804320110816944045e-03
-3.281602595061059672e-03
-6.388470742640446794e-03
-2.628179586168051182e-03
1.025906048128169242e-03
3.283614727340909960e-03
5.665984482600246869e-03
5.701342418209512895e-03
4.669472027685978542e-03
4.853955935465300783e-03
5.843071375378528637e-03
2.271811029714024526e-03
-5.425965330584488211e-03
-6.600321300697106243e-03
-4.913545507420054824e-03
-5.257758224669408474e-03
-2.073850034884041748e-03
-8.898694593806992254e-04
7.860419941029336702e-04
6.980408849121988446e-03
6.187197760260366997e-03
2.949070370792941306e-03
6.610952577824801696e-03
8.158350926831004282e-03
-4.330649562616181725e-03
-2.489923333397174587e-02
-3.089175194425859000e-02
-1.960442205969785412e-02
-3.983116641024317048e-03
1.163554569846251587e-02
1.786467486886788789e-02
1.222378911342758903e-02
7.411593828682068452e-03
6.853382135145124135e-03
2.694493757768880258e-03
-5.997491288001033372e-03
-1.056020197891721288e-02
-6.554516107083983856e-03
3.550332670903875651e-03
9.567860584446941444e-03
5.155000409944680492e-03
1.613032106627692273e-03
3.966350904873901066e-03
7.458041866207840154e-03
7.132091684047704022e-03
1.106353330724772679e-03
2.115176215791422028e-04
-8.886360816476709858e-04
-8.077845819225101115e-03
-2.301843995221258300e-03
9.035860318327917570e-03
7.699331060112708444e-03
3.522083616597717834e-03
3.517388841992557906e-03
2.193879015779184958e-03
-4.342984537018004104e-03
-8.409954637208593917e-03
-1.603766144590145154e-03
7.103647441872457287e-03
4.420786277478405170e-03
-6.668619486297371925e-03
-1.004207112120474553e-02
-6.081755085259005038e-03
-3.748267104231181417e-03
-5.854924623693342697e-03
-2.054423219198544398e-02
-2.864321634339972444e-02
-1.480332621136940668e-02
-5.612706724983694030e-03
-1.634193036987661345e-03
8.332764216997664078e-03
1.459382043891608097e-02
1.599309135316845029e-02
1.196650818654407256e-02
1.079107947941903081e-02
1.148736169554374215e-02
-1.097292021634344635e-03
-1.118928509678000782e-02
-7.030324191425722617e-03
4.306164783122982606e-03
1.639515099133519171e-02
1.631265928017825578e-02
1.052317648278338659e-02
7.054753377069129805e-03
4.991358780075330496e-04
-3.748257456461623338e-03
-7.510276057855411191e-03
-1.087756145342409601e-02
-8.158451354497331387e-03
-2.631950857446731327e-03
8.125197966935256491e-03
1.335004536917497320e-02
4.613981322289145530e-03
-7.880718464002885041e-04
-4.841199873944225171e-03
-1.446115468462013179e-02
-1.541558540789756022e-02
-5.856074545587975147e-03
4.935494970096463568e-03
1.025104760596488342e-02
4.774609787535414457e-03
-5.900519861191710728e-03
-9.654934525738670045e-03
-6.331858400379989683e-03
-3.042414137482602789e-03
1.135754725856112949e-03
2.445895153157931663e-03
-3.679301451836679455e-03
-5.349912757547005231e-03
1.390714415346405415e-03
7.985788269783727217e-03
1.086245910187829712e-02
5.932848375168854431e-03
-1.211103073532667418e-03
-2.818830183602204871e-04
2.060854095447920819e-03
1.983018436238594313e-03
2.100072232785090819e-03
1.043737386969050863e-03
2.968294800431947079e-03
2.484885802550293628e-03
-4.407302409155454403e-03
-3.859679975347916556e-03
4.010677656030470651e-04
-1.850409480086537706e-03
-6.747139572999829096e-03
-1.263338559281459647e-02
-1.122956209460092974e-02
-2.988547391919514889e-03
2.436393675059606110e-03
6.475948195285637955e-03
4.132793901625804456e-03
2.758419321792536863e-03
9.771859090798763400e-03
4.473954102702458989e-03
-7.402751196188362380e-03
-6.147685380727969072e-03
8.569524529430833397e-04
7.281725380495210169e-03
1.048657909589779426e-02
1.218030590612334367e-02
9.439227470820210630e-03
-6.026542110321396299e-03
-1.532877713637235441e-02
-9.609887850992719985e-03
-6.573020392594667877e-04
1.052076035889941072e-02
1.102242421137818174e-02
1.521519728953708633e-03
-1.094966111605946224e-03
-4.921387168488166285e-03
-7.028676948699035323e-03
-2.013953386011529349e-03
-3.667652203591325634e-03
-5.659488400940922669e-03
-3.628472542000723590e-03
-3.973597389237907250e-03
-9.984891936668217026e-04
4.466228062094024405e-03
8.290574205984023448e-03
4.769454888568057035e-03
-5.883666005412572370e-03
-7.305245880179035700e-03
2.065076722964218330e-03
1.061016601395702551e-02
8.641378414114704240e-03
-9.115447064715685548e-05
-5.297372810026864005e-03
-1.907671568013124749e-02
-2.543823396822133057e-02
-2.059174719356507508e-03
1.533417642239981449e-02
1.578303149862011340e-02
1.420403613893852363e-02
8.618626200872264026e-03
7.495901218845829606e-03
9.209465541855696826e-04
-8.320863614405543326e-03
-2.470523716857824480e-03
-1.015885829969220095e-03
-4.819888706246175727e-03
-5.471765479662265598e-03
-8.322772695120658065e-03
-4.043811769754227826e-03
-1.747698254307691445e-03
-4.570295226043037846e-03
2.183374446034424751e-05
2.250868733295689414e-03
6.868272603332385706e-04
3.961025156508963738e-03
1.086772493779824232e-02
1.187426396276133021e-02
3.808054672711728723e-03
-9.551039973352897731e-05
-8.536252415082624988e-04
-1.605981533645949510e-03
6.549378301185715054e-04
-4.639893464006132097e-04
1.028394118489375612e-03
2.948514506114078334e-03
-1.057486583068316562e-03
-1.093371465950524792e-03
-2.409836765513179591e-04
-4.584538794726313819e-04
-4.321874054156430063e-03
-1.457742915270705646e-02
-1.756267109522750489e-02
-1.836776369384715210e-02
-1.764040139025717033e-02
-2.763828827505685360e-03
1.401795126458857052e-02
2.120507407806994718e-02
1.699392951729453843e-02
9.707431945479325780e-03
8.185719180771950515e-03
3.894346716110143325e-03
1.614969354615327073e-03
2.015626402907796065e-03
-2.438543539762811317e-03
-5.425552778611890392e-04
5.014218497266189137e-03
5.928320826480179377e-03
7.557204205638360164e-03
1.130263164397778824e-02
1.098766833744608921e-02
3.739572863530143910e-04
-1.141558898626379367e-02
-2.025007948808289424e-02
-2.475944681617272408e-02
-1.449689759476847049e-02
-3.913507506915260732e-03
-1.539539284160059557e-03
-1.109106103706708046e-03
-5.743254100814236887e-03
-5.910111263079003904e-03
-4.885970348126912610e-03
-5.879033693962776655e-03
3.332013198964375346e-03
1.090500819807492354e-02
1.130469652214202703e-02
1.046782319288412817e-02
7.065951132735839683e-03
5.018659630990424808e-03
3.142679530120587404e-03
1.052407824067764109e-03
-2.339601720612906766e-03
-4.799881801449665079e-03
-1.480723577492688414e-03
-2.598216200007211728e-03
-2.190601489439489725e-03
6.485492785034965672e-03
1.041351355816379741e-02
1.041209350658471762e-02
5.920081182624286134e-03
-7.797946306287327142e-04
1.679872483382856968e-03
2.739585881991191563e-03
-5.226391798999784240e-03
-8.120214587996688396e-03
-3.286179110314326433e-03
-3.166331783299753712e-03
-3.929731895471804022e-03
-1.048702808999292784e-03
-1.659547356309408559e-03
-1.857939752248406002e-03
-3.975192286914590398e-04
4.795639287769748113e-03
1.374693367562445333e-02
1.167586942429542363e-02
8.575547758711433294e-03
1.354409547685492266e-02
1.044296660507688761e-02
6.850110020587608407e-04
-1.230378733300861206e-02
-2.758397727034384364e-02
-3.514657763461541407e-02
-3.483727167755020643e-02
-2.753677053743620179e-02
-1.567289370084947592e-02
-3.794403410101915546e-03
7.814800977138186555e-03
1.154511668230475373e-02
1.065595134210388546e-02
1.799742941488152725e-02
2.324171048502258682e-02
1.834773140429000679e-02
1.789481070239200278e-02
2.291208094194566169e-02
2.217536034542315349e-02
1.725206187865739593e-02
1.035671074082927107e-02
1.461004244423561591e-03
-2.589323490648382312e-03
-7.305864506379206383e-03
-2.626143832724281771e-02
-4.521733222895053805e-02
-5.024839586840366967e-02
-4.810967220719725851e-02
-3.399359297426843979e-02
-1.957214245898481267e-02
-1.190123371134723176e-02
9.463126394781681827e-03
2.806943222533050605e-02
3.885602285902913650e-02
5.276927876881752633e-02
5.174702313783102747e-02
4.848462440404405910e-02
4.511722888179890006e-02
3.123743615685632344e-02
1.930901476260616506e-02
1.675225776648624123e-03
-1.405569693600252842e-02
-3.234026286070295492e-02
-5.164090475516816547e-02
-4.921299420650201983e-02
-5.263311635757760010e-02
-1.926694446368697883e-02
