6.038853844669170030e+02
5.795093556595747941e+02
2.383068362484669365e+02
-1.985754265450704565e+02
-3.302856549093750118e+02
-4.658566073982419766e+02
-4.189637850275526603e+02
-8.784479730365429759e+02
-8.542672011748127261e+02
-6.771416723047458390e+02
-6.439190421946584593e+02
-7.506543441638935974e+02
-9.845071181790226547e+02
-8.970312109649240710e+02
-4.528440621245156876e+02
-6.949844319954138427e+02
-4.793688507231768767e+02
-2.407652376389110316e+02
-4.929633875660242097e+02
-6.139467864473938334e+02
-7.795894206280778462e+02
-7.417576930828706736e+02
-6.542536004782491545e+02
-7.739338328155404270e+02
-7.787139976709487428e+02
-1.064489961439721810e+03
-1.168030966712966119e+03
-1.238260490223840861e+03
-1.366112909040389923e+03
-1.193565088344580317e+03
-1.494298231306916932e+03
-1.445066916750246264e+03
-1.422079392862869781e+03
-1.445288275758867485e+03
-9.764133730823282349e+02
-6.102839931273684897e+02
-4.787609500822347854e+02
-8.346987988082004222e+02
-9.730721070724498531e+02
-1.075873330651701053e+03
-1.463024945867023234e+03
-2.582372997597765334e+03
-3.281975891084727664e+03
-3.247734811385691501e+03
-2.076356291080048777e+03
-8.647981539684864174e+02
-1.072142173215700041e+03
-1.679332588414163183e+03
-1.700319679367922845e+03
-1.668895748688928961e+03
-1.782847378622003134e+03
-1.623082574876190847e+03
-9.036047437365575661e+02
-2.114248218471841767e+02
3.134005603882990840e+02
3.210203196235992209e+02
1.875127916653171098e+02
-3.151626665383192289e+02
-2.409583776180375025e+02
6.121416129722273354e+02
1.701177331034948111e+03
9.012241647844300587e+02
3.923795728013437270e+02
4.926547568183140697e+02
2.340946359592410317e+02
-3.522954369999905566e+02
-2.555393135030446956e+02
4.161416942512573200e+02
9.297608449097787116e+02
8.323587006634231784e+02
-8.095768256886226766e+01
-5.812187377908202279e+02
-5.584344325756511580e+02
-4.360607574007101306e+01
6.680857167770037677e+02
8.245052946832392990e+02
5.146054157677050398e+02
1.282479743531732083e+03
2.455093932085880624e+03
1.020386429621460138e+03
-6.273248547771363093e+01
8.763301080909072027e+01
-3.525830289583574029e+00
6.097012946899269537e+02
3.921620870510366217e+02
1.588811324122747521e+02
4.988135074421321633e+02
-5.892026688653962765e+02
-2.060398712535240520e+03
-1.811820751258064774e+03
-2.304453288901462429e+02
1.474564393520208569e+03
2.437965413187317154e+03
2.939578299075429641e+03
2.974284882558672962e+03
2.454072241296880748e+03
2.545846052855693415e+03
2.836449187865640397e+03
2.939724483871896155e+03
3.189493640099874028e+03
3.392578277382058786e+03
3.240756440977773309e+03
3.008817752523871604e+03
3.094680016525058818e+03
3.099079284033758540e+03
2.651834775048026586e+03
8.117133506751829373e+02
8.377942508867023435e+02
1.612817732496064309e+03
1.792396901056127945e+03
1.437687037821536705e+03
1.468347631544995465e+03
2.113252574095326054e+03
2.000735447881960681e+03
1.752689425738667524e+03
2.727281605612074600e+03
4.311163873823516042e+03
4.272440614945006018e+03
4.294905364500023097e+03
3.443116008716010128e+03
1.781931904616452584e+03
1.671473238667334044e+03
2.297266135261475029e+03
2.406986712511716178e+03
2.640709736923820856e+03
3.976135187219954787e+03
4.324780277359858701e+03
3.771575215685008970e+03
4.347491775692060401e+03
4.017298881675083067e+03
4.223818170976870533e+03
4.494047786797681511e+03
3.842816069573982986e+03
2.788672624774322685e+03
2.184125511594609179e+03
2.285198206527842558e+03
2.581944218642028318e+03
3.749141638404219975e+03
3.749463177742302832e+03
3.306663830656217669e+03
3.491550321067162713e+03
2.083919925297084319e+03
-5.393814984482738737e+02
-1.255476868429292836e+03
1.776473835479448326e+03
3.591323178733587611e+03
4.067849222426186770e+03
4.171926069629473204e+03
3.769399533930474718e+03
2.540176690989200324e+03
1.945254839992762527e+03
1.526480552967862195e+03
9.605228264521739447e+02
1.816235923321814653e+03
3.215593301161361069e+03
3.420488176322488016e+03
3.179831334581097053e+03
2.461614441971932138e+03
7.187570039272377471e+02
-2.433879810343722966e+03
-5.939422403924600985e+03
-7.454963683333388872e+03
-7.948492683101751027e+03
-9.132159418248706061e+03
-1.103408639051576938e+04
-1.181122578916563907e+04
-1.166054030320350284e+04
-1.162512280610233393e+04
-1.152604549986024358e+04
-1.232429691184738112e+04
-1.263287542458339340e+04
-1.220178244161017392e+04
-1.198807156412291988e+04
-1.146472605699196356e+04
-8.709807090367177807e+03
-9.079244739918191044e+03
-8.263962645632220301e+03
-6.383956203220112002e+03
-5.672251075002380276e+03
-5.559804332325592441e+03
-6.698551806352855237e+03
-7.687392398611547833e+03
-7.640257963522575665e+03
-7.690105976626356096e+03
-6.729807808268703411e+03
-1.773356717099590696e+03
7.532155456458756362e+02
-1.352102399082537886e+03
-7.612685829998117697e+02
8.179157733516886992e+02
1.480585988060049431e+03
1.286756478256830860e+03
-5.765723264929260949e+02
-1.111317233819532703e+03
4.157449156689803544e+02
1.744689337722619484e+03
2.514574821547700594e+03
3.059503791819500293e+03
2.283557753794102609e+03
1.736851902342630183e+03
2.957520336376251748e+02
-7.055124647497458454e+02
6.050126570320544488e+02
3.151302450129360750e+03
4.253572395860557663e+03
4.099015366661239568e+03
3.977739428319813669e+03
2.286899956030749763e+03
3.555895445490630777e+02
4.779801926009143926e+02
1.943269304242628323e+03
3.198613880623438490e+03
3.961040713590323321e+03
3.619712587044801694e+03
2.748923946230569072e+03
2.196871601854556502e+03
1.437661488905889428e+03
2.094087994971747833e+02
-1.575740929133175996e+03
6.363581402638478721e+02
4.955848525779087140e+03
7.135969453511283064e+03
6.271889827413430794e+03
4.866744209044728450e+03
3.279681026454030416e+03
1.092824500007418237e+03
1.915579123799534216e+02
2.462207552666446190e+03
7.050920692390626755e+03
8.025711147919086216e+03
5.326700310112003535e+03
2.822043041400873335e+03
1.365891505631120253e+03
1.493561903970286494e+03
3.424106621861429630e+03
3.429342018945298605e+03
2.828635387421910764e+03
4.055270920627484429e+03
6.662227918527277325e+03
6.614628178477613801e+03
4.270899462950195812e+03
3.814985371620718524e+03
3.800750763639247907e+03
3.107298113883126916e+03
3.443825251559727349e+03
3.081504461533125777e+03
2.490410993640991364e+03
1.644532486451931163e+03
1.989046032223414841e+03
1.904129898813990167e+03
1.079858939803956673e+03
-1.008709320889378660e+03
-1.720425589821001040e+03
2.247239454899083739e+02
1.527794845175233377e+03
2.092886155801221321e+03
2.363188744888261226e+03
2.731709288075308905e+03
3.257467703675701159e+03
2.889588594022596226e+03
1.252123624727097877e+03
-1.117939023095158973e+03
-2.460595056534104060e+03
-2.330806555546110303e+03
-2.104523589353565058e+03
-1.827742340505340508e+03
-3.184590531745027420e+02
1.114300927581622318e+03
-1.954090272217215158e+02
-1.400418122906136432e+03
-7.656880809732997477e+02
-5.193873916554864536e+02
-9.033246451205544645e+02
-6.135537946165644598e+02
1.036840271571071753e+03
1.945849463581527289e+03
1.270337084600070511e+03
3.592802779831544058e+02
3.326275372159483936e+02
2.074140760064727829e+02
-1.242387932700265992e+03
-2.425812354001453969e+03
-2.420861837722350629e+03
-1.767542504486452572e+03
-1.360984484286926318e+03
-2.117356966925918641e+03
-1.368719799864561082e+03
3.599252974208247338e+02
-6.750497928961263483e+01
-2.690060846066908653e+03
-3.079829380727989701e+03
-2.770876920573640746e+03
-2.372228832640239943e+03
-1.285992849479385541e+03
-6.442729125541071653e+02
-6.411237819325091323e+02
-2.505642686856715500e+02
1.303717581684949494e+02
-6.913295859239685797e+02
-1.824764561227802460e+03
-2.015070564442669365e+03
-1.503437513021132190e+03
-1.681945798726312205e+03
-3.048737116946892002e+03
-5.373945600235056190e+03
-6.467813047907883629e+03
-5.016444432690885151e+03
-2.549771418690763767e+03
-8.947820833781497640e+02
-2.226459945803361506e+02
-4.715140982292952572e+02
-7.834007287196250218e+02
-8.275660444287630071e+02
-1.222077629342945329e+03
-1.384833480441795928e+03
-1.472826842474023806e+03
-1.926262301148083679e+03
-2.371421248369326804e+03
-2.055273508582140039e+03
-1.240847241294571631e+03
-3.943012958974021558e+02
6.814240826391501287e+02
1.359240481474549142e+03
-1.010682597264951426e+02
-1.499477473601714564e+03
-2.241885397642285625e+03
-1.838202227777974485e+03
-1.384266756547818886e+03
-4.721436362252545109e+02
8.501334637387699331e+02
1.144274916595606328e+03
6.618192455894209161e+02
6.651402989453833925e+02
6.721462173334139152e+02
9.010986088793077897e+02
1.600237895130059087e+03
1.236851922486081094e+03
1.003299713130373448e+03
1.400372662675816855e+03
9.316904268709661210e+02
1.510030421824829432e+02
2.394190185507040098e+02
5.914546699610342557e+02
1.061399838154873578e+03
1.043189823559862589e+03
1.274785894648838848e+03
2.032468340875684135e+03
2.109025125143178229e+03
1.693500238020573761e+03
1.790832455360142831e+03
1.159967897015514609e+03
4.335892644228386530e+02
2.865074593816218567e+02
1.176706504568345508e+03
2.322914176835069611e+03
2.403809867364873753e+03
2.016555808646894548e+03
2.287343186451651036e+03
2.273403510874725725e+03
3.062528375530080666e+03
3.046874676687239571e+03
2.784809356400407978e+03
8.539162391374031813e+02
-1.174508355630538972e+03
-2.038474571419800441e+03
-2.473463006579289868e+03
-7.381062453959783625e+02
1.978074318661287862e+03
2.704600337845721697e+03
4.718276336296464137e+02
-3.393906290286564399e+03
-4.103009341836240310e+03
-3.987113512379027725e+03
-3.254184837700421667e+03
-3.260689931267783322e+03
-3.411784581080469252e+03
-2.956652256644248155e+03
-2.725007932301584788e+03
-1.914415951511785352e+03
-1.547771398146944875e+03
-1.181084701773736697e+03
6.547847501957153327e+02
-5.339876429999212633e+02
-2.603977880356688274e+03
-3.948564747507621178e+03
-4.291487628264220803e+03
-3.305535914759139814e+03
-1.602864999373239925e+03
2.112416130894336220e+03
2.975157934092243067e+03
-2.294531572362169243e+02
-2.536876241809279236e+03
1.825569290745112028e+02
2.940464114227247592e+03
3.766562840657329616e+03
3.561069007755198072e+03
3.509632807738222255e+03
3.538046819887852052e+03
3.439982327365135006e+03
3.268739694227156178e+03
2.812520186612015095e+03
2.880957740360997377e+03
2.348298675964817903e+03
1.342177892484043696e+03
5.732302700720781559e+02
6.334603900345038028e+02
2.106992122196943910e+03
3.469598566394964109e+03
2.877643973507648298e+03
1.806445307014063928e+03
1.270758829925425971e+03
9.717957041044470543e+02
6.905569097866526818e+02
1.189096301246847815e+03
1.930046627377036202e+03
2.589730021867278538e+03
2.484418705639028303e+03
1.887242580509795516e+03
2.306841808920164567e+03
1.921678222998744786e+03
1.108096279147757741e+02
-5.577836656220059695e+02
4.195715804799260127e+02
7.884806991412237949e+02
3.466633788763404596e+02
-3.213015183684071872e+02
-7.636121965262494768e+02
-6.253617263038663623e+02
-6.708341872186111914e+02
-6.253930381798235203e+02
-1.440871418111475805e+03
-2.080346688583476862e+03
-1.668104654164582598e+03
-1.426370726784191447e+03
-2.292314249864836256e+03
-2.817789401557112797e+03
-3.274916800448766935e+03
-3.325429333760413556e+03
-2.517328725767916239e+03
-1.796476909142571458e+03
-4.872373991062488017e+02
4.326354546335618920e+02
4.616627263133967745e+02
-4.048882962206296838e+02
-1.721491073511471768e+03
-2.205010332361049677e+03
-1.434365564997786805e+03
-1.257392212092754562e+03
-2.370773760816895901e+03
-2.819372652999559705e+03
-2.171117393082706712e+03
-1.626829147514931492e+03
-1.745502576993735829e+03
-2.720979422167324174e+03
-4.253918168956513000e+03
-6.316795349515901762e+03
-5.700255453700682665e+03
-2.791520669987779456e+03
-1.627779300406191851e+03
-2.723077209511197907e+03
-3.227765909441414806e+03
-2.764228362878754979e+03
-2.790321256573649407e+03
-3.071803743321700040e+03
-3.811676590216181012e+03
-3.853312751211365139e+03
-3.205981977968033334e+03
-2.158597927147802238e+03
-2.796944712237436306e+03
-3.917030344335885729e+03
-3.563088540360189654e+03
-2.374868230186822530e+03
-1.975337195820893385e+03
-2.227488978640617006e+03
-2.836111503107391400e+03
-3.484214640870330641e+03
-4.119962286913814751e+03
-3.798658552216690168e+03
-3.570473714988459960e+03
-3.874467403954630299e+03
-4.748152975392222288e+03
-6.485112629372671108e+03
-7.063428353949626398e+03
-7.710967814556378471e+03
-7.641904780472941638e+03
-7.480309429656380416e+03
-7.680702747626689415e+03
-7.823078925005503152e+03
-8.215879470457428397e+03
-5.877453421521212476e+03
-2.618037671982316169e+03
-2.744883579320661283e+03
-6.196899573745226917e+03
-7.335131810800434323e+03
-6.801846552091580634e+03
-5.685385855594036911e+03
-1.193602591676335805e+03
1.589648532990341664e+03
1.435051824206519541e+03
1.470173504448627000e+03
2.168741590481125058e+03
2.722393977783390710e+03
3.394094552032873253e+03
2.783874156292816679e+03
2.407567063700886138e+03
2.992522472417364497e+03
3.386250394888992560e+03
3.703767679920382307e+03
4.630174920554076380e+03
4.899982714154857604e+03
4.817533386878993042e+03
4.664555901563998304e+03
5.848800045042553393e+03
6.261120520929825034e+03
6.583218861538342026e+03
7.527561658570540203e+03
8.468896344074268200e+03
9.035159124147854527e+03
9.112112724582426381e+03
9.358602693437513153e+03
9.228251079999417925e+03
9.127488490262076084e+03
8.844973720112604497e+03
7.614497010325929296e+03
6.331687976922396956e+03
6.753937336768402020e+03
8.052628508347111165e+03
7.646254694626863966e+03
9.162557813009154415e+03
1.091024265602731793e+04
1.215007962485331518e+04
1.327512709020480543e+04
1.307708111671804181e+04
1.271241649171007339e+04
1.207344754483361248e+04
1.227870093810480103e+04
1.239002314094333087e+04
1.270613659010984520e+04
1.333076414304028367e+04
1.488854702554031610e+04
1.575313822317399172e+04
1.508515892268026073e+04
1.453634364090524650e+04
1.413122319209851594e+04
1.368043177944068520e+04
1.332080576788489270e+04
1.254231915172332083e+04
1.225166813827006081e+04
1.261662758813855544e+04
1.245279182868424687e+04
1.129085030832757366e+04
1.035937895263901555e+04
1.012205845574542946e+04
1.019573081081742384e+04
1.033922186216009868e+04
1.067532790503509750e+04
1.123085893553174355e+04
1.207770318986965503e+04
1.387063431418512300e+04
1.412647815366571922e+04
1.341224724993904601e+04
1.101905377880888227e+04
7.946931318791263948e+03
6.310358917493064837e+03
6.216882002802070929e+03
5.914251897593961985e+03
5.025312923064457209e+03
5.207252908257976742e+03
2.637996349640895005e+03
-3.435585205093123591e+02
-1.702398361248992842e+03
-1.234620059768137025e+03
-1.070211984381307047e+03
-2.914038145415015606e+03
-5.478108887786399464e+03
-7.592450311803208024e+03
-1.056819920595901203e+04
-1.252649606606454836e+04
-1.543931960324182910e+04
-2.029454558760487998e+04
-2.408484995689491552e+04
-2.616005473322111357e+04
-2.683606555737052622e+04
-2.508589016836300289e+04
-2.214552938310652826e+04
-1.689590524357776303e+04
-1.227288510733527983e+04
-1.122624978033650586e+04
-1.822070403883118342e+04
-2.790510687181223329e+04
-3.407040345161641744e+04
-3.657338816984310688e+04
-3.743883768955949199e+04
-3.204655283357011649e+04
-2.560617033988192270e+04
-2.185236434450939487e+04
-1.848908259532492957e+04
-2.693805716273145299e+04
-4.402702013185105170e+04
-6.030363816289931856e+04
-6.852549931510401075e+04
-6.498525022847513173e+04
-5.353270223884528968e+04
-3.894957445567375544e+04
-3.239243359843429062e+04
-3.893585506335585524e+04
-4.756548024122563947e+04
-4.822290541746452800e+04
-3.684675900510245992e+04
-2.059574167774941816e+04
-2.017617059444544338e+03
1.856895914290583460e+04
3.462350681050417916e+04
3.023853403689314655e+04
1.411933834246700644e+04
5.914276710566254224e+03
-9.942589641549521957e+02
-1.845779284602562620e+04
-3.232792605067880140e+04
-3.244390039622346376e+04
-3.018601322361471830e+04
-1.786903674657107695e+04
3.861449090212332067e+03
2.472855488701174545e+04
3.143661365183858652e+04
3.246720154224145517e+04
3.900533888428284263e+04
4.224639740459795576e+04
3.955657824928426999e+04
3.848841167555512948e+04
4.413395448677778768e+04
4.999586799326434993e+04
5.450574768295408285e+04
4.915000917851299891e+04
3.587777052118805295e+04
2.142962400187226376e+04
2.122873236483440451e+03
-2.084094378809006230e+04
-1.732264880916824040e+04
7.176713505915155110e+03
1.740835523433507842e+04
2.090465671934908460e+04
2.735007372436951482e+04
3.379979772545977903e+04
4.046426294603878341e+04
4.551247848104201694e+04
5.379794083483596478e+04
5.770924145932288957e+04
5.822090583004208020e+04
5.300586474655907659e+04
4.259744537425772432e+04
3.022384442998723534e+04
2.212548461849887099e+04
2.283171229936797317e+04
3.044286125199628441e+04
2.671414115388822756e+04
1.032279327469969940e+04
1.438114317838349507e+03
5.924318937477172767e+03
1.820271473711077851e+04
2.668156050714202865e+04
2.054602416309257387e+04
1.124623881420317775e+04
8.960325096150343597e+03
9.266406347020869362e+03
1.181876339219269175e+04
1.093762037665723801e+04
1.152904048192149821e+04
8.743133162544500010e+03
2.853017849618233413e+03
1.212738454751417748e+03
-4.206473030100070218e+02
-3.659068838475739085e+03
-1.021148738271043476e+04
-2.548481833846682639e+04
-4.076209342576743074e+04
-4.928325486595435359e+04
-5.047518693686932966e+04
-4.448994593290207558e+04
-4.486469488540747261e+04
-5.294352571057207388e+04
-5.820844482460556173e+04
-4.293554359319676587e+04
-2.731279218509806378e+04
-2.830533123084693943e+04
-2.351535525900767607e+04
-1.748999075562430517e+04
-1.082632220242151743e+04
2.145491554422389981e+03
1.419018891898128459e+04
1.131558072585256741e+04
5.861549170241931279e+03
8.268886691374917064e+03
1.084442105416754748e+04
1.113988801543331829e+04
1.176296519865012669e+04
4.229403003349263599e+03
-3.534134652930546508e+03
-3.349911941994056633e+03
-3.735117344577739459e+03
-4.620977957122081534e+03
-3.767696599256172703e+03
-2.818656156610665221e+03
-2.641261259485078881e+03
-1.371844744108895611e+03
-2.590659640806976313e+03
-4.572063427215993215e+03
-4.544497872293792170e+03
-6.738375342567555890e+03
-1.005502033603636482e+04
-1.181370649913285888e+04
-1.027977596318305586e+04
-5.220537639638779183e+03
-5.400566052380721885e+03
-1.035046831696785193e+04
-1.677653187658165552e+04
-1.549096160447518014e+04
-7.638198496065732797e+03
1.717298506899898257e+03
1.122187325218998694e+03
-3.185945109762422817e+03
-1.680472122583001692e+03
-2.836806018870021035e+03
-2.379425314699422870e+03
5.982132940959667167e+02
3.241840874964324939e+03
1.287138085266299186e+03
1.046591765020335970e+03
8.696971536695430132e+02
-6.583015694330400436e+01
7.826220980912527239e+02
5.556612654521527475e+02
2.558994803589883759e+03
4.277277629331138087e+03
2.821025480173385859e+03
-2.868195734062765496e+03
-3.541740354769837722e+03
1.757293583723470874e+03
7.029816191537335726e+03
3.084385635893003837e+03
3.735862167783592440e+02
7.620748536676640015e+02
6.415535306265954205e+03
1.091268213090878453e+04
1.138515967645735327e+04
9.311637070724491423e+03
6.727545238724184856e+03
4.143534918005933832e+03
2.430599525842001640e+03
1.063829376228076853e+03
-1.020300203041252018e+00
-1.710416423509304650e+03
-1.751854986520758530e+03
1.420445504675512325e+02
2.643200496277194816e+03
3.023596554234139603e+03
1.835012242114083392e+03
-5.997645520951099343e+02
-1.669955576302103282e+03
5.452601119385002448e+02
4.164874380659967755e+03
4.373707264941422181e+03
8.715212799137210595e+02
-4.128130866607488656e+02
1.626596645139826023e+03
2.440589378306211074e+03
1.355083853337396022e+03
9.801748581428130080e+01
-1.331693791938298546e+03
-1.012208367593009939e+03
-1.825384329269955970e+02
-1.990742943950999461e+03
-4.348905416217068705e+03
-5.339018152733438001e+03
-6.739076195764367185e+03
-5.306045363230261501e+03
-2.521967211823003254e+03
-2.092910882978121663e+03
-1.337849470934543433e+03
3.392318678342179737e+03
9.651787788883968460e+03
1.092159564502652756e+04
8.486671461766376524e+03
5.142016564030492191e+03
1.926806035783926291e+03
-2.134139512994387587e+03
-4.850864766509629590e+03
-4.702294449845056761e+02
5.476904404830106614e+03
8.878731467101579256e+03
7.859333895585103164e+03
5.574867360592231307e+03
5.313419005564401232e+03
4.174131790792606807e+03
3.519118605807406311e+03
3.517607004547666293e+03
4.139600591411370260e+03
4.065287768420761950e+03
3.415972639469730439e+03
2.041844546281630528e+03
9.280503972383093014e+02
-7.532090638735691073e+02
-1.946670508081835351e+03
-1.604099186121518869e+03
4.926468350107114134e+02
1.523724931770479088e+03
3.274344105384002432e+03
2.896864608396933363e+03
7.734887003582925900e+02
-2.386703444537037342e+02
-5.863861566476656435e+02
-2.210190451076652607e+03
-4.650064193809506833e+03
-5.607882733824991192e+03
-6.514434839945402928e+03
-8.346593164696947497e+03
-9.646010185647741309e+03
-8.991356892667316060e+03
-4.522258574052518270e+03
-1.331344304534072307e+03
-1.974101149424251957e+02
-9.513132211001535552e+02
-3.456839381234312896e+03
-3.574696803292285495e+03
-3.825706749909553309e+03
-4.409412025209693638e+03
-4.632520273509677281e+03
-5.552852940958871841e+03
-6.100288309924291752e+03
-5.058552296404952358e+03
-3.914228453704492949e+03
-2.061033901839874488e+03
-1.214769563945545769e+03
-2.386121509548373979e+03
-3.732913473737059576e+03
-4.742740554649260957e+03
-4.946222361703365095e+03
-4.228170791397016728e+03
-2.927385108546036463e+03
-1.714719743522264025e+03
-1.778230961945590252e+03
-1.983942189161755095e+03
-1.683999723364869169e+03
-1.386198463698998466e+03
-1.320771699858925672e+02
1.325202588555468537e+03
1.119098939484429593e+03
1.084655485057765191e+03
1.749854794660695461e+03
9.377902557568772863e+02
1.689004087893137921e+03
4.459407521903232009e+03
3.899225711813851831e+03
2.489514718705924679e+03
1.256399188129367758e+03
5.369733570455863401e+02
1.386621389303871183e+03
2.515958850670678657e+03
2.246126999817153319e+03
1.813450454974168679e+03
1.872455554440688502e+03
2.357582918245049314e+03
3.468967847897516094e+03
4.495937742165197051e+03
5.439928440559497176e+03
5.960076732540856938e+03
5.670819599267902049e+03
5.117586651093964065e+03
5.074825354784801675e+03
5.893510622076241816e+03
5.974107535119245767e+03
4.872805586318751011e+03
4.003281462558423300e+03
2.754698930555498919e+03
2.901303930779349685e+02
-4.263349776534469697e+02
1.824345918518689814e+03
2.519950532310260769e+03
3.420600303938388151e+03
2.389161203924478741e+03
1.210212437549541846e+03
-1.674413635221857248e+02
2.898527197879393498e+03
3.015649680731189164e+03
2.553090621790850037e+03
4.163324713602492920e+03
1.471255145688988250e+03
5.572839527755176050e+02
1.570172336061439182e+03
3.420920988107491667e+03
1.116293712975597600e+03
1.445111613629818294e+03
-1.712179466209744305e+02
-3.490566094093842366e+02
-1.998776076742696887e+03
5.956698834300411818e+02
-3.117885185417708271e+02
-1.357494969815004879e+03
-7.771150004679570884e+02
-1.150039332656886018e+03
5.435551653424918186e+02
6.513704836988367788e+02
2.792157715439061576e+02
-1.651298657535870916e+03
-1.212960905353436601e+03
-6.836196347620814322e+02
9.960875276919312000e+02
-1.814146069329824513e+02
-1.015890966129916023e+03
-1.155603012946884292e+03
-4.693027031368360440e+02
-6.257616385356809587e+02
-1.215174108158782701e+03
-1.677428503009513179e+03
-2.050046779804567905e+03
-2.065167451851860278e+03
-2.172670144618902214e+03
-2.775612217956720087e+03
-3.507107425706850336e+03
-3.393960695486275654e+03
-3.518746521623035278e+03
-3.877784977805886683e+03
-3.859476559126330358e+03
-4.353717120724296365e+03
-4.858732558522031468e+03
-5.245506036822655915e+03
-5.399005712405456507e+03
-5.311615680123120910e+03
-4.871422016905286000e+03
-5.160326093328306342e+03
-5.397157897983648581e+03
-5.267194510187208834e+03
-5.198305882331831526e+03
-5.201935450693793427e+03
-4.722840055250717342e+03
-3.983868004431436475e+03
-4.092840919567363926e+03
-4.295105746723401353e+03
-5.168026485269182558e+03
-4.408656821211645365e+03
-3.314482709851033178e+03
-3.202543568377724569e+03
-2.872464565797746218e+03
-2.661837728797182535e+03
-2.429296321708530286e+03
-2.310550360646368517e+03
-2.364915471972647993e+03
-2.687639589748863273e+03
-2.965614964644403244e+03
-2.744429432249263300e+03
-2.606341644575244118e+03
-2.564270381808512866e+03
-2.391434460519189543e+03
-2.329317261977124872e+03
-2.306188700781537136e+03
-1.852001741074731854e+03
-1.546570543845239172e+03
-6.259347895844805407e+02
1.077035894884829190e+02
1.210360849918767371e+03
1.949714177768016270e+03
2.423394999202080726e+03
3.276464411303722954e+03
4.250872413284866525e+03
4.683415390550024313e+03
5.038122300677456224e+03
5.676008576499322771e+03
5.884826780624865933e+03
5.976262776377932823e+03
6.080814975227401192e+03
6.085668214364844971e+03
6.163201267156085123e+03
6.393612088580338423e+03
6.397220602171762948e+03
6.547367561896423467e+03
7.039775071093654333e+03
7.108063444236446230e+03
6.887581362575424464e+03
7.092812956893943010e+03
7.076852236732047459e+03
6.919586608214171065e+03
6.743830944930150508e+03
6.840530553494744709e+03
6.811048225468830424e+03
6.325251049598415193e+03
6.603197650465509469e+03
6.241947719596984825e+03
5.113232309939734478e+03
4.719121245747952344e+03
4.506534225292129122e+03
3.645674693234003371e+03
1.529843315058529015e+03
-1.731722255120713498e+03
-2.996325180161541084e+03
-2.173289081812481072e+03
-1.534589184107749588e+03
-2.072424063730311900e+03
-2.153790091920728628e+03
-1.933833813513555015e+03
-1.528949495951800827e+03
-1.585907161980758701e+03
-2.369244020182346503e+03
-3.935687781310704850e+03
-4.939022944096323954e+03
-5.617167409725241669e+03
-5.514047681478235972e+03
-3.114523933308516007e+03
-1.244324759302800885e+03
-1.526125348894471927e+03
-2.773935373393367627e+03
-3.092778127353636592e+03
-3.521594419263880354e+03
-4.084035826240827646e+03
-4.169707173348690958e+03
-4.781275293842919382e+03
-5.304661583254183824e+03
-5.127080531075883300e+03
-5.141564364455972282e+03
-5.386493138502026341e+03
-5.698358024936545007e+03
-5.838148776055789313e+03
-5.834891852007717716e+03
-6.086201213118683881e+03
-6.352756688066742754e+03
-6.852387242782479916e+03
-7.098747373257429899e+03
-7.353692200613348177e+03
-7.816959310183956404e+03
-8.171053005515732366e+03
-7.815820271752685585e+03
-7.216175776797229446e+03
-6.274707803170605075e+03
-5.440294566934782779e+03
-5.956917075909686901e+03
-6.542188340809901092e+03
-6.519872053509847319e+03
-5.523208901149842859e+03
-4.815104530698916278e+03
-3.933923573870292330e+03
-2.445165561049079315e+03
-8.147317353930131958e+02
-1.571794021968993889e+02
-5.240407773571206462e+02
-5.191566979449291921e+02
1.612986214043045834e+02
8.303207691549467881e+02
8.110681711692761837e+02
6.841560402313887153e+02
6.710277373138691246e+02
5.597155817965833648e+02
1.307713904302023877e+02
1.081574876481003230e+03
1.325120282577103808e+03
1.446416175071157568e+03
1.722606507439568986e+03
2.107893970542359511e+03
2.000600504305329196e+03
1.770914581746832027e+03
2.403184031072577909e+03
3.036724906057580938e+03
3.295771291140687936e+03
3.605532107367384924e+03
3.343036779671691420e+03
3.749209256627476861e+03
3.945357118501468904e+03
3.185897863074276756e+03
2.523101461393424870e+03
5.313076727137072339e+03
6.111071167801333104e+03
5.943328648019380125e+03
5.926792312625309023e+03
5.774640057041146065e+03
5.724091008037578831e+03
5.782081638125865538e+03
5.431575762055323139e+03
5.292575329405282901e+03
5.525385215088786936e+03
5.930074653503948866e+03
5.811869786099025987e+03
5.615047257435420761e+03
5.637410342628245417e+03
5.429919797342048696e+03
4.726812251836470750e+03
4.259263498404289749e+03
4.050266416930644027e+03
4.240838566312914736e+03
4.779942472628251380e+03
4.914667692089411503e+03
4.646115508117802165e+03
4.039263209236404691e+03
3.202000100460723388e+03
3.252387468687210003e+03
2.593550639070098441e+03
1.577634799366374864e+03
1.538594503681755668e+03
2.145158970078495258e+03
2.440242912642431747e+03
1.995982847092874408e+03
6.232485911786227462e+02
1.369348435159002690e+02
5.911747918423842520e+02
1.014922084594208513e+03
4.170026917364628503e+02
-2.325792376029112347e+02
-4.700217809354198835e+02
4.953810048940790267e+01
-8.508264185132083934e-01
-1.733841258590545351e+02
-3.773040974269314916e+02
-9.095022044762171163e+02
-9.899991958466710003e+02
-2.448901509251506070e+02
9.756694518463066288e+02
1.348494619615981264e+03
1.038507404765607589e+03
1.184720259376571676e+03
1.088063799663685359e+03
5.992772916541562154e+02
8.591085270739255293e+02
6.224537942354257893e+02
-8.478196511888489795e+02
-5.538078997097336469e+02
8.172698801817507501e+02
1.599201789218348495e+03
2.092882205609279026e+03
2.011101116592928065e+03
1.075629865395012303e+03
1.503176877868349663e+02
-9.568051894111097226e+02
-1.161944156781644551e+03
-1.645276110621862927e+03
-1.618598257796393682e+03
-1.895231522382946196e+03
-2.242613743355557290e+03
-1.605001615620443772e+03
-1.267268281501122146e+03
-1.384648575540802312e+03
-1.637473510175325828e+03
-2.399751417353352736e+03
-2.729094547611940925e+03
-2.906489432399100224e+03
-2.695217678841867382e+03
-2.327577799629948004e+03
-1.979068047280905603e+03
-2.741205568724281875e+03
-3.376882374551869361e+03
-4.031952141218609540e+03
-4.229202659628324909e+03
-3.414721764298652943e+03
-2.819936283349002679e+03
-2.335075094857817021e+03
-1.820981256587674807e+03
-2.037116975218041716e+03
-2.484476539414270519e+03
-2.560301659359046425e+03
-2.298683136529846252e+03
-1.358052507280798409e+03
-1.042549038822849980e+03
-2.275170589632804422e+03
-2.639143993050684912e+03
-1.909582936956853928e+03
-6.935924619126518564e+02
2.685248683075186591e+02
8.744543502370564738e+02
9.714825896943491443e+02
7.371611749211037932e+02
1.273623182809429863e+02
-1.014032460133424138e+03
-1.166087133690640712e+03
-5.938862494814603679e+02
-6.675673333674986907e+02
-6.622556125975905843e+02
1.018153523148707791e+02
1.258566674059333764e+03
1.637930738960196550e+03
1.322801672798126219e+03
1.113953634331330250e+03
1.247358233906806390e+03
1.010011309290137660e+03
1.062778088158905575e+03
1.991607752497028287e+03
1.819413411535828118e+03
-1.908847904623911234e+02
-2.062405277516882052e+03
-3.545260597309330933e+03
-3.854485036994586153e+03
-4.244130184255967833e+03
-4.525267645051832005e+03
-4.597887914376919980e+03
-3.934088240255503024e+03
-4.047926881812880310e+03
-4.464469948778122671e+03
-5.551709620245433143e+03
-4.156659244642693920e+03
-3.149344936772150049e+03
-3.673765675222982736e+03
-3.140015578115381231e+03
-1.924097417594907711e+03
8.150222955445236721e+02
1.831274573538547656e+03
