-2.828770427272266375e+02
-1.214560226317233429e+02
1.337199490476691039e+02
-1.102927583426704246e+02
-1.854677655294730698e+02
9.127729927377776775e+00
9.742057647292480738e+01
3.734423536045848664e+02
5.762233984890194733e+02
7.207873566106263752e+02
6.101362952347751616e+02
4.622741964224049980e+02
3.002043574816984233e+02
2.599327179521425819e+02
-6.924998848795802360e+02
-5.783287626718064303e+02
-8.918524986217788353e+01
-1.401812940869888280e+02
-2.124108607012554728e+02
-3.248916797606466389e+02
-6.416257946557536798e+02
-6.845479695310293664e+02
1.632534478968856462e+01
1.001057806601943412e+01
-5.153666662896605288e+01
-9.537972360469474609e+01
-9.144964297771868189e+01
-9.965930245824843325e+01
-3.269411426681377861e+02
5.329084251365145519e+02
1.139705280607902978e+03
8.942610623599956625e+02
8.356806000654318041e+02
8.849535123065321613e+02
6.500915091612073411e+02
4.021468365703821064e+02
4.331068871312761530e+02
-2.347074933748831882e+03
-4.717325543675400695e+03
-1.655535880115759937e+03
1.141774251053382727e+02
2.467826859967423161e+02
-5.475103302631433877e+01
3.186945448543894486e+02
7.371152417475848324e+02
9.444034837309719705e+02
4.316479988430655794e+02
-2.395143552525516498e+03
-2.139349253442829024e+02
1.334222752861970548e+03
1.459346675521353973e+03
9.415088279033105891e+02
7.567016870846206302e+02
7.379359329337576128e+02
2.561870837099441474e+02
1.435111122801986596e+02
4.828684668971615679e+02
4.002990389451161946e+02
-3.283250579216381993e+03
-4.717766893715146580e+03
-5.231751165455220871e+02
2.475029478458138783e+02
-4.278098068322479435e+02
-2.722115439412723845e+03
-1.072858796329965116e+02
6.677661152638000885e+02
8.810784592774399471e+02
7.936880417276278195e+02
7.715101879131514124e+02
1.400412406867092614e+03
1.718402710370435443e+03
1.449556748468330170e+03
1.037842213382938553e+03
1.073309455794144014e+03
1.277979363284743386e+03
1.146789566335307654e+03
8.206801080295346082e+02
8.106373732337164029e+02
5.536729646035413452e+02
1.589165247594454797e+02
-7.750514343460569933e+01
-1.776921328872451795e+02
1.592286748388711430e+02
-6.778054051293240718e+02
-2.478904927628383575e+03
2.370452929743138668e+02
5.404164371391478880e+02
4.616636658705320428e+02
3.608303163335797876e+02
1.049591007276189316e+02
1.569202064864176407e+02
3.990744474811367581e+02
7.305506400691577937e+02
3.463865880543086746e+02
-2.533454710893678566e+03
-3.122809776042301110e+03
-2.962727109264920273e+03
5.719217861516359136e+00
6.215374857951077274e+02
3.617796517744334892e+02
1.393102996867581282e+02
1.201425410484029044e+01
8.005069528174459492e+01
3.925905624710155166e+02
6.720475295925053842e+02
8.910784667148526523e+02
1.411682299348093693e+03
1.271254745649468532e+03
8.953217169391363086e+02
1.027671583211875259e+03
1.116195118041736350e+03
1.231877025740964655e+03
1.463635164106322463e+03
1.335433518352770761e+03
8.583446941529348351e+02
8.252074277111598803e+02
7.689419449939839524e+02
5.914644232049004131e+02
6.605966449107438621e+02
7.733018095694619660e+02
1.445518484517501065e+03
1.638321491233762572e+03
1.111863474159396901e+03
8.860858377523793479e+02
7.818908209738492587e+02
8.101911575501908374e+02
9.869548188378144005e+02
1.164145561933439240e+03
1.236777008992530909e+03
9.228607180700746540e+02
1.079358285739079065e+03
9.093425624865834607e+02
1.164822538818546718e+03
1.024706379226520085e+03
1.396985145812280052e+03
1.358730282851430502e+03
1.107961844153221818e+03
8.116837234706596291e+02
9.278231825663855261e+02
9.533560118376365153e+02
9.892861615916388018e+02
6.666059088777055877e+02
2.872270483780001769e+02
4.911221500661709456e+02
9.223628055534599071e+02
1.075965708928333697e+03
1.061931139807780937e+03
7.953237073199906035e+02
5.751871122089074788e+02
4.594008880881888786e+02
8.409101964216025635e+02
1.092709393088238130e+03
1.313861593838605131e+03
1.117388587343551762e+03
-1.047788189759070065e+03
-3.374678926939155645e+03
-5.140397243647139476e+03
-7.250717880223206521e+03
-8.271536800116669838e+03
-8.167844648688201232e+03
-7.648787383085699730e+03
-8.067376004121990263e+03
-7.586614148981190738e+03
-7.504565337309301867e+03
-7.624038974120435341e+03
-7.032031205908956508e+03
-6.195582541330814820e+03
-1.399654450298349957e+03
1.547196916509027744e+02
1.155577289037962828e+03
1.757922322834470606e+03
2.629777043966834754e+03
2.589113715849697655e+03
2.243967003342701901e+03
1.868344626748796600e+03
1.805211922624979252e+03
1.778605822647257583e+03
1.885588718982280398e+03
1.521161976022875024e+03
1.266318724972031532e+03
1.117140250542097419e+03
9.906300323469140494e+02
2.768177000781258243e+02
3.576747539514008878e+01
5.594669997942144164e+02
1.092882614556216140e+03
1.771986886432253414e+03
2.147837886705571236e+03
2.164526504609819767e+03
1.721097281974473390e+03
1.500542102411336145e+03
1.659867458200837291e+03
1.258116549418610475e+03
9.303574443077459364e+02
9.686032708525489170e+02
1.287868653152881734e+03
1.054131434505572997e+03
6.064398292037043348e+02
3.948372634640154502e+02
1.553589205425601847e+02
-4.279886211235622113e+02
-3.361658026103417569e+02
-4.831331651580527478e+02
-3.858156967632792771e+02
-2.431581349052064525e+02
-3.719454194755029874e+01
8.105988689103547529e+01
5.176781462868769950e+02
7.227300316882613060e+02
8.541650905265040592e+02
8.699195084227654888e+02
8.669620839260572893e+02
7.022412049356584021e+02
2.251393911885830050e+02
-1.921513123803798351e+02
-1.165414925170259295e+02
4.130532011398481131e+02
5.075749615137518731e+02
-1.827199656151738694e+01
-1.514379914538088912e+01
2.039377163738845979e+02
4.457143178496866085e+02
1.523279823086551232e+02
-2.692562498083863147e+02
-5.181301767692267504e+02
-6.102526653121805111e+02
-1.280629373090009040e+03
1.057601684227461476e+02
3.219136844223341996e+02
-1.181743897467316771e+02
3.958273488962735343e+01
-2.067673004226500950e+02
6.082822907380278821e+01
3.423753680450654002e+01
-7.065511769594343150e+02
-1.024475467922203052e+03
-1.397589557957893021e+03
-1.563879102517984393e+03
-9.643590909257212616e+02
-4.170005469273190783e+02
9.123061141270602548e+01
3.222980117719947089e+02
2.920458205240061389e+01
-6.749991511793966765e+02
-1.211315751133781305e+03
-8.117689667826896311e+02
7.163766339084465073e+01
1.093858907909318759e+03
1.128896214337425363e+03
9.027725189162788411e+02
9.954934702775307187e+02
1.093122058363733686e+03
1.484676044571092461e+03
1.499161547681339698e+03
9.644839712550990498e+02
6.745681780476783160e+02
4.543640540820534284e+02
1.649463509266439587e+02
-1.846891571761902640e+02
9.390945706567332962e+00
4.451985079405790771e+02
5.967208884018243680e+02
-3.010924164044559603e+01
-2.603407682789795672e+02
-2.619808489564927072e+02
-1.090240629134564045e+02
-5.647323042157650264e+01
9.063070089375332827e+01
-5.371893896958545866e+01
-1.995429572865248247e+02
-3.417940727606603559e+02
-3.041485012265355181e+03
-1.333791588672869466e+03
-1.678736469548065813e+01
5.385601494323169618e+02
4.712754148265433400e+02
-5.966867655569039641e+01
-1.323575898676467091e+02
1.001217435195580236e+02
3.567238793334812499e+02
-1.215931810948147529e+02
-1.793856982583558647e+03
-3.021011947223728839e+03
-3.231091887588711415e+03
-2.612265472475794013e+03
7.306249201533335054e+02
1.400649044504733183e+03
4.088392338871558991e+02
5.823171374738482342e+01
-1.354353038740578938e+02
2.491860562749087080e+02
6.649234764257504366e+02
4.907433660395018364e+02
-2.405382561746188230e+02
4.232987584823224125e+01
1.349436774282171882e+03
1.597216814854704126e+03
1.420494423843765162e+03
7.072588049826645147e+02
1.463371718238165158e+03
2.243100579670380739e+03
1.501219478749357449e+03
1.401699514005644687e+03
1.378832421471935277e+03
1.877770073936331755e+03
1.474090596681750640e+03
1.069898620312737648e+03
1.363468649844772699e+03
1.795604221535416173e+03
1.999193388643913295e+03
1.732015244277516103e+03
1.949511931963609868e+03
2.221635411238489723e+03
2.307072426075018029e+03
2.096146913479444720e+03
1.580907493104347623e+03
1.530076760519869595e+03
1.231780435389833883e+03
-8.412405601126924637e+01
-1.915834352886774013e+03
-2.758296655509739139e+03
-2.003726326823191130e+03
-3.420154113055206153e+02
1.564887777609617160e+03
2.665489852655049162e+03
2.133685876219100919e+03
1.596324209314155951e+03
2.000393302573365418e+03
1.856892067676503075e+03
2.102841715336896868e+03
2.565284127665424421e+03
2.553204641898386853e+03
1.857526016301119398e+03
6.560684926668343451e+02
-7.453359768320452758e+02
-6.938222377325699881e+02
1.097653528448835687e+03
2.500348515258744101e+03
2.244359880604391492e+03
1.427700864675595369e+02
-3.501255847820017607e+03
-6.317523626845360013e+03
-7.248416189842429958e+03
-3.570689111449226402e+03
4.827914926178397081e+02
7.666434004009022374e+02
8.335007660137817993e+02
1.478090564039430546e+03
-2.336294417981756851e+03
-5.128447219126273922e+03
-5.816485281615869098e+03
-5.388297313280632807e+03
-4.718706980813338305e+03
-4.946802829997986009e+03
-5.011818761198955144e+03
-3.583605829575379630e+03
-3.075673329069084502e+03
-3.922596972887256470e+03
-2.926885997163679804e+03
1.885324239085417048e+03
3.208422340232263196e+03
2.413613454285565240e+03
-1.753180565940059296e+03
-4.935807538059691979e+03
-4.562421036881547479e+03
-3.899370664617945749e+03
-3.731997009802976208e+03
-3.693822914295515602e+03
-3.927449132233416549e+03
-4.181562934988417510e+03
-3.813324981387856042e+03
-1.021278423759359498e+03
3.497028008651926939e+03
4.466550396171882312e+03
4.467467027139178754e+03
4.002239686882556725e+03
2.566832314786372535e+03
1.916669292759694599e+03
3.206146162201951483e+03
4.396529823772470081e+03
5.176682018337149202e+03
5.312233938942258646e+03
5.040398827102276300e+03
4.372764322340084618e+03
3.924920479185453132e+03
3.504716065997203714e+03
2.705931557627041457e+03
3.078466050932769122e+03
3.504593955396510864e+03
3.125285831507255807e+03
2.076056394564368929e+03
1.690094745122268023e+03
2.228856463183911274e+03
3.074859367089216448e+03
3.372062306678688856e+03
3.243907403158310899e+03
3.378887264797615899e+03
3.501379599136902470e+03
3.169010483248921446e+03
2.104374582888362966e+03
1.544661281910186517e+03
1.288286078800457972e+03
8.102768633443071167e+02
1.297742095003158283e+03
3.026499709685596372e+03
3.491459621699275885e+03
3.468383751333533382e+03
3.028210852120582786e+03
3.039059975722988383e+03
3.820471081437589874e+03
3.671786235684598068e+03
2.761467002857352782e+03
9.049229798110795286e+01
-6.797072482027213027e+02
7.473307366206454390e+02
2.816511502212189498e+03
2.705473965887519626e+03
1.741699586397966868e+03
4.505960417040262200e+02
-6.590775312475183227e+02
-3.993225083599573964e+02
2.545233376385554607e+02
4.111573211332869846e+02
9.646520581627831916e+02
1.174663533687646350e+03
1.617954262027571758e+03
1.773544274607787656e+03
2.095769547702028376e+03
1.911725132343209452e+03
1.901409857170773194e+03
1.776817006845334618e+03
1.070886532140101963e+03
8.841224197814431136e+02
4.717515847654748882e+02
-8.350019117350215936e+01
-7.096690508384914438e+02
-9.069990546893127430e+02
-7.103865490097739439e+02
-4.927396202993227803e+02
-1.779083261444100401e+02
6.024857416609888361e+01
-2.501384975342644168e+01
-6.965106268471610065e+02
-1.434181070691679906e+03
-1.455679718699995874e+03
-1.127285162693589655e+03
-1.193847839837116680e+03
-1.313557123480076825e+03
-1.785286878863941183e+03
-1.727028385179471343e+03
-1.307481421087016770e+03
-1.154464222047786507e+03
-1.635668055302235871e+03
-1.913623769975667528e+03
-2.307078976443792271e+03
-2.511070488893624315e+03
-3.329471262351725272e+03
-4.041504869022553521e+03
-4.156151793118867317e+03
-3.595887884143903193e+03
-2.945943261330493897e+03
-2.987573088470930088e+03
-3.850898463637573968e+03
-4.223992634532800366e+03
-2.921937064166925211e+03
-1.982709366026032740e+03
-3.798555764467743757e+03
-6.674461039242250990e+03
-1.095924497933364546e+04
-1.188187550272693443e+04
-1.110027238597028918e+04
-1.018317209517153424e+04
-9.937926219828364992e+03
-9.733408319201314953e+03
-8.801603554586894461e+03
-5.881277441800517408e+03
-3.568704000217543580e+03
-4.408274415732793386e+03
-2.398744824889135543e+03
-1.218108365835320683e+03
-1.524423360421815914e+03
-1.779707932033063344e+03
-1.975541651071923070e+03
-1.951718737418150567e+03
-1.722723782165866396e+03
-1.987807156178738751e+03
-2.001749440564449969e+03
-9.902205274516297777e+02
5.310573806928781551e+02
6.148503909214648502e+02
2.205661397892716877e+02
5.699252514150591651e+02
7.439045549657480478e+02
7.475399316158368492e+02
3.323970251476179101e+02
-8.626573385465849242e+01
-3.263267416339997453e+02
-7.382850205519591782e+02
-5.904703065031302458e+02
-1.533761440405266399e+02
4.629291338670339684e+01
-1.386261851455916769e+02
3.750098874357755108e+02
2.943630755161724437e+02
-5.296325345695103692e+01
-3.193988869887280089e+02
-8.934454075715750605e+02
-6.177364424724909213e+02
3.058999753944271447e+02
1.788964646960756909e+03
2.617800683133072198e+03
2.568073062331010988e+03
1.971686283763927804e+03
2.064358403471259862e+03
2.794052833061500678e+03
3.120469097511174823e+03
3.350480108355669017e+03
3.825074513291930543e+03
4.005066616416061606e+03
3.675373235112587736e+03
3.656999859322658267e+03
3.954598216793637675e+03
4.549206777022080132e+03
4.702694537441166176e+03
5.005871941466579301e+03
5.324273627902281987e+03
6.857190833883794767e+03
7.792522660228817585e+03
7.854659289855074348e+03
7.722254110106976441e+03
7.830160032689746913e+03
8.651039423619777153e+03
9.617684759102576209e+03
9.694923949777907183e+03
9.157285828323780152e+03
9.128722535866327235e+03
8.145333133031422221e+03
6.758851861469782307e+03
6.149119978755093143e+03
5.267864594092873631e+03
1.960892809870067367e+03
3.098315758810856479e+01
2.196210729763656957e+02
1.197831121110670665e+03
2.410925090423129404e+03
6.163704324534272700e+02
3.886485462381078378e+03
5.595395826864087212e+03
7.607897459945418632e+03
8.179963636100933400e+03
9.388161348375744637e+03
1.239603001287640109e+04
1.475958166977010478e+04
1.494313589096231226e+04
1.386309694347145887e+04
1.029633002365416905e+04
1.078559798475980460e+04
8.625681066437860864e+03
5.584968845944271379e+03
5.392338314607229222e+03
4.538867160174264427e+03
3.168697704013444763e+03
3.070402705806602626e+03
5.910894360370442882e+03
6.198081490378668605e+03
5.485781988421323149e+03
1.724972346002105041e+03
3.019631821368504916e+03
4.591744994484443851e+03
2.819335782413968445e+03
5.113055251570408473e+03
4.363412348496675804e+03
1.358536315967247674e+03
6.474379997835820177e+03
8.112076542368965420e+03
5.929585394178598108e+03
1.805784929047451897e+03
-8.426167394565649147e+02
-4.126701103391865217e+03
-8.008487493549531791e+03
-5.787294819619402915e+03
-4.275261298616845124e+03
-3.587225662322789958e+03
-2.955192603836150283e+03
-2.697193417492656863e+03
-2.195228440357042018e+03
-3.373646217563950813e+02
2.236423408158998427e+03
4.224044918245475856e+03
4.019743501259426466e+03
1.731579165859475552e+03
-3.446400185837786466e+03
-9.723229225769129698e+03
-1.397522525068811228e+04
-1.797434477706800681e+04
-2.145839433404452575e+04
-2.504277618120552870e+04
-2.842621464335390920e+04
-3.326264981865907612e+04
-3.840623136541784334e+04
-4.371523176215892454e+04
-4.173631927556351729e+04
-3.014934931401932045e+04
-1.881655281487960383e+04
-1.421410562494485021e+04
-1.969814213048577949e+04
-2.938445234945171978e+04
-2.892794421949159005e+04
-2.358441647356851172e+04
-1.704269935122284733e+04
-8.112363640834839316e+03
3.799458198496733530e+03
1.114274392291462391e+04
1.252712049608160669e+04
7.220486463455650664e+03
-1.155465895602006412e+03
-5.708128478939897832e+03
-8.319269350080685399e+03
-1.266717301099241195e+04
-1.544309561002036389e+04
-2.189388559170803637e+04
-2.090260687359776421e+04
-9.145917600901882906e+03
-1.347341900630159444e+03
2.753474129224931062e+02
7.533439128975746826e+03
1.459228921527147395e+04
1.567427603702090710e+04
9.806445052586050224e+03
1.828685888938121252e+03
-5.813432838294021167e+03
-8.434805576411117727e+03
-1.210982105553630572e+04
-9.673982090034269277e+03
-8.642357679773075461e+02
1.396348018864432561e+04
1.702147629983061415e+04
1.601094884828325303e+04
1.835815830785514117e+04
1.586639219774447338e+04
6.905978575378930145e+03
-6.889771875919114791e+03
-1.370065240683850061e+04
-8.701380260657701001e+03
1.572221424471011233e+03
1.517532570398752250e+04
2.551029160816609874e+04
2.787529923448781483e+04
2.273344621190640828e+04
2.362077125040375904e+04
2.421341351855604080e+04
1.731162010171293514e+04
1.559860673583024436e+04
1.901058445987549567e+04
1.747276999681475718e+04
9.248409927693845020e+03
1.841653259310228805e+03
-1.525388520585285960e+03
-6.026491804246470565e+03
-1.082346529454066695e+04
-5.708293586370537923e+03
1.403906466715198985e+04
2.122788762874322492e+04
1.521840689437369292e+04
8.740735251443860761e+03
7.892933312930017564e+03
1.089409284713746092e+04
1.852942730137592298e+04
2.684997400859742265e+04
2.886890304680303598e+04
2.211039175689517288e+04
1.215121459595088163e+04
9.164365301894162258e+03
1.229205724418090904e+04
5.804481270176322141e+03
-5.997372846934171321e+03
-2.274349633097343394e+04
-3.613488971937408496e+04
-4.363854654246789141e+04
-3.837240806740507105e+04
-1.768451499053354928e+04
1.789098852974154852e+03
1.129642186587573451e+04
1.255449206321521888e+04
1.503024881264460601e+04
1.618175030989696825e+04
1.600903648126299231e+04
1.354408646017673891e+04
1.684286444644982839e+04
2.327924853387143594e+04
2.652812685112930558e+04
2.839047924762938419e+04
2.595228390484399279e+04
2.303445075237485798e+04
1.918089632226156755e+04
1.411247108575842321e+04
8.465074556733332429e+03
4.202623754330665179e+03
-1.109967524065256015e+02
-6.219862011500313201e+03
-1.106400150460642908e+04
-8.903600572641647886e+03
-6.325861435527071990e+03
-7.469872900150015084e+03
-8.533774530354696253e+03
-1.236662777664331952e+04
-1.486357343459986259e+04
-1.699184162413206286e+04
-1.677050043296852527e+04
-1.210062058626230464e+04
-4.520390884388301856e+03
3.163067906201557435e+03
-1.628439152066194310e+03
-1.351508623029064802e+04
-1.506902261764120522e+04
-1.147253362888969968e+04
-1.173977485047880327e+04
-1.758785725043880666e+04
-1.387498599391495372e+04
-1.193534065468639892e+04
-1.188308113636144481e+04
-1.334451925592446059e+04
-5.768845606032322394e+03
2.662976675253178200e+03
1.775462820034067946e+01
-4.617556671254526918e+03
-1.137923927791845381e+04
-1.781335414516487072e+04
-1.752513422188681943e+04
-1.605569756409163710e+04
-1.565911589845131493e+04
-1.371667357216037817e+04
-1.069725236157431937e+03
8.887671784202630079e+03
9.873280377162007426e+03
9.817753520915381159e+03
7.865867835633553113e+03
4.438570451984188367e+03
5.664691499378631306e+03
8.945057531107633622e+03
8.023486114190074659e+03
1.558824809165636680e+03
-4.840013981463866912e+03
-8.050166373354255484e+03
-8.951815691271785909e+03
-1.328715770710672405e+04
-1.343726368252447355e+04
-4.034274226393265963e+03
8.233626865366628408e+03
9.968305310104760792e+03
6.241710159669729364e+03
6.513824902914593622e+03
9.219553025410021291e+03
5.990777886406172911e+03
-2.743574973896085339e+03
-6.651643356263655733e+03
-7.349513763860430117e+03
-9.945235591197151734e+03
-9.345847751930577942e+03
-4.513478166542845429e+03
-2.628124021829418780e+03
-6.414817396550526610e+03
-1.797066856857447783e+04
-2.611470840404407863e+04
-3.298301999591003550e+04
-3.289265037270236644e+04
-2.675473880683472817e+04
-2.298314843968190689e+04
-1.774773717318779745e+04
1.457420139536620127e+03
1.294222597079422849e+04
1.060359450372978426e+04
8.468556464701885488e+03
8.144135144391336325e+03
7.049271825751899996e+03
5.799995867599859594e+03
7.026422761441789589e+03
6.215577605833545022e+03
8.518479856965321233e+03
1.216616668321569705e+04
1.701471979679793003e+04
1.895815606292399389e+04
1.385648423629846548e+04
8.595716056870325701e+03
7.080053770502212501e+03
7.883477739648805255e+03
9.794897517073077324e+03
9.766430891348245495e+03
9.117956778309879155e+03
8.232751335606515568e+03
3.689204141792287828e+03
5.841932042629777015e+02
1.261681261031246095e+03
5.049453824797153061e+02
-1.340902453307113774e+03
-4.511993339585989816e+03
-7.344267000567552714e+03
-1.010190748583586901e+04
-1.440477306440802204e+04
-1.899288504912731878e+04
-1.922652498723280951e+04
-2.380183227758017529e+04
-2.188537769296106489e+04
-1.374242030646591593e+04
-1.768765134623195991e+04
-2.078414803436167495e+04
-1.413482239564962038e+04
-8.090695575917971837e+03
4.529214345316526305e+03
1.311602304248997825e+04
1.823794692832960209e+04
2.540865928810091282e+04
2.136626785725890295e+04
1.625820181566999054e+04
1.669139137326680066e+04
1.906183670691190127e+04
2.635707667545849108e+04
2.679758605103308219e+04
2.290915949491869469e+04
1.920711562044700986e+04
1.650429953269370890e+04
1.313485902274683394e+04
1.069890597768692169e+04
9.030608043358861323e+03
9.448110650567748962e+03
1.267121611108315119e+04
1.365745632309526081e+04
9.325666593670724978e+03
7.025811563562355332e+03
5.556629230316117173e+03
6.946845977385835795e+03
8.321421448530560156e+03
8.734473703183592079e+03
7.084168226118055827e+03
6.843719738476093880e+03
8.834019036300698644e+03
8.592067918053511676e+03
6.686513554070149439e+03
5.588784427281621902e+03
4.584837128585573737e+03
4.420571627121856181e+03
4.032063098831868501e+03
3.296334965573671070e+03
3.242264697343171520e+03
1.393848947925463790e+03
1.612066292882598646e+03
1.714013528674071267e+03
1.620881285885561738e+03
2.036056113369312698e+03
-3.782217484572383341e+02
-3.532909626499053047e+03
-7.360934187871223003e+03
-6.964183190411451505e+03
-6.094525060097168534e+03
-5.262014867582403895e+03
-6.034521835477200511e+03
-6.702962548228681953e+03
-2.530290089274371894e+03
-2.211461855485885337e+02
-2.524492036850485874e+03
-9.185556121487543351e+03
-1.263702664506273504e+04
-1.593108243223904901e+04
-1.914319685524660599e+04
-2.138806953425690153e+04
-2.374901882164514973e+04
-2.393239598122091411e+04
-1.373576729963077378e+04
-1.402547232660045438e+03
5.834524633379443003e+03
9.583760226969532596e+03
9.442564211276019705e+03
6.029177386791152458e+03
-9.084508123593964228e+02
-4.682291038530094738e+03
-6.277264873129489388e+03
-9.199307868861375027e+03
-1.344395779353331272e+04
-1.665794868144587599e+04
-1.755142146320924803e+04
-1.882640438010769140e+04
-1.995362875415204689e+04
-1.968266628373617277e+04
-1.644069306554419018e+04
-1.171528394798955742e+04
-7.536778974157842640e+03
-3.698410193922812255e+02
6.147659669777812269e+03
4.883387583120904310e+03
5.796463200931818392e+03
4.966413964048090747e+03
3.743715658097690266e+03
3.605772104136787220e+03
2.750252293780632954e+03
1.478368354188569811e+03
1.807892480073140575e+02
-6.451015221420707348e+02
-4.057451759731465586e+02
-4.665651317109050638e+02
-2.778858609096301961e+02
6.153523886626933290e+02
1.314612247902789704e+03
3.462560578051467473e+03
4.846299355886918420e+03
5.617185802256348325e+03
5.322747622512765702e+03
4.654477138166385885e+03
4.124336743793468486e+03
3.361194234657704783e+03
3.053887487356403199e+03
3.212027863321045970e+03
3.914151553009744930e+03
3.462862088022286116e+03
2.424006626353245792e+03
2.250367015752093721e+03
2.219064898386304321e+03
1.335505967218952264e+03
4.548447037602872456e+02
2.688218015759148329e+02
1.015150712753726907e+03
1.262957206409624860e+03
1.194491946321417345e+03
1.827422816860618241e+03
3.295622410461023719e+03
3.289489595577425462e+03
1.902461825362774789e+03
3.178753928687763619e+03
3.043465237236696794e+03
3.055191095106317334e+03
3.118701372524721592e+03
4.090076688183937677e+03
3.811436713801611859e+03
2.864538900151903363e+03
2.622942375628339505e+03
2.653547958895814645e+03
2.873343678336643279e+03
2.984202838206634169e+03
2.309892132023414888e+03
1.687593197283294785e+03
1.358555215395842424e+03
5.551536742064974987e+02
1.630493296140464565e+02
8.713332672488869548e+02
1.899251374749916522e+03
2.589060017812179467e+03
2.928312539620109874e+03
2.246639026957379883e+03
1.727169165255194912e+03
1.539993870773415438e+03
1.501575734659725185e+03
1.933068820707165969e+03
1.721645361170981914e+03
1.587540908237629310e+03
1.696982945646921507e+03
1.376890416571512560e+03
7.305109436744073719e+02
9.111846906114504918e+02
9.398768032816592495e+02
3.299846572110762963e+02
-2.355192985274781847e+02
-1.109060280529860620e+03
-1.575602006960878271e+03
-1.585029767333876862e+03
-2.326462951615420025e+03
-2.283729172355664559e+03
-1.768819360523475325e+03
-1.436092198985394361e+03
-6.370665123336113993e+02
8.291065090513106384e+01
6.373504638105801945e+01
2.442063733935957544e+02
-6.241993469512977981e+02
-6.329023338426904957e+02
6.043174230405791150e+02
1.103027994924934546e+03
6.555105374628476511e+02
7.428602777304216715e+02
9.831031752122456737e+02
1.070308932394235853e+03
1.093799111131005930e+03
-9.916267032489619169e+02
-4.406216225795336868e+03
-7.275798789891741762e+03
-7.313022675699798128e+03
-7.750698486798715749e+03
-8.044352801067040673e+03
-6.865117718251106453e+03
-5.940887204366827973e+03
-4.548907811213714012e+03
-9.570894093535456477e+02
-6.894217994614324425e+02
4.548313254679746933e+02
6.016432100608387827e+02
8.154114638140001716e+02
8.934714871835212762e+02
7.221010226516734747e+02
2.688998794158681562e+02
-1.138245182767487336e+02
-3.505857900095664377e+02
-3.513078554910997013e+02
2.839941773815538681e+02
1.140214567866807784e+03
1.678647788581286704e+03
1.524008680741398393e+03
1.205376741904455230e+03
3.605349712710716403e+02
-5.776076199927416610e+01
1.418314782111953321e+02
3.067510695053949803e+02
2.955741028041169898e+02
2.067915411386397579e+02
-9.178546850515576239e+01
-1.654585099031628488e+02
-7.554025467873451305e+01
4.107475313701605302e+01
9.216136481102211064e+01
4.412874499968191913e+02
8.335904041288442841e+02
4.225354209879120617e+02
-4.192336389229599263e+02
-1.263034321634439038e+03
-1.665843107789837177e+03
-2.870128260744002546e+03
-2.536504210209987832e+03
-6.909608316312495617e+02
1.223662880031416123e+01
2.666487048949315977e+02
1.796718245425073519e+02
1.353600326729864776e+02
2.376380928189798283e+02
-3.438247435980889009e+02
-1.218894423157642677e+03
-1.647337027964985509e+03
-1.987435002573229667e+03
-2.263162453849529811e+03
-2.189715558229081125e+03
-1.939496123976799936e+03
-1.844821439113813312e+03
-2.263442091489639552e+03
-1.799710620435723058e+03
5.843653529149825090e+02
1.596478886565072798e+03
3.415084491348491156e+02
-3.337718123638292127e+02
-3.162339944096010640e+03
-3.504055485202697582e+03
-2.770408358088869818e+02
8.794532610549600804e+01
-7.770338978647988597e+02
-3.814670725476950111e+02
-3.843362075913219655e+02
-3.117513724545116929e+03
-7.750900546174907504e+03
-6.598557049658171309e+03
-3.661541935466718769e+03
5.974186063622862548e+02
1.649388800054977537e+03
1.269833350166397423e+02
-5.115495308549613469e+02
-5.966556583897673818e+02
1.328964857123703268e+03
2.103947626329644208e+03
1.629236301874316041e+03
1.600779659390364031e+02
-8.726503357351151635e+02
-2.025837906168401787e+03
-4.068506837043583801e+03
2.741639557592754528e+01
1.810740070013430341e+03
-1.657557715872576409e+03
2.765521065809851734e+03
5.253361373992826884e+03
3.029765861862460497e+03
4.839252439853335090e+03
1.849209441368493799e+03
2.558957030407634193e+03
3.665695571689398093e+03
3.523424565897510092e+03
2.490015131661969463e+03
-1.832681237340446842e+03
-1.104739315093148207e+03
-3.542379665875052069e+03
-3.924898503164205067e+03
-3.264234066021207582e+03
-7.335986998469766149e+03
-5.995279545859863902e+03
3.268212909930495584e+02
4.002995473981813120e+03
5.125282645174285790e+03
4.971672970379482649e+03
7.825286774676744244e+03
7.579005926218027525e+03
4.857546041809036069e+03
2.259007237760604767e+03
4.393462358484805009e+03
5.383925948905746736e+03
4.837429026668953156e+03
4.485807781324867392e+03
4.350025739790909938e+03
3.891963532640967514e+03
4.382563936855347492e+03
4.385023999382726288e+03
3.252144702514540313e+03
1.533024378901241334e+03
3.125268057552757455e+02
-8.996129884333789732e+02
-1.206161646785480571e+03
-1.493903529740477552e+03
-6.855689098198326974e+02
1.272488658272399562e+03
2.412262555492445244e+03
3.224665495483381619e+03
4.047769152007882440e+03
4.525623295166154094e+03
4.096926190578683418e+03
3.012808783029503502e+03
1.935244054134696853e+03
2.784000210937793440e+02
-1.038037366589603380e+03
-1.620626239818372824e+03
-1.903324050822848903e+03
1.188303140632035593e+02
1.331022853688932855e+03
1.854071110926226424e+02
-3.562386469209106394e+02
8.651143846457695190e+02
1.896906539039240670e+03
1.283407347765190252e+03
-1.182020209508628113e+03
-2.275084715098584638e+03
-1.645385086673399883e+03
-2.216037993849793111e+03
-7.369263250638404088e+02
2.993053761233783916e+03
5.381625696778824022e+03
6.600604804607308324e+03
6.783335356308953124e+03
5.843930950344933990e+03
4.463399841605243637e+03
2.395585460093740949e+03
6.583577566669609951e+02
-2.983410527514210457e+02
-8.077692932859281427e+02
-1.216109802916681701e+03
-2.133394997897179110e+03
-3.340252631916802329e+03
-4.690715456650402302e+03
-4.832583261151864463e+03
-3.076675439845825167e+03
-1.577153709154563103e+03
-7.719484150616955276e+02
-4.939087467599885599e+02
-1.491803676166202131e+01
-2.769778511712733575e+02
-1.035026884316118412e+03
-1.772868223833697357e+03
-3.161458827728469714e+03
-4.418780540686716449e+03
-3.521822451240382179e+03
-1.083611223491927376e+03
-7.608789293333580872e+01
-2.762452713955985359e+02
-2.032862702295828058e+03
-5.308603192572388252e+03
-6.676409294912671612e+03
-6.553302006916140272e+03
-6.354171491250952386e+03
-3.964852391213619285e+03
-1.485301164324821457e+03
-2.292325951582550715e+03
-3.866730681573945731e+03
-6.921441971057339288e+03
-6.947355403638731332e+03
-8.331315010487895051e+03
-8.512108797875189339e+03
-9.050633774754736805e+03
-8.689888705539678995e+03
-7.521698095058469335e+03
-6.083956548600418500e+03
-1.856531616284520624e+03
1.175666118468676132e+03
-5.749974867459543475e+02
-6.044348201474103007e+03
-8.475560167355883095e+03
-9.799133452028730972e+03
-9.565033434393111747e+03
-1.656229213701654544e+03
-1.781651286488191772e+03
-1.999659316297882299e+02
-3.620666189319154000e+02
-3.105902526887531167e+03
-3.497346354619831345e+03
-6.514213783364547453e+03
-7.241305690888418212e+03
-1.159418660707204936e+03
2.904537383278217021e+03
5.357673803524685354e+03
4.942169763460623471e+03
4.193364045188433010e+03
4.881250880753486854e+03
