-3.913877603045596970e+03
-2.154834633586174277e+03
-1.363724524059209898e+03
-2.968487694750675018e+03
-7.810993907069754414e+02
1.339497989057799714e+03
4.442458815576421216e+02
-7.098206587789073865e+02
5.363412365387601994e+02
2.026779513768863808e+03
2.795542774773503879e+03
3.757650633237328748e+03
3.960111859786754394e+03
2.838876377828028126e+03
3.067964437394741253e+03
4.446329595259213420e+03
4.941973077953257416e+03
3.403944459037998058e+03
2.470207454386469635e+03
2.141697253840971371e+03
2.008405520519352194e+03
1.625522606784846857e+03
1.395481585115832331e+03
1.646456584623429535e+03
1.451319438664694417e+03
1.345982823049471335e+03
1.889399505642418262e+03
2.708836714245688654e+03
2.941414773915076694e+03
3.179707354601304814e+03
3.109443271842488230e+03
2.696749963855838814e+03
2.272431631802450283e+03
1.723934087310610039e+03
9.781757229064995727e+02
-2.747257632764629989e+02
-1.089715963184714155e+03
-1.028673423380738996e+03
-1.348806093471772328e+03
-1.933460247054360480e+03
-1.446735338179475548e+03
2.197350099874114164e+02
1.605835482509389067e+03
1.547667979560289268e+03
1.956019365824485703e+03
3.036135206078503870e+03
3.969066089995665607e+03
4.072716082302677478e+03
3.192127776027817617e+03
2.396345070777321780e+03
2.536346549896436500e+03
2.407153595149859939e+03
1.279691211801180089e+03
-4.607589887116899519e+01
-5.684002733062259267e+02
-5.333846162272287756e+02
-2.281135919596631254e+02
4.243756920644618162e+02
2.308121916174151011e+03
3.595152939340794092e+03
3.678451508386346177e+03
3.582969158241805872e+03
3.134721800177064324e+03
2.468702634657341605e+03
1.953892146091672885e+03
1.988276568680706532e+03
2.164866602576322748e+03
2.154639798656793573e+03
2.143557262682253622e+03
2.328615741916130446e+03
2.110829199524016076e+03
1.282129546244425228e+03
-6.845361019931598889e+01
-1.183946305382750097e+03
-2.512394387766721593e+03
-3.573827703436948013e+03
-4.416281602588655915e+03
-4.210771794235408379e+03
-3.131324646403127190e+03
-2.279957680220873499e+03
-9.456478402656207436e+02
1.031611065267959702e+03
3.017792339004339283e+03
3.328922766367353688e+03
3.766034115645177280e+03
4.114052720104114087e+03
3.295953262072614962e+03
1.649733358006961225e+03
-5.706249276089944260e+02
-3.762108177305275603e+03
-5.436702367282448904e+03
-6.065433453425449443e+03
-6.111338533961185931e+03
-6.101418093449659864e+03
-6.921682936480183344e+03
-7.569277704998196896e+03
-8.107854705269830447e+03
-8.434655912027077648e+03
-7.948824535023894896e+03
-7.667289318109765190e+03
-6.845018368337382526e+03
-5.716071864691585688e+03
-5.204466571577041577e+03
-2.443164247723644621e+03
-2.691355271188205052e+02
1.205622947426221117e+03
1.683110005529727232e+03
2.039341647537546351e+03
2.012352906666113768e+03
1.577098931214608683e+03
1.511637951063993114e+03
1.381940990051312383e+03
9.210329842024810887e+02
9.698995352119246718e+02
1.027554297882673836e+03
6.979385632261047476e+02
1.899269663632660965e+01
2.857224445531118704e+02
8.251982873104213922e+02
1.614400988345145151e+03
1.595311884880683465e+03
1.342925485046472886e+03
1.141315092409323142e+03
1.394489202718643355e+03
1.869387943565622663e+03
2.065014326883507238e+03
2.054400134473174148e+03
2.370576572474936256e+03
2.402527246303244283e+03
2.551320813765727053e+03
2.615973554771220734e+03
1.808447571133421661e+03
1.177773248097274745e+03
6.159894751445219754e+02
4.281094035247769511e+02
2.442745945577281645e+02
1.603969934268990016e+02
-3.566143488884187640e+00
-1.666361144277934443e+02
-5.480048822989488855e+01
3.010152108056456655e+02
8.478673301609237569e+02
6.957348597055841992e+02
8.635437585391362063e+02
1.046306320824795876e+03
9.160301784634904152e+02
8.857325212945212343e+02
6.865003752406718149e+02
6.894438810309095516e+02
7.495964004420590072e+02
9.549005165751096911e+02
7.064252359659527656e+02
-2.367731926349863443e+02
-6.393097234244803531e+02
-7.383055248288236498e+02
-1.443876344124010757e+03
-1.959025405848072523e+03
-1.353693005945824325e+03
-2.130050997984206788e+03
-4.059055593545820102e+03
-1.348621451597738996e+03
-6.287235687555718187e+02
-8.594066482853193065e+02
-5.156374739714174211e+02
-2.134502740120178146e+02
-7.628305467750606113e+02
-1.145706913883904690e+03
-7.280717562181008589e+02
-7.528582370865606208e+02
-5.559133640735301469e+02
-6.012114363827501862e+00
-9.922107818964991566e+01
-5.507319081929517779e+02
-7.364678973628235781e+02
-5.104056276878671383e+02
-5.815335839512003986e+02
-7.168660137091757178e+02
-7.405546778053343360e+02
-3.516971158495615555e+02
7.786405570321807090e+01
2.181865860986559369e+02
1.019162424118036483e+03
1.211645879448050891e+03
9.827517942364910368e+02
9.835896716316540278e+02
9.892728145368697596e+02
9.468298109113385408e+02
7.621957840751043705e+02
5.163529155884065176e+02
8.864430571282204028e+02
1.032678689634306465e+03
1.170032560419154379e+03
9.623701228757661283e+02
5.175955517282246774e+02
9.847981202406796797e+01
-9.870414046930677614e+02
-2.064907461095503095e+03
-2.158040138602971183e+03
-1.875477686310341596e+03
-1.419272604007792097e+03
-2.443950074534022292e+02
3.961952903875295533e+02
2.395639235205740363e+02
3.136896739241628893e+02
9.315576876184269395e+02
1.256251225212512509e+03
1.437749107269396291e+03
1.489947400847788685e+03
1.444826152465520863e+03
1.157449099872570969e+03
1.143911587161878970e+03
1.488148174832036830e+03
8.221010317742909592e+02
1.366003562751550930e+02
-7.203906750497129678e+02
-5.969028075306496248e+02
-8.997888291488888513e+01
-6.669930118274597142e+00
-1.959888044405319079e+02
-8.962694810202556539e+00
4.814830194467100455e+02
6.503698818732436848e+02
5.556417704051193596e+02
1.440385321288253451e+01
2.459362277028016308e+02
1.401829473465948467e+03
1.834679888507076612e+03
1.695788328677296704e+03
1.760508340187062004e+03
1.947817193950011188e+03
1.924448882724645955e+03
1.892300680794123991e+03
1.533561187643798576e+03
1.000795115207621734e+03
4.230805174857804900e+02
-1.215223894005998062e+02
-4.983513478752405490e+02
-7.152824232879470401e+02
-4.433602777865365852e+02
-4.101062582792098397e+02
6.403789294268160859e+01
4.090497241790770886e+02
2.216888674658459593e+02
6.116843627930711591e+02
8.312592214909720951e+02
1.246447668091043852e+03
1.401529513938702394e+03
1.509473777964742339e+03
1.925323085628358740e+03
1.969607243824201987e+03
2.014915312678194368e+03
1.769801438629553331e+03
1.076035337808882559e+03
5.939472858771596293e+02
3.212151752262543027e+02
5.907802503021672891e+01
1.591298977152890437e+01
6.308153295034988872e+01
3.932036285582857715e+01
2.495721715461786872e+01
-1.139985831102436151e+02
5.792530425740087594e+02
9.726731988358308172e+02
1.373200392682495703e+03
1.472776774890072375e+03
1.497256177903951311e+03
1.822592527048669581e+03
2.078791788431765326e+03
2.400828802350738442e+03
2.276741143884104531e+03
2.296636792013830473e+03
2.287377997311035415e+03
2.001828039244909860e+03
1.832955272924323708e+03
1.032000909327426825e+03
-1.371076013576240484e+03
-4.732300049234664584e+03
-7.593648613583677616e+03
-7.187150616643962167e+03
-7.008800609299983989e+03
-6.675630191963554353e+03
-6.260666119698513285e+03
-6.455839686512113985e+03
-3.753106705079042058e+03
1.299382285037560223e+03
1.186634227589561988e+03
-2.410344843039601528e+03
-4.064429092526836939e+03
-3.856612447559683005e+03
-7.449430221274767518e+02
-3.812296647799320453e+03
-5.229488448178122781e+03
-4.368455019569477372e+03
-6.923314109822098317e+02
1.095680468902460234e+03
1.210510559296197926e+03
1.302246479529379712e+03
-3.540701474537344779e+02
-3.048509382882656155e+03
-2.917033661062650481e+03
-5.931544562256516656e+03
-6.083042096262521227e+03
-5.331601460159045018e+03
-5.127198794177289528e+03
-5.468742168440401656e+03
-5.189138885408022361e+03
-4.859354097201023251e+03
-4.213472701982364924e+03
-4.097400435156803724e+03
-1.300966848121812973e+03
2.341909392413398564e+03
3.081179092395966563e+03
3.192790683330295451e+03
2.692754813787817966e+03
2.199088421858174570e+03
2.008742774887823316e+03
1.782701471681637258e+03
1.431007092842771044e+03
1.562721708539267183e+03
1.754919079907497689e+03
2.227663763020672377e+03
2.451079346163598530e+03
2.868230384986683475e+03
3.209036623407538173e+03
3.115591868555382916e+03
3.408895368956074890e+03
3.580937458765853535e+03
3.345846197549989483e+03
3.396673575749048723e+03
3.370453754774409845e+03
3.161278423058020508e+03
2.958230122754529475e+03
2.742304900010342408e+03
2.322545668625165490e+03
1.620894753092096380e+03
7.573836760040052241e+02
4.900591421171246225e+02
3.348860660127939468e+02
-7.519914271635718706e+01
1.086770909185482594e+02
1.023571816461754338e+03
1.498653240402702750e+03
1.405229033257714946e+03
1.357281970345885838e+03
1.055751254744838434e+03
1.011059166570469301e+03
1.393475991830735666e+03
1.812016842043543875e+03
1.690535395421104113e+03
1.642868147222386369e+03
1.986961563860805882e+03
2.568604488183265175e+02
5.958264947950830503e+01
1.495212559630739179e+03
8.907495040275310885e+02
1.142907009522603659e+02
2.346462612618829837e+02
1.256242975965009521e+02
-3.776668035362264959e+02
-1.781670191313084786e+02
-1.550407890935242392e+02
1.248454372377049566e+02
3.747080749999335580e+02
5.643111686714446478e+02
7.545890186389178780e+02
7.045456379962798792e+02
7.352222868555387549e+02
6.986240328617705018e+02
7.677353252897606808e+02
6.245732294564941185e+02
1.180118258836131872e+03
1.428264296723775942e+03
7.770106675308841204e+02
-9.651543212813992056e+01
-2.503740186478549958e+02
-8.563822089288997574e+01
-1.273237409341912922e+02
-4.942619616601047028e+02
-7.164636350112884884e+02
-9.700773932426468491e+02
-1.181208410350935992e+03
-4.148827558977678791e+02
5.069080708562581208e+02
3.282710231298290182e+02
-3.977958787972480650e+02
-5.502989249682480022e+02
-7.512358078878214656e+02
-9.016208427118651798e+02
-9.374523230165965515e+02
-1.297810561349924001e+03
-1.245715834618451481e+03
5.738284977960552169e+02
1.773860913513028436e+03
2.105319464508742385e+03
1.725183344198011127e+03
1.149419094741077515e+03
7.739683541057139564e+02
3.107870648001425025e+02
4.079214679772716323e+01
-1.699827233505132256e+02
-2.975344030331610270e+02
-1.887758861755514772e+01
-5.969399185875064404e+02
-4.748000152424708631e+02
2.875083679136183719e+02
9.340049923407292454e+02
-1.513213602017943344e+02
-2.663540347688601742e+03
-6.178619774493678960e+03
-7.204560895011365574e+03
-7.272391663920524479e+03
-6.788137762414082317e+03
-2.215826279799697659e+03
3.695174391381859209e+02
-2.712247591461177763e+02
-1.809744557909980927e+02
6.541347653238808846e+01
-3.436042972991520283e+00
-8.848830708793481392e+01
-4.046956416688796594e+02
-1.049064462668058468e+03
-1.508702252508177025e+03
-1.734518532336175895e+03
-2.614487849941323020e+03
-3.631652761532211571e+03
-3.706036564774573890e+03
-2.044656695794730012e+03
-9.206008196335175171e+02
-6.748901679515619207e+02
1.765410878322347799e+02
1.866652790215633786e+03
3.563416762868717342e+03
4.203945500308315786e+03
3.691175189376677736e+03
2.353985633664772649e+03
1.792294204914406464e+03
1.770038883622039293e+03
1.248233233837559965e+03
3.886872966410977881e+01
-1.011001045804544788e+03
-1.756353561605690402e+03
-1.404157527404729990e+03
-1.896298895383087711e+03
-3.101770701976834061e+03
-5.046704726156697689e+03
-6.127093554214400683e+03
-3.627954310122594507e+03
-8.527896242353929779e+01
2.843914902528584662e+03
5.309601680181065603e+03
5.598789834120823798e+03
4.680600879792551495e+03
3.744052562783980648e+03
3.220070486159104803e+03
2.296582725493989074e+03
9.595876181084585141e+02
-2.369590117022064248e+02
-1.229101178760319499e+03
-1.663808927352625460e+03
-1.880027816086852454e+03
-1.571786949190552605e+03
-3.790378852478247040e+02
9.063100482237367714e+02
8.641897980870048741e+02
7.656951399429900107e+01
4.953429006221528397e+01
1.867194782147377055e+03
2.699494075404025807e+03
2.987380206848393755e+03
2.613950565850600924e+03
1.869226169618664471e+03
1.397256485640424444e+03
1.628941157765719709e+03
1.274262906222825677e+03
8.932299453373730103e+02
9.689960790495921117e+01
-5.027184862649195338e+02
-3.706166228830649061e+02
1.516329635175487667e+01
3.147029606251170435e+02
6.750394448516534567e+02
-1.548587079940773208e+02
-4.017031078038555734e+03
-6.390379357949727819e+03
-3.315828699491351472e+03
-1.350353206350175014e+03
-4.020042019041468393e+02
6.092947178970746336e+02
2.301597214574234386e+03
3.396877814289071921e+03
3.399138866232479813e+03
2.383429342074032775e+03
-1.434210027513892101e+03
-2.399763223125067270e+03
-3.246216062402886109e+03
-1.548603485170596741e+03
-1.536894459669559183e+03
-3.170142062081296444e+03
-5.423236543024411276e+02
-5.583912567855904854e+02
-8.323949368242705305e+02
-1.987278524986836374e+03
-1.580267854337057543e+02
-2.310612943885003006e+03
-1.111991201417253706e+03
-2.197174685575071180e+03
-4.441336422776099084e+02
1.192175479628440826e+03
-1.117252923164105823e+03
-4.553821786020796480e+02
-1.994213899795294310e+03
7.142591439470860450e+02
-1.434942425724716486e+03
-2.914817327170287172e+03
-4.908391712133297005e+03
-2.991560236239506139e+03
-2.858329242273398904e+03
-8.107589056672760535e+02
2.232014087362396367e+03
2.361986290091325372e+03
1.415189748530111956e+03
1.129794090191843907e+03
1.082854991694730643e+03
9.032988442585268558e+02
1.037062348935649879e+03
1.301114951239848097e+03
1.794518022212668939e+03
2.021290184826270661e+03
2.046416867953107385e+03
1.035898471624457216e+03
9.197237667330495015e+02
5.979812244327970348e+02
4.238007346293195496e+02
7.743182023740857858e+02
5.095241469540647472e+02
3.821488474090688214e+02
3.412017139671577866e+02
-5.993138199436175455e+02
-7.584509100856633950e+02
4.768079703118260682e+02
3.402259519717400167e+02
-3.184633312381479868e+02
-1.102874224869953196e+03
-7.077341653568031461e+02
-7.033326256100592673e+02
-1.699596387379009684e+03
-1.617566277130360277e+03
6.291750703357928387e+02
3.442161854237121133e+03
5.145431667178124371e+03
5.117735077987491422e+03
3.397000980062762665e+03
1.815578270913938240e+03
1.372113532972986604e+03
1.201946833991063841e+03
1.409971079278618163e+03
1.385156558045601059e+03
1.634736881295519652e+03
1.520618229845337282e+03
1.513579739864109342e+03
1.699519315623142347e+03
1.680295635496886916e+03
1.624362008321862277e+03
8.734875140033497019e+02
5.686513129737562622e+02
9.306632110926830137e+02
1.582527931248765981e+03
1.929868942941247269e+03
1.768083368969750836e+03
1.650844200863832384e+03
1.857526873860827664e+03
2.761055703655578327e+03
3.028335397531157014e+03
2.350339152109467705e+03
1.685074214975533323e+03
9.174298149045107493e+02
-5.961723065299778312e+01
-2.511903075494208792e+01
1.020847574784169296e+03
8.802143538659208843e+02
1.384035653024758631e+03
1.514348368722094847e+03
1.282109415506712367e+03
1.895319200178848405e+03
2.096030356575365659e+03
1.433213704516055714e+03
1.333946764505215242e+03
1.333236414817116383e+03
7.540068500523843795e+02
1.432142890278416303e+02
-8.450876128248130499e+02
-9.129155175407025808e+02
-7.282809993080553568e+02
-5.681804963965354318e+02
-5.096203497677491896e+02
-2.156606475646990930e+03
-5.525121651346371436e+03
-7.674212463255549665e+03
-6.415897300942469883e+03
-6.947167816834613404e+03
-1.036207823549229033e+04
-1.029359047059694240e+04
-8.593732469921800657e+03
-5.543532328187477106e+03
-3.221972785145233047e+03
-2.349992558321237993e+03
-2.223612732330823746e+03
-2.732867712599495007e+03
-3.396487951886878363e+03
-3.287573145140248471e+03
-3.242294671212505818e+03
-9.565064478480468324e+02
-1.054174671348622041e+03
-3.368375526219452695e+03
-4.268102349348579082e+03
-5.151375243649744334e+03
-5.785211899476427789e+03
-4.697576973361493401e+03
-4.504886107650547729e+02
6.430674657970677117e+02
1.007147370919214950e+03
1.089758939055048813e+03
1.223932941387708752e+03
1.798699536544819466e+03
2.209090748309597984e+03
2.540122062123362412e+03
3.242778800890258481e+03
2.666063691099210246e+03
1.478979094639785671e+03
1.331599182197819800e+03
1.365008101461325623e+03
8.621980308936331312e+02
5.701640272094462034e+02
1.988931391984340053e+03
3.507500606660919402e+03
3.436872926445503708e+03
2.493101143410180157e+03
1.420173316598285510e+03
1.040249396048759536e+02
-5.931633936357776093e+01
3.082105053480226502e+02
6.186661954034985911e+02
1.432108623481104360e+03
2.444560163771880525e+03
2.918033859532139104e+03
2.593537276145886153e+03
2.043186591231554075e+03
1.876962687303938765e+03
2.472672699406133233e+03
2.713439908978609310e+03
2.907323270895625683e+03
2.943367737915509224e+03
2.769620835968878964e+03
2.581065741241342494e+03
1.799777355700515272e+03
8.677610662774326329e+02
4.000432575860089059e+02
-2.835961529008714166e+01
4.615216105891931306e+02
3.606930235276426515e+02
-1.639335981532744313e+02
-1.532252558603490655e+01
4.279556061831466423e+02
5.248454864045472732e+02
9.434174167541540328e+02
8.378861316199835301e+02
1.058071738132915016e+03
1.596721733922307294e+03
1.438942313973241653e+03
1.255549901583332030e+03
9.333774138861490428e+02
4.140722612725623435e+02
5.033928897757779737e+02
8.872717532624055821e+02
4.765506920061142750e+02
-4.339448309824924621e+01
1.834437869421408891e+02
-7.510972373167522846e+02
-1.349936334358993008e+03
-1.414132042859967669e+03
-9.156224446157299326e+02
-7.813626931731483864e+02
-3.103363898148735984e+02
-2.096706723995681898e+02
-8.113304122127384517e+02
-8.752032981794754960e+02
-1.111348736568012100e+03
-1.132889398318464146e+03
4.020705493134631752e+02
1.568600942916838676e+03
1.627821280204242612e+03
1.215817374728955429e+03
1.165904085428740302e+02
-1.200894098116392342e+03
-2.003630204443908269e+03
-2.692537828709463156e+03
-3.654597025210253832e+03
-4.139879377399843179e+03
-3.013485230538499309e+03
-1.442329114112407524e+03
-1.485339952930673007e+03
-1.517434289093301004e+03
-1.044632351384736239e+03
-4.592250965011535300e+02
9.662431078418525487e+01
4.493924526129321606e+01
-2.692917381942292536e+02
1.012095294292296671e+03
1.943171807528626459e+03
1.730918532120825375e+03
1.336291941100695112e+03
1.238317219250601511e+03
7.330147992551486595e+02
4.434211110549921955e+02
9.353906551229044908e+01
-4.976748085757689068e+02
-1.560284846543022695e+03
-1.628354099025919822e+03
-7.139682874001402979e+02
-7.571740778135165328e+02
-1.564934787030666030e+03
-1.649215981426566941e+03
-6.380410148498009448e+02
-8.254418889371451939e+01
1.413282410803861353e+02
4.635613590600677867e+02
7.662207343302826530e+02
1.262368760402621092e+03
1.242981896218612064e+03
1.295979759292320523e+03
8.752859486097443096e+02
6.228665891323793176e+02
6.398132635686205276e+02
9.931160328664790313e+02
3.196480831667728921e+02
1.064047546622053204e+02
-4.926621376334704792e+02
-1.161644074373648436e+03
-1.618407110340438521e+03
-1.634749425003988563e+03
-1.453918761550709633e+03
-9.041149878330761567e+02
-1.059082238016720339e+03
-6.390360913833310406e+02
3.971930830704084201e+02
6.541676640812595451e+02
4.131381397045728932e+02
3.331384531278597478e+02
4.351114213644223696e+02
6.023181856411810031e+02
8.753895496681822124e+02
1.043604153325648895e+03
1.255477152996341829e+03
1.096238617896359756e+03
9.660818258230194715e+02
6.849035123220164678e+02
4.153774376069127072e+01
-3.011883838191602649e+02
-4.317404506581372630e+02
-6.488571875912829228e+02
-4.938811668370979078e+02
-2.721926411614366543e+02
-1.135107222224165895e+02
5.476006218866182280e+02
7.681678317569532055e+02
7.586359126474704908e+02
6.187310206566003217e+02
5.136723349308192610e+02
4.669993675085561335e+02
4.970671281676369517e+02
1.288033927045673863e+02
1.016463015991503426e+03
1.985683495286319840e+03
2.108287605118343436e+03
1.213273836191075816e+03
-2.595448129470823915e+02
-1.655767253113329843e+03
-1.314502542029986216e+03
-1.808767120847501815e+02
5.561037225537986615e+02
5.514261460047927130e+02
2.281012061318585324e+02
2.101182423279830971e+02
6.014401151446477343e+02
8.661012206986829369e+02
8.690951231416617020e+02
7.995134932431648167e+02
1.184290762508121361e+03
1.338434736710332345e+03
1.664909454969518265e+03
1.711689752553524386e+03
1.332837215154408113e+03
9.813690299700068636e+02
1.014280265122149558e+03
6.696119874267343448e+02
7.269704492006972885e+00
-4.468294647224905134e+02
-9.146245048215720317e+02
-8.521071650792711125e+02
-1.149231856635904251e+03
-4.202042324833693783e+03
-4.983485170185650531e+03
-2.563458268175691501e+03
-1.300566211883642040e+02
-2.401429555345989229e+03
-2.017651017626476005e+03
-1.028708947885097587e+03
-1.898473757416219769e+03
7.272763517110242901e+02
-8.404002271764736633e+02
1.434100948358379810e+02
-1.760284053087602842e+03
-1.546512365796424092e+03
-1.587307304248497985e+03
9.230353154575675489e+01
4.673622186149370350e+02
-7.140993812367338478e+02
-4.684125160933938787e+03
-2.138685673148323531e+03
-1.778792450954834521e+03
-7.883561128313546078e+02
-2.492351966154876209e+03
-8.067670595771653552e+02
-1.941637176516609770e+03
4.703427072488702976e+01
-2.543625887217065610e+03
-8.815866627542100105e+02
2.701352374607452020e+02
8.644785802189966262e+02
1.400507668469731016e+03
2.239323830153632116e+03
2.482959839138609823e+03
2.840502494774217212e+03
3.217960637482221955e+03
2.640228810947790407e+03
1.431273690675031276e+03
9.032109592327515202e+02
4.989595250532479440e+02
-2.457404393766041473e+00
-5.450248561744625704e+02
-7.907942556835470214e+02
-1.091672688809893543e+03
-2.785686975101748999e+02
7.764910233163999465e+02
1.112524599196824965e+03
9.576186942923795868e+02
1.345809010459532828e+03
1.232146596768490554e+03
6.046192690215632410e+02
4.632510868610444277e+02
3.510415214706612232e+02
-1.710705247317663407e+02
1.350463314890110382e+02
9.265338100617323107e+02
1.453560477047620907e+03
1.719175635643834312e+03
1.334299665549333668e+03
1.080091492413441074e+03
5.931894724168322455e+02
8.568961742085214439e+01
-1.745723707090059236e+02
-2.166007474019809536e+02
-5.701369275083634420e+02
-1.104317015607412259e+03
-4.800260246496621335e+02
2.597675332021168515e+02
6.821488861184791404e+02
1.087174158166223151e+03
1.615658044342295170e+03
2.015835867681957552e+03
2.273561568805437219e+03
1.654849373204890526e+03
1.227926296628012096e+03
8.897179552429421392e+02
3.710919393966932489e+02
-2.151689871049755141e+02
-3.339113513301932699e+02
-5.102284994066276909e+02
-7.482684916052038488e+02
-7.410919889288545619e+02
-5.637375688975275807e+02
-2.111662144031182038e+02
-4.663704103559919076e+02
-1.413553102532465857e+02
-1.739674899164520525e+02
-4.841579261192527497e+02
-4.039740981015685861e+02
-1.642341453288532449e+01
5.094915220062074468e+02
1.073714146981835256e+03
1.100114370201461270e+03
9.476723878520094786e+02
1.136549653252338203e+03
8.958746378946282221e+02
5.426742134365931634e+02
6.220016564011112905e+02
1.577269350971043025e+02
-6.412990705159220397e+02
-6.271458996273713637e+02
-7.169577725630966825e+02
-9.677905816307181794e+02
-1.413587135969961082e+03
-1.044206232801318265e+03
-7.506459117947663344e+02
-1.238959726721471043e+03
-6.511738112200935120e+02
-1.332757504036242153e+02
2.672061699158029668e+01
2.188507726523104395e+02
-3.791358364527032876e+01
1.683745839665377844e+02
2.948275640077081334e+02
5.184368159107447127e+02
7.771145891194765909e+02
8.328604652098338192e+02
-3.513987192119461724e+02
-2.784620015194990629e+03
-4.889793336912000086e+03
-1.533988222086888300e+03
-3.601848008444885068e+02
-2.753536519489656484e+02
6.784562517068159195e+02
1.206350594537357210e+03
-1.116688429925063701e+03
-2.084741174024707107e+03
-8.048054817522827307e+02
-3.046945616193098431e+03
-5.298892861297425583e+01
7.990217990215120381e+02
9.253078354200390550e+02
-1.801343784255616811e+03
-4.596393139759396718e+01
1.832452668951317719e+03
1.173806068786525202e+03
1.403208542567587756e+03
8.527367129236407663e+02
-8.567750453471870031e+00
-1.043868991511968488e+03
-1.350129632036691419e+03
-1.503473392847241939e+03
-1.490021776999362828e+03
-7.206337091983865548e+02
1.706836466526131346e+02
7.819654765995639991e+02
4.732523006594620369e+02
1.534694090742349886e+02
1.085239349824909567e+02
1.336812455056720239e+01
4.540037148572137653e+02
1.012449313855657806e+03
1.148792136790605809e+03
1.453183370731148898e+03
2.003619066753226662e+03
1.779042673414384126e+03
1.259361521663851818e+03
9.164312912634429722e+02
5.161407347415637332e+02
-8.381786969734184467e+00
-3.421414522769614450e+02
-6.192136266668869666e+02
-1.154606317440663133e+03
-1.126307612684450078e+03
-8.852351731222441913e+02
-1.502379574047125459e+02
4.695361262430939746e+02
7.970860261458884679e+02
9.595273360064596773e+02
1.006920398045084880e+03
7.102220503044999305e+02
8.164569078589477158e+02
1.097607660432560806e+03
1.461647784865503581e+03
1.367640035408910080e+03
1.170645364794904481e+03
1.136600384151546223e+03
1.128404002796921304e+03
5.621687488439840763e+02
-4.090862773258504603e+02
-1.023540436819641513e+03
-1.170247023411224745e+03
-1.056134970727446444e+03
-1.346219858712372570e+03
-1.287460601829611278e+03
-6.347942486831558426e+02
2.618217767321876295e+02
1.295497814780701901e+03
1.109200630573571289e+03
5.189054751372727878e+02
7.496492004016163264e+02
1.229390758057758603e+03
1.070020032564794747e+03
1.489688421756902471e+03
1.655364011678108227e+03
1.013173952328195355e+03
1.041122777502629106e+03
1.921916682357676791e+02
-3.471634022632249525e+03
-4.485322121976694689e+03
-2.202928310995505399e+03
-2.830455706333269973e+03
-4.519051777825730483e+02
-2.326279612660954172e+03
-1.029502760863147614e+03
3.625501997303193207e+02
2.998361074614455219e+02
4.292980317127718308e+02
-1.991013706422191262e+03
-8.340207561092233846e+02
-3.123754500214599830e+03
-4.081183619746789191e+03
-4.317391936257371526e+03
-7.974333106872304597e+02
-1.012303548705195112e+03
-3.903994041115099662e+03
-7.084662457638967226e+02
-3.656719423612566970e+03
-2.126738748749737624e+03
-1.771537510287347004e+03
5.198800054679604727e+02
-1.190532148942999811e+03
-2.386808684699002697e+03
-1.762904917242661213e+03
-1.590874134573588208e+03
-5.446712730532303794e+02
-6.862028060232153166e+02
-8.924460885241754795e+02
-1.784433302303890059e+03
-5.811612408476732838e+01
1.564379907561852860e+03
-4.469609218653690732e+02
-3.370326941108289702e+02
-8.517488412247233782e+02
1.710966031203489138e+03
2.236156399591572153e+03
1.791698460306414745e+03
1.493553721952842352e+03
8.716758352173035291e+02
7.000190937517937755e+02
6.436202682630681693e+02
5.004778350645005389e+02
7.125295643484811308e+02
7.747607261526220555e+02
9.372200031116218497e+02
1.098914684050981805e+03
1.177845062555152936e+03
8.900163272300287645e+02
8.094542747833927478e+02
9.451882467203469105e+02
1.492043974726552733e+03
2.217953078585032472e+03
2.595973781795505602e+03
2.428419194107512794e+03
2.749328815179027515e+03
2.640634461165419452e+03
1.868410528684406472e+03
1.130792775077564556e+03
7.673828375619930284e+02
6.291081606429514750e+02
5.821834231851657933e+02
1.354423920707122875e+02
9.384745622472969728e+01
2.469834445481849627e+02
-1.167174962232641064e+02
-5.874985254057598922e+02
-3.209246227150740083e+02
3.647080535293230241e+02
8.057553192293125903e+02
1.556020180171590482e+03
2.361272930873084988e+03
2.512540043126233741e+03
2.467014489270939976e+03
2.439540732352784289e+03
2.781181893458628565e+03
2.621074566218522250e+03
2.424437978243835460e+03
1.719741336691701235e+03
9.681171305438108448e+02
4.664449815123211351e+02
5.348840226270706353e+02
3.281542264407988796e+02
-4.555692465420520989e+02
-4.334121056004111665e+02
-2.160918934034955896e+02
-7.518622312598259327e+01
-1.127547826924264598e+02
-5.774756354300522077e+01
6.585026019111190010e+01
2.279606616583895118e+02
1.101586215012680213e+03
1.588668973840883837e+03
1.416106856855676824e+03
1.759978842085970427e+03
2.423362019530498401e+03
2.617178122180606806e+03
2.611409606522213380e+03
2.122047681087792171e+03
1.480083019679341760e+03
1.387450778208899692e+03
1.274115716798144376e+03
9.850291837290637886e+02
6.970760700191350452e+02
5.742929219363495577e+02
4.547349889476099634e+02
1.133027711446206212e+02
1.320181364396248966e+02
5.729279669089289655e+02
9.219749924285972611e+02
1.502026977964385708e+02
-1.354389833937590538e+03
-4.196857445012493372e+03
-5.062212953619232394e+03
-1.869510816845875524e+03
-1.011732513677398856e+03
-1.614841472662788647e+03
-4.388968731314703291e+03
-4.572086099092138284e+03
-5.112167544094882942e+03
-6.065234214808583602e+03
-4.838326060101397161e+03
-6.136455598505129274e+03
-7.090626210624407577e+03
-8.396052631496715549e+03
-8.194384689380778582e+03
-7.301674665369600916e+03
-6.085042096892564587e+03
-3.552454884484929607e+03
-5.440867054397041102e+03
-6.644264417163559301e+03
-5.179579978786076026e+03
-4.365859696125605296e+03
-3.242112058354291094e+03
-5.593033107177089960e+02
2.381563608018391733e+03
4.220480730291286818e+03
4.190497165276884516e+03
3.372617170155362146e+03
2.375840587239008073e+03
1.635161871754985214e+03
8.185073948450973376e+02
2.759281912082975055e+02
3.993312402573126860e+02
3.377673514524529423e+02
5.863208292793103737e+02
1.041039636449541831e+03
9.659174282429848972e+02
2.199522674137946865e+02
-4.678259141670724262e+02
-1.034361852148874050e+03
-9.376340931121328595e+02
-7.648191559819886187e+00
1.228652456859464110e+03
3.094315882100861927e+03
4.841320221415238848e+03
5.711791975676047514e+03
6.022781573276459312e+03
5.212213564707371006e+03
3.995126010542552194e+03
3.007584116700473260e+03
3.054625003789807579e+03
2.894171008852988052e+03
2.372234781111704251e+03
2.395928303982534544e+03
2.476195445899233619e+03
2.535080850122941683e+03
3.139686348646244824e+03
3.400044401331813333e+03
3.040234876332423028e+03
3.564232593306679973e+03
3.856080273283749648e+03
3.436820273168863878e+03
2.973528607297705094e+03
2.532276436474898674e+03
2.146211887381155066e+03
1.379490006884145259e+03
2.341402355348914170e+02
-3.793284283887981019e+02
-9.128522074852793367e+02
-1.745053083600755599e+03
-1.689158748645237210e+03
-1.357510505256384477e+03
-1.503390471629759304e+03
-2.282682021382753192e+03
-4.218493502390102549e+03
-4.318527593753791734e+03
-5.338947613166879819e+03
-2.654767755782978838e+03
-1.784075774956188752e+03
-1.906624490176200425e+03
-2.137716216543044538e+03
-2.988378223003946459e+03
-3.771422511402360215e+03
-3.396875750160798816e+03
-1.661628065423248472e+03
-9.925905114174727260e+02
2.362708326120637992e+02
6.139321958749408168e+02
-9.115947473826036003e+02
-1.588292321608162638e+03
-1.958208933612922010e+03
-2.068411197242716298e+03
