1.856740161153259123e+03
1.813191256454668064e+03
1.325409965176615287e+03
8.245229044475247520e+02
9.503820070484083544e+02
1.415320298366728821e+03
1.309680609675845062e+03
1.288231379651867883e+03
9.544831503167968094e+02
8.093484222364591005e+02
8.916972914406954942e+02
1.262327597238407634e+03
1.306086762330364536e+03
1.342773925687314204e+03
1.261177434251091654e+03
6.131050879931262898e+02
4.303649440801820560e+02
5.148008429873135583e+02
7.501297964668767690e+02
1.096093129224246240e+03
1.854534494220732313e+03
1.811159110105347963e+03
1.737720189158361336e+03
1.459134148907581903e+03
1.072247719806675832e+03
1.304718614794406221e+03
1.676343310311306141e+03
1.598910576114999230e+03
2.001166621886028679e+03
2.250858624190453611e+03
2.586883756095807712e+03
3.150164237163712187e+03
2.888519772759784246e+03
1.759676532110425569e+03
-3.055734715145666200e+02
-1.747482293532380027e+03
-2.818175421353155798e+03
-3.050868257639253443e+03
-3.161862109218606747e+03
-3.683400020277408657e+03
-3.963539775905364877e+03
-4.824373312406216428e+03
-4.808204652934527076e+03
-3.802292342867880507e+03
-3.701802803677206157e+03
-3.646938182329055962e+03
-2.837730263004645622e+03
-3.126386591829082590e+03
-4.499081990131086059e+03
-3.663976322657561923e+03
-7.816717587597797490e+01
1.340260904833509585e+03
1.027125870169351856e+03
-8.777534877116871712e+02
-1.607429041443667074e+03
8.508889910402372152e+02
2.024062169552810019e+03
8.899845166711327238e+02
5.594920931971383879e+02
5.925347423716430058e+02
4.960369718625974542e+02
-3.711555623420684356e+02
-2.629126984093392366e+03
-2.881062966954209060e+03
1.768779063537990055e+02
1.019687723632071766e+03
-3.549780714726044550e+01
3.962658874393720794e+02
6.687826082141488087e+02
4.999002293716964687e+02
-8.083962417962472955e+02
-1.579124659202335351e+03
-1.612353759777478672e+03
-1.588040426755203271e+03
-2.142212861999460529e+03
-2.246976747833889021e+03
-2.637350812158493227e+03
-3.228363845243225114e+03
-3.479075181231368788e+03
-4.022536989771217122e+03
-5.029694850054622293e+03
-6.266586736556193500e+03
-6.028242238926798564e+03
-4.528610197677821816e+03
-3.870643187381795087e+03
-3.677306986579325439e+03
-3.721686276070085114e+03
-3.208780629069067345e+03
-1.913438524039084541e+03
-7.875122027986677722e+02
-7.850119535889991766e+02
-1.048995644971168986e+03
-8.983490740660486154e+02
-5.849290849133101347e+02
1.780799044621820713e+02
1.471507175682624968e+01
-1.748922759687839743e+03
-2.424563308327922186e+03
-2.189180104418455812e+03
-6.767127013632148191e+02
3.649247216066947885e+02
9.468990101900926675e+02
1.104459311000078969e+03
1.410603368884680776e+03
1.924018648743949370e+03
1.721821609852738902e+03
7.723345240253876227e+02
1.022814145605402473e+03
2.109355359903005137e+03
3.120761506243654367e+03
3.187991962745022647e+03
2.914080553027055885e+03
3.472182315010143611e+03
3.640464385870314800e+03
3.522110564370869724e+03
2.692125527469145709e+03
2.162550371041578728e+03
2.553353167669616596e+03
3.177648566948264488e+03
3.069595431514913344e+03
2.825389596189886106e+03
2.271148082656512088e+03
1.353030330643098523e+03
1.030125482882627693e+03
2.422447562299043511e+03
3.236089763779595614e+03
2.729083061963257933e+03
1.957423940901001515e+03
1.111192512126039674e+03
1.483653631662531780e+03
2.470937662410580742e+03
3.486033533614840053e+03
3.632977153357608131e+03
3.585915129504758625e+03
3.875958222662969547e+03
3.463147179925526416e+03
2.649539576547490469e+03
2.523238037783341497e+03
2.727340530522823883e+03
2.721875131050783239e+03
2.690867372987218914e+03
2.267449849529253697e+03
1.574659864861226197e+03
1.144709386743045485e+02
1.018898602431367522e+02
5.660329587957497779e+02
3.669722012907415660e+02
5.405788474401025496e+02
1.772056292465766091e+03
2.030596377244775113e+03
1.455266490759627231e+03
1.393978617260208921e+03
1.536612195759558972e+03
1.964255318975793671e+03
2.198943005569577053e+03
2.846719200580763300e+03
3.102584764637046192e+03
2.158656368018062949e+03
-9.020832757973886373e+02
-4.001767317686904789e+03
-2.800369791878786600e+03
1.364184566686276412e+03
2.657900773730729725e+03
2.445810817970771950e+03
1.772947263926526603e+03
1.679287500836602476e+03
1.574837840594000909e+03
1.139664359786693467e+03
8.597155889246574816e+02
4.219394971700320980e+02
9.232277963198202997e+02
1.338647399898294225e+03
1.948317358240116164e+03
1.569436428379145809e+03
7.129898932849582707e+02
1.817882195854654583e+03
2.106067202827545771e+03
1.105467775059908718e+03
2.055043216456519531e+03
1.681757417873207714e+03
-8.653156731420049255e+02
-1.842247309692347699e+03
-1.985016261263088609e+03
-1.275659569631114891e+03
-7.732947685637182076e+02
-1.298957418667461070e+03
-1.368688958587259094e+03
9.638113272406744159e+01
1.216282495023781394e+03
1.914138509136358607e+03
2.255932566782199046e+03
1.881640413812230236e+03
9.841083055672881983e+02
8.392840151411836587e+02
1.742596098201704820e+02
-1.084919437730626896e+03
-1.134365703261881208e+03
-3.040615529977089864e+02
5.069756416938074608e+02
1.127648944422318664e+03
8.208074563686921010e+02
1.082256564932591942e+02
6.501574952574836175e+01
-2.670642800731853228e+01
8.016345393199853788e+02
8.881248004769323643e+02
1.269481497316840546e+02
-2.571163201104092195e+02
4.003066085119736073e+01
-7.940428367731371395e+01
-1.366812717134214381e+02
9.173373680296156181e+02
9.396910590775813716e+02
1.454296053179577939e+02
-3.962067376686633935e+01
4.748498453548235432e+01
-5.633226412679937312e+02
-1.522004149923627210e+03
-2.237630122194825617e+03
-3.738088320794041465e+03
-4.911416098009406596e+03
-4.757763102562502354e+03
-3.654164110881700253e+03
-1.905452765090087269e+03
-2.329681399867183700e+03
-2.261867013241372661e+03
-1.182002392969134007e+03
-1.767947944356455537e+03
-4.184648440973290235e+03
-5.226213645768482820e+03
-4.193656107729021642e+03
-2.751935230960590616e+03
-1.788937711058067862e+03
-3.464608385941038250e+03
-5.679710254422010621e+03
-3.091964048711162832e+03
-2.791647716971753653e+03
-2.991642862430009245e+03
-4.169986627667878565e+03
-6.738801811729557812e+03
-4.261910981329372589e+03
-3.864085002571647692e+03
-2.182134066170302049e+03
-1.594077184828822737e+03
-1.891025504713253724e+02
-3.096335879229894999e+03
-2.522574325180753021e+03
-3.384685193133181201e+03
-2.833635594964423035e+03
-9.292831322631980129e+02
-9.074415752283915708e+02
-4.919997483591412220e+02
-1.686804848584916954e+03
1.853885541654190661e+02
-7.543748914533648531e+02
-1.301249513569857982e+03
4.137356969934703557e+02
-3.382612799075555472e+02
-2.539077575750702181e+03
-3.608699303235479420e+03
-2.136188587724051558e+03
-3.950584438175009382e+03
-1.912791541711734226e+03
-1.508600300108655347e+03
-1.447737798123717084e+03
-1.084101375733247778e+03
-1.405377009862596196e+03
-1.607335958739026410e+03
-1.256305729651563524e+03
-1.015489958876228229e+03
-1.156918917332345472e+03
-7.396985737466549153e+02
6.948031054216320967e+01
4.583015072898007247e+02
8.362291396022188792e+02
8.863057697007915294e+02
9.085312423621124935e+02
2.648121248125347051e+02
-6.292646944916237999e+02
-3.682765836424889585e+02
7.039457029606744527e+02
9.127746151234246099e+02
1.172888328344256706e+03
1.347063145197201038e+03
8.721300702451010238e+02
-7.885848866580095091e+02
-1.072143149636627186e+03
1.921083342769556452e+02
8.943064954294079598e+02
1.338947322514153257e+03
2.488978650549015583e+03
2.812068301936669741e+03
3.730721409786555341e+03
4.351220367323600840e+03
3.598165248167887057e+03
1.838542085454935886e+03
1.361271056408740378e+03
2.319257682260268211e+03
2.668158466558981672e+03
2.315687475643559537e+03
2.672068504490223859e+03
2.318235008693153759e+03
2.767682593961861130e+03
2.521214401910369816e+03
1.824633964622107442e+03
1.746644208907773191e+03
1.913512725512599218e+03
2.741344133349358799e+03
3.176510347043266393e+03
3.401742437991888437e+03
4.161114486851695801e+03
4.542599438309521247e+03
4.463372149734883351e+03
4.643597977687639286e+03
4.029558644417660162e+03
4.171302819801018813e+03
4.562610697887264905e+03
4.484104597000659851e+03
4.784433915667143083e+03
3.754603733650786580e+03
1.730882744109108671e+03
4.510716841032204911e+02
1.506780728741240637e+03
3.263404585410185064e+03
3.570310849815487472e+03
2.670301502558470929e+03
2.452700629042196852e+03
2.281977590006049013e+03
1.761584476893819328e+03
1.995813266053874713e+03
2.786334207073141442e+03
3.462243309818579746e+03
4.093116713586569404e+03
4.461593640093413342e+03
4.148424392881484891e+03
3.317412852554484289e+03
2.994303705846547928e+03
2.672630798902244806e+03
1.668507093403958606e+03
8.480222030400053654e+02
6.577160054175349160e+02
8.543828765965364482e+02
-4.672613321460087832e+02
-2.212535924100211560e+03
-2.575415358714621107e+03
-1.201246989669192544e+03
-1.104871949520127856e+02
-6.916078704891958751e+02
-6.886251519744051848e+02
8.422477481669017152e+02
-1.175914535868828352e+02
-1.923805552517107571e+03
-3.969148801528734566e+03
-3.573372603599818831e+03
-3.804861442087356409e+03
-4.792536849136657111e+03
-5.668483941639156910e+03
-5.263790694583743061e+03
-2.996731124900268242e+03
-7.434263161449864583e+02
-3.015153918607761170e+03
-7.269847502548723241e+03
-8.796231659308341477e+03
-9.265027975362472716e+03
-5.238430733263502589e+03
-2.531822705080669039e+03
-2.382416793990169481e+03
-3.142838384110742027e+03
-3.749629112655287827e+03
-3.865531731876157664e+03
-3.070928123480616250e+03
-2.641228692101089564e+03
-2.459883863313932125e+03
-3.118825018916001682e+03
-4.158347310774267498e+03
-5.117759497920726062e+03
-5.700169301489189820e+03
-5.806745828580305897e+03
-5.189600448852129375e+03
-4.411687440751324175e+03
-4.530916689728444908e+03
-4.159795843245574360e+03
-4.091569237680707374e+03
-4.831929705424796339e+03
-6.301697400779247801e+03
-5.998982982157088372e+03
-4.964612185574680552e+03
-5.019664496245499322e+03
-5.473225560922873228e+03
-5.729318969521444160e+03
-5.819834503248106557e+03
-5.951725390231591518e+03
-6.285852607517282195e+03
-6.258740730181811159e+03
-5.926311165113645984e+03
-5.464696464477514382e+03
-5.678829319492534523e+03
-4.950874093220825671e+03
-4.001832788389517191e+03
-4.067419574358739283e+03
-4.694312065344804978e+03
-4.751247520804437954e+03
-4.701993203175605231e+03
-6.785392191414181070e+03
-7.327379830000443690e+03
-5.694115029495963427e+03
-3.869583131008164855e+03
-2.547723453840456386e+03
-2.866779474019586814e+03
-2.858761322994378588e+03
-2.628931675802907648e+03
-2.591773998149011732e+03
-2.612738165413524712e+03
-1.032919739919651875e+03
2.286057748405565917e+02
-4.484333341667563673e+02
-1.184368317484025511e+03
-1.465310423756802948e+03
-1.757600512502763650e+03
-1.703925305182050124e+03
-1.706979564574939332e+03
-1.228549478333686238e+03
-5.057261627495974494e+02
8.105135898520057935e+02
1.372302898887429137e+03
1.450714139502423677e+03
1.057659234020378335e+03
-4.088825169109648527e+02
-2.206527232384203671e+03
-3.526115442984538731e+03
-3.059495810294975399e+03
-2.797372641348270918e+03
-1.328889421324947534e+03
9.606957106210245456e+01
4.368417658341269316e+01
-2.720896469646067999e+02
-1.319223287782705825e+02
1.847056431899166640e+01
8.500651877044720095e+02
1.393886942462625939e+03
1.377848412714269898e+03
1.417997023857939439e+03
3.116402026774148453e+03
4.162039887280596304e+03
2.292807862095967721e+03
1.944779722698519663e+03
2.702103767181843978e+03
3.707865774590826732e+03
3.697073441572518277e+03
2.733674048889522965e+03
2.417504853132913013e+03
3.180655116542985070e+03
3.306209638245565657e+03
3.783850871030724647e+03
4.785475526348913263e+03
5.205952148748977379e+03
4.598019923329867197e+03
3.963546921838863454e+03
5.920538445068611509e+03
5.700990017702384648e+03
4.582827182667533634e+03
7.308799937558490456e+03
7.370713644627605390e+03
3.100431163671243667e+03
3.667708514872880983e+02
-2.654759363419219085e+02
1.493905626818765313e+02
2.969065399533477375e+03
4.843290262889234327e+03
6.413924806936503046e+03
7.078811485616022765e+03
9.077633327049863510e+03
1.027311307385360669e+04
1.121207074779081449e+04
1.171529553622993262e+04
1.240368577398483467e+04
1.276403673059697394e+04
1.203388588834586517e+04
1.081583079917319264e+04
1.150948083536093509e+04
1.182656598737945933e+04
1.151106021332368800e+04
1.099564059340296808e+04
1.090686300797438889e+04
1.110048513530391392e+04
1.023309326362435058e+04
8.866157397849496192e+03
6.968361738407105804e+03
4.505445780174630272e+03
2.349013145222923413e+03
2.172577740065521084e+03
4.008859637193114850e+03
5.485451699228152393e+03
5.826341151647658990e+03
4.859998006858212648e+03
3.604223237125909691e+03
2.413924000551125118e+03
2.689135419097497106e+03
4.495229196055220200e+03
6.952917864864901276e+03
6.301217452866600070e+03
2.867275087416393490e+03
8.642022491190208484e+02
-9.907232183854431469e+02
-3.837675833114459692e+03
-6.044940511121659256e+03
-7.224236869758711691e+03
-7.642612087687019994e+03
-7.583377954202674118e+03
-5.897987426212876926e+03
-2.995722675381734916e+03
-1.812606543660087482e+03
-2.673992143458704049e+03
-3.048495064682856992e+03
-1.756096609658744683e+03
-1.500112417253541253e+03
-3.287834568860094350e+03
-6.573608633486710460e+03
-1.002421557991629379e+04
-1.310043844503830769e+04
-1.407859712122638484e+04
-1.532774116321412293e+04
-1.322326722118205907e+04
-7.858112372981968292e+03
-6.277543309976835189e+03
-8.479783212347252629e+03
-1.272296314458222332e+04
-2.091014256926681264e+04
-2.874148901241552448e+04
-2.940114633560507355e+04
-2.404214537375672080e+04
-1.706960059867248856e+04
-8.533569048126610141e+03
1.195938374817311569e+03
6.393946469502105174e+03
4.083475012017674999e+03
2.835403674051617600e+03
6.084715432331927332e+03
5.886468646381531471e+03
2.243640594114739088e+03
9.042353602462360868e+03
2.314981077931581603e+04
2.568024702040949705e+04
2.402665289459276028e+04
2.432401743021378206e+04
1.638458593736224066e+04
4.066611270783682812e+03
-3.688682574297674819e+03
-6.157045927266521176e+03
-5.131336075739499393e+03
-8.884242317839265525e+03
-1.380534214693884132e+04
-7.033215278603278421e+03
7.783494329067361832e+02
-9.475380972148623187e+03
-2.591696490715203618e+04
-2.769901620477078177e+04
-1.679720688311437334e+04
-9.691077735252392813e+03
-1.667722831041230165e+04
-2.941218663389758149e+04
-2.182840559859720815e+04
-4.934351103895444794e+03
8.417408158532840389e+03
1.565932836788016175e+04
2.025201518702056637e+04
2.620799250119895078e+04
3.566576132153806975e+04
4.094795834628750163e+04
3.582025355075317930e+04
3.191523900504949415e+04
4.434152813342396257e+04
5.905078286207856581e+04
5.915468608174702240e+04
5.456988687668959028e+04
4.806999300386382674e+04
3.211379545772934216e+04
1.389405605123563328e+04
-1.644535985787902064e+03
-1.727841897837210126e+04
-2.971595810111892933e+04
-3.332633912851956120e+04
-3.294575041149309254e+04
-2.622854875237822489e+04
-9.577011440875427070e+03
3.400680017930262238e+03
1.664625914534694675e+04
2.101142603149107890e+04
2.210794632846604509e+04
1.904752005059132352e+04
1.219396248433312758e+04
1.758081998781548009e+03
-1.505932572920673010e+04
-2.895952895176992752e+04
-3.041475397279316530e+04
-2.867418472079501225e+04
-3.075106984113273575e+04
-3.643774020402214228e+04
-4.783548646192940214e+04
-6.716747665548339137e+04
-7.610292542875387880e+04
-6.178317820445173857e+04
-3.447171273974401993e+04
-2.120790458916003627e+04
-1.864696533745548732e+04
-1.733116607310399559e+04
-8.791917859214054261e+03
-6.101455495361245084e+03
-1.407806903114331362e+04
-2.235504727457324043e+04
-2.264598112856940497e+04
-2.041226954610582106e+04
-1.657129269362074047e+04
-1.258138167515668465e+04
-1.129993237127712200e+04
-1.141159320585315254e+04
-1.508975355905920333e+04
-1.826750863437390581e+04
-1.890349307504130411e+04
-1.648163775163948594e+04
-1.478341272892350025e+04
-1.696561022761714048e+04
-2.269467213315531990e+04
-2.558833186088645380e+04
-2.310423393603660224e+04
-1.517497378462755660e+04
-1.094432815755506454e+04
-1.195718036914564436e+04
-6.257265435753432939e+03
2.181680214232514118e+03
9.728908891291202963e+03
1.530869413030343640e+04
2.010820274239395803e+04
2.352347512573013591e+04
2.569959739509648716e+04
2.839560167338680549e+04
3.354749389545043960e+04
3.466833932650240604e+04
3.190805016097893895e+04
3.103759056342974873e+04
3.166197550533158210e+04
3.005121131811431405e+04
3.135803674341541046e+04
3.224625519684942628e+04
3.186579371929829722e+04
2.952648475725937897e+04
2.716003524820421080e+04
2.438220006161269703e+04
2.110975633475402356e+04
2.229641342296978473e+04
2.468582601130065086e+04
2.523557842794624958e+04
2.571027577933917928e+04
2.279059872054808147e+04
1.730305608734835550e+04
1.270118873148923558e+04
9.003544749949629477e+03
8.213676775645009911e+03
9.920022653543021079e+03
1.240803892235969579e+04
1.570236050130674812e+04
1.774926810119046786e+04
1.840895354779115951e+04
1.781674773806009398e+04
1.257104954622563127e+04
4.417302625132543653e+03
3.658800452254991342e+03
8.731814371158736321e+03
7.850621205494740934e+03
3.527513423411533495e+03
8.651644423965633905e+03
2.169827280181637616e+04
3.157879765594955461e+04
3.152944468702455561e+04
2.952843376759682360e+04
2.794694373653781076e+04
2.769717004659805752e+04
2.875830567401020380e+04
2.826444816805581650e+04
2.687274987866797892e+04
2.554329765483272786e+04
2.395727704031246685e+04
1.932386500111720306e+04
1.310627032816802603e+04
9.767754588888281432e+03
7.217566617502384361e+03
4.121825421079349326e+03
2.860535567412427099e+03
5.748337250116735504e+02
-2.187219086927568242e+03
-5.437508640136827125e+03
-8.755758490447744407e+03
-1.024878724760263322e+04
-1.146847547261115142e+04
-1.258364454432674574e+04
-1.322117745483491308e+04
-1.453986785230289024e+04
-1.578651052946625714e+04
-1.766292581363785939e+04
-2.002209868108772207e+04
-2.255076986218587990e+04
-2.458845136048619679e+04
-2.499801487586728399e+04
-2.414627735287561882e+04
-2.326299272107199431e+04
-2.307081325439894135e+04
-2.377642319771014081e+04
-2.322551817701794789e+04
-2.121986050053715007e+04
-2.095909769168447019e+04
-1.972585557299270295e+04
-1.841380141638824352e+04
-1.901450569625639037e+04
-2.109945099629746255e+04
-2.257117988986824275e+04
-2.198347796315960659e+04
-2.034174770247206470e+04
-1.853339844377712143e+04
-1.743521124308229264e+04
-1.663647460426395992e+04
-1.540628256910369419e+04
-1.336011812596274103e+04
-1.269250229244321235e+04
-1.326490679550783534e+04
-1.325693977001519488e+04
-1.308592123861601431e+04
-1.287114215009202235e+04
-1.322790326169603759e+04
-1.388160193774602158e+04
-1.455546991518225877e+04
-1.535974691165409058e+04
-1.393959564427712394e+04
-1.229018639765155058e+04
-1.282766336239626253e+04
-1.381909418845121763e+04
-1.522948929202371255e+04
-1.543508506774667330e+04
-1.385794768318979004e+04
-1.144607191749811682e+04
-8.817467576927403570e+03
-6.012145110185847443e+03
-6.149128174638019118e+03
-8.146282847719811798e+03
-8.011478749666233853e+03
-5.769543006013209379e+03
-3.776281610044974059e+03
-6.357573511902653991e+03
-9.890353313640556735e+03
-9.728610848539417930e+03
-6.677181112039422260e+03
-5.857784658967656469e+03
-3.798104794951732401e+03
6.501509792033104986e+02
3.303280701759346812e+03
8.384761350033820690e+02
4.629055958985068173e+02
4.562783585743048206e+03
3.762645806422358419e+03
4.375084544869090678e+03
3.293420714565061644e+03
2.704045621405495694e+03
4.338501197128139211e+03
2.715289755763596986e+03
2.902734247922743634e+03
3.838181721958340404e+03
1.071008898914378506e+03
1.506504572237576667e+03
3.116051679215302556e+03
4.589290945389446279e+03
4.444881134620018202e+03
5.978381209792696609e+03
5.199222351698437706e+03
4.546880891881251046e+03
5.309095808164088339e+03
9.305602783976646606e+03
1.085196376903875534e+04
9.916707949225272387e+03
1.075225710681866622e+04
9.309182818224631774e+03
1.031170505061102813e+04
1.027005627744457524e+04
9.915081158275626876e+03
9.609607225499421475e+03
9.826378004611293363e+03
1.001842520681878887e+04
1.025748917631100085e+04
1.106068769157010865e+04
1.153403240706397992e+04
1.177480037508776513e+04
1.244727950369436803e+04
1.313077948948977973e+04
1.385506622393261932e+04
1.407225094371610430e+04
1.480683137937006904e+04
1.513299699069557573e+04
1.439055291858468809e+04
1.396835595184636986e+04
1.412605950771831522e+04
1.434738354297242040e+04
1.375458884869401300e+04
1.244461633956480000e+04
1.142478600309189278e+04
1.083328263208987664e+04
1.126711282653220223e+04
1.135260725924558574e+04
1.072093401776072096e+04
1.037212498319670158e+04
1.027514603953933329e+04
1.026582889875469300e+04
9.687736593656783953e+03
9.516933585494183717e+03
9.964217663819828886e+03
9.825769521631964381e+03
9.422020693393387774e+03
8.715179535216155273e+03
8.240757333386975006e+03
7.162156174857313999e+03
6.264281424714336026e+03
6.417856086677871644e+03
5.881218429424692658e+03
5.192689901128721431e+03
5.111781353128205410e+03
4.502649163666428649e+03
3.548147121995689304e+03
2.904895801023348668e+03
2.728543687283043710e+03
2.610287025884042123e+03
1.397425471427892489e+03
1.067580278993182674e+03
1.594374913070318144e+03
1.713931962579858919e+03
1.498731821097126840e+03
1.299194154946342223e+03
5.894745923524375257e+02
-1.693908265030602323e+01
-1.927746231967178403e+02
-2.636765974762155338e+02
-2.466799795508276247e+02
-3.763372575319297084e+02
-1.177938338059273974e+03
-2.377042697785961536e+03
-3.249714936467231382e+03
-3.677218466925362918e+03
-4.094961952078168906e+03
-4.271443130485587972e+03
-5.077511826411395305e+03
-5.311858977176752887e+03
-5.532322022383471449e+03
-5.902664390838842337e+03
-6.207198206020266298e+03
-6.273905469966703095e+03
-6.246833186450146968e+03
-6.069542998869793337e+03
-6.198941275046969167e+03
-6.174950693436990150e+03
-6.408212268128600954e+03
-6.590026283975383194e+03
-6.292208520563539423e+03
-6.320879449804237083e+03
-7.243783663578194137e+03
-8.666601648547413788e+03
-9.037959786322704531e+03
-8.538069060276955497e+03
-8.893904219230566014e+03
-9.604461774878045617e+03
-1.001315412427738920e+04
-1.086110134038441174e+04
-1.248314874020600291e+04
-1.497683168754609324e+04
-1.674866022911928667e+04
-1.673504478401187953e+04
-1.673017977730057828e+04
-1.452026628126923970e+04
-1.067936710892417250e+04
-1.044174996700321026e+04
-1.342792712161008421e+04
-1.483949946362572155e+04
-1.386380203941402033e+04
-1.049682275885334093e+04
-1.002358396659835671e+04
-1.030659276009181849e+04
-9.398636749585581128e+03
-8.786591849094287682e+03
-9.090594864676239013e+03
-9.431599012971482807e+03
-9.451498512862212010e+03
-9.707986754504532655e+03
-9.244482509801062406e+03
-8.556224853894646003e+03
-8.650534778030329107e+03
-8.461698929960375608e+03
-7.852951571120543122e+03
-7.216674302097825603e+03
-6.613357096993801861e+03
-6.396005415939569502e+03
-6.411521860148978703e+03
-6.344134757365740370e+03
-6.047108453674040902e+03
-5.977715464330682153e+03
-5.679520089141844437e+03
-5.022607033609619066e+03
-4.342988807575837200e+03
-4.449814879632222983e+03
-4.473259619485073927e+03
-3.900165346865329411e+03
-3.398600312552856849e+03
-2.753170233659872338e+03
-2.557215954020247864e+03
-2.416842981940627396e+03
-1.886210054055069804e+03
-1.134149139929170360e+03
7.338119022759299526e+01
7.773012165493855719e+02
1.510504780405041856e+03
2.218718593260218313e+03
3.063654668828062768e+03
4.161079553969757399e+03
4.803769411130538174e+03
5.135760523881811423e+03
5.475000437030310422e+03
6.248456058349107479e+03
6.876533188216258168e+03
7.418564995668189113e+03
7.731932714166696314e+03
7.591076825565478430e+03
7.432470267331462310e+03
7.549446419586198317e+03
7.762218379730977176e+03
8.156913198503614694e+03
8.269548231018234219e+03
8.761862912068705555e+03
8.839366794405175824e+03
9.236937265118451251e+03
9.735489417704706284e+03
9.764067781302583171e+03
9.939776505116911721e+03
9.961630609298488707e+03
9.746655531326916389e+03
9.287975679986620889e+03
8.910950667247438105e+03
8.545968212525498529e+03
8.696989693111652741e+03
8.593181990652561581e+03
8.336768606986781379e+03
7.784673222856054963e+03
7.486096546793374728e+03
7.007225132965377270e+03
6.764169946889071980e+03
6.502001789452815501e+03
6.093655237465435675e+03
5.853439733532449281e+03
5.709529893630351580e+03
5.855993498049134359e+03
5.809995562264308319e+03
5.646614921296248212e+03
4.861046849691450007e+03
4.214535567854479268e+03
3.824225996211960592e+03
3.177163563869259633e+03
2.751379728215851628e+03
2.572882370333626568e+03
2.444847214619094757e+03
1.474413204495263699e+03
8.176520072547049267e+02
1.145655176739788601e+02
-1.102862856086086822e+03
-1.825385623222176719e+03
-2.445978125824575727e+03
-3.051578943278458155e+03
-3.368883506675057561e+03
-3.477578705291839924e+03
-3.788544781954039081e+03
-4.416828029305310338e+03
-4.855426505966552213e+03
-4.942261787700450441e+03
-4.910178230892356623e+03
-5.138966026050933579e+03
-5.425604918367709615e+03
-5.445072883177078438e+03
-5.437167016750928269e+03
-5.657777614584636467e+03
-5.896837719130387995e+03
-5.533165072158971270e+03
-5.756689463136717677e+03
-5.883266481528583427e+03
-6.169667240013736773e+03
-6.673775410478282538e+03
-6.991471355941008369e+03
-6.856769288298450192e+03
-6.711619773074650766e+03
-6.862738068907982779e+03
-6.440971975707508136e+03
-5.976148179612600870e+03
-5.680225599390739262e+03
-5.340195813544915836e+03
-5.132058227807283401e+03
-4.683782632044866659e+03
-4.510318725585386346e+03
-4.359373912513437062e+03
-4.204654291437540451e+03
-3.923255535340637834e+03
-3.675305317021879546e+03
-3.884798165591356337e+03
-3.536060511049513934e+03
-2.935782702932742723e+03
-2.506152601061865880e+03
-2.032331105286629281e+03
-1.811287644886290991e+03
-1.627873150455004634e+03
-1.306132856239005605e+03
-7.949606657326621644e+02
-1.170481934161502693e+02
5.127918340113743625e+02
8.661025289652322954e+02
9.386119256199624488e+02
1.056062795284593221e+03
8.278983301250736986e+02
7.330278548623736015e+02
1.861358934521098035e+03
2.451401376117707059e+03
2.480929235411068476e+03
1.899054249802214372e+03
6.760355818557574139e+02
-2.182160306586422394e+02
-5.105833982417605057e+02
-8.629186464510269161e+02
-2.320859227143583041e+02
1.350015865563079387e+03
1.703444280299094771e+03
2.607190267306351416e+03
4.187189793929521329e+03
5.300464676751537809e+03
5.927044197947197063e+03
6.646326401564028856e+03
7.208326515997285242e+03
6.955263663197799360e+03
6.660014332470820591e+03
7.110790490435570064e+03
7.089694463099679524e+03
6.323697528114307715e+03
5.776904558097876361e+03
5.667598532264601999e+03
5.972846034280670210e+03
5.959500569697361243e+03
5.542618973468522199e+03
5.162175000512085717e+03
5.115244415017434221e+03
5.134004893994728263e+03
5.108618809754058020e+03
4.899281066749706952e+03
4.764928517926839959e+03
4.923604223062006895e+03
5.276380339410454326e+03
5.226326701352828422e+03
4.783617138345863168e+03
4.266292991532371161e+03
5.109518610062047628e+03
5.387379961820750395e+03
5.192873331512580990e+03
4.464066819828250118e+03
3.587042568069965455e+03
2.658779371097896728e+03
-9.046001176040840619e+02
-3.641016870523581474e+03
-3.847492727344769264e+03
-2.925966302275704493e+03
-3.284195300537004186e+03
-4.079060506978193644e+03
-4.335654833496574611e+03
-4.185881998852186371e+03
-4.692714497606037185e+03
-4.236979630796867241e+03
-3.741643116447129159e+03
-3.696659731366446977e+03
-4.030890994400940599e+03
-3.735234912076466571e+03
-1.874629380172415949e+03
5.308505953422734365e+02
1.216114232113216531e+03
-2.207797954285943263e+02
-4.525772638529537289e+03
-6.166863411543530674e+03
-5.452034878568487329e+03
-2.694171832055812956e+03
-1.810164050745986287e+03
-1.725117412863093932e+03
-1.685111874838328049e+03
-2.536070094531062750e+03
-3.013797425060462956e+03
-2.238195630666696616e+03
-2.874258068235764767e+03
-2.413981964736180998e+03
-1.728519085440345407e+03
-1.906906445029811948e+03
-2.233015931341163650e+03
-2.213856255700579823e+03
-1.241467421713306521e+03
2.801326419929085318e+02
-2.341244290794921596e+02
-1.448292082739492798e+03
-1.839275280192270884e+03
-1.617113541207704884e+03
-2.138457784875911329e+02
-1.656906833091217024e+01
-9.372600970172514963e+02
-1.105955244967993849e+03
2.723209972747778238e+02
1.494550091631283294e+03
1.638575158603329783e+03
2.075251566544803154e+03
1.938682723453039671e+03
1.591819660359053387e+03
1.627559553725722026e+03
1.485001531151874360e+03
1.920190981398841814e+03
2.408022207410864667e+03
2.168513004501043270e+03
1.853477360508791662e+03
1.914732495574914765e+03
1.885036828225587897e+03
1.410416163170554910e+03
9.999338583555716014e+02
5.784762800836340375e+02
2.349334787600269863e+02
-3.650565639161145270e+01
-2.329041391170801774e+02
-2.544010043525323397e+02
-5.221339597834871711e+02
-3.022292258655289174e+02
-6.289260251733428504e+02
-4.444969624050593779e+02
-3.641150117121011931e+02
-2.717142230230975883e+02
-2.392278948711586395e+02
5.060704055585617311e+02
9.339917627474328583e+02
1.035676353255048298e+03
7.348188474952297611e+02
2.751841133249172344e+02
1.996501819190282561e+02
1.261559526052901248e+02
5.244116289941331388e+01
-2.817090694978073770e+02
-9.182728795172922673e+02
-1.096301834927839309e+03
-1.066057373762904035e+03
-1.400692258055417369e+03
-1.783429593242622786e+03
-2.608483060364151697e+03
-3.055834570463539876e+03
-3.679531798425408851e+03
-4.155758121653923808e+03
-3.008725518195413770e+03
-3.025880826414033891e+02
-1.835367622073601126e+02
-1.822641079451148926e+03
-2.236969697819039993e+03
-1.341687417058083156e+03
-2.160859699925071254e+03
-3.765659219734256567e+03
-2.085317459859863447e+03
2.179480139631277211e+02
1.602958400548130157e+03
2.716525263745253596e+03
3.235568237426094583e+03
3.809969292669645711e+03
4.831609289055816589e+03
4.513410206092331464e+03
4.296189666347403545e+03
4.031743301555708058e+03
4.027965423190501497e+03
4.386751574182764671e+03
4.423947757767219628e+03
4.316421125316164762e+03
5.300080654129287723e+03
5.700828934781290627e+03
5.261583283107783245e+03
5.303183384344389196e+03
5.682512034159678478e+03
4.894418018230981033e+03
3.568801680532215414e+03
3.100620223305734726e+03
3.037795062540761137e+03
2.579106881899806467e+03
1.068441707360904502e+03
-8.842990487051109767e+02
-2.697108991382464865e+03
-4.761139215883677025e+02
6.066668269097635857e+01
1.970188458738249437e+02
2.018933191075537479e+03
3.498492437323698596e+03
3.516528376069869864e+03
2.683934668588713066e+03
1.731671729545268136e+03
3.166512428991075012e+02
-3.561288817734135250e+02
-1.072670149946511856e+03
-6.931782554879152940e+02
4.162503589207897789e+02
