3.667741020300932632e+03
3.142706526179345929e+03
2.993723069065925756e+03
2.535771319357947959e+03
3.315830458330844067e+03
4.729981502038855979e+03
4.689195919056987805e+03
3.602471495312319348e+03
3.387925154651195044e+03
3.976628718865557857e+03
4.705550446138191546e+03
5.212696757976801564e+03
5.075090167319929606e+03
5.252790174327532441e+03
4.727847038559961220e+03
4.141473956511021242e+03
3.414795527498403771e+03
2.548851811776122304e+03
2.643255990971966185e+03
2.835112743669264091e+03
2.463741647715106865e+03
1.787173017600324101e+03
1.049314569556377592e+03
1.324226485490358073e+03
2.212958907011436622e+03
2.776583226306553115e+03
2.695040869294478853e+03
1.382326081007672201e+03
-1.974557110684978170e+03
2.214339789355704397e+03
3.997980767994269172e+03
4.042169591753915029e+03
3.406802642364124040e+03
3.597364519347474015e+03
3.809540650248036854e+03
3.186636849230906591e+03
2.673577218658128459e+03
2.114432074394904248e+03
1.002103990774605677e+03
2.766078874793062141e+02
1.280063829208152981e+02
1.711952822578032283e+02
2.632123784472267403e+02
7.120643457455805674e+02
1.232759564889841158e+03
1.221874151677153122e+03
1.107689598850804259e+03
1.250899452198715153e+03
1.201662301706747030e+03
1.492924589242273669e+03
2.435538478417785427e+03
2.822134303240336067e+03
3.337232003732803150e+03
3.224815461318497000e+03
2.817828846641310975e+03
2.215317197809243680e+03
1.792230923606001170e+03
1.261536941508235714e+03
1.055245340459604222e+03
6.182682693982545743e+02
3.826452664317965287e+02
2.334516447379643012e+01
-1.456624487403080650e+02
2.366301094996080110e+02
6.913123957700736355e+02
1.512357644077848136e+03
1.915779001496762021e+03
1.629607120736191746e+03
1.686828631462298972e+03
2.231432342963270003e+03
2.538476670941533030e+03
2.236961972151762893e+03
1.978911581989268598e+03
2.065312799576881389e+03
2.492205737750955450e+03
2.654608465460019488e+03
2.111515382913242320e+03
1.522889112629890406e+03
1.017783638785931657e+03
4.531963890268939963e+02
-2.399447888426902864e+02
-5.646924509924913309e+02
-4.650254439338394832e+02
-8.019258444102042631e+02
-3.354375879608092418e+03
-7.231354956344101993e+03
-1.128181274454439881e+04
-1.015272125788495032e+04
-9.068063831855504759e+03
-9.026862225164226402e+03
-8.603065964896703008e+03
-8.576711355364019255e+03
-8.699552709374782353e+03
-9.553339406971075732e+03
-9.120791576896755942e+03
-8.481635290061054548e+03
-8.392403095879744797e+03
-8.560469272554368217e+03
-8.763903453719474783e+03
-5.960528001045543533e+03
-7.503917801876201565e+02
1.083453653213575762e+03
1.691990043665515941e+03
1.463200206768409544e+03
1.520160122281016356e+03
1.857921392976417792e+03
1.820525148500872547e+03
1.545982608011119055e+03
2.226315518517922101e+03
2.641604995601960127e+03
2.765872338533874427e+03
3.485173486655120541e+03
3.627554766052912782e+03
3.278082757447554741e+03
3.091779209391723271e+03
3.536624724597151726e+03
3.224571798633480284e+03
2.468598447752236552e+03
1.699809740391794776e+03
9.741960112609602902e+02
5.147460824843667524e+02
1.764867714946677495e+02
3.254660814453365703e+01
9.398748834487807358e+01
5.047970758994222820e+02
9.360545894405679519e+02
1.098773710305817303e+03
1.295942936629377527e+03
1.530578753471710115e+03
1.541741064630323763e+03
1.337342870703463632e+03
1.566357418868414697e+03
2.047886282549690804e+03
2.027061144400684952e+03
2.339956440194357583e+03
2.281616069814410366e+03
1.461057707701334721e+03
6.413091085796362449e+02
-4.406247102023896218e+02
-9.216829094606814579e+02
-1.103865521943090926e+03
-1.311242557930290786e+03
-1.497778797654184473e+03
-1.502493850987121505e+03
-1.404374182951713465e+03
-8.833682589296064407e+02
-4.474650972844973467e+02
-1.537038299513149013e+02
-7.846278457624277003e+00
3.337820836752102309e+02
5.642772999032503094e+02
5.114862987665094352e+02
7.795321680393728911e+02
9.118253670721139770e+02
5.333025649299428324e+02
3.999226772412522024e+01
2.447633239022519831e+02
2.629783122380891882e+02
-6.963215980535870813e+02
-4.763180335814226396e+02
-5.890467683356669113e+02
-6.994680447699405477e+02
-7.885780583589030357e+02
-8.433152201985371903e+02
-1.105694896758825280e+03
-3.668614797165767882e+00
3.718178276020506132e+02
1.667932268916383123e+02
1.782672505843852093e+02
3.472498616291328517e+02
6.077116755030722288e+02
4.316472416705435649e+02
3.750872099466188843e+02
2.630139666720746732e+02
-5.960805782350015392e+01
6.229811022466476089e+01
2.537816211087487659e+02
-5.361514815646766010e+02
-4.445580372635004665e+02
-4.855028676681677098e+02
-1.050954818399552551e+03
-1.281881378819879728e+03
-1.633432536930508149e+03
-1.274645992275758999e+03
-7.374564425161938743e+02
-2.658607289501396735e+02
8.912605066344562488e+01
2.514954980973279248e+02
8.223947451497328132e+01
1.653708973555266084e+02
3.328426259248300312e+02
6.455783285617848151e+02
1.204579070177223457e+03
1.068850737792660311e+03
7.763945802915063723e+02
6.062190360127973463e+02
6.282654834626429192e+02
2.784980577875509198e+02
-1.801596469021279177e+02
-6.857672452235841547e+02
-9.123171931302580333e+02
-9.268909502431727105e+02
-1.168548349482143976e+03
-1.603310078055415943e+03
-1.740236500993062464e+03
-1.505371878251916542e+03
-1.113687911557486586e+03
-1.012201579403591040e+03
-8.938996960385206876e+02
-8.349588089948925926e+02
4.215673250149067144e+02
1.080712255764189877e+03
1.158542589979311060e+03
8.249764998541202203e+02
1.267888908521608982e+03
1.309231209384089652e+03
1.408961329105488858e+03
9.009923582490613398e+02
1.142234679715402024e+02
-2.434516369901936912e+02
-1.860264653314813586e+03
-2.188900873336761379e+03
-1.192180517345888575e+03
-1.266501429423899054e+02
6.052537585015611512e+02
1.144208376796475932e+03
1.390464359826207556e+03
1.159458410976691539e+03
1.202400339154867652e+03
2.082312712657434531e+03
2.617324729879372171e+03
2.228951020198280730e+03
2.344326718862329926e+03
2.684596427001652046e+03
2.911381038616772912e+03
2.766770454407210764e+03
2.603862150938135073e+03
2.064839104735905039e+03
1.249289715882562177e+03
1.123121082708245694e+03
8.944480047195505676e+02
1.137700323860094386e+03
7.752685863476590384e+02
2.745990866130724726e+02
5.207898971773248604e+02
1.642173373702377603e+03
1.791042722223785631e+03
2.086680858488480226e+03
2.502184142178204183e+03
2.814469506900027227e+03
3.097965417699553655e+03
2.814776310534639833e+03
3.013837280236970855e+03
3.175474297846883928e+03
2.709633878477894541e+03
2.975081570983740221e+03
2.577273130835983466e+03
2.580787162415515468e+03
2.560597912300023381e+03
1.881453853471463617e+03
1.632447575240578772e+03
1.696377370613726043e+03
1.259136131985135762e+03
8.557775983138873244e+02
1.012381875151477743e+03
1.803943126277917145e+03
2.320400154392191780e+03
2.200690124132267101e+03
1.976821730821865231e+03
2.008870973558193100e+03
2.476817197089533693e+03
2.984692382500365966e+03
2.374454610047865572e+03
1.541624147725794387e+02
-4.305164541044890029e+03
-7.692604364785664075e+03
-7.509163632275795862e+03
-7.038812211100523200e+03
-8.117502128741460183e+03
-8.437226873766612698e+03
-8.348028227109512954e+03
-8.382964769158994386e+03
-7.820046181724481357e+03
-7.761207920443165676e+03
-7.366208861764517678e+03
-7.879820417679591628e+03
-7.539664255373357264e+03
-6.774581508871747246e+03
-2.071371362020689958e+03
-2.368909157097511070e+03
-5.861262251632918378e+03
-5.365419470643780187e+03
-5.660313472986865236e+03
-5.211913846028642183e+03
-5.483100482840073710e+03
-5.719683142489680904e+03
-5.055702248530604265e+03
-5.306253912404142284e+03
-5.954325298696494428e+03
-6.503871937745506330e+03
-6.731840799110652370e+03
-6.765177527300841575e+03
-5.408793180685627703e+03
-1.183662743201671219e+03
-4.241745310756239633e+03
-6.390997518996256076e+03
-4.296358073154240628e+03
2.863151423390818763e+03
4.560636825853699520e+03
5.137248396315066202e+03
5.082119844877117430e+03
5.788291652444172541e+03
6.260823282802977701e+03
6.774691331217160041e+03
6.718927328596326333e+03
6.368584954845447101e+03
6.224742443738321526e+03
6.085541659120846816e+03
4.908134524990664431e+03
3.608590042517511847e+03
3.674961108930591308e+03
3.506272455374500623e+03
3.213422428484975171e+03
3.207527221169199493e+03
3.160970236747789841e+03
3.544875709042391463e+03
3.829985575296786010e+03
3.861342407274149082e+03
3.975272195149449544e+03
3.536855318507852189e+03
3.602920277109928520e+03
4.091363729174062428e+03
4.427429452832749121e+03
4.293455308597749536e+03
3.997529704702771596e+03
4.002622010280362247e+03
3.566633820051397379e+03
2.972431577041736091e+03
2.496008553775973724e+03
2.006316888834481006e+03
1.375542765771513587e+03
1.088096970761474950e+03
9.772117713878247969e+02
6.939691540311795279e+02
1.132279767411259172e+03
1.270561073310496340e+03
1.355440227260620077e+03
7.117425016194180216e+02
1.177901607029335082e+03
1.488515235963212263e+03
-9.251464631727338883e+02
-1.942613625144631214e+03
2.196682057094380980e+03
2.442406535548500869e+03
1.984817599957109678e+03
2.120971380412403505e+03
1.909290828317632304e+03
1.805479233909135019e+03
1.407102582982249487e+03
7.821813580970982684e+02
1.876287426223285877e+02
-1.865966305938134155e+02
-7.372748638449935754e+01
-1.619677470229603955e+02
-2.997511147325390084e+02
-1.361840085212423617e+02
-1.189293923297688167e+02
1.116467231414423082e+02
3.368739031370041630e+02
3.646135830070397787e+02
8.047231518854827073e+02
1.183946288169876425e+03
1.394874959496443807e+03
1.245457934826067458e+03
1.285867427207878336e+03
8.771710840367046558e+02
7.103286271506565299e+02
4.129285685412676798e+02
-1.813312916890027395e+02
-8.274018016600078909e+02
-1.336885982192491610e+03
-9.584877338948862189e+02
-2.622991906234678368e+02
-3.973409492899497195e+02
-4.241459940358843710e+02
-2.538611763511221966e+02
-2.773088708367687900e+02
-4.563593164540549765e+02
-7.123562662258327691e+02
-9.917755237333076366e+02
-8.505260039448945690e+02
-8.165582707654940577e+02
-3.547563423018512481e+02
3.168811346659585411e+02
5.413920605943703777e+02
9.809088790931463109e+02
1.641595022427672347e+03
1.542310880361988211e+03
1.114793644601845017e+03
3.509314562555348971e+02
-1.454708717541374483e+02
-8.653945259448731804e+02
-2.754517064703624328e+03
-6.789646397869274551e+03
-1.250638884736364344e+04
-1.317386175703841400e+04
-1.240378026846835382e+04
-1.096929303850380529e+04
-4.788568171376362443e+03
5.672219097801877297e+02
1.097059958139133869e+03
5.351907369742768878e+02
-2.776072947923024458e+03
-9.669544479730751618e+02
1.683445681628622424e+03
1.705640665591453399e+03
1.546716879869578406e+03
1.262413928415717464e+03
3.946457655202623300e+02
-6.677758786573528482e+01
-4.459994669072510760e+02
-6.021705979260159438e+02
-7.716465588664029838e+02
-6.552732118986677960e+02
-3.435374138393847829e+02
1.387576493924532031e+02
6.033224606957884362e+02
7.430041887568705761e+02
1.042834836848495570e+03
6.830411834981812262e+02
3.756902638886687100e+02
7.699745967847876500e+02
1.231011318522755346e+03
1.384839908324180442e+03
1.237586434328940641e+03
1.041068245558011995e+03
8.572753211815030454e+02
4.803231107543847997e+02
-2.266221694924115013e+02
-6.133872446916470835e+02
-8.349144054699754633e+02
-9.451403659667936381e+02
-8.129724202001696085e+02
-1.232694604097627916e+03
-1.237254011380667407e+03
-8.125543049100946291e+02
-4.366384970789397357e+02
-6.913962492888141469e+02
-6.856805661102389422e+02
-5.013948573502169097e+02
-1.444333156012779682e+02
3.402775854608613599e+02
5.978171868516014911e+02
7.182359334045778496e+02
5.077871251899099434e+02
5.077083390911698757e+02
5.291319875535963320e+02
1.660350704643899178e+02
-1.916825789678435683e+02
-7.071953274351058099e+02
-1.381376653227221595e+03
-1.789013257859547821e+03
-2.414896625921614486e+03
-3.058933953478397598e+03
-2.107115340619545350e+03
-1.143634132694129676e+03
-1.213469115909946368e+03
-1.156562538881218188e+03
-4.718385114279309391e+02
2.131791128962617563e+02
3.726700310807523238e+02
4.845344150428134640e+02
5.217793007955172015e+02
8.363038103943806618e+02
7.481330344847216338e+02
-5.965367499592999820e+02
-5.039817569217478194e+03
-5.804445474283345902e+03
-5.984405914904093152e+03
-2.035842716063078115e+03
-3.258676589423143469e+03
-4.795841086939396519e+03
-2.312393247849042837e+03
-5.946266862447931089e+03
-5.772387610421173122e+03
-5.389725892025035137e+03
-2.782296387986157697e+03
-4.748000960538355685e+03
-4.978713642027205424e+03
-2.644610844000356337e+03
-3.848823136423081451e+03
-3.505293405814838934e+03
-7.840200169990428094e+02
-2.168923535875206653e+03
1.378041194825263801e+03
-2.159084849941220000e+03
6.547425579220054033e+02
-1.865562841548608503e+03
1.634795489751712694e+03
-7.131172821159482282e+02
-2.358192246692724439e+03
8.413602051728029210e+02
-4.094673379092051618e+03
-5.472275170010620059e+03
-4.350573138133886459e+03
-4.658659741438122182e+03
1.720362312592613762e+03
-8.295024038087193503e+02
2.337256766221618705e+02
2.170917549245497867e+03
-8.980247334710874156e+02
3.070909211246390441e+03
3.845448652096385445e+02
2.426758041762836910e+03
4.417391683563500919e+03
4.046399564437903337e+03
4.889767759086388651e+03
4.855231513791166435e+03
4.630608846978816473e+03
3.966834031652542308e+03
3.173843189283008087e+03
3.091482671486041909e+03
3.260526803237484273e+03
3.077805992782023168e+03
3.028287768543099901e+03
3.494844518453920955e+03
4.229294825240140199e+03
4.834495389034223081e+03
4.773311672130567786e+03
5.183726708531808072e+03
5.568704142135426082e+03
5.841321795838119215e+03
6.165404011114003879e+03
6.237559533202792409e+03
6.382557302608110149e+03
6.208433351269561172e+03
6.258023378618262541e+03
6.106084690837482412e+03
5.339368880351598818e+03
4.313612447946648899e+03
4.571528227528659954e+03
4.867252837765203367e+03
4.488759738225167894e+03
4.064894621145934252e+03
4.293600670412465661e+03
5.068839031762431659e+03
5.452321650989506452e+03
5.668674163090390721e+03
5.363520023427975502e+03
4.786955502203738433e+03
4.993813634021204962e+03
6.572973348829274073e+03
7.579566205198414536e+03
7.371739095869746052e+03
6.849683390699185111e+03
6.235785476544599078e+03
6.021313441068209613e+03
6.062433636706605284e+03
6.164359306918970105e+03
5.779347213568299594e+03
5.416012605389021701e+03
4.592933997233282753e+03
4.053438535133966070e+03
3.145346201377943544e+03
2.244124878703500144e+03
2.715601781413770823e+03
3.778354410997836112e+03
4.475167684378982813e+03
5.018800722120442515e+03
4.567163447356912002e+03
3.308205644052805837e+03
1.846896553786618597e+03
-1.508033511461317744e+02
-1.422992952314830063e+03
-1.967723368707731197e+03
-2.418936817817173960e+03
-2.454616694136851038e+03
-2.819953790631463562e+03
-5.084958545710423095e+03
-7.524629840055812565e+03
-6.722008753220617109e+03
-4.375093872646767522e+03
-5.361921309848516103e+03
-7.034508988738293738e+03
-5.953886200743476365e+03
-4.231935840083386211e+03
-4.971563315705205241e+03
-7.801847270906312588e+03
-8.902696382871792594e+03
-6.996077371870685965e+03
-4.177902434001210167e+03
-1.731091655146705762e+03
-8.886502679382132328e+02
-2.735500042255907829e+03
-5.586547485973693256e+03
-1.016967010651470810e+04
-1.454676262648700867e+04
-1.778174232866162856e+04
-2.166357030453941479e+04
-2.748811330552204890e+04
-3.143525457191186433e+04
-3.064994197325404457e+04
-2.185404232792756375e+04
-1.284742991992808675e+04
-1.016790050227189386e+04
-1.305129208384158119e+04
-1.400647578923039146e+04
-7.033053489646230446e+03
-4.017972737457429048e+03
-5.590505990349658532e+03
-4.131129241639025167e+03
-1.448582132914502154e+03
-2.550785742146044413e+03
-4.298587973837885329e+03
-9.257885855264272550e+02
2.852875520077271631e+03
5.755623889373057864e+03
9.452625753125976189e+03
1.148204804871986380e+04
1.102909425946096417e+04
4.008988395336240956e+03
-5.277072756294474857e+03
-1.230092031432195654e+04
-1.211730637497813586e+04
-5.951041294178683529e+03
-2.019009083635527873e+02
4.947336864625263843e+03
8.396862930689519999e+03
8.084931665777131457e+03
6.549765600818585881e+03
6.916650464585929512e+03
8.664816847761312602e+03
1.071750979639808611e+04
7.996969008223917626e+03
5.514059595059126195e+02
-7.763958279192557711e+03
-1.203585025458194468e+04
-1.230102324338633116e+04
-1.341533864266203636e+04
-1.494868031202007842e+04
-9.480754258460985511e+03
-3.917358858795303604e+03
-8.533281785117875188e+03
-1.239429816020550606e+04
-6.699246576691883092e+03
9.456149386061064433e+03
1.721816642627024703e+04
1.440599926898824378e+04
1.277080393364276824e+04
1.032473481444070057e+04
8.102982901978022710e+03
7.212802486811948256e+03
9.558352565643035632e+03
1.143072743665930830e+04
1.052915749167809736e+04
8.278808997387668569e+03
3.213755559940227158e+03
-2.455864816109849926e+03
-4.023914856867755134e+03
-2.740732289821268296e+03
5.146163011834892131e+03
1.406109390301497842e+04
1.589783799503642149e+04
1.654936861576488081e+04
1.508177329174298393e+04
1.144364527482487028e+04
6.715236243804549304e+03
3.851007381762352452e+03
4.740147901804945832e+03
3.577739395782516112e+03
5.753536622420668891e+02
3.135950369905905973e+03
9.137765202444681563e+03
1.288681549680365606e+04
1.661716996806829775e+04
1.880194576955399316e+04
1.966613107532224967e+04
1.835976914369961742e+04
1.311890829824472894e+04
7.901501314411457315e+03
7.925513793022593745e+03
1.092190742998685164e+04
1.055465810635263369e+04
7.743731452674604043e+03
3.760147410502243929e+03
1.658891091015163056e+03
-6.029746086808827386e+02
-1.485492807826840362e+03
-9.357805682771816009e+02
-5.389582847038391833e+01
1.168181451500934827e+03
3.674019840926857228e+02
-1.606348191388619853e+03
-3.849121600111761381e+03
-4.772978519439824595e+03
-4.397047600232687728e+03
-3.013374345146230098e+03
-7.270640371004865301e+02
2.898731954223706907e+03
2.594859718421632351e+03
1.997228820268928985e+03
1.389694229836302384e+03
-6.648932007506729178e+02
-2.513700544758433807e+03
-3.480813624495519434e+03
-3.897370770232324503e+03
-4.635509357025679492e+03
-5.801376681687653218e+03
-7.142110564983884615e+03
-9.030872460801920170e+03
-9.324840921749875633e+03
-7.545116924945014034e+03
-4.555825456092493368e+03
-1.855181310271709663e+03
-6.543745736938886921e+02
-3.009553703422212493e+03
-5.579873258714485019e+03
-6.573490251798882127e+03
-5.391632876974887040e+03
-3.236493135087648170e+03
-1.550122677310472682e+03
-3.153933989980897422e+03
-5.961155391432739634e+03
-8.180824939012887626e+03
-1.135119498860765270e+04
-9.992520343237492852e+03
-7.041999651671888387e+03
-4.682802995844389443e+03
-2.764982147094363427e+03
-2.501663466094763862e+03
-3.347158163992277878e+03
-2.824688734895776179e+03
-4.207558270949753933e+03
-4.539141239734737610e+03
-4.209707998864358160e+03
-4.879875436934657046e+03
-4.750039089000198146e+03
-4.232793029031195147e+03
-4.916668676400580807e+03
-5.491007950320881719e+03
-6.088570971778555759e+03
-6.497537783647212564e+03
-6.449919449569870267e+03
-5.372502051992458291e+03
-3.337415549903049850e+03
-2.882374693927411045e+03
-3.960010050086767933e+03
-4.578374483794761545e+03
-5.739211184239444265e+03
-6.053701145210564391e+03
-6.183166569903072741e+03
-6.051757716114042523e+03
-4.282477712590560259e+03
-3.054619232483321412e+03
-3.476192626721952365e+03
-3.266387970757753010e+03
-1.086410199438748350e+03
1.280110419385560760e+02
5.051866556085028037e+02
1.138936879809540642e+03
1.175540949782739744e+03
1.032060822886347296e+03
3.064635633059579050e+02
5.326524972498797297e+02
9.846578762077527927e+02
1.384827878422686581e+03
1.711391513517965450e+03
2.831695889298664497e+03
3.898733135758846402e+03
4.114557379805113669e+03
3.980255559368475588e+03
4.658018638679435753e+03
6.101040446919779242e+03
6.112088275781731681e+03
5.516127059251664832e+03
4.932073019035053221e+03
4.984998423347828975e+03
5.285980281947729964e+03
5.157898627529354599e+03
4.344729289754417550e+03
4.148512725207863696e+03
3.885228145137578394e+03
3.211845956556859619e+03
2.912387572511085182e+03
2.874851356366603341e+03
3.452333934490769025e+03
3.600856166209545790e+03
3.619490384303202518e+03
3.408330488418910136e+03
3.337361636945798182e+03
2.650659697582396348e+03
2.825273797718763944e+03
3.717330313735129494e+03
4.180860802277963558e+03
3.442939675743122734e+03
1.818569772939599261e+03
-2.584106400048880460e+03
-3.415639779645757699e+03
-3.541221627173494198e+03
-2.617852796699338342e+03
8.215120220809531020e+02
-2.304072931050747684e+03
1.443480477863112355e+03
-1.114733007428182646e+03
-3.547656011020273581e+03
-3.866165980351922826e+03
-3.596125178609764134e+03
-3.588407381292713126e+03
5.629593836860952933e+02
-3.348910189739378438e+03
-4.451787205797385468e+03
1.355414186493123907e+03
1.207865225863618548e+02
3.297422866933466139e+03
-2.003578780267667753e+03
-1.358119370926072861e+03
-1.790665096039076616e+02
3.535672107868324929e+03
4.512670139897354034e+02
3.668113880908057354e+02
1.254421728684365917e+03
-3.572823368730494167e+03
-8.519451629758781337e+02
1.961133565234394496e+02
2.354706507804953048e+02
4.520817159178105982e+01
3.474231251156209055e+02
7.113761094184076228e+02
1.129305383379540672e+03
1.220355640832728568e+03
1.306587325081502513e+03
1.555025789669863798e+03
2.203756747514883045e+03
2.125800025238231683e+03
2.009263764844607749e+03
1.993432287947971190e+03
1.888414311809373885e+03
1.860029961035561428e+03
1.880168169900530756e+03
1.574154676942156357e+03
3.381050026950871370e+02
3.128520946593632175e+02
6.303635634083643708e+02
-5.711523595271723508e+01
4.086838487858222493e+02
7.977016813470623902e+02
1.335755213080891735e+03
2.116758255978824309e+03
2.416696520650997172e+03
2.355708221334271002e+03
2.191139199519394424e+03
2.541120558978744157e+03
3.083680619319476591e+03
3.285866232715157821e+03
2.895940933512494667e+03
2.927266905233424040e+03
2.772093286462921242e+03
2.439399419061677236e+03
1.868843285932446861e+03
1.012782392820650671e+03
-4.121633268376950099e+01
1.111606366047010823e+02
-4.851895174683900080e+01
-1.023583172358304267e+02
-6.600783582538435894e+02
-1.432485393279141817e+03
-1.014251173816763185e+03
-4.841259246845712738e+01
3.617672294126697921e+02
2.304592389755908499e+01
-1.521436944951517205e+02
2.659055584045811429e+02
7.614414391425286794e+02
8.330420251576026658e+02
5.292314907438066029e+02
6.470143955991399025e+02
8.265553101967974499e+02
7.814286098160296206e+02
4.348901345991822041e+02
3.358668588084878479e+02
8.579107621619270674e+01
-1.028959759247809842e+02
-5.233299950606052562e+02
-9.986298559470659484e+02
-1.120790939215352410e+03
-1.431630203144592770e+03
-1.368075668815027484e+03
-1.032279438303141433e+03
-9.044214001065013235e+02
-3.585874157863929099e+02
-8.843173942187527814e+01
-2.805142486901592633e+02
-5.568326106039079804e+01
5.668076909913243071e+02
1.151617874811192678e+03
9.027658528425167788e+02
8.182374322472809354e+02
5.753904757468294520e+02
4.620177078640671198e+02
2.868472479888559405e+02
-8.851846176140818443e+02
-1.565884994553734032e+03
-1.516360658028149828e+03
-1.106295726007372423e+03
-1.305955828832822817e+03
-1.608411075128185757e+03
-1.605599562418133246e+03
-1.004537124675758264e+03
-2.443491425548832012e+02
-9.634929099125700702e+01
1.224530046117712487e+02
-1.137840539821370385e+02
-2.355977101925943316e+03
-5.511853451984911771e+03
-1.037431898948818707e+04
-1.092772925895322624e+04
-1.009533211654884508e+04
-9.707736864231996151e+03
-9.577272046790800232e+03
-9.946521703198262912e+03
-9.755458817652870493e+03
-1.055093490063613899e+04
-8.643772446209888585e+03
-5.503900230350840502e+03
-1.270421423770258116e+03
4.355537111085096171e+02
8.511170127334407880e+02
1.406386968427328384e+03
2.050897776027203690e+03
2.068322794797360984e+03
2.150748858501019185e+03
2.506063984278170210e+03
2.530301596475566839e+03
2.748505888357971344e+03
3.612879108524216008e+03
3.774779373010938798e+03
3.702277506095800618e+03
3.335060470387920304e+03
2.916863915879899650e+03
2.180870609364945267e+03
1.521311179040954357e+03
1.072402170005849939e+03
1.125056580029493261e+03
1.089278764283147666e+03
8.039873668315153736e+02
5.470386597598368326e+02
1.106445894663307854e+03
1.714210453981305136e+03
1.761465944890794844e+03
2.148344781237205552e+03
2.692923518954590236e+03
2.286167225132205203e+03
2.708063275616282226e+03
3.310544067911479942e+03
3.533490832685143232e+03
3.510738930873872050e+03
3.223555532658990614e+03
2.951006723548674472e+03
2.852130078150787540e+03
2.287046841115104598e+03
1.604833500869389354e+03
1.022461446576714479e+03
6.148929142322300549e+02
3.901864373565288702e+02
5.913970370613612886e+02
6.256192743446221129e+02
2.859777319193924541e+02
3.593503545602920326e+02
1.268678570262844005e+03
1.803908904492732518e+03
1.738006950836253054e+03
1.936089717322315892e+03
2.215518750318516140e+03
2.552343779368124160e+03
2.449532267457555918e+03
1.784941455165563411e+03
2.685493151159732861e+03
2.405231893607724032e+03
1.741423059479969197e+03
2.038250760636628911e+03
1.617768581608320119e+03
9.181336418030037976e+02
4.900430162702827630e+01
-1.318750559889431997e+03
-1.135124370951408537e+03
-9.013271778469818685e+01
-2.295971873115312007e+02
-1.418345203864949781e+03
-6.436579712078631019e+03
-5.505864120873083266e+03
-2.181959432465376267e+03
-3.781119090632008920e+03
-3.753252134083340934e+03
-6.454009617484000501e+02
-2.664550823619572839e+03
-3.038580965010681211e+03
-4.695458844511258576e+03
-3.194143949232116483e+03
1.373442169979333812e+03
1.126306811919677784e+03
-3.931652882602575119e+03
-2.343565776570277649e+03
-4.096283360263821123e+03
-8.904573432468587271e+03
-7.630432748584866204e+03
-3.406774796077146675e+03
-5.211627925533515736e+03
-1.852937002299142478e+03
-3.812680806733681038e+03
-1.688969961934688172e+03
-3.428770580585882726e+03
2.540873700653143317e+02
-2.926398525693107331e+03
-1.321386511515279381e+03
-2.132811854232858423e+03
7.373866504646701969e+02
-1.685788989221124893e+03
2.237442154613428897e+02
1.949042465482457828e+03
-2.253836829318806394e+03
-1.129940291858787077e+03
-4.420264286454422290e+03
-2.981805288352330535e+03
-1.105544159019745621e+03
-4.611575569338023342e+03
-3.988697930720064733e+02
-2.500343413405257252e+03
-1.361922335332559896e+03
9.343136076743434160e+02
2.304377955427765755e+03
2.968323565677700117e+03
2.548263218843520008e+03
2.570293606761265437e+03
3.442406326424684266e+03
3.498574643170292347e+03
3.458816718102111736e+03
3.470167534982158486e+03
3.096619521341026484e+03
2.559184795438856781e+03
2.322900446284069858e+03
1.626676436417478499e+03
9.723349390795189038e+02
4.617920405516889559e+02
3.294350061918086681e+02
8.254665592450943450e+02
6.509130125798867539e+02
5.067732442477723112e+02
2.959714506936981593e+02
5.995274536335004996e+02
7.314382915195025134e+02
7.406639247094962002e+02
-1.118496217024414818e+03
-3.120225344782125376e+03
1.127680142318540675e+03
2.788087072164209985e+03
2.953032967408174045e+03
2.434541928040149287e+03
2.018139205409716396e+03
2.262900300914177478e+03
2.375611567560720232e+03
1.905804836933991055e+03
1.098489448927040030e+03
2.154663077912152005e+02
3.336706536472133848e+02
4.580776930389721429e+02
5.603154260972214615e+02
1.295923254126356142e+03
1.534728919948067869e+03
1.414188159111717596e+03
1.443788462245760684e+03
1.673166957450321206e+03
2.003238658579916546e+03
2.263019371849695744e+03
2.358296582849809511e+03
2.785122173070305053e+03
3.343919974300531521e+03
3.673500691743366588e+03
3.539897420127343594e+03
3.123715421533564950e+03
2.903969642498270332e+03
2.788524319486329205e+03
2.436391876624295037e+03
8.745419418789912243e+02
1.118782118542297610e+02
6.312996291466813545e+02
9.797336661143561969e+02
1.385156900948506518e+03
1.611573759469066772e+03
1.931975327912700095e+03
1.884228503961717252e+03
1.854374532016160174e+03
2.350412451480416621e+03
2.657256115535437402e+03
2.900881299933287210e+03
2.890286992124631524e+03
3.154379096058560663e+03
3.145113395382210456e+03
2.918536626927214002e+03
2.520526407360423491e+03
2.190036566120681528e+03
2.064099051448616592e+03
1.760572782898971582e+03
1.632415220281495522e+03
1.379562095241580664e+03
6.519795674188177372e+02
-1.383423095369837199e+02
1.946124941939303312e+02
2.468200286357638618e+02
-2.780827659068016146e+03
-7.493364737022733607e+03
-9.858786460224569964e+03
-9.625000918589874345e+03
-9.479072389069635392e+03
-8.955967294276902976e+03
-8.319662542751533692e+03
-6.221250511187779921e+03
-6.848664575115028128e+03
-8.456874985062606356e+03
-8.498017405038384823e+03
-8.305057245693806180e+03
-8.501040598735653475e+03
-8.742889777069116462e+03
-9.063615854406158178e+03
-6.312316222679900420e+03
-4.295066951354579942e+03
-9.059870524435022162e+03
-9.707716156787168075e+03
-8.377556945907843328e+03
-1.014391824345527425e+03
2.796800176046317119e+03
3.121082111491718933e+03
3.051473088285385984e+03
3.276920927799078527e+03
3.910455039193724133e+03
4.047098761113082219e+03
3.977878954369171424e+03
3.527807582816804370e+03
3.334915839269884145e+03
3.199217304657494878e+03
2.991757887637572367e+03
2.876539353258332540e+03
2.304539241383261469e+03
1.663820585742293815e+03
1.333368938415049115e+03
9.021561907994828289e+02
7.432143459954892251e+02
8.015776038007820716e+02
1.182332237145407589e+03
1.367585931632796246e+03
1.512335926652392118e+03
1.543576391231334583e+03
1.656317476471781674e+03
1.709637318983803652e+03
1.941563163696309402e+03
1.944160265867523776e+03
2.103445581615447736e+03
1.918431626955755291e+03
1.998290933520815997e+03
2.022050560355402695e+03
1.528668075553925974e+03
1.081140551349155885e+03
8.695521645966288133e+02
6.889561216504957883e+02
5.043546707227814636e+02
2.057531505758412891e+02
-1.538463578818518158e+02
3.163921259265062602e+01
2.382806271938442535e+02
3.671324560726101822e+02
8.822772755370917821e+02
1.306842349072059051e+03
9.322592549972954430e+02
7.256670123673661692e+02
1.109905848126440333e+03
1.086089299607267321e+03
1.214319391950334875e+03
1.258665421870567116e+03
1.384054558684523499e+03
1.319586528733461137e+03
1.811793514927382773e+02
-1.419233385236879712e+03
-7.066406154008259364e+02
-4.322334885523270032e+02
-6.960770599188919050e+02
-1.235168020739321946e+03
-1.190492738539317543e+03
-7.049621081073829600e+02
-4.225617547419021207e+02
-3.042884342544920173e+02
-4.660562919920299123e+02
-1.988388872198144099e+02
-3.965478305042329055e+01
-3.034092323025780047e+02
1.596264448027274874e+01
4.334804123448256519e+02
2.041438212019968148e+02
-1.100822298920087583e+01
4.920764931369577084e+02
1.069452769239358076e+03
1.006060490345394328e+03
