-8.846236260649795440e+03
-9.604778287852697758e+03
-1.108741144016385078e+04
-1.224590785453985518e+04
-1.149819292132979353e+04
-9.906272749766849302e+03
-6.019049231489087106e+03
-4.158358695826132134e+03
-4.690939482201602914e+03
-6.588570038209211816e+03
-6.374260813898821652e+03
-3.108907526831719679e+03
-4.674169889934938737e+02
-1.864900796334961441e+01
-7.575538384228374298e+02
-1.616888055083719337e+03
-3.432289204325490118e+03
-5.289929326064474481e+03
-5.512721755260031387e+03
-6.007676449169386615e+03
-6.192759212222128554e+03
-6.101846543909160573e+03
-5.277780669746271997e+03
-3.787157454089085604e+03
-1.476752982648135003e+03
5.303983367916105180e+02
2.192244441533674035e+03
2.506942904687672126e+03
2.412051358266131501e+03
2.264649691562257431e+03
2.091891176803907911e+03
2.181851785346192628e+03
1.642848267954504536e+03
2.310758669461417412e+03
3.306663299890909457e+03
4.393610238574994582e+03
3.937955713160331925e+03
2.372840176897611400e+03
9.035073794088402792e+02
1.069684556281110417e+03
2.294627646583087881e+03
2.349843918555133769e+03
1.159189263407530916e+03
1.141831132907932897e+03
2.837894782078898061e+03
4.216640378881065772e+03
4.080093516888342037e+03
3.496836815734488482e+03
4.002884092227012843e+03
4.163066379623767716e+03
4.556896381225067671e+03
6.128478045417345129e+03
6.639719316847625123e+03
6.181051920252538366e+03
6.142746063424036038e+03
6.843541797766819400e+03
7.062683926406769388e+03
6.371319480674903389e+03
4.932402345777813935e+03
4.043404684374624139e+03
3.109287838195199129e+03
2.779088230161787578e+03
3.261844901911358193e+03
3.654687252476991489e+03
3.564806355846243150e+03
3.472261358668366938e+03
3.186172052179436378e+03
3.714736487936425419e+03
2.975110845795918067e+03
1.576401731088068345e+03
1.733640419101870748e+03
2.559962009651279459e+03
4.236469471695926586e+03
5.787315445810302663e+03
5.201575162385791373e+03
3.218287069595360663e+03
-3.974272339407782511e+02
-1.205149251543748079e+02
1.624090072793315812e+03
1.912313426385311914e+03
1.505138243136696701e+03
2.269711478767352673e+03
-6.718216691421520181e+02
-8.794445761305075848e+02
1.316859205464006209e+03
1.157121204658714078e+03
1.353558894247150306e+02
2.287615736005180679e+03
6.129876367307768987e+02
2.043489370233070304e+03
3.898144850218103784e+03
2.036974630817137950e+03
2.224048558318635969e+03
8.333987448099625226e+02
1.310973878531944138e+03
1.238762153237103348e+03
-2.822262518331409865e+03
-1.891053110123898932e+03
-3.213692836338193956e+03
-3.217177839427796698e+03
-2.456570184141333357e+03
-3.516824811413254793e+03
-5.138911283194947828e+03
-3.811018807243196079e+03
-5.577224653025124098e+03
-5.722450967669335114e+03
-3.029798302893587334e+03
6.437199653380271229e+02
-1.618462164539294292e+02
-9.205606385419032449e+02
6.784992089576959415e+02
-1.677643815492754584e+03
-1.972015144785446637e+03
-2.933764357238525463e+03
-2.830958938613622195e+03
-2.288637498285590482e+03
-1.103962184431270316e+03
-1.590726167890141198e+02
-7.430134255157466896e+02
-8.739131114526464899e+02
-4.658575473418416664e+02
-5.997858969986568809e+02
-1.629779724534277648e+03
-2.658987333423096970e+03
-1.915535422482832246e+03
-3.694967977743496590e+02
8.021291865848071438e+02
1.094135902814429215e+02
-2.059780713250248937e+03
-2.405632582332697439e+03
-1.251241616186081274e+03
2.783104557174324896e+02
1.714933880575631292e+03
2.584501995166785036e+03
2.240941423882929485e+03
7.871473382217860717e+02
-2.411490457966055772e+02
-1.416987833404584535e+03
-2.249400307500854069e+03
-1.667353997996120142e+03
-1.513354766568139667e+03
-1.925481283802379494e+03
-2.541037557545479103e+03
-3.044850117983854489e+03
-3.765969905593822659e+03
-3.275178681424835304e+03
-2.251964410363716524e+03
5.946257872290357227e+02
3.651704715240895439e+03
4.031012182586750441e+03
2.892520492053443832e+03
2.285143405149355658e+03
2.932866676667023512e+03
2.042404567982848675e+03
6.024142032781284115e+02
3.361734558881938710e+02
-1.425587200699102652e+02
-6.709864939275317965e+02
-4.092668560077674442e+02
-2.875135783352943690e+02
-1.179562088477236330e+03
-1.270859779438255600e+03
-1.088424348637029425e+03
-6.089970098971896277e+02
-1.340913952395439992e+03
-2.884618515403793481e+03
-3.168041444233910170e+03
-2.107983078940268570e+03
-1.611645337518330280e+03
-1.536141125324131281e+03
-5.185513248003085209e+02
3.188154130227393125e+03
4.993786007665129546e+03
3.824233339198573049e+03
3.899457920743945124e+03
5.009490261786315386e+03
3.493216768440843680e+03
-3.525840004747778949e+02
-1.839961112354721536e+03
-1.004940035670416364e+03
2.024244056783443284e+02
-3.619646800702421388e+02
-1.282212466896901105e+03
-1.039313020933033386e+03
9.717026062820273182e+02
2.993795869353751186e+03
4.015921643496817069e+03
5.014045640846406968e+03
5.548192314457602151e+03
4.111327090147146009e+03
3.603612452236876607e+02
-1.796711095667675181e+03
-2.541858762456789009e+03
-1.563070267970506848e+03
6.656416615571240527e+02
-6.487153650549819304e+02
-2.760109243163448355e+03
-4.364539940405721609e+03
-4.207157901972195759e+03
-3.566153253581205263e+03
-4.429576223217396546e+03
-4.278313227121930140e+03
-2.540473642682934951e+03
-1.675050343060032901e+03
-2.236010489762798443e+03
-1.573355828863503120e+03
-5.610458324137550790e+02
-1.257010202488903587e+03
-2.979322858097139942e+03
-3.444991007125464421e+03
-4.700019818533014586e+03
-3.303481451765428574e+03
3.088745457438406902e+03
5.029743503356714427e+03
1.688443829474531640e+03
9.288710792820971847e+02
3.264068647742508347e+03
3.488955188589602585e+03
2.769502867767007956e+03
2.167711231849969408e+03
2.236599661308736358e+03
2.398130430526504369e+03
2.045329122688861162e+03
1.012306623972764442e+03
-3.955130025519689063e+00
9.365461545272185049e+02
1.946921538339832978e+03
2.368259471996132561e+03
2.662520330396089776e+03
2.205698971843788513e+03
7.189063546047877935e+02
6.491243752761388350e+02
2.508313941651349978e+03
3.222653473773283167e+03
4.253080774937220667e+03
3.755564933656541598e+03
3.176161166722381495e+03
4.385914306797238169e+03
4.861805388404281075e+03
3.442812335256102415e+03
1.713035271462895935e+03
1.060497114797325139e+03
2.231194380142668763e+02
2.959469803203929246e+02
1.037030128150299561e+03
1.297365114129070889e+03
1.293916953197361863e+03
1.331752838972087375e+03
1.716967678678921402e+03
1.084553828176944762e+03
-2.734842826907940889e+02
3.621689425303648591e+02
8.087952188981644213e+02
5.922231804504325510e+02
2.922709731722296738e+02
1.179917803265592056e+03
2.209514600335538489e+03
1.699275990181797169e+03
8.248068374292201952e+02
2.641775601958722319e+01
-9.160522770598278157e+02
-1.235996344093624430e+03
-1.444324005794208233e+03
-2.287974921375855047e+03
-2.302894634314218820e+03
-9.068183651175042996e+02
-5.882755031856514734e+02
-1.623240385789146671e+02
1.555299171604675621e+02
2.694407152737131810e+02
3.489638785435295265e+00
1.538535906673948261e+02
1.156067619384964019e+03
1.209146159045737249e+03
5.043578227544190895e+02
-5.067625190374433686e+01
3.002156363724648145e+02
-1.919671276308148151e+02
-7.917432829815159039e+02
-3.480607668794631877e+02
-2.623822080970419393e+02
-2.798419467180027027e+02
-1.380329885689328194e+03
-1.789147641808765002e+03
-3.590856307088173480e+02
9.812685249403281205e+02
8.048729600464976102e+02
4.821519116232806255e+02
1.092983162637654232e+03
2.157306387676423583e+03
3.027297565522407695e+03
3.169780482699816730e+03
2.701712389342886581e+03
2.142303290783910597e+03
2.208566517720360480e+03
4.019283669470007112e+02
-1.845703157980490005e+03
-1.515196824312492708e+03
-1.289786348350459093e+03
-8.465716993907242340e+02
-1.408828067925008781e+03
-2.296537833910347672e+03
-2.894842763096369254e+03
-2.181977190263932243e+03
-2.062204099182719972e+02
2.136633168370066755e+02
-9.011843959880297916e+01
2.662667378329061307e+02
4.279630595939776185e+02
1.438430626472434369e+03
2.211505950114046755e+03
2.381252005113228279e+03
2.190230431407354899e+03
2.204862483515260010e+03
1.791803023976369332e+03
1.466431120597846530e+03
1.285028235170447942e+03
8.373078470112546938e+02
-2.628052641763683894e+01
-4.560703428864644025e+02
-4.856019490830580594e+02
-5.509695907376815285e+02
-1.123084655392325203e+03
-1.403400909090986488e+03
-3.855194176536082864e+02
6.638723669276101873e+02
6.224501608245859643e+02
5.139755998251091569e+02
-4.591947014826769369e+00
4.167072416720718024e+02
1.057557788316650658e+03
9.933898151383129971e+02
9.446641589400754810e+02
1.377029975481321799e+03
1.975600800282596083e+03
1.498625812553882952e+03
-5.033419834289146877e+01
-7.545728350542128737e+02
-6.026703336241820352e+02
-8.213818297143826612e+02
-1.042950390375144025e+03
-1.093582527112365142e+03
-1.247007199219583526e+03
-1.402359187932748455e+03
-1.460815020286324852e+03
-1.130189719379437520e+03
-6.861764547031900747e+02
-8.362375523439970948e+02
-4.472764514604995725e+02
2.659437245867413253e+02
2.328192548556464203e+02
3.464157179184115307e+02
1.497567863505776700e+02
3.529300420789065811e+02
-3.000982584627815797e+01
-3.506341550979400381e+02
-1.262911749897632944e+03
-1.715134964367438670e+03
-1.036863315030952890e+03
-1.554247903533474982e+03
-2.561489548501214813e+03
-2.639172645599830048e+03
-3.129081018782150295e+03
-3.496111261730410206e+03
-2.985679722107709495e+03
-2.501569763759984653e+03
-2.299367686652381053e+03
-1.918481934747198011e+03
-1.679715420378563749e+03
-1.984040632190913129e+03
-2.471896878055487377e+03
-1.876406865362992676e+03
-1.192553837220469632e+03
-9.646305886090044623e+02
-9.320172668705096157e+02
-2.217322339465300956e+03
-3.936099776790753822e+03
-4.177736644344904562e+03
-3.770674455539643077e+03
-3.846310543051385594e+03
-4.231134220930635820e+03
-4.661503629570796875e+03
-5.264253693414651934e+03
-5.402462468493481538e+03
-5.409802574131848814e+03
-5.518704027864438103e+03
-5.101096436557835659e+03
-5.114877900589812270e+03
-4.965599798795851711e+03
-4.698509518331789877e+03
-4.222686822522637158e+03
-3.972276417669132570e+03
-5.519641790029589174e+03
-6.509677674010507872e+03
-7.172553153070343797e+03
-5.612232162243250968e+03
-7.542381358836956679e+03
-7.240670025770006760e+03
-9.132330895735911326e+03
-8.085592194616128836e+03
-8.134094495347147131e+03
-7.966512344255627795e+03
-1.014257438063394147e+04
-1.085192305785357712e+04
-9.247545643428649782e+03
-9.423344075382721712e+03
-9.139325488842152481e+03
-8.660579613298015829e+03
-5.957097443267539347e+03
-5.347980117380157935e+03
-8.152217201192931498e+03
-5.668619359822856495e+03
-5.255892613231691030e+03
-6.699546001855429495e+03
-6.487443256834937529e+03
-7.265841554929614176e+03
-7.720306508906543058e+03
-8.278587810521758001e+03
-6.706474189807871880e+03
-5.749824671069177384e+03
-7.246545125792612453e+03
-9.266737043875462405e+03
-9.091132926156005851e+03
-6.971458609650950166e+03
-6.257721660343973781e+03
-5.963043768416376224e+03
-5.637411643424073191e+03
-3.973743906755427815e+03
-3.155481856817539210e+03
-2.968535205152129492e+03
-2.133886858677845794e+03
-7.497150456274991939e+02
-3.198419962307640318e+01
-2.735239810005612071e+02
9.880668848152261319e+01
3.549921595408317216e+02
2.395272946203975550e+02
1.301018246106073946e+02
-1.392532441931502092e+02
-5.167055701968573658e+02
-7.316853265357058262e+02
-5.995041310268792358e+02
-1.434412203282627445e+02
1.023168412639049052e+01
2.341286910551569918e+02
5.989754621147359330e+02
9.558759327336304068e+02
1.775784660044331758e+03
2.046155726805045788e+03
2.332644818791479338e+03
3.018590345661611991e+03
4.069476051068596917e+03
5.753059088111676829e+03
7.007006780439260183e+03
7.317769175758039637e+03
7.026749356345256274e+03
6.745448915265555115e+03
6.922621243163783220e+03
6.656630880271089154e+03
6.728886129882289424e+03
7.217234806917287642e+03
7.644510876043923417e+03
8.409900829742882706e+03
1.025226130115277920e+04
1.158801771696910146e+04
1.255059352127666534e+04
1.374637198227664339e+04
1.345693025184050748e+04
1.387458680433749578e+04
1.502264155476386077e+04
1.518977820377676653e+04
1.503145989524307151e+04
1.561852798554875153e+04
1.584181204970878025e+04
1.655781690558160335e+04
1.696902949063060078e+04
1.664473343149508946e+04
1.575804494127917314e+04
1.492030181565410567e+04
1.459376322300440552e+04
1.411583012113283257e+04
1.431797837178898408e+04
1.503747180322590248e+04
1.587578157844621819e+04
1.586731252366111403e+04
1.630814907265188231e+04
1.804367071329566897e+04
1.924339725352705500e+04
1.922055927455282654e+04
1.963134246499338406e+04
1.971632223924063146e+04
1.927311191009653339e+04
1.891910534380426179e+04
1.930946945277262785e+04
1.938738670921794619e+04
1.865556255898829841e+04
1.894289797362890749e+04
1.879352376644088508e+04
1.737555995505803367e+04
1.624559890360967620e+04
1.514702076993489391e+04
1.398417314113911016e+04
1.220862090530232308e+04
1.013193903261245759e+04
7.800674886483209775e+03
5.019403014463647196e+03
1.285892188186191561e+03
-2.207167863749077696e+01
2.325931915154072158e+03
3.256487878285478473e+03
-9.556977983508030547e+02
-6.201842035799661971e+03
-7.994195275515101457e+03
-1.059506743802554593e+04
-1.806869698392400096e+04
-2.455625033954442915e+04
-2.077183781656034262e+04
-1.962249627399937526e+04
-3.034035455219327559e+04
-4.006355441790410987e+04
-3.874525086293907952e+04
-3.579354037583120953e+04
-4.181152063111867028e+04
-4.840611076503028744e+04
-4.569928243276636931e+04
-3.971090749444608082e+04
-3.268397048772226844e+04
-2.213528567790087254e+04
-1.534466849868012650e+04
-2.220600667505283491e+04
-2.736813743555375913e+04
-2.288565640997581431e+04
-1.438916147945913690e+04
-2.413510892943155341e+03
6.607548237204504403e+03
6.195323287831430207e+03
8.342006955858066704e+02
-5.735282433915290312e+03
-1.151164784040404265e+04
-2.254446090491872383e+04
-3.433733871485531563e+04
-4.336683661869926436e+04
-4.038433047785684903e+04
-2.956216988418875917e+04
-3.096291990209109645e+04
-3.361700921268643287e+04
-1.733457002192135405e+04
1.782324529625548166e+04
5.001735580566438875e+04
5.057840285338889225e+04
3.672287423223064252e+04
2.615343769148501815e+04
2.898686080344276706e+04
3.755391756495118898e+04
4.566029122754540003e+04
5.475384009042127582e+04
5.054150744178968307e+04
3.431629335441150761e+04
1.258811445426325372e+04
-4.729061524531763098e+03
-1.618642866933212281e+04
-2.543121508343292953e+04
-3.384135831319467252e+04
-3.132083264290024454e+04
-2.343873222623604306e+04
-2.123598973742335511e+04
-2.106963048677213010e+04
-1.869758783744019092e+04
-2.034686457608991986e+04
-1.589941544633175545e+04
-7.261719967503953512e+02
2.438999512131784650e+04
3.299811032564612105e+04
1.105121526873144830e+04
-9.561611105106328978e+03
-1.013137512792801135e+04
-3.440076255440937075e+03
3.971434363740218487e+03
1.552733582906301490e+04
2.423289372523446946e+04
1.345690242256762394e+04
-1.181983953488838961e+04
-3.565536283960547735e+04
-5.389456982823450380e+04
-6.278739334363315720e+04
-4.432479736633157154e+04
-2.485087354573699849e+04
-2.524771047241957058e+04
-2.118726904053830367e+04
-9.260502944745829154e+03
-3.082666898430485162e+03
1.045011933009290988e+04
5.176978597530039224e+03
-7.216163585392926507e+03
-1.627047370486344153e+04
-2.973318981988812448e+04
-3.423849569679318665e+04
-4.105758143986829964e+04
-4.943466996893382748e+04
-6.477697572857344494e+04
-7.016883645372113097e+04
-6.550159399470876087e+04
-5.286561406910181540e+04
-2.891916378110275764e+04
-1.909631803701655144e+03
8.055474320510015787e+03
8.879721266820883102e+03
1.166169533861410127e+04
1.372892351034327476e+04
1.109091940053001053e+04
1.225813079509449744e+04
1.593006380798602186e+04
2.090807282790206591e+04
2.242659107927228979e+04
2.708996789099407761e+04
2.812936669958562197e+04
2.805207251273371730e+04
2.858336494878225858e+04
3.209538287438217594e+04
3.985632076144462189e+04
4.385033370853080851e+04
4.541342481729232532e+04
5.120365198410426092e+04
5.330916440894763946e+04
5.199197342089575977e+04
5.026097433843155159e+04
5.287712703518891067e+04
5.303033910264523729e+04
5.146942725833119766e+04
4.338019704195510712e+04
3.920849376708149066e+04
4.973513759916435811e+04
6.755894687271308794e+04
6.803171096559445141e+04
5.857603390036020573e+04
5.088646142880913976e+04
4.491564953835280903e+04
4.535020376848533488e+04
4.628863821447174269e+04
4.293050426103224163e+04
3.783932653652723820e+04
3.394649262154546159e+04
2.800945368997556579e+04
1.993056121615727170e+04
1.309117402129794391e+04
1.179873734448060713e+04
1.955474155303950101e+04
2.235056938322594215e+04
1.521343555181404190e+04
3.690765595954741457e+03
-3.480112234870762677e+03
-1.359969879703340212e+03
4.012221052173004864e+03
1.169188044630431068e+04
1.381000159574205827e+04
9.099959744859137572e+03
4.561750275536174740e+03
-6.313876171381374434e+02
-5.659458548723278909e+03
-9.686179012015933040e+03
-1.564283657547597613e+04
-2.439146823323954959e+04
-2.721575348625304105e+04
-2.276371789485574845e+04
-1.982626749038239723e+04
-1.925059316501559442e+04
-2.324555582752838745e+04
-2.962973033918034707e+04
-3.540653812547646521e+04
-3.882188948755141610e+04
-2.930255475716678120e+04
-2.226058333769876481e+04
-2.378495844611323992e+04
-2.541144064678660288e+04
-2.552592721303804865e+04
-2.497704749066539807e+04
-2.395799846553686803e+04
-2.691366436884886571e+04
-2.925288287133049016e+04
-2.803855590018433941e+04
-2.565672411348435344e+04
-2.530348054719626816e+04
-2.536782856677270684e+04
-2.309972072146019855e+04
-2.274626261996119138e+04
-2.197638380617845542e+04
-2.351398147652356056e+04
-2.613599905154420048e+04
-2.668334825083146279e+04
-2.676187289839445657e+04
-2.682433879144760431e+04
-2.350865919633643716e+04
-2.208965363641407384e+04
-2.183809628725246876e+04
-2.048980996030303504e+04
-1.908651900113481315e+04
-1.936497221018600248e+04
-1.868892728215573152e+04
-1.780215978839986565e+04
-1.760640163098234916e+04
-1.879830833292107491e+04
-2.049957714941131417e+04
-1.913287577803808017e+04
-1.675975079512057346e+04
-1.581177380821814950e+04
-1.321442205486140847e+04
-1.206825622374883460e+04
-1.051477322526500029e+04
-1.002050696454265926e+04
-9.496951297113799228e+03
-1.045548708641288249e+04
-1.202755126039643619e+04
-1.386743046080607564e+04
-1.457644631218669201e+04
-1.654494817227670501e+04
-1.826810290128659108e+04
-1.570625590729726355e+04
-8.542709984131641249e+03
-1.712715243857903033e+03
-7.565009455065327302e+02
-1.440318830651406188e+03
-3.769314476446502795e+03
-6.031601573057460882e+03
-7.489290484012977686e+03
-7.353315598899754150e+03
-1.428752931112999704e+03
7.053378549880652827e+03
1.331524111217818427e+04
1.627489326940478531e+04
1.631929301287283670e+04
1.678256675970672222e+04
1.846589278053603994e+04
1.989044542434068353e+04
1.930442691158341404e+04
1.885399607051962812e+04
1.665941133394865392e+04
1.390790573367652541e+04
1.222270983520134359e+04
1.129701658844953090e+04
1.253106905763991745e+04
1.472318965691519588e+04
1.379677946968409196e+04
1.225214839967730040e+04
1.130552392490757848e+04
9.644330763890060553e+03
7.374030005494825673e+03
6.526058005911989312e+03
9.520916580923887523e+03
1.184812101430347866e+04
1.123525621793807295e+04
9.275774178565130569e+03
1.037912957813184585e+04
1.646889993613231491e+04
1.899650564553071308e+04
1.826345216192261432e+04
1.875133072925990200e+04
1.884067772275514290e+04
1.765104868239653661e+04
1.645693838404656708e+04
1.527201741343295544e+04
1.372797730455488818e+04
1.223840768072168794e+04
1.172293466045401874e+04
1.250735127609174197e+04
1.260310110724514197e+04
1.167835707564581026e+04
1.020572293387013633e+04
9.373189226678743580e+03
1.016660600548359798e+04
1.084651740088897168e+04
9.926589609083315736e+03
8.684994216409912042e+03
7.945476734755045072e+03
8.308779146206059522e+03
9.331629036352715048e+03
1.017145703861440415e+04
9.249706363262062951e+03
8.212065778042027887e+03
7.605986864151760528e+03
6.972696007547430781e+03
6.322794901700695846e+03
6.459006535732607517e+03
5.371481508573586325e+03
4.492336927752677184e+03
4.364820876785994187e+03
4.417603589358710451e+03
2.936074688727490411e+03
2.561615328084406428e+03
4.131037268199489517e+03
5.001432039444395741e+03
4.185689056393141072e+03
2.259112162284915939e+03
1.099796090543244645e+03
1.241636368618813549e+03
2.022214847616640782e+03
1.277966848406023701e+03
-6.371481635490304143e+02
-1.866584083428792610e+03
-1.908994309236086565e+03
-2.303872306108563407e+03
-5.416724916827582092e+03
-9.084463546894274259e+03
-9.820668014815539209e+03
-8.114617259042349360e+03
-3.263085966979531804e+03
1.199649891950406072e+03
3.079077422056723663e+03
4.861743867019454228e+03
4.624827483473334723e+03
2.846694029909548590e+03
1.220979651305204243e+03
-6.263221792225658646e+02
-1.405118156810870687e+03
-1.748234852557949580e+03
-2.428444093355412406e+03
-2.323648246699677202e+03
-2.396750495324215080e+03
-3.093034610126134339e+03
-3.809394785772408341e+03
-4.685531790946698493e+03
-6.147205028966081954e+03
-7.068920614996511176e+03
-7.514339616872028273e+03
-7.277370799135878769e+03
-7.854166911198791240e+03
-8.757474460476336390e+03
-9.209883599989812865e+03
-9.013274420164463663e+03
-9.039730397200804873e+03
-9.038500715856545867e+03
-8.959145380986996315e+03
-1.032735957424558728e+04
-1.250456877347377849e+04
-1.344349470464937440e+04
-1.273534832979260500e+04
-9.160687659071711096e+03
-7.847603226426508627e+03
-7.921675514692899014e+03
-8.437612922493213773e+03
-8.981104209868224643e+03
-8.887173819883822944e+03
-8.748512146830136771e+03
-8.650578691490631172e+03
-9.043013306299777469e+03
-9.136605973328016262e+03
-7.805915959325026961e+03
-8.243852385027403216e+03
-9.025420379562130620e+03
-7.990616853436908968e+03
-7.561127519199439121e+03
-6.820525703584135044e+03
-6.164133436456666459e+03
-5.846524731850457101e+03
-5.382194796422140826e+03
-4.656032935215060206e+03
-3.424224170787285857e+03
-2.901269613945024048e+03
-2.872881179799231631e+03
-3.065184200290560511e+03
-1.948239035941325710e+03
-1.421523945514654088e+03
-1.727031372342289387e+03
-1.726007487066618523e+03
-1.918064565256801870e+03
-1.879709802381441023e+03
-1.856132651149697267e+03
-1.552038221306332844e+03
-7.309226923461636716e+02
-3.542036746357350694e+02
2.456926441710430993e+02
1.564763000346784111e+03
2.565470522831412836e+03
2.743814061486070386e+03
2.811750755970487717e+03
2.842137807533714749e+03
2.668557684686832090e+03
2.708259833924889790e+03
2.288227859834763876e+03
1.654455252846721123e+03
2.238356570904979890e+03
3.377959585174885888e+03
3.656432694671344507e+03
3.694728279930628105e+03
3.439336106904417193e+03
3.540211934162066427e+03
3.454396577595697181e+03
3.509400029479520072e+03
4.052903803590154894e+03
4.158621248418453433e+03
4.496581237444107501e+03
5.234862508869627163e+03
5.471270783366470823e+03
5.862858936362947134e+03
6.238482416324264705e+03
5.931470047100254305e+03
5.541717080995435026e+03
5.853444802374041501e+03
5.173779435566613756e+03
4.282667221391940984e+03
2.817221029146878664e+03
-4.338226892239661403e+00
-2.313098286228422239e+03
-2.943399747189722802e+03
-2.475111626421033179e+03
-3.220108591550757410e+03
-4.209595391480995204e+03
-4.104993635823541808e+03
-3.866576886369894055e+03
-3.533960798501954287e+03
-3.767717697534077615e+03
-4.378268349446439061e+03
-4.648343666519831459e+03
-3.817451116777829611e+03
-2.062577636586690005e+03
-1.104623299090340879e+03
3.041139020726266651e+01
-2.599526072055816712e+03
-4.706260526804450819e+03
-5.325518034803234514e+03
-6.612692856927372304e+03
-7.080459137349601406e+03
-7.882896515173047192e+03
-9.103919086580752264e+03
-8.908207591145657716e+03
-9.009607368367247545e+03
-9.861057854157183101e+03
-9.928705639938429158e+03
-9.054708986461180757e+03
-8.892005802431584016e+03
-4.925112116572699961e+03
1.545915122140134372e+03
3.336947770020670760e+03
2.462849621384985312e+03
9.245743412221669644e+01
-1.847949063400095383e+03
-8.752721760890721043e+02
2.090193071301915552e+03
2.994248890898884383e+03
3.271920822856509403e+03
3.804125031293545362e+03
3.958634396875058428e+03
3.611572628989452369e+03
2.919839890916583499e+03
2.367575594527773319e+03
2.319871908845222606e+03
2.288664468906421916e+03
2.614768157206799515e+03
2.742136835547506962e+03
2.981506402561473351e+03
3.408866493129205537e+03
3.471309536416816627e+03
4.022785408585234563e+03
4.583247096929994768e+03
5.050815530654694157e+03
5.118386975303469626e+03
5.068894125868323499e+03
4.951400974834141380e+03
4.184043749288870458e+03
2.771862025911351793e+03
1.801530075991066951e+03
1.283939677802877213e+03
1.208162958413126034e+03
6.741651092316635641e+02
6.190885125522208909e+02
3.379907062499497101e+02
4.291290378345858016e+02
1.095401742778383323e+03
4.899363076212766259e+02
2.188418938577062534e+02
9.112395416901966883e+01
-6.117973169099450814e+01
1.033186613505633204e+03
1.609281075218792921e+03
1.957808575930205734e+03
1.901404622634609268e+03
1.733064933978572981e+03
1.755130163902742652e+03
1.458604703158296388e+03
8.378037092716839425e+02
1.219662351963092277e+02
-6.769654972092334901e+02
-1.662049554323729353e+03
-2.184645274627566323e+03
-1.809770829996146176e+03
-1.612419376416336036e+03
-2.198606972457855591e+03
-2.892946001995070219e+03
-2.310235524830602571e+03
-1.355382520124155462e+03
-4.904692574144939954e+02
-7.073342515405151971e+02
-5.507138873018727736e+02
2.580093687866721552e+01
1.022876089623344456e+02
-2.912647600237808092e+02
-8.587720350193005743e+02
-1.135266529657079900e+03
-1.375557915642907801e+03
-1.759362072002647665e+03
-2.580701784608533217e+03
-3.312378099069267591e+03
-4.705001999939127927e+03
-5.782404304946472621e+03
-6.570626462489271034e+03
-7.364815126504693581e+03
-6.692833991513069122e+03
-5.379345089032940450e+03
-4.513043976002543786e+03
-3.316038171556496309e+03
-2.024628375911095191e+03
-1.077443828350636977e+03
-6.550677445826412395e+02
-2.013300882868095982e+02
2.259420419093431462e+02
-4.931065907925760143e+02
-9.272888505991620605e+02
-5.334443208107489909e+02
-6.563776782460623735e+02
-1.289931662587403025e+03
-9.400425534512645527e+02
-3.826199324097321437e+02
-1.240430977972855544e+03
-3.105261897687416877e+03
-5.873950491699785744e+03
-8.103399966414006485e+03
-8.591599684076822086e+03
-9.471386410733299272e+03
-8.865365174606820801e+03
-6.373340941061785088e+03
-3.765296265006195881e+03
-3.714080501364835385e+01
2.823190990665528716e+03
3.250756982986076764e+03
2.893894337036454090e+03
4.005710305423096088e+03
5.278305315452669674e+03
5.873838008932863886e+03
5.435417409674262672e+03
5.070059142065683773e+03
2.447970901748753022e+03
2.429222258029411933e+03
3.689911395603576238e+03
3.326163679777378547e+03
1.939191162315935799e+03
1.834003511719546168e+03
3.262502855835802620e+03
4.314861861506131390e+03
3.755286137495730145e+03
3.548941145910265277e+03
3.982915095655376263e+03
4.183264108642037172e+03
4.375963468837780965e+03
4.912159864264987846e+03
4.306035099839393297e+03
3.897699394223903710e+03
4.459080043408672282e+03
4.482245578857203327e+03
3.793504390070792851e+03
3.040882498775664772e+03
3.165230076933189594e+03
2.831419110682292285e+03
1.285102307104706142e+03
7.352261349238719959e+02
5.179994286898561313e+02
-5.835716217149185923e+02
-4.263855328660517898e+02
-3.683463879053836081e+02
-1.358324871911814625e+03
-3.801826477685905274e+02
9.559947299807465697e+02
1.425110685275129299e+03
3.980169119839949417e+03
6.057124247753153213e+03
5.454911955848124308e+03
4.452568724165279491e+03
4.940100395563737948e+03
5.360557358091322385e+03
5.693966160332385698e+03
5.804167263856146747e+03
5.131148804420839042e+03
4.899841641043594791e+03
3.972286129081731815e+03
1.768431038429015643e+03
1.607063637718650170e+03
3.373055999020823492e+03
3.342372161605047495e+03
2.734087424152812218e+03
2.297135927331911716e+03
1.542427982678814033e+03
3.939064331896800013e+02
6.174778640182066880e+01
3.968705894422413394e+02
7.039226303454513527e+02
8.556986158694595588e+02
-3.328197818140575919e+02
-1.120693968705644693e+03
-1.908888394416647714e+02
-1.960784140709064260e+01
-5.460820404195898163e+02
-1.062465374546517296e+03
-1.127770644915496860e+03
-1.086165793590007979e+03
-2.387777838993981163e+02
-3.095114683093373742e+02
-9.365742358066820543e+02
5.477073966512605097e+01
-3.955132137244937667e+02
-2.207572173056920292e+03
-3.672520038687416672e+03
-2.104412975583197749e+03
5.396400906335816217e+02
6.044542871906545543e+02
3.489002314735939336e+01
7.839066898675702078e+02
3.864413777777733117e+02
-2.126298574888081134e+02
-5.734350484778240116e+02
-9.190653707713736367e+02
-8.666532850562085741e+02
-7.083586523665604773e+02
-2.018264603279322955e+03
-3.470483083996979076e+03
-3.396122003586399842e+03
-3.399338824403122999e+03
-2.909215017335325228e+03
-2.758810095286281467e+03
-2.670261922957783554e+03
-3.067778780982514490e+03
-4.105431368466302956e+03
-4.491095553066990760e+03
-3.644835787641330171e+03
-2.029774125785979095e+03
-1.853933553260101462e+03
-1.941492055714587650e+03
-1.721526901607275931e+03
-1.813089509582705432e+03
-2.354255396538015702e+03
-2.260148124140100663e+03
-1.708818769051893014e+03
-1.380328891131324099e+03
-2.067696060899264921e+03
-2.661005705918286822e+03
-3.026356113881752208e+03
-3.742807373783042294e+03
-4.048419763570359009e+03
-4.458162214282009700e+03
-4.738122066939843535e+03
-4.578360027059621643e+03
-2.763876740817780501e+03
-1.218745837901350569e+03
-1.190966168776596760e+03
-5.404704352643325365e+02
-4.052721219606384011e+02
-3.414499530631103426e+02
2.490582797093442480e+02
1.243733328428973692e+02
-7.739659591176868503e+01
-1.177207935567358163e+03
-1.193114626515100099e+03
-1.402339184812324675e+03
-2.734083904180732588e+03
-3.665887465369450638e+03
-3.070730901277389876e+03
-2.993732557522906973e+03
-8.651167274662188902e+02
-4.917107130914420736e+02
-4.745499307327896190e+02
-3.472007920151082772e+02
-1.619487957306101293e+02
4.310271590266300024e+01
5.461155052592199581e+02
8.370364307829366908e+02
1.238800213520632269e+03
1.656704557101313640e+03
1.877718182184186844e+03
2.501821470021784535e+03
3.079378163817369568e+03
3.112311504765988957e+03
3.275474522348192295e+03
3.441071454012598224e+03
2.630070876036788832e+03
2.355661097135578075e+03
2.207728130563696141e+03
1.737336967435065844e+03
2.685501189358573811e+03
2.967073505969909547e+03
2.772042122323251078e+03
2.960138470565761963e+03
2.860797003763866087e+03
1.904188256214105877e+03
7.024631825973928017e+02
1.246561195230651947e+03
2.260628091622372267e+03
3.273363036866544462e+03
3.744957105546950970e+03
3.342699148532838990e+03
3.102502394523892690e+03
3.398424522173565038e+03
3.502563972630638091e+03
3.441981764340034260e+03
