-1.371972618741147926e+03
-1.138735447532458011e+03
-1.289195423326737568e+02
7.214320076933836390e+02
1.070346804134378999e+03
1.348891500783116953e+03
1.586087460014410681e+03
1.683884704950547757e+03
1.706244261224160027e+03
9.950910760885419677e+02
3.574028732623172004e+02
1.620802747286851400e+02
-2.899198131024287477e+02
-4.996301746260839991e+02
-3.760975943043666234e+02
-2.543806166478412081e+02
-7.955151768882834631e+02
-1.266476654493116030e+03
-1.356310001430372722e+03
-7.530859973974470449e+02
-6.317641172574369648e+02
-2.423144132245033404e+02
6.371792855227464543e+02
1.467710920174828743e+03
1.970304149763997884e+03
2.129090747279819425e+03
1.242974180722819938e+03
1.321826748316884050e+03
1.667970768910361812e+03
1.415492749090750522e+03
1.551033890694426873e+03
2.368651322901399453e+03
2.146171474213069814e+03
1.238068753058717448e+03
2.159918892530395738e+02
-1.321469313615648957e+02
-1.564529977595147443e+02
-8.734334962712709967e+02
-1.217754650806750533e+03
-8.562694555627577984e+02
-4.275504657611815560e+02
6.387889856142220424e+02
2.009621686326126564e+03
2.612912203745449460e+03
1.990952725647804073e+03
2.441653958472917111e+03
3.048568285844903130e+03
3.398134123379077664e+03
3.891109960962958667e+03
3.401517094508962145e+03
2.604376108318644583e+03
2.021744673247229912e+03
1.776452587393777321e+03
1.303275645277180956e+03
5.840572362096883126e+02
3.601488503825951284e+02
9.737178507833054653e+01
-9.240970165804013448e+01
-1.509230955793080682e+02
-6.450868884633013067e+01
1.018675007945577278e+02
2.353000575445918230e+02
5.198806099467209378e+02
1.928629365836153511e+03
3.110060929565770948e+03
3.464748850985260106e+03
4.358239776500758126e+03
4.805873952698088033e+03
4.537595324508698468e+03
4.119200623245146744e+03
3.124614248741876963e+03
2.587906395871671066e+03
2.413023768022002059e+03
1.720971436278633519e+03
1.016761725893049402e+03
6.142666495186740576e+02
8.145006586224632201e+02
-6.656846139144872154e+01
-1.435927899008578379e+03
-4.021604122212656421e+03
-6.814660490880579346e+03
-6.481087665260833091e+03
-5.562865422036520613e+03
-4.876968826910308053e+03
-4.520332855400419248e+03
-4.002849136014052874e+03
-3.140443846113138079e+03
-2.662123203288646437e+03
-2.829903420485255538e+03
-2.843813762067018160e+03
-2.994909619221449248e+03
-3.528188993924176430e+03
-4.170307092705646937e+03
-2.565470215844906306e+03
-2.197723645075634977e+03
-4.928036939373711903e+03
-5.705451471206027236e+03
-5.738981865094272507e+03
-5.025630994161881972e+03
-4.532336261221076711e+03
-4.563069893733601930e+03
-4.306830963988573785e+03
-4.376499363945594268e+03
-4.334000687499521518e+03
-3.932253871655745115e+03
-3.225332362835436015e+03
-2.121188156231049106e+03
-1.582822439525471509e+03
7.468361916566580021e+02
-6.512971459347055259e+01
-2.166687643790812672e+03
-2.867838101399467178e+03
-3.219588083037883280e+03
-3.886813092665300246e+03
-4.592553728021782263e+03
-4.990860634050097360e+03
-4.457714818290096446e+03
1.558225213013492976e+02
1.535853554923491174e+03
-9.625106123484551972e+02
4.377613166796863311e+02
2.048728112222617256e+03
2.806441288227946643e+03
3.961936506687104611e+03
4.120247505435881976e+03
4.005524521332069980e+03
4.567817502838892324e+03
5.199102052485031891e+03
4.938350715735770791e+03
4.422678420955971887e+03
4.491123759428360245e+03
4.465687897982950744e+03
3.520396196600505391e+03
2.403329206159064142e+03
1.415508762699448880e+03
1.057885815963389405e+03
1.264520454054825223e+03
1.327470895644769143e+03
1.020688293177665400e+03
5.071647703815023647e+02
6.899307433609978943e+02
9.060591274625739970e+02
1.681649523981902121e+03
2.558892730715823745e+03
3.181011757765521907e+03
3.498228693957774340e+03
3.690294601344605326e+03
3.667080312201337165e+03
3.253567881008427321e+03
2.396960290019864260e+03
2.271512046159278725e+03
2.320180796659476528e+03
2.155978912232222683e+03
1.356903964466041543e+03
4.120112774500626074e+02
-7.381785324330108722e+01
-4.796169204664394670e+02
-8.683185361126005546e+02
-3.989117793013138566e+02
-1.305832738503178234e+02
-4.811009385401720237e+02
-1.272046308697520516e+02
8.520399057814136086e+02
1.583638087101902556e+03
2.054282694196872853e+03
2.534137663968963807e+03
2.424443760697696689e+03
2.345218737967947618e+03
2.629155627480136900e+03
2.230102199072143321e+03
1.867488718588576148e+03
1.548055722556246792e+03
1.162545175995393947e+03
9.643212397092103174e+02
-2.008064082651322337e+02
-1.022983944464695696e+03
-1.309131701371305326e+03
-1.542234654351291965e+03
-1.341383671126756553e+03
-1.008561273274859332e+03
-1.177798095080893290e+03
-5.119417904546652380e+02
3.690595929817690148e+02
6.901736030072755739e+02
8.223631250251895608e+02
1.393611103683871534e+03
1.744029147944080705e+03
1.718566969392966030e+03
2.285041432468599851e+03
2.033435125780023554e+03
1.506808897957400404e+03
1.055045240492384664e+03
3.120613366248927605e+02
-3.681215804073301570e+02
-8.505594653538727243e+02
-8.512450692024627870e+02
-1.256171393695499773e+03
-1.563388150764851616e+03
-1.747972257452741815e+03
-1.508886111731344045e+03
-8.481369168367410794e+02
-3.908096997003011097e+02
7.311473697081149226e+01
9.907118837330779115e+02
1.072011616461521726e+03
9.779588821624772663e+02
1.234513771529665974e+03
7.556717325712605771e+02
-9.495740959664736920e+02
-4.101317168789168136e+03
-6.017499257618541378e+03
-6.278208813677350918e+03
-6.601577973871067115e+03
-6.727661787620433643e+03
-6.985382262804229867e+03
-6.958683635951514589e+03
-7.354708756638252453e+03
-7.959559217469172836e+03
-8.037300459703443266e+03
-5.489969038691114292e+03
-5.993847415372023306e+02
2.740933036689936557e+02
-2.229479658163682871e+03
1.280700856597697737e+02
2.151774722776478484e+03
2.224567982240945639e+03
2.422272308651260118e+03
2.508852379752833713e+03
2.666382714800960912e+03
2.394865231435696387e+03
1.969260659758104794e+03
2.101558403947110946e+03
1.183664747274053980e+03
4.625732636877731352e+02
6.161595154060403274e+02
3.872760771377728020e+02
3.779939382025045234e+02
-1.405986928004485890e+02
-1.755294146256642307e+02
-5.359169244292066878e+02
-4.996888330791014710e+02
-1.956350158017141894e+02
1.704212096455455239e+01
5.830746812898754570e+02
8.926035516367268201e+02
1.842563602333104427e+03
2.586002657721804098e+03
2.734032049483147603e+03
2.476576958264359291e+03
2.574547615513108667e+03
2.643926426170000923e+03
2.267802067156087560e+03
2.160223966503612246e+03
1.483140703588677525e+03
7.395260274609273665e+02
1.334372138477858698e+02
1.577883788968271404e+02
2.947310599450866064e+01
-9.552986834814082329e+01
-3.817750944984210548e+01
-4.175701475525649897e+01
1.316374055368834775e+02
2.881726480500247476e+02
2.980016974449620193e+02
1.336178964958808137e+03
1.782726989925583439e+03
2.304730150519653307e+03
2.431261777554901073e+03
2.267329971867010045e+03
2.513811611997826276e+03
2.428551186213424899e+03
2.178573038066780100e+03
1.472014887340610585e+03
7.331850537506119281e+02
-2.318309965390909255e+01
-5.952462244670044811e+02
-4.489646847499251976e+02
-2.013195642886974497e+02
-7.283651499378660219e+02
-1.318175774688872025e+03
-1.285565250334393340e+03
-1.924638410715477050e+02
2.070352196030272207e+00
-2.722839438174946736e+03
-3.823116418350723507e+03
3.313013088580054841e+02
5.774482697138391813e+02
1.742626822709748353e+02
9.796709659660157286e+02
-2.668153300450410370e+03
-1.556950790937529518e+03
-5.436582651515817588e+02
3.974192003626581027e+02
-3.663764019851416833e+03
-3.216063887980786149e+03
-9.255369997667745565e+02
-3.055196872202680879e+03
-3.196990941126097368e+03
-3.926988913644184777e+03
-2.810182935064176490e+03
-2.029412208751340359e+03
4.744961966221247707e+01
-1.811691299780896770e+03
-8.284295641160947810e+01
-4.409364675649395053e+02
2.139751995364512425e+02
2.366874015167586094e+03
-2.142311983187387909e+02
1.271797504130497373e+03
9.030438125595336487e+02
-2.239410464829734337e+03
-2.494673953336986472e+02
-1.300241647453910446e+03
-2.446107533088346884e+02
-1.705375808783106208e+02
-2.877157123244810919e+03
-2.577475449806303914e+03
-4.199455573718515552e+03
-2.276145730770409955e+03
-7.424710954795820044e+02
-3.197509708113869692e+03
-1.777325173309031925e+03
-1.873781153344525592e+03
1.125135076873209528e+03
1.595593814070259896e+03
-2.726376148053532944e+01
7.565396877098204413e+02
2.229040216296445578e+03
2.415222677015643058e+03
2.490069224618177032e+03
2.450645399725716288e+03
1.827999384204464377e+03
1.354118864612933521e+03
8.849527332789040202e+02
6.255586361734526690e+02
5.219404752855399465e+02
-4.386105508130555108e+01
-3.278481135615329549e+02
-5.138927813936309121e+02
-6.778709389645572401e+02
-8.259308183768589515e+02
-4.579518903343322336e+02
1.251473248256905180e+02
8.483051564738916568e+02
1.664543551217207323e+03
1.799010257109844360e+03
1.059782054245606105e+03
-8.301576566443070533e+02
1.465165690078220678e+03
2.176980494541868211e+03
1.966086545020565381e+03
1.824368294987385070e+03
9.885223436413569971e+02
2.144927510096725030e+02
-3.395937585502143179e+02
-2.937547831023726985e+02
-5.440185263259348858e+02
-8.593369984925022891e+02
-8.857893014594671968e+02
-1.148289135352822541e+03
-7.048533887278360908e+02
-5.286673897225899736e+02
-2.577345560298350691e+01
5.460747957050848527e+02
1.033905207869346668e+03
1.570206453048597041e+03
1.920929836219363324e+03
2.390562782263733880e+03
2.434289088582434488e+03
2.648722902099344083e+03
2.479730934626380076e+03
1.945463888231563942e+03
1.215767996600055085e+03
6.345802148432628655e+02
3.425854990015739645e+02
1.130926237437885220e+02
-3.145088926420825359e+01
-6.261362458849526291e+01
-1.654443390827231397e+01
-2.042282785546483126e+01
-7.624505420931290018e+02
-9.285261940814639274e+02
3.194301211181294775e+02
1.300333225448121311e+03
1.798281741887554517e+03
2.398355621259804593e+03
2.534380964084279185e+03
2.540218436922111323e+03
2.580858495567440514e+03
2.820314845821802919e+03
2.761577058498475253e+03
2.139637868139754119e+03
1.774447034953615685e+03
1.792963622798494271e+03
1.326021106615999315e+03
8.635606253702508184e+02
2.266336414427991315e+02
-4.378693454081290497e+02
-1.014942779369518576e+03
-1.000623868430073912e+03
-3.569416900511446897e+02
3.250338281849097939e+02
3.372302769449945572e+02
-5.473396718571918882e+02
-2.631550085985506030e+03
-4.153440038638320402e+03
-4.103070982342754178e+03
-4.048468459712519689e+03
-3.592667754619015795e+03
-3.514688830069669621e+03
-3.113535259804498310e+03
-3.482322437421223640e+03
-4.815022597944844165e+03
-5.353622380993316256e+03
-4.727251070746454388e+03
-4.907044015111851877e+03
-5.750877135931305020e+03
-6.980617224060340050e+03
-5.834425608714163900e+03
-3.101484252669020862e+03
-4.639876259033597307e+03
-5.478675462850714212e+03
-5.120866775640183732e+03
-4.427345170282743311e+03
-3.922129977162346222e+03
-2.380326347789039573e+03
2.602195738226943377e+03
3.685440207604831812e+03
1.802358954001643042e+03
4.025917447667720353e+03
4.242052411399609809e+03
3.273854048829711246e+03
2.474334137981735239e+03
1.972366971433696790e+03
1.394909371924807601e+03
1.109920650631625449e+03
3.484124324265922041e+02
1.544337213024107314e+02
4.989123036237110114e+02
6.878318863547063984e+02
1.151219607998169295e+03
1.693080210967652874e+03
2.093413089737726750e+03
2.422188410163875233e+03
2.524503973671625772e+03
3.041397458597004061e+03
3.583894762590271966e+03
3.815978553677147829e+03
3.688606032065743420e+03
3.696743474171981234e+03
3.032393899153215443e+03
2.116621588958313168e+03
1.930401520200268351e+03
1.877778864192267065e+03
1.205777486951360515e+03
9.133948937280210885e+02
3.125705766445569225e+02
-6.917513160308213855e+02
-1.696577722163306817e+03
-2.190819534139295683e+03
-2.197422573981998994e+03
-1.403351315322392793e+03
-4.706640536997220465e+02
4.056251014224026790e+02
1.172632561537015590e+03
1.123530285297148339e+03
1.702519599074118560e+03
2.133592688123087555e+03
1.663657115236920163e+03
9.136582434652991651e+02
6.025502221098104201e+02
1.325380893951956523e+03
1.767637617815273188e+03
1.447412277774738186e+03
1.130221637167214112e+03
3.628291094557741303e+02
-6.246514396754204199e+02
-2.521253284885095582e+03
-3.237479138542712008e+03
-2.421198418546787707e+03
-1.309001503462957089e+03
-2.937561291181575029e+02
-3.831885566502168103e+02
-6.204073807304973798e+02
-4.214714540560060527e+02
1.668125031176571227e+01
2.012071438934789569e+02
1.237205664919305718e+03
1.644643609871432091e+03
1.836640218023195075e+03
1.195222462619719863e+03
-1.219614183328120816e+03
-3.059842331401478077e+03
-3.167457222655756141e+03
-3.063383210932496240e+03
-3.825690848105571604e+03
-3.814362613259059799e+03
-9.553646011821576849e+02
8.773044391249815135e+02
-1.603102947166673573e+02
-3.891833954533364022e+02
-1.668223672774075794e+03
-2.574410885559007966e+03
-2.059629379908519695e+03
-1.858784137972159442e+03
-2.509784022458471100e+03
-2.965623649043498972e+03
-2.743289452168763091e+03
-2.016685639202442417e+03
-1.361813374882171274e+03
-1.046650453874232426e+03
7.068047932761038510e+02
2.076688902774616508e+03
2.178006235061739972e+03
2.405686574054490393e+03
4.509737265352909162e+03
3.168225755415166077e+03
-3.378196264363263595e+02
-2.434395669029940109e+03
-2.918497335421694970e+03
-2.924079062954716846e+03
-2.754144580325926654e+03
-2.333607394277321873e+03
-9.263960160384791607e+02
1.306536782729177503e+03
1.897237628780648947e+03
4.297428532994101715e+02
-8.879115771449169188e+02
-6.896652716763117041e+02
3.142560669129606595e+03
3.960769403070093631e+03
2.900958152394613080e+03
2.804191972447771150e+03
2.314452893173724533e+03
1.037639020815382537e+03
-1.220185547036440767e+03
-1.485019432725770912e+03
-1.277879019641942932e+03
-2.487810360101477727e+03
-3.898720194746036668e+03
-3.971268584692611512e+03
-3.145587192559853975e+03
-2.608320226387393632e+03
-2.772804726128581933e+03
-3.537013168246950954e+03
-3.475874201478644864e+03
-9.231390716262033038e+02
2.529977607704699949e+03
2.716297702469348678e+03
2.237087373323741303e+03
2.467417002197477814e+03
1.827102273446967047e+03
1.231059344339366589e+03
1.044426519726668175e+03
3.330185303595039841e+02
-1.701339549361527190e+02
5.437498274061878192e+02
1.502026203697589381e+03
2.147232698005597285e+03
2.790931459165964498e+03
4.079821165074030432e+03
4.853824241636696570e+03
4.050208796750517649e+03
2.163553021357270609e+03
1.359393708412560727e+03
1.388490017763071364e+03
1.847756157552869126e+03
3.026800781500672656e+03
2.900956142935968728e+03
4.051557247349175213e+03
5.752356157605602675e+03
5.735524376137928812e+03
5.454180369866680849e+03
5.428015553669492874e+03
4.351189298404900910e+03
3.955387698074664968e+03
3.496614148689239300e+03
1.741151224952771372e+03
3.907068708007801092e+02
-7.416324204276177170e+02
-3.801875725081525275e+02
1.019253244557341077e+03
1.885765022256569637e+03
2.347213620216376512e+03
2.716797636212585530e+03
2.959420015033145319e+03
3.252059651615719758e+03
3.873725970951952149e+03
4.456439234371767270e+03
4.918197244122047778e+03
4.836961713303732722e+03
3.712712249342065206e+03
6.893847534644787629e+02
-4.492018280410514308e+03
-6.274522074799991969e+03
-6.040138869977156901e+03
-8.090870170534937643e+03
-9.336745803866439019e+03
-9.566848455503915829e+03
-1.029321601303089665e+04
-1.126587943412630011e+04
-1.114386286828402444e+04
-9.776120861894769405e+03
-8.468513548241306125e+03
-7.698991242992611660e+03
-3.592858729499936544e+03
1.608998703379915924e+03
5.685659934998228891e+03
2.747098780502804857e+03
-1.265849670797306104e+01
-8.086005321666636974e+02
-9.407597278167615968e+02
-1.387204920580754106e+03
-1.566982217589120182e+03
-2.370108828488726886e+03
-2.235608057274575458e+03
-1.917522498030813949e+03
-3.483938973024390179e+03
-5.347856323720624459e+03
-3.106267806567402658e+03
1.408619501145983577e+02
-3.604986013806981191e+02
-4.789399404855867942e+03
-4.944778966076490178e+03
-8.796314373535784625e+02
-6.499504099842225742e+02
-2.419761814838904684e+03
-2.314046124600346047e+03
-3.818750267229124802e+03
-5.165894579610607252e+03
-5.655483988301412865e+03
-4.097551914930528255e+03
3.768543473888115045e+02
2.612726011577368809e+03
4.549996076877302585e+03
4.328636856398497002e+03
2.330641517306564310e+03
7.930476021034319274e+02
1.698072614015638067e+02
-5.521393592589284935e+02
7.331634776026626241e+02
3.138739758254014760e+03
3.824571029430351246e+03
3.809693258678355505e+03
4.102136925168983907e+03
4.038912099971055795e+03
3.858000193193167888e+03
3.920418704794575206e+03
4.366249382867448730e+03
5.564478721844790925e+03
5.137033604370044486e+03
3.841951005106265256e+03
3.142227869074262344e+03
1.942903959291530782e+03
1.132918777631970897e+03
8.822628266836577495e+02
1.043817991253872151e+03
6.926099068477840319e+02
-5.203811644537851180e+02
-1.471164234078833488e+03
-5.687987884193506716e+02
1.180579266476898859e+01
-3.450494866107713392e+02
2.645105432209925223e+00
6.188946054839277622e+02
1.358640740084029403e+03
1.886970519595779706e+03
9.267347976461426242e+02
8.849847444443938684e+02
1.468851122866456990e+03
6.932914966807637711e+02
-8.567346524622387278e+02
-7.142260628028670908e+02
1.154815390134826202e+03
2.451395349609997083e+03
2.802407196407932588e+03
2.419542804473711385e+03
1.100894757862635743e+03
1.246208278150063222e+02
1.246675265956385914e+02
1.690217397473951451e+02
-5.723045651439136918e+02
-1.263772388268700979e+02
7.196847594578267717e+02
1.331056413737847606e+03
1.700492339440412252e+03
1.627702988077385498e+03
1.792130390609625920e+03
2.511729868241908662e+03
2.268387489793339682e+03
1.510075173280669560e+03
6.087900344030767883e+02
9.486639707379664443e+00
-4.528049614383980384e+02
-9.631696585610552575e+02
-1.287677552936693019e+03
-1.698378660529291210e+03
-2.264304492880523412e+03
-2.373444155767807388e+03
-3.070800032035040203e+03
-2.937394422027899509e+03
-1.479224132411286973e+03
-1.363132182556442444e+02
8.693130147076014964e+02
1.424655227838993596e+03
1.062755288293077456e+03
4.076017449846303293e+02
4.572182476876940314e+02
5.196074352257123792e+02
6.148151619413265507e+02
9.558775162664261416e+02
1.277765226652913270e+03
1.131375273051849490e+03
5.496797715991303903e+02
-5.882948506667574975e+02
-8.445505767939599764e+02
9.484514316951357671e+01
7.568806212960688526e+02
2.604911188960666664e+02
-4.783757518511254716e+02
-9.307817486784861103e+02
-1.064676844844333800e+03
-1.009000187052330261e+03
-7.368448958113849585e+02
-5.062206669832249304e+02
-1.513083389251444714e+03
-3.701395490916427207e+03
-6.438156577870709043e+03
-2.894428755447734602e+03
2.161808834267845668e+03
8.425991731186317111e+02
-4.256290195869232775e+03
-6.238538888815536666e+03
-5.950168437269837341e+03
-2.456205097668838789e+03
-5.987814310559261912e+02
-1.829062058843519026e+03
-1.699064008803445176e+03
6.923673147691181384e+01
4.208952553802571970e+02
-6.150173674544407731e+02
-1.481576909182053214e+03
-1.372824845874874882e+03
-6.117054666261296916e+02
-8.126669657748935549e+01
4.805287696439971228e+02
1.028668856475946313e+03
2.043208964184249908e+03
2.770319395275008446e+03
3.459962144462323977e+03
4.271023382155253785e+03
4.219515186354932666e+03
3.438545105470805993e+03
2.786015698711465575e+03
1.761617340403960952e+03
5.053353043114588559e+02
-8.066251649159082717e+02
-1.918285321229021974e+03
-2.739562924775417741e+03
-2.688457399403193904e+03
-2.379041190690699295e+03
-1.719293423272040854e+03
-9.940788282663010023e+02
-4.454412298989822148e+02
5.486152787392603614e+02
1.497124465988181555e+03
1.735075408697392959e+03
1.236475285365748050e+03
2.032258181926917587e+03
3.259452380201394590e+03
3.130137939955671754e+03
2.545247422384757101e+03
2.495545810595008788e+03
2.309271272302235957e+03
1.870665912956581906e+03
9.337137512541686419e+02
-2.276656209274671312e+02
-9.255602155563703946e+02
-1.485002519111328411e+03
-1.394994294314778244e+03
-1.402515468528332804e+03
-1.520644429851725818e+03
-1.098308881620584998e+03
-8.062997297768861245e+02
-1.905381784380769545e+02
7.098500122294033190e+02
1.296595862798232019e+03
1.418954948066569614e+03
2.220021553146696078e+03
3.451821972124063905e+03
3.435358018588505274e+03
3.150734116472553978e+03
2.292070603445376037e+03
1.305243045363268266e+03
4.761991768481846066e+02
-3.159534548111099070e+02
-3.061553859248364233e+02
-1.173472247743962498e+03
-5.543995960225563977e+03
-5.498643066055698910e+03
-6.048303092956456567e+03
-4.483848019574455975e+03
-4.527355320549982935e+03
-2.838044097573642830e+03
-3.213046577556415286e+03
3.188909161214824053e+02
-3.771621374604541188e+02
5.567988999770929013e+02
3.023859244874152864e+03
3.191089428132759167e+03
2.599513700001596590e+03
1.475109636735526237e+03
-1.047069140025140996e+03
8.448991447920132032e+02
-1.607125690406397553e+03
-9.811626953478046289e+02
-5.032238632858611709e+02
-3.209318754243323383e+03
-1.540413243738391657e+03
-3.440330589182803578e+03
-3.470979833924855484e+03
-2.530362530222803343e+03
-4.503478614862517134e+03
-1.741324644878360914e+03
-2.212037460070436282e+03
-1.130521552248272201e+03
-8.588126435826115994e+02
1.196069939890473506e+03
2.168239741026681713e+03
2.131673311743449631e+03
2.214387585313018917e+03
1.998539149187382463e+03
2.037098644085072237e+03
1.727999817473834128e+03
1.506338452182825677e+03
1.154121984984641131e+03
1.433001033624441618e+02
-2.452605150519529786e+02
-2.060661621408048632e+03
-3.605898677645377575e+03
-1.382926198669957785e+03
-9.877146732551785817e+02
-7.052553653276331715e+02
-1.505097786869546042e+02
2.804692959819004727e+02
1.004655603402578777e+03
1.445035459771790329e+03
2.058669922281067102e+03
2.251688911570803157e+03
2.128294788338910621e+03
2.014703075182009570e+03
1.953674549635941275e+03
2.052048871963597776e+03
1.939000787237996065e+03
1.422445067470626327e+03
8.003059106813950621e+02
9.960950732725875412e+01
-6.346645569496571397e+02
-1.377647700707303329e+03
-1.198599032087547585e+03
-1.776424194254381746e+03
-1.980025247865199617e+03
-1.743769730159049232e+03
-1.091570896354731303e+03
-4.377890314870590487e+02
2.724855888801486969e+01
8.087605300009357734e+02
1.589308797159706955e+03
2.400004753821241138e+03
2.604896619512012421e+03
2.659694506268933310e+03
2.870604120135013545e+03
2.400669813286682711e+03
1.537380179935403476e+03
3.981349065416320059e+02
-3.389520855587829260e+02
-3.774646556794975822e+02
-6.845098984709821934e+02
-1.476677998667620841e+03
-1.552868907870240037e+03
-1.187090110381114528e+03
-9.159717327726766598e+02
-6.002608079616306895e+02
-2.247365889808970110e+02
6.343851958597043676e+02
1.154345473301721086e+03
1.856932188570278413e+03
2.612356026524543722e+03
3.028214417445571144e+03
3.622327565250633143e+03
3.651783182290252626e+03
3.512607648808143040e+03
3.315800975692780412e+03
2.784456796885404401e+03
2.037542090682353773e+03
2.093066579338252268e+03
1.652045106323133041e+03
1.197213400546557750e+03
6.993760757064034124e+02
2.335940946165289347e+02
1.490351767339332589e+01
-1.271207169883713206e+01
5.770107014914156451e+00
2.839833280909818924e+01
5.721907146642987527e+02
1.289080723735636184e+03
1.599020408261071452e+03
1.996141871156212119e+03
2.410519630699952813e+03
3.257151644971405403e+03
3.330063369000366038e+03
3.297235448227182587e+03
2.202614612669901817e+03
2.076149231609528670e+03
1.953860810003684946e+03
1.076862456326085294e+03
-2.042887750741243963e+03
-6.549608264074975523e+03
-7.828288094496956546e+03
-7.720819872892542662e+03
-7.435205867825420682e+03
-7.330456242476514490e+03
-6.197618217497710248e+03
-6.414645235254975887e+03
-6.748323273997135402e+03
-6.535758963384811068e+03
-6.161973814369547654e+03
-4.808895529872991574e+03
-3.762395027540981573e+03
-3.207534864932822074e+03
-3.005498102323947478e+03
-1.425252332388888362e+03
-1.332720751281138746e+03
-4.413865192848923471e+03
-5.493608333182712158e+03
-6.230898612316018443e+03
-6.683783779864435928e+03
-6.978298950058269838e+03
-6.680373891932549668e+03
-2.948063732701580193e+03
1.093637440690687072e+03
-6.452310675183053945e+02
-2.254676413343163858e+03
4.073858646410388360e+02
1.904964769151890096e+03
2.282055759288481113e+03
2.702780373830480585e+03
3.168219645373729236e+03
3.528430101587529862e+03
3.964457469374914126e+03
4.022318395998525830e+03
3.945070243196853426e+03
3.245717653247547787e+03
2.516241484719632354e+03
2.195678351223231857e+03
1.942035146772655253e+03
1.523358828032669180e+03
1.037553659336220790e+03
8.225408135521093982e+02
5.553779122432622444e+02
1.681155519289652887e+02
7.180501403849717690e+01
1.005396050154626977e+02
-1.995896102050836873e+02
-8.935882387267589593e+02
-2.544169279248072257e+02
1.431955666323037576e+03
2.587517469773879839e+03
3.085329339584359786e+03
3.063490410738822902e+03
2.955046470483211579e+03
2.721111701489262941e+03
2.023646967892923158e+03
1.671514611369506383e+03
1.535755932333018336e+03
1.236482095446323456e+03
3.597048223488242229e+02
2.843634704657748671e+02
4.494132141775353944e+02
2.768370254418536547e+02
7.088050720438259589e+01
-4.172230384410352713e+02
-8.394418662908364013e+02
-8.756542693113568703e+02
-4.267131576783171454e+02
4.788933432450148757e+02
1.592998331723655610e+03
-3.349062847468467226e+02
1.363578412189487153e+03
2.898315535609942344e+03
3.198176087613649997e+03
2.770101433830761380e+03
1.732110763973225403e+03
9.210821088148829858e+02
5.699237115208472915e+02
-8.349481275249782186e+01
5.876322535511830480e+00
-4.018237009909285007e+02
-1.085625512163119765e+03
-1.274592698175511487e+03
-1.001776388349776653e+03
-5.471880136189076893e+02
-2.488037029476082296e+02
-3.255997936360178358e+01
2.994514109804289888e+02
2.292553387459546457e+02
2.028112500345156661e+02
6.391056080563021169e+02
1.749267114929436275e+03
2.580357526783980120e+03
2.839353847720060912e+03
2.510260126510740520e+03
1.930095759895778656e+03
1.579889025428076366e+03
8.756704859870711743e+02
2.940189083920778046e+01
-6.130528778563284504e+02
-1.453763526766199448e+03
-1.670804022013694521e+03
-2.630199645359737133e+03
-3.290941092064142140e+03
-3.035091700619324001e+03
-2.855663015964390979e+03
-2.890627249337250305e+03
-2.083905649069894480e+03
-7.356218889929316447e+02
8.071214245021980105e+02
1.851453883576715953e+03
2.078384365977951802e+03
1.862851398723031025e+03
1.748877889506961083e+03
1.961441272743683612e+03
2.351529071664946059e+03
1.873163868210906685e+03
8.252949243035506015e+02
-3.751122151499122879e+02
-4.331491206550417132e+02
-3.888521222848435741e+02
-9.683054436433357068e+02
-1.391561787669387286e+03
-1.287651929402657970e+03
-1.695614548139657927e+03
-1.679508412210678216e+03
-9.283143262982641772e+02
-1.054047772349350225e+03
-1.947874686970226890e+02
1.154200729931482101e+02
6.016371911815658677e+02
1.072877669902425396e+03
1.495131182754621705e+03
1.552356369517332041e+03
1.181600927071434171e+03
6.998271074498826465e+02
1.719316208521361773e+02
-9.750432415022594341e+02
-1.615843084725110430e+03
-1.832087531389563537e+03
-1.312389335147317979e+03
-1.191820327015786461e+03
-1.264480018120823615e+03
-1.635615130364695233e+03
-1.861906164197245516e+03
-2.236953249593185319e+03
-2.172444507949109720e+03
-2.181393934479430300e+03
-1.565968288426608979e+03
-3.172360000326729619e+02
-1.095667813302946669e+01
1.004936802921563526e+03
2.389559221098318631e+03
2.448193821047967049e+03
1.920576414378824211e+03
1.038575463176226776e+03
5.667399291015840390e+02
-4.651095226602846822e+01
-2.774746328479085946e+02
-1.105994758466166786e+03
-1.575372587417158684e+03
-1.534362342700086856e+03
-1.039039408870952229e+03
-1.514571493740472306e+03
-2.235013959310565497e+03
-2.247416858048086851e+03
-1.649526878131906869e+03
-1.074694352938387965e+03
-1.176050942457158271e+03
-9.505062769168131354e+02
1.613862200186246696e+02
1.639300613882713378e+03
2.311299495671869863e+03
2.727473089406481904e+03
3.353788703873854047e+03
3.305217582561870586e+03
2.896666754102524465e+03
2.353539306683980158e+03
1.473683790665831566e+03
7.629504563735971487e+02
3.218721666016054996e+02
-1.440890535935040191e+02
-2.934287203385816944e+00
-3.481241291803993221e+01
-2.727380583472925650e+02
-7.077108227546231092e+02
-8.747416077741429490e+02
-4.778357890484762720e+02
3.190567581732898361e+02
9.599872375309040535e+02
1.304005499375675981e+03
1.696113758298743505e+03
2.139352853734123983e+03
2.159749561927786999e+03
2.312311767374881128e+03
2.503061667614661928e+03
2.246029469676775079e+03
1.449195292752905061e+03
-1.413360808715415260e+03
-3.075735741102457723e+03
-3.775857565288759361e+03
-5.238770398736796778e+03
-2.899473157699719195e+03
-4.815011814517674793e+03
-5.028336891168705733e+03
-2.482409455163490293e+03
-3.648197059503277615e+03
-2.597677926964063317e+03
-6.508650228656207446e+02
-1.865706928025389516e+03
-9.361719740420973039e+02
2.262756893049923747e+03
-4.947874630562822631e+02
-1.707626992356424864e+02
1.447885828712173407e+03
8.617390399124502665e+01
-9.119547724452830835e+02
3.025430859055543351e+02
-1.557272191038978463e+03
5.005861090821449011e+02
-3.169282211038117225e+02
-1.049786761956191867e+03
-9.359774840556783602e+02
-1.735475786663555937e+03
-9.373260488209029972e+02
-2.945472004224483953e+03
-1.388881567032018438e+03
-2.453544692859358292e+03
-1.900417044716471082e+03
-1.142484074554573226e+03
8.013462818190860162e+02
1.374154083382119779e+03
1.383980621912540300e+03
1.163888270738855681e+03
2.012878798709984721e+03
3.292915545982728418e+03
3.718088106662257360e+03
3.486401965011872562e+03
2.802856008924724847e+03
1.940479858289442745e+03
1.147248847971592113e+03
2.321744268764759624e+02
-2.817412742764612972e+02
-3.004932005614200534e+02
-6.861094194280699412e+02
-6.965861047653236255e+02
-4.428452199258415476e+02
-2.138103121504686044e+02
4.905564271679796207e+02
9.741945358311920700e+02
1.513074882343857553e+03
1.959179232767337226e+03
2.279584953821709405e+03
2.427529990606924002e+03
3.088147169411104187e+03
3.322494085041099424e+03
2.532727223538050566e+03
1.510031284806779468e+03
6.832248528284929989e+02
3.231880532374072459e+02
8.092138548579914925e+01
-6.866312692967105704e+02
-1.174532702165263345e+03
-5.656840528066791194e+02
-5.981007518220066004e+02
-3.197146025534855198e+02
-6.594242838503125768e+02
-6.246903587711584578e+02
3.858131442585933257e+01
2.865890065298955847e+02
6.903009101576284365e+02
1.273652588916359036e+03
1.494776218764846817e+03
1.328967008859572388e+03
1.654903771819982694e+03
2.079685503737704039e+03
1.894265763959750757e+03
1.392626436863952677e+03
9.437022692674265727e+02
7.861520572666717044e+02
7.788723241327838878e+02
1.824960683597336981e+02
-1.763102022832414093e+02
