-1.421399411405645424e+03
-3.286037477136071630e+03
-5.145361834809094944e+03
-5.065311232084728545e+03
-1.906978165797114343e+03
1.519596248155689182e+03
3.163352575865336803e+03
3.409324430981405385e+03
1.816509293300815216e+03
6.599796933140793271e+02
2.647032801183233914e+02
3.724983059046529092e+02
-5.007304012279926724e+02
-3.389532395046988995e+02
1.971900381287118762e+03
3.104771009595967826e+03
2.654544568440807325e+03
1.085197931819864380e+03
-7.512439006544490212e+02
-9.897866726523521947e+02
6.526295396851749047e+02
4.044900069939316836e+03
5.987095571365206524e+03
5.106120070088178181e+03
1.656899344310361130e+03
7.616216042279789917e+02
5.763234434879698256e+02
1.418746195664361380e+02
-4.739243486519289377e+02
-1.141222830394043513e+03
-1.555031950745687027e+03
-1.043404419802397342e+03
-1.982350487024985796e+03
-3.407861744292768890e+03
-4.036951981025263194e+03
-4.219396335718446608e+03
-3.034861934417282100e+03
-1.014587539491063922e+03
-4.727119726114200375e+02
-3.984243117707173951e+02
-6.035768387586863355e+02
-6.871736103767987061e+02
3.973431511081926146e+02
2.215723462862087217e+03
2.563444961865650839e+03
1.404599667275391084e+03
-7.571049726097634220e+02
-1.109537102795269220e+03
-5.541075798014575184e+02
-6.210315259638255156e+02
-7.087402247145713545e+02
9.426188179871300008e+02
3.730748324536298242e+03
4.839494684837281056e+03
4.502783880807661262e+03
3.431957742339937795e+03
2.834960985254278057e+03
2.906185251018660438e+03
2.113285499016464655e+03
1.282083004554798663e+03
1.371319273005731930e+03
1.905001382206042081e+03
1.354540161533085893e+03
7.247418045524376851e+01
-1.664173476591416602e+03
-4.669331172514574973e+03
-4.499267041971948856e+03
1.177269985673677866e+03
4.559143587849582218e+03
4.003279657613833024e+03
3.899327452690810333e+03
4.514570845920950887e+03
5.162163613352589891e+03
4.601351799710414525e+03
4.270376116590581660e+03
2.990638574488907580e+03
1.178050884636855926e+03
1.731354089735943717e+03
2.659454057720527544e+03
2.728632516299387134e+03
1.992702714192518215e+03
1.299496448216217004e+03
4.730455876522734115e+02
2.236419314068216408e+03
4.246585290568741584e+03
3.697594952276598178e+03
2.214443098335297236e+03
-1.025916658034854436e+03
-5.579454346204934154e+03
-8.530106155560955813e+03
-9.697003869678572300e+03
-8.486080860993250099e+03
-5.544313651632844085e+03
-6.513852867151890678e+03
-6.741737122862731667e+03
-6.791867000060706232e+03
-5.585163295094365822e+03
3.213658648570944365e+02
3.943714927838065705e+03
4.291236398069808189e+01
-4.691000952692431383e+03
-5.756906352450297163e+03
-4.552842700279928977e+03
-3.313799902540547919e+03
4.832510349745214171e+02
1.326301199132414013e+03
-2.065698101136455534e+03
-2.427623344749410080e+03
2.594933946580142106e+02
-2.550363055582984998e+03
-4.578351132734427665e+03
-5.173510282167782862e+03
-5.937551797983414872e+03
-6.049289992927080675e+03
-6.652788572345639295e+03
-7.590100092932425468e+03
-7.716221777999386177e+03
-7.872172250181954041e+03
-6.700934623188304613e+03
-1.487397633771129676e+03
2.589430930877759693e+03
2.425877182667979923e+02
-1.128874068691756293e+03
2.710968752475698125e+02
4.758513549948265791e+03
4.362437577565669017e+03
2.501922292916854076e+03
1.753031187744790032e+03
1.343779542861511800e+03
1.271147379536306516e+03
1.964214604390794875e+03
2.611961832639270142e+03
2.856406002091818664e+03
2.507561922962657263e+03
2.200349543755261038e+03
2.402818984345648460e+03
2.775105801747786245e+03
1.910298614774567113e+03
1.446360431710247894e+03
1.211389521526746194e+03
7.944531921849631999e+02
2.140496566713248740e+03
3.700608414382771116e+03
5.295849069235207935e+03
6.624234290438463177e+03
5.155784618198989847e+03
2.692559937797040220e+03
2.013466640548331952e+03
2.420412170872395109e+03
3.236430452350342875e+03
2.629646750925572178e+03
2.447170249823139784e+03
3.188004283446509817e+03
3.069265202297037376e+03
2.391074000266271014e+03
2.679673021305659404e+03
3.111099965544472525e+03
2.944355956677216000e+03
2.705457848095467853e+03
2.065412797659788794e+03
1.026152071956242480e+03
6.296796732264190268e+02
4.012241755814102362e+01
-2.805628380198848504e+02
3.506447098491954648e+02
1.575706160205822471e+03
1.183636137747042994e+03
9.113951276751948853e+02
1.740930813107423774e+03
1.938914947342890628e+03
1.226411705958130142e+03
7.807711158399741862e+02
8.240888367547835287e+02
1.705699875960369809e+02
2.104911120353481806e+02
7.504099106040946481e+02
8.407876204408875083e+02
1.113089723828191154e+03
1.363089411625340972e+03
1.198363632795395915e+03
4.852520577961639106e+02
-2.160558121535157738e+02
-1.106304256918185303e+02
2.349944067294469363e+01
-2.737404036219269869e+02
-4.884204595742984907e+02
-1.477520306003468477e+03
-3.065966124149485495e+03
-2.803812876275349936e+03
-1.503195574654154143e+03
-1.269087542663070735e+03
-1.273538434850164322e+03
-2.616269619247024139e+02
7.166734522092439192e+02
7.850514161787107525e+01
-1.036141693775695785e+03
-1.263255177365927238e+03
-8.386874939794955708e+01
1.289978770750962440e+03
1.355243932466417618e+03
2.150882703271616265e+03
3.075924060330371958e+03
2.516419685377401947e+03
9.763783195208128518e+02
-2.893742856172814868e+02
-5.178235443464797072e+02
-3.296438732509753322e+01
-2.782834896876489239e+01
-5.934705445968210142e+02
-1.144938858475759162e+03
-6.401936047326270227e+02
6.365321293696394633e+01
-4.683126999790110858e+02
-6.813245384868679366e+01
1.401941048871029523e+02
-2.060343683362505544e+03
-5.573770391462044245e+03
-8.134099416489211762e+03
-7.755339385837189184e+03
-6.631483874473502510e+03
-6.386390001698177912e+03
-7.365839368731958530e+03
-7.684883610490061074e+03
-6.600863493716043195e+03
-7.332953542272717641e+03
-7.209033438611146266e+03
-4.532965368597971064e+03
7.273069736776429863e+02
4.746077184040834140e+02
-1.805974136756256485e+03
-8.806521007404664942e+02
1.585303655438759051e+03
2.356736952549515991e+03
2.362073662525442160e+03
2.436424656112087632e+03
2.339509379081276165e+03
1.486295179662964983e+03
1.776852695233186296e+03
1.623212583571218829e+03
1.792368892733717075e+03
2.110398002550018646e+03
2.071563038552884791e+03
2.204978898839371141e+03
2.265661144933796550e+03
1.421483533868957238e+03
1.218404108591539625e+03
1.257391526469995597e+03
8.632768513104754220e+02
6.546373491617167701e+02
5.652120634695240824e+02
3.598381135362760830e+01
-5.997206960356174932e+02
3.028857044540887600e+01
2.611931001287010190e+01
5.567156293071791424e+02
1.336896785280663380e+03
1.215684442043671424e+03
2.800629303441278921e+02
-3.595780890287225162e+01
7.996909097428898576e+02
9.579883326234931928e+02
7.697146741676572219e+02
1.366383332621175555e+02
1.387390034263476650e+02
3.131116454342711677e+02
1.509006876189909917e+03
2.802545594278141834e+03
2.383610974115945737e+03
8.241699959935785955e+02
2.673415708946562859e+02
6.849786600769964480e+02
3.530029387684153335e+02
-1.703337568400422128e+02
-8.843451550330287958e+00
6.104687263718836903e+02
4.225921969328478554e+02
7.254116449460098011e+02
2.227166537648217002e+02
-1.275208223084671921e+01
-6.746447117487069818e+02
-1.720705888898569356e+03
-4.037383979620720424e+02
2.324998389535503975e+03
4.151383282931034046e+03
4.369716285348383281e+03
3.410810474161366528e+03
2.258607210846845646e+03
9.912574268763306691e+02
4.392270450243403701e+01
-1.228455068175985843e+03
-4.344930015366072439e+03
-3.134596464354168802e+03
4.826625376724061312e+02
1.270015018749631281e+03
4.392936922106115389e+02
-4.105762995917202716e+02
4.865375483713205540e+02
1.232191096107942485e+03
1.405700387315835997e+03
1.550766810075660260e+03
1.674907814475906889e+03
7.170009879510691917e+02
-6.389131486773101187e+02
1.116538352599499603e+03
-3.037432651035264257e+02
-5.359204646229452010e+03
-2.786854105954380429e+03
-2.483595487430654885e+02
-6.835562996024913218e+02
-1.337512897937275739e+03
-1.449433279293279384e+03
-1.121242912583812995e+03
-5.093711448006669116e+02
-2.420004139665329603e+03
-2.645677950346802845e+03
-2.173107015041031900e+03
-8.064069425404768481e+02
-2.869895067045521500e+03
3.283949455813422702e+01
-8.202041413594791948e+02
-1.353467392639284753e+03
-5.300825617111476049e+02
-2.823886425325458731e+03
-3.136873751360740812e+02
-2.420642238088720717e+02
-3.981327628485253900e+00
-9.052825693462298204e+02
-9.523466741113790022e+02
-2.551612644202552929e+02
-2.124302853010583476e+03
-2.787835309881189005e+03
-5.432035985477352824e+02
8.050750610352371268e+02
2.656578392128734549e+02
-2.298245912174861132e+03
-6.694392964294588637e+02
9.028325371190328497e+02
1.598740090766067851e+03
2.197037106652958300e+03
3.322404224378058188e+03
3.375772379489359992e+03
2.875380785723075860e+03
2.354906539728619464e+03
1.648906422040097368e+03
1.071535144341958130e+03
1.429639801391013407e+03
6.404007601192763559e+02
4.884017758565228178e+02
1.520943399832591012e+03
1.179117479427507078e+03
2.729964937181744062e+02
2.588652696258724291e+02
1.071182420856886438e+03
1.653185542944554982e+03
1.127734298353977920e+03
8.690947518495062241e+02
8.395877047050254305e+02
2.537255354146986974e+03
3.604624243081035274e+03
3.941144126016897644e+03
4.069749108901857653e+03
3.309739218653622629e+03
2.690546116736356453e+03
3.434733547978199567e+03
4.206337464436296614e+03
4.064458959783606588e+03
2.553059565885875145e+03
8.974482748167272348e+02
9.652179089254454993e+02
2.209948035230858750e+03
2.306879702561090653e+03
1.983921904418097711e+03
2.389343951809131340e+03
2.481639497336421300e+03
2.021935550134397545e+03
2.022784182988966677e+03
2.130307007069834981e+03
2.424836302206815162e+03
2.197606531641989022e+03
2.205362528880301397e+03
2.158162474925000424e+03
1.818923980306644125e+03
1.512196083809015590e+03
1.159585708952761024e+03
1.119815327152856526e+03
1.348445011750706726e+03
2.293291787298125200e+03
2.919509913423772559e+03
2.934724500331244599e+03
2.467269156686181759e+03
1.498080695111357954e+03
1.164730691770862904e+03
1.447523466129067629e+03
2.075385039756394235e+03
1.262965824261553053e+03
4.550559920157700162e+02
5.154452292405657090e+02
3.952759665098904520e+02
1.838178298431271855e+02
2.086263260018513677e+02
1.003174521253346029e+03
1.503017619866072664e+03
2.347106090455996764e+03
2.910330208356268486e+03
2.507248515730994768e+03
1.551343118099702451e+03
8.474738122028252292e+02
2.829766322098737987e+02
-2.220940747420188472e+03
-5.453985266819397111e+03
-9.046207347280418617e+03
-9.190085788188374863e+03
-9.199279504759297197e+03
-8.486937104678867399e+03
-8.057240577222983120e+03
-7.315860163495073721e+03
-7.295202561586997035e+03
-7.495366521143811042e+03
-7.192686562345095808e+03
-6.880075204490136457e+03
-6.131063014860570547e+03
-7.536275837741665782e+03
-7.533281002109212750e+03
-5.442280848194861392e+03
-3.467539710735365588e+03
-7.202022575376610803e+03
-8.855476047550735530e+03
-9.956019974766822997e+03
-1.035484459505908671e+04
-8.397201547299506274e+03
-6.554670543525599896e+03
-6.042885705983882872e+03
-6.010674750036940168e+03
-1.721991893426780734e+03
3.280436121913300553e+02
-2.159213371405443922e+03
-1.392547900922637155e+03
-2.529032618387532239e+02
3.589445291073302542e+02
1.053852887582065023e+03
1.355149066919014103e+03
1.261840531809076310e+03
6.986071870871845704e+02
1.859985466833874170e+02
-2.348776675369502982e+02
-1.232603797170401094e+03
-1.363020283517816551e+03
-1.444072201580800993e+03
-2.484611482478324433e+03
-2.638525110436021805e+03
-1.601091947425595436e+03
-1.112213081497842722e+03
-1.072474164357487098e+03
-1.082668308135925599e+03
-6.438155818260921706e+02
-1.103888106594206647e+03
-1.119843217183439947e+03
-5.858101686868781144e+02
-5.638293029628561044e+02
-8.351242990395660115e+01
-5.153160028523111578e+02
-1.494034555684791883e+02
7.193021952389833586e+02
1.483215227791002917e+03
1.505688562351213477e+03
4.525798392516862805e+02
1.448967653352764842e+02
-5.605026639788159173e+02
-5.879151469405289845e+02
-5.492726785304306532e+02
-9.385735188747654547e+02
-2.111604099628429594e+03
-2.463660329049172105e+03
-2.785611027468639804e+03
-3.008258496039379224e+03
-2.741620482409582110e+03
-2.900846116709552462e+03
-2.534471425901063412e+03
-2.526448596495375568e+03
-2.910232673355606948e+03
-3.365572642149914827e+03
-3.615238186430939550e+03
-3.714540941732871033e+03
-2.234303238919935211e+03
-7.085455842107937769e+02
1.089953184267863833e+02
-4.072463564955344140e+01
-8.835402848429010874e+02
-2.658341513929967277e+03
-1.736934189693206235e+03
-1.516362930038186278e+03
-4.145276150081396736e+03
-4.586621823327207494e+03
-3.738371607891262556e+03
-3.733880529503058824e+03
-5.327222340403453018e+03
-6.534970534205160220e+03
-5.383643540555580330e+03
-4.173703571654514235e+03
-1.199206871423511075e+03
2.934446662356416255e+03
6.608053806226577763e+03
8.257420586266425744e+03
8.769291314184281873e+03
8.315437433246035653e+03
7.418653452583464059e+03
5.947706338846663130e+03
5.801427771350157855e+03
7.623639377488530954e+03
9.996080449140812561e+03
1.163538956666751801e+04
1.188709537076819470e+04
1.278008266639777139e+04
1.341740622197643461e+04
1.253982185606829444e+04
1.187589117350055130e+04
1.268636511121341391e+04
1.453891496534919861e+04
1.482327393105597002e+04
1.356038022915041984e+04
1.190680184504428325e+04
1.102013440336916210e+04
1.160899441245796879e+04
1.115454184637421167e+04
1.046482121281359650e+04
9.920426324655301869e+03
7.941240399039530530e+03
6.850023827875458664e+03
8.092344704252311203e+03
1.053512846902877573e+04
1.181394957521108699e+04
1.227670984155190490e+04
1.248334504821696100e+04
1.179635122342218347e+04
9.592607424389891094e+03
1.075312542557484630e+04
1.265274309908930809e+04
1.414113968887513511e+04
1.425182059019849112e+04
1.299032108866128328e+04
1.514045247953308535e+04
1.454611544295560452e+04
1.238407942395351165e+04
1.165321672902998216e+04
1.389829857123893089e+04
1.396114928199276983e+04
1.205759813753032722e+04
8.512548958881954604e+03
5.723462055958793826e+03
5.997070834917527463e+03
5.011661845957976766e+03
9.676856393157115690e+02
-3.155862669030410416e+03
-1.025027779122347965e+03
6.175635554511346527e+03
1.234394093070169765e+04
1.427481070324890607e+04
1.337309880736717969e+04
1.069176247486350258e+04
1.081368049454000175e+04
1.098434531464006068e+04
5.445011813148724286e+03
-2.801935934721334888e+03
-8.993523028989506201e+03
-1.273257051088861772e+04
-1.701467592121202324e+04
-2.738495785283575242e+04
-4.185159013903277810e+04
-5.390795487862826849e+04
-5.791685452376658941e+04
-5.620795200637965900e+04
-5.142778122123663343e+04
-4.769124211551112967e+04
-4.699143211086915107e+04
-3.973887786720430449e+04
-3.180720034425439371e+04
-2.928483468929856826e+04
-2.902364939110060368e+04
-2.847105371837880739e+04
-2.163048238908324493e+04
-1.390816307601283370e+04
-4.358804830189151289e+03
6.606693450326528364e+03
1.296626018368277300e+03
-1.897893466984961196e+04
-3.866384990345348342e+04
-5.171093779646399344e+04
-6.030375251788824244e+04
-6.564559461833923706e+04
-6.388433079663025273e+04
-5.579276734339667746e+04
-4.138113441794721439e+04
-2.661257263746499302e+04
-2.007170484991599733e+04
-2.949044894209145787e+04
-4.623055980691200239e+04
-3.570077264099528838e+04
-1.990864990955891926e+03
3.551048664249167632e+04
6.302363366951089120e+04
7.043593607919690839e+04
6.203176447150260356e+04
5.615250118085218855e+04
6.026364190746487293e+04
5.973628509449587000e+04
4.992359784820544155e+04
3.560114515941735590e+04
2.330827527532200838e+04
1.563123846877654614e+04
1.209628557431109584e+04
1.319466229274055513e+04
1.864813682874640654e+04
2.307096280929623754e+04
2.850846616833870939e+04
1.846594473155258675e+04
1.124789593502304569e+03
-6.106502958694830340e+03
-6.335484498397712741e+03
1.291031225543681285e+04
4.225629306673187966e+04
5.570476109045603516e+04
5.040012166972935665e+04
3.789896688522295153e+04
2.755393392567860792e+04
2.521137828654342593e+04
1.656246209108128460e+04
1.041048735575365026e+04
1.200045643370293192e+03
-6.714252751989737590e+03
-8.316071892045723871e+03
-8.026065999701441797e+03
-1.207870065365462688e+04
-9.486608915370536124e+03
-6.904291894024643170e+02
7.492080570315434670e+03
1.533628299302893174e+04
1.520761811090092851e+04
3.768478239240470430e+03
-7.878777948447995186e+03
-1.612474366119962178e+04
-1.541496577092909320e+04
-6.141020218410721100e+03
3.403489701782501925e+03
4.143861561306367548e+03
-5.095286468548410426e+02
-2.280238626480741459e+03
-6.633895263739829716e+03
-4.390241476403388333e+03
3.075849349452079878e+03
1.144857180499656897e+04
1.512622655576813486e+04
1.647626663267538243e+04
1.462002385111878721e+04
1.325972736287916814e+04
1.683568388677994881e+04
1.471524660237135322e+04
3.660613364532238393e+03
-3.558066206439598773e+03
-3.430543767266378836e+03
-8.008677438512341723e+03
-2.041425778685373734e+04
-2.985697160237752541e+04
-3.052057120661047884e+04
-2.983391612359135615e+04
-2.735583623924007406e+04
-2.052013630396714143e+04
-1.513970281383159636e+04
-1.789224462271057564e+04
-1.733681078716821503e+04
-5.714158209307944162e+03
4.139794753497106285e+03
4.979200224083131616e+03
-2.525883067536780800e+03
-1.731322350791173221e+03
7.608750441075390881e+03
3.827214023180809818e+03
-1.093388203812245774e+04
-2.578051079486814342e+04
-2.536252303336049590e+04
-1.718010453332960242e+04
-1.280047629211559251e+04
-7.601632294459797777e+03
2.788412527680893760e+00
4.696245768353118365e+03
5.834766180496850211e+03
1.793266538837073995e+03
-4.795480253881272574e+02
3.301009455522884082e+02
2.253120416845543332e+03
2.677446279740646332e+03
-6.122965529803420850e+02
-1.947504674821752815e+03
-3.330219366716379227e+03
-7.421759576157532138e+03
-1.201301334963080990e+04
-6.823254966926763700e+03
2.564135108173607023e+03
1.219878667891009900e+04
1.794647584396673483e+04
1.567210543015053190e+04
1.122548004866028532e+04
1.157028512962049899e+04
1.388330110925300323e+04
1.483222189852641350e+04
1.618872409520051951e+04
1.918049076827064710e+04
1.749517696675597108e+04
1.326442827055725866e+04
1.141186510949928015e+04
1.127117007423087307e+04
1.100702483284706250e+04
1.019305050387099436e+04
7.027003904556271664e+03
5.435178308696147269e+02
-9.499770050776680364e+03
-1.991013740594545015e+04
-2.828797959809391978e+04
-2.829156586786580738e+04
-1.260928852543426910e+04
-1.006628052222614201e+03
3.211986777597875971e+03
5.151308621597356250e+03
7.051116576401273960e+03
8.160945374277693190e+03
5.252490828923551817e+03
7.713368667976683355e+02
-4.223011808327290964e+03
-7.863841144926973357e+03
-5.331464192427104535e+03
-2.397336578145690964e+03
-1.006883564653694702e+04
-1.698135687693549698e+04
-1.191828955312302787e+04
1.296114012909083385e+03
1.848345446225067644e+04
2.090637628865637453e+04
1.584660806895470159e+04
1.184385359494272780e+04
4.195653887081704852e+03
1.576809194905473760e+03
3.472805769688812688e+03
5.781301424202313683e+03
7.066966736114937703e+03
1.636555918458727319e+03
3.306996771310857071e+02
1.984112598708461064e+03
4.769347988399981659e+03
1.059138602328898287e+03
-9.476399449567641113e+02
-1.806398683135691499e+03
-4.500497563695253120e+03
-7.057154946805017971e+03
-1.057561566259637402e+03
2.109057857153041823e+03
1.922371275323228247e+03
4.063162743770442830e+03
3.986039022219529215e+03
2.916613279956366114e+03
2.519654892563296471e+03
1.846091918947921840e+03
4.866500217047723140e+02
-6.750089529331166887e+02
-1.944102763219882945e+03
-3.017679331515866124e+03
-3.613932929203641379e+03
-2.978169761592890154e+03
-4.253648818279263651e+03
-8.268450084047732162e+03
-1.075666566445224089e+04
-1.012355602907773027e+04
-9.952313868287756122e+03
-1.158080508169729183e+04
-1.182607918079679075e+04
-1.344731969205376117e+04
-1.569365700681155067e+04
-1.592508022285685365e+04
-1.770950667449913090e+04
-2.150474687271517905e+04
-2.645988274248598464e+04
-2.578431590740136380e+04
-2.179004373390950423e+04
-1.987594751428037125e+04
-1.389100453751925488e+04
-4.084155277192732683e+03
5.983601685839259517e+03
2.227615570795627355e+04
2.785141834639659646e+04
2.423049301418210598e+04
2.237435469246391949e+04
1.769096695139024814e+04
1.337743405343428094e+04
1.259391179947799355e+04
1.295824676288226146e+04
1.234554541045777478e+04
1.128990174930964895e+04
9.495460997391091951e+03
8.136428377426842417e+03
7.373771937180745226e+03
5.425886237744534810e+03
4.290953361676140958e+03
2.671976765341796181e+03
1.647845714311598840e+03
6.337516671429917778e+02
-1.439053052980876828e+03
-4.078210946921776213e+03
-4.726681188657719758e+03
-8.135121029352430924e+02
-2.725455735738220937e+03
-2.692105588460303807e+03
1.473745627287623165e+03
1.417881661743484983e+03
5.850283321192819130e+02
7.442565001213696405e+02
1.046912591870201823e+03
1.539322584421230886e+03
1.545879915511149420e+03
-4.933408910682619535e+02
-1.324146560097937027e+03
-3.748737272265236129e+02
-4.529918351956491279e+03
-5.360153704800444757e+03
-2.567466712929359801e+03
-2.246371282645256429e+02
1.501060064394316441e+03
-7.866106333120386580e+02
3.161086615780592979e+01
3.230482964739959243e+03
1.202795869934195025e+03
8.025214682284554328e+02
-1.151147990534015690e+02
1.201210248050670089e+03
-1.043078624801702517e+03
-4.191769752537355771e+02
1.529518316363225495e+03
-1.520569072552599209e+03
-2.261249686671806558e+03
-2.529936291590348901e+03
-2.665672168724385301e+03
-2.962565671923048285e+03
-2.430789291484287332e+03
-2.008025023683352401e+03
-7.866051251927349313e+02
-2.136935601245349972e+03
1.053153513499459905e+03
1.550725684667488167e+03
7.186973195581492746e+02
-2.699364110288884149e+03
-1.877890000401373527e+03
-1.665483961316850355e+03
1.008742864162134197e+03
1.292257877046870817e+03
1.477313726975133932e+03
2.467016457331948459e+03
1.806615996661175359e+03
6.951293150945710977e+02
-2.011677651400509887e+02
-1.039971808202465581e+03
-1.413049362035483000e+03
-2.502259505986876320e+01
2.806177018136371771e+03
3.522867305009010579e+03
3.310492279061835688e+03
4.703112706042597893e+03
5.529541543124439158e+03
5.813133193314935852e+03
5.496876785628555808e+03
3.100632114143663784e+03
4.426154564644220955e+03
4.369438399842736544e+03
3.547866013599899361e+03
3.266040731084214713e+03
2.452553295724785130e+03
2.116247426190354872e+03
2.097886669104289922e+03
1.778883843619020354e+03
1.192012598312097452e+03
3.397787312089203056e+02
-7.026098006463614638e+02
-4.697968924252061811e+02
1.216373253024502219e+03
1.820890960943999062e+03
5.553754855391036926e+02
-1.265583634598153367e+03
-2.203203817800652359e+03
-1.099617100840615876e+03
1.988121091006131991e+00
1.445923587688798762e+02
1.462813358357387187e+03
3.039280691581241172e+03
4.610448108539153509e+03
4.600014463256192357e+03
3.499536782835540635e+03
3.007975245594313037e+03
2.360956928635027907e+03
7.555665430757679815e+02
-9.847603241794804489e+02
-2.235355929185986042e+03
-2.743830196196619909e+03
-2.563040787623350752e+03
-2.188167580390728745e+03
-1.426350744912009077e+03
4.567150041929632494e+02
2.885730568285378013e+03
4.274923981472563355e+03
3.841778081184935218e+03
2.330816629991410082e+03
9.358420414602763913e+02
-1.539978931307120433e+02
-1.062715132798963850e+03
-1.988136873449936274e+03
-2.750331203651594933e+03
-2.404749541382341249e+03
-2.360072694547535775e+03
-2.497485793457150521e+03
-2.411133187988025838e+03
-2.712655426569101564e+03
-3.073759103901978506e+03
-2.792614282849754090e+03
-2.227208825421646452e+03
-1.818255883746988502e+03
-1.062161483789622707e+03
-1.965235439719324859e+03
-5.070088305584217778e+03
-7.970738447377086231e+03
-1.060460731748924081e+04
-1.166318586037201567e+04
-1.207965794562711926e+04
-1.152425105690685632e+04
-1.020649065890398924e+04
-7.852882074515367094e+03
-7.438087952092238083e+03
-8.327984999501097263e+03
-8.695777219035837334e+03
-7.975529666663946955e+03
-7.082996569870394524e+03
-6.744311332233635767e+03
-6.149368573452223245e+03
-3.920215864592137223e+03
-1.443191761190896386e+03
-3.360698201745076403e+03
-3.789731895114513463e+03
-3.356188928206387573e+03
-2.383793629210479594e+03
-1.963937090775491015e+03
-1.824082959291880115e+03
-7.533528811791054522e+02
3.123315595809953265e+03
3.320081173616641081e+03
4.415983882395448177e+02
-1.640395714520312595e+03
1.071233842561489155e+03
3.403593010968923863e+03
4.454733387471873357e+03
3.527977215234958749e+03
2.191950543093040778e+03
2.103649492287555859e+03
2.853565039350108691e+03
3.130841005139119716e+03
3.480042288496326819e+03
4.472880644547938573e+03
5.365264688635745188e+03
5.033944531333709165e+03
4.912620235405777748e+03
5.690520046315880791e+03
5.450719713940291513e+03
4.847057948168485382e+03
4.214363986104861397e+03
3.352603383776945520e+03
2.644678959760416546e+03
1.840799141164380217e+03
1.314400529909692750e+03
1.237706312739650684e+03
1.162740065671223647e+03
1.355474750954650744e+03
2.070136162613689976e+03
2.053092107303844386e+03
1.234301403739977786e+03
1.214112231360396436e+03
1.988520481703650375e+03
2.254396638314768097e+03
3.000805119294072483e+03
4.017013462753260683e+03
3.629001038759594849e+03
3.884916120436369511e+03
3.981743021630375551e+03
3.606849235373726060e+03
2.978928051957772823e+03
1.829056639966458761e+03
5.953722757117656101e+02
1.949270348693362962e+02
-2.270319462092541869e+02
-1.066242693958841755e+03
-1.402862306045685500e+03
-1.198253230343408859e+03
-2.409530962600962084e+03
-1.693273021504589906e+03
-1.263792583794162056e+03
-2.554625473908475044e+02
6.548697217453920985e+02
2.052292159718954736e+03
2.252166236036035571e+03
1.538054898233269114e+03
1.612657509330555058e+03
1.674998631705127536e+03
7.325832496986278102e+02
-1.506371082734174536e+02
-8.027426247783836288e+02
-1.553457057647889542e+03
-3.372716798466899490e+03
-5.097299888545685462e+03
-5.707132511677235016e+03
-5.542940864174589478e+03
-4.874835828806068093e+03
-3.837700843759887903e+03
-1.902348282918640962e+03
1.244346794610240522e+03
3.397482435637326034e+03
3.072249719228334470e+03
1.560670902305629170e+03
5.818606682957894236e+02
3.048958636681785492e+02
3.966982758520359766e+02
2.753650482840118912e+02
8.731320118648451398e+02
1.010139279940251640e+03
1.364740380773116613e+02
-2.174880812394444092e+03
-3.392684676408115138e+03
-4.250753898098702848e+03
-5.052271279408966620e+03
-5.251084860273937920e+03
-5.804136296051772661e+03
-6.344470644936843200e+03
-4.368524941049792687e+03
-1.842869149284267451e+03
-2.285372113992801587e+03
-3.576426858205900771e+03
-3.650147093952670730e+03
-3.254296914149746499e+03
-3.833263859393783605e+03
-4.063502347569105950e+03
-3.456161657890894730e+03
-2.316876366574120766e+03
-4.808910482532946844e+02
3.477167791884963322e+02
6.207656327361792137e+01
-6.163381046989815104e+02
-2.239406558411194055e+03
-3.881203704667996590e+03
-4.218696042851525817e+03
-4.436634161376839984e+03
-5.240869846453946593e+03
-6.439234504695239593e+03
-5.942663490668442137e+03
-4.003946006015017247e+03
-2.707744167142884635e+03
-1.525051660421000406e+03
1.982362148472448098e+02
1.200498587110665085e+03
1.706993166433775059e+03
2.892922984813998482e+03
2.858503390673480226e+03
3.100760415766319511e+03
3.325462949050940551e+03
3.092136866805095451e+03
2.227748648343445439e+03
2.463977981775026365e+03
3.568188353650929002e+03
4.402722038143103418e+03
4.376730414075868794e+03
3.394205495741373397e+03
2.623215104316864199e+03
2.802894277822897948e+03
3.204594636270798219e+03
3.333459665027232859e+03
4.412315445572043245e+03
5.085658598180528315e+03
6.203650606873483412e+03
6.348117086595567343e+03
5.328136974163017840e+03
4.179919304964855655e+03
2.724009856459258572e+03
1.599170320921117991e+03
8.179860946819724177e+02
1.454889877433416586e+03
3.239942260976591569e+03
5.040371726101325294e+03
5.126126769413705915e+03
2.885569155924008101e+03
1.638498197554222770e+03
1.452926429995461149e+03
1.819358039293266074e+03
1.886656640663001781e+03
1.859904770343770451e+03
2.187472911619654951e+03
1.973448680163554172e+03
4.255963087763434487e+02
-8.910249256321721987e+02
-1.932376554653184030e+03
-6.542168835787815624e+02
1.396178169913582224e+03
2.184110673935258092e+03
2.251672357082942199e+03
2.576108602832594897e+03
2.565251220003303388e+03
3.481218096909740325e+03
3.007817675622503884e+03
-2.598206567471594326e+02
-2.865716730249147076e+03
-3.931927742428651072e+03
-3.522308030569170569e+03
-9.847189356168729546e+02
2.478831822052886309e+03
4.516358586714336525e+03
6.257780468230102088e+03
7.391016237925760834e+03
7.181057889273432011e+03
5.875033700657721965e+03
4.829990568653888658e+03
3.949861478875016473e+03
3.787868061304886396e+03
3.282002974680528041e+03
1.305909215758531900e+03
-2.169140388108725347e+03
-2.990264348318465636e+03
-2.855456132967792087e+02
-2.147912512326801789e+03
-1.698376511473887831e+03
-3.218926024682101797e+03
-2.651605954292540900e+03
-5.400382909091646980e+03
-3.499151745128539005e+03
-5.876121990839234968e+03
-4.786454050061790440e+03
-5.600209783157180937e+03
-2.414430158120468604e+03
-1.100225498887602953e+03
7.194222738575422227e+02
1.473575212684916096e+03
-1.422756152398674658e+03
6.413781519660296908e+02
-1.575184407621828313e+03
2.015213751576532673e+02
-1.925614624669287650e+03
-1.626822664476192585e+03
-2.478160795800777578e+03
3.153365690071553331e+02
-1.213226195845901429e+03
-2.230887962026097739e+03
-2.749800323599254625e+03
-2.542063192390870427e+03
1.953346351374781307e+02
-3.116447431851802889e+02
-7.381319894891388458e+02
-2.441254729188720376e+03
-3.974145412342713371e+03
-1.630706629639499397e+03
-6.060032452350894800e+02
-9.943778922923872869e+02
-1.570107615340708435e+03
-2.150219718707104221e+03
-1.858677592073168853e+03
-3.213868127266678130e+02
9.435686658273222065e+02
1.183208658066887438e+03
1.023533055764204391e+03
6.973597149205525056e+02
4.814364961100786218e+02
-4.953559913728365700e+02
-1.003012867616439621e+03
-1.044694519349493021e+03
-1.967596979270164638e+03
-3.612742875946660661e+03
-3.661223107065083695e+03
-1.902207728062414844e+03
1.051766627805362049e+02
6.379813111631934675e+01
-1.822720243048884470e+02
-1.229883650325504277e+03
-8.047230022859208702e+02
1.249050557167068291e+03
2.091201200435433293e+03
2.249553538546971140e+03
2.277178336956128987e+03
2.506854698001967790e+03
1.447331747673292739e+03
7.884276432392615561e+02
3.462254214145678475e+02
-7.141622913544030098e+02
-1.681577341215532897e+03
-1.747881804800115560e+03
-9.471512497636576882e+02
-5.701420168798208579e+02
-9.453468038303168441e+02
-1.771808845113035431e+03
-1.844443865414206357e+03
-1.176990498392101699e+03
1.932648768114077882e+02
1.830203968777764203e+03
1.457733311038462716e+03
