6.333957993778109312e+02
7.031799257563570791e+02
7.844497769962441680e+02
1.276228712747971713e+03
1.709424100621720982e+03
1.692090958141006013e+03
2.001375746629760442e+03
2.625298593305537906e+03
2.295847871323672734e+03
1.459042159148961673e+03
4.829521278711881678e+02
-1.147373874335644814e+03
-6.059908244315345655e+03
-4.608870417616966733e+03
-5.573376106374803385e+03
-5.610329069370427533e+03
-2.778785002218014597e+03
-5.168778482308520324e+03
-2.642143881179673372e+03
-2.402868810939834930e+03
-1.020022279263511450e+03
-1.316519530320739705e+03
1.980602631534666443e+03
2.750410587021595347e+03
2.613042426781159975e+03
-3.941416480881236595e+01
3.189771481529401171e+02
-8.218166163369763808e+02
-1.322739424601385053e+03
-4.198627604795983075e+02
-4.491603649956289814e+02
-3.464624402865823868e+03
-1.619216070062034305e+03
-4.584910360452094210e+03
-3.748754200229300750e+03
-1.797349994255415595e+02
-2.291844708061959409e+03
8.386355826805026936e+01
7.974375704695505647e+02
-1.500064653087367333e+03
-1.485572065050525907e+03
1.281976968184475481e+03
-3.683757389421720632e+02
9.390982119885599388e+00
3.133990076307655954e+02
4.346477745217812867e+02
6.539403547566648740e+02
2.720292228151050949e+03
2.978764508021963138e+03
2.605312367443019411e+03
1.809045465370291595e+03
1.089909761711180181e+03
6.509214394032562723e+02
7.610191283367109349e+01
-2.895417177224402963e+02
-3.750350717845433337e+02
-6.843713897717921100e+02
-1.324525790008639206e+03
-1.533441974294591546e+03
-1.161151239697929469e+02
2.220456271671056584e+03
2.842394235133121128e+03
2.063667741086270325e+03
1.643171945065186492e+03
2.017916676115939026e+03
1.786092702139779931e+03
2.303520612804012217e+03
2.454446088226598476e+03
2.065107350050020159e+03
1.353387913915305489e+03
8.912535039034863757e+02
9.337012380117668044e+02
1.103402815345753879e+03
8.631379941016098201e+02
2.386276760782529607e+02
-5.489407827337927301e+02
-8.753472462267660603e+02
-4.789443351108939169e+02
1.337076643360882429e+02
5.161192752034829709e+02
7.480732510292504003e+02
1.304399800191556778e+03
1.982027045472011650e+03
2.092378476930813576e+03
2.093910987566677250e+03
2.038820782875059876e+03
2.108201565111574382e+03
1.822025798580351648e+03
1.542284394579232867e+03
1.321895558840486501e+03
7.248642301280988249e+02
5.661652629226866793e+02
2.207872196326546543e+02
1.396574227058573001e+02
-4.832734508300488585e+01
-3.641586220981698716e+02
-6.100243128200546607e+02
-5.218768233516466353e+02
-6.306783053388618328e+02
-3.872485375154150233e+01
6.859513176421108938e+02
1.605343407326409988e+03
1.829568207831154496e+03
1.651575787689536355e+03
2.032321157315629307e+03
1.865868136460118194e+03
1.630038341912223814e+03
1.992845939310327367e+03
2.145215356364765739e+03
1.659046957168604649e+03
1.015409680495392649e+03
4.483530683311130360e+02
-2.641852868197665885e+02
-9.522788995519090349e+01
2.552082478744306684e+02
5.321172295327637585e+02
3.444959701297618153e+02
1.432198037596923257e+01
5.235637397229232874e+02
7.242535373661432914e+02
9.741015488239104059e+01
7.401481429996458417e+01
6.109924628935630153e+02
1.992297706202392192e+03
3.250070470578094955e+03
2.879287735093362244e+03
2.107859834054515886e+03
1.962692583880952725e+03
2.024797072459420633e+03
1.665283923001498579e+03
7.091323055074115018e+02
2.502714801022539746e+02
-1.855298679560431992e+03
-5.057588326719953329e+03
-8.590673070486309371e+03
-9.205482602903523002e+03
-9.615033876447569128e+03
-8.871362735875944054e+03
-8.037402163559168912e+03
-7.688196393029958926e+03
-7.513642280673731875e+03
-8.379537020737854618e+03
-8.398297705491047964e+03
-7.363013521188011509e+03
-6.295325221199208499e+03
-6.081231278092956018e+03
-6.102576460187037810e+03
-2.489505152530174200e+03
2.235990422507270068e+03
2.557902181842435766e+03
1.879200976161671633e+03
1.481843830515246964e+03
1.763868509753939861e+03
2.047353948988246430e+03
5.752156945607275702e+02
2.233877591680098078e+02
7.609564744386445909e+02
9.449231502530067246e+02
8.153110032003933156e+02
1.153227748364263789e+03
2.228672424136419522e+03
2.055646849100809959e+03
1.357118083415122783e+03
1.802181751503439500e+03
3.366937108241753776e+03
4.069370381009246103e+03
4.005581989096977395e+03
3.481589108963369654e+03
2.949437896573306716e+03
2.624179183272794489e+03
2.005745204652967914e+03
1.022992613208717785e+03
6.748387765818897606e+02
3.193712077748419347e+02
4.767507407989104991e+02
6.370060215483955517e+02
5.421865480566057158e+02
5.003406495789608357e+02
6.144511755260089103e+02
4.455955101307112898e+01
1.077453087123372342e+02
6.307862931508797999e+01
1.145644292737092798e+02
1.355184294559619048e+03
2.663013949363306438e+03
2.913229814629338307e+03
2.859927411286394545e+03
2.896045002847823525e+03
2.524525393265092589e+03
2.109352591077097259e+03
1.648523418054303420e+03
1.120164197898929388e+03
4.872805063595775437e+02
-3.452634244710515077e+02
-8.803733161402800533e+02
-6.119215201131547701e+02
-2.537996014798642364e+02
-8.192778599768780623e+01
-5.123036316194845767e+02
-1.172855797370213622e+03
-1.268742900948704573e+03
-1.690774359247982602e+03
-1.292030688802137320e+03
-4.346184971770577476e+02
-2.943969495662766533e+01
4.665823083745032136e+02
5.354547850408272325e+02
6.131812259211168339e+02
1.608069883351242595e+02
-4.056328151726560236e+02
-9.881548087071604414e+02
-1.781770470138600331e+03
-2.535437622028999613e+03
-1.824032836678487456e+03
-8.645625145015538919e+02
-9.420941478105036140e+02
-1.071655229978997795e+03
-6.592099821046762145e+02
-5.746485686131560442e+02
-5.559904958365984839e+02
-5.683237867613696608e+02
-7.086545736471961163e+02
-2.668861832452261069e+02
3.979580664462795312e+02
6.328883999152545812e+02
8.428754516167286965e+02
1.239994268591238551e+03
1.125227825351110596e+03
2.586125761811054531e+02
-6.327922540898075567e+02
-1.275998661567773979e+03
-1.127989827006772430e+03
-1.176780125473659382e+03
-1.286470951198558623e+03
-1.248253083580832481e+03
-8.821903720438824621e+02
-1.142117372707152299e+03
-1.178956788840181844e+03
-1.031695601194584015e+03
-1.352309137732476756e+03
-7.738251305958466446e+02
5.074200697394746840e+01
4.833987419974860700e+02
8.041223148122060138e+02
5.068933956756491170e+02
6.796820810782228364e+02
1.037435538565775232e+03
5.471638853159599876e+02
9.327849497447048179e+02
1.227219264648603485e+03
8.755370024062447101e+02
1.756926775880391176e+02
1.135344999510959241e+02
-1.224013683241208128e+03
-2.466910612066103567e+03
-2.240221601281178209e+03
-9.190869602878850628e+02
-3.793048361831060333e+02
5.911122096403961450e+02
1.010059274268390595e+03
3.464377391903093439e+02
-2.727851620690489653e+02
-1.866082079327372583e+02
7.993911659767758238e+01
3.556835329889515265e+02
4.976906838309388945e+02
1.073996893630675913e+03
1.615629286563354981e+03
1.295616099913067956e+03
1.253195260499327787e+03
1.313806978763439702e+03
1.062634004492037775e+03
6.124570031266911201e+02
-1.979233179139551879e+01
2.613951112913314319e+02
6.586268096725081023e+02
4.327207169516276508e+02
4.097748858654974811e+02
7.899385518241504087e+02
1.017609649469975807e+03
9.769845708855536941e+02
1.455101865489140664e+03
1.830039469560907719e+03
1.788367613605991210e+03
1.907397093876952113e+03
2.224224746630044137e+03
2.472537095931539170e+03
2.273331060831994819e+03
2.076965602967789437e+03
1.917015498283759598e+03
1.801572692545445307e+03
1.369534821108121832e+03
8.504132473177762677e+02
7.107049656476042401e+02
5.200125591032245893e+02
1.972445792159397513e+02
-6.308875506272603673e+01
1.983077549641065929e+01
8.083330283303071440e+01
-1.300913067645593628e+02
8.670743055889545303e+02
2.111889885587581830e+03
1.932582487559596302e+03
1.622393759953910376e+03
1.277742787794131573e+03
7.289062181470445694e+02
2.307013659918990015e+03
3.152899093981392525e+03
3.574500363311353794e+03
3.473883139859092353e+03
2.599130043834689332e+03
2.186376152495399765e+03
1.884512269791588551e+03
1.460237197636326982e+03
1.268517463007519837e+03
1.139295310560112284e+03
1.217480561468888936e+03
1.500945689827368824e+03
1.450844618417220090e+03
1.464413753335348247e+03
7.016586500778186064e+02
-1.280497459969506963e+03
-4.457948119628747918e+03
-6.401658092652914092e+03
-5.857711128207876754e+03
-5.521215974441734943e+03
-5.626216792803234057e+03
-5.400680948571604858e+03
-5.315398761839318468e+03
-4.798197614183794940e+03
-1.881099369610957694e+02
1.822609265439594765e+03
-1.862069434085799458e+03
-6.816083001070345745e+03
-8.234472202334240137e+03
-7.885238406769027279e+03
-6.852333664974291423e+03
-5.701692551521222413e+03
-3.934276609237724188e+03
-1.571912453193786860e+03
-4.996396947023558823e+03
-5.625814483148881664e+03
-5.400335832058693995e+03
-5.436127280403830810e+03
-4.331274617373211186e+03
-3.681764491379523861e+03
-3.545652357677786313e+03
-3.896903200801116782e+03
-4.015467160382167549e+03
-4.197198996841680128e+03
-4.517083515573533987e+03
-4.999017336569471809e+03
-4.603837552982436137e+03
-4.035497796979950635e+02
2.511774388253372763e+03
2.815092084399528630e+03
3.037410511374203907e+03
3.054716736262576887e+03
3.162991224767703898e+03
3.385445004808090289e+03
3.584325204444229712e+03
3.870711079159984820e+03
3.804773863967402576e+03
3.859755247308822163e+03
4.015530109165854356e+03
3.889886514489582623e+03
4.028936006978991827e+03
4.137737358263210808e+03
3.967447412040480231e+03
3.921340300944934825e+03
3.639073695992101420e+03
3.106421553901722746e+03
2.524421683929159371e+03
2.107308783363129351e+03
1.466126507692972382e+03
1.176819662088738141e+03
1.548404425186138496e+03
1.777030434629115462e+03
1.880847911548800766e+03
2.127967165886178009e+03
2.310495444684352151e+03
2.365517576040506356e+03
2.172256919399659637e+03
1.907816502730122238e+03
2.075928818456175577e+03
2.996423607107146836e+03
3.435238113303721093e+03
2.827319722171794183e+03
2.443812361654230699e+03
2.598871640565617327e+03
1.940005445499105235e+03
1.178433030775177713e+03
6.899132865160462416e+02
2.424218508720668694e+02
1.138994830176688993e+02
-5.215539606255190392e+02
-3.239817092874452555e+02
1.548230227547767015e+02
-2.629784119326254199e+02
-2.849379265524017683e+03
-2.532448664811485742e+03
-2.168176051606753845e+03
5.236225030802617084e+02
9.381009042105786193e+02
1.260389834017842304e+03
1.631376737232498272e+03
1.682947416967003619e+03
1.413909135941599743e+03
1.485111819885896693e+03
1.701388490956242094e+03
1.167754326364039343e+03
3.184026587104503392e+02
-6.075319264688412346e+01
-4.898358482496904003e+02
-9.297910182713746963e+02
-1.313579444157010585e+03
-1.476191356548119302e+03
-1.298641330196295939e+03
-1.197846288183787919e+03
-1.028777884810711839e+03
-8.855061840602105576e+02
-9.040876288356265604e+02
-3.083882595193312568e+02
-9.141690930078597432e+01
2.287900021752949726e+02
7.452414013825396069e+02
1.113953041208251534e+03
1.096957201409766185e+03
6.303675929085378584e+02
3.131721384975081719e+02
-4.962454887044019358e+01
-5.730331869812555396e+02
-1.139078861445454777e+03
-1.538842724954859477e+03
-1.830444602351047251e+03
-2.159964234088783087e+03
-2.361332481531027497e+03
-2.424548429946355554e+03
-2.696576217409552555e+03
-2.850341633413793716e+03
-2.751947060552357016e+03
-2.440524758512140579e+03
-1.761000644461329330e+03
-1.244353610996544830e+03
-4.486031428029942276e+02
1.421962509592963464e+01
1.041229325290376124e+02
8.372284401688135631e+02
1.241555370420255031e+03
1.252994217516823028e+03
7.725323483968620621e+02
4.761381792943288929e+02
-5.734018756285546488e+02
-3.238210346238802231e+03
-7.476383213462513595e+03
-6.298897204628169675e+03
-3.307753738512047676e+03
-7.769970986866422891e+02
3.763592915085883988e+02
6.233832497488152491e+00
-1.737998763320575790e+01
-2.647400123523821946e+01
-6.102815632474817065e+00
5.157524450049996858e+02
5.300499400336871076e+02
3.317388515061623480e+02
-1.791730687196150313e+02
-9.917376049627837347e+02
-1.477976299865100373e+03
-5.398794965729388196e+02
7.024077175549008416e+02
1.001777629145250785e+03
3.642471603339794797e+02
-2.032125254920292150e+02
7.102477517689231945e+02
1.277579996408583838e+03
8.747805291734401862e+02
1.788113109707960575e+02
-9.431675680483958502e+01
2.303351971529228877e+02
2.916768052112124110e+02
1.057242851235676824e+02
3.924521505147793619e+02
6.028329807751803173e+02
1.022871760924326850e+03
1.114601455934338446e+03
1.327986580920277447e+03
1.426960755485183199e+03
1.785446351415983827e+03
1.752472563412438149e+03
9.569840989835669234e+02
-4.381381528305805659e+02
-1.515994574640909832e+03
-2.470524583591248302e+03
-2.926757319440643187e+03
-3.141743404273070610e+03
-3.287517011404893765e+03
-2.509184898597396113e+03
-1.217774096265948856e+03
-4.572673779809995267e+02
4.403239162904150703e+02
1.643027046140545281e+03
2.664798493810116724e+03
3.622586266838241954e+03
3.946435744141845589e+03
3.725257070033121636e+03
4.400035456780396089e+03
5.115802257034953072e+03
4.792598865135817505e+03
3.576353758742760874e+03
2.396151897386288510e+03
1.285040604543023846e+03
1.690104829740292658e+01
6.885370579282392782e+02
1.631929161952284176e+03
1.852028981294102323e+03
1.757821117244363677e+03
1.749384689486825891e+03
1.833764747327594250e+03
2.469911441284238663e+03
1.786822691465751404e+03
1.365575381461702364e+03
1.148167915350343037e+03
1.397553889890312803e+03
1.574789993879697022e+03
1.161958502520751836e+03
-2.289958292553393733e+02
-1.409100734672110775e+03
-4.652317364489766078e+03
-5.551712669866729811e+03
-4.531373309623858404e+03
-2.716376417644211870e+03
-4.644677971273583353e+03
-3.537240591970019523e+03
-1.044112393913130063e+03
-1.500309506605147135e+03
-8.798041966440218857e+02
1.424634336430646897e+02
-9.554669955822301119e+01
-3.052808119314349369e+03
-3.566216719715285763e+03
-1.729795878031797884e+03
-1.708565046856574099e+03
-2.082480216245602605e+03
-5.724913883429352381e+02
1.119420280191533948e+03
-4.237207501047275855e+02
7.040505555772427897e+02
-6.561901407377439455e+02
-8.333986594540218675e+02
-1.197580078618751486e+03
-3.955728476176319418e+03
-3.216808590511587227e+03
-2.141819313296002747e+03
8.272194556321977643e+02
1.083251216193538511e+02
2.042557068458984077e+03
-1.479160031408458735e+03
-2.429840394072040908e+03
4.786543990355658593e+02
-1.465610018740700980e+03
-1.272568797580278215e+03
4.928195057550960883e+02
2.437242990410779520e+00
-1.382686644057256217e+03
-1.773583162461515485e+03
-1.090202875784807929e+03
2.175634636310272981e+03
5.354953761171417682e+03
5.006739502968608576e+03
3.799021735066673045e+03
1.976839968166102835e+03
5.282080314034918729e+02
-1.458870742695874014e+03
-3.186408073773973683e+03
-3.505405763877390655e+03
-3.560965548659932665e+03
-3.832007960499413002e+03
-3.277285725427263060e+03
-1.130390746785587226e+03
9.367641542741016281e+01
-6.091959880003848866e+02
-2.772940559998977278e+03
-5.088534840384657400e+03
-4.600958906339315035e+03
-1.358238002735586178e+03
1.781745133848716023e+03
1.399816997319064058e+03
-7.830323054703039531e+01
-8.743462305740099509e+02
-1.860988898111817207e+03
-2.983034534797674951e+03
-4.100655257499916843e+03
-4.950132734460449683e+03
-5.302569053400105076e+03
-3.194087893502813131e+03
1.701293378832530379e+03
6.415881250708423067e+03
9.668308962637096556e+03
1.130700620873374464e+04
1.143924848718669818e+04
1.142387736479729028e+04
1.024751839923821535e+04
8.320439863501458603e+03
6.552874096897725394e+03
5.695767760947276656e+03
4.607141564233756071e+03
4.097027025750590838e+03
5.147508204332742025e+03
5.949503357361495546e+03
5.807620600996943722e+03
4.253204253110327954e+03
2.684222613027885927e+03
2.384620064896747351e+02
-3.367188987261406965e+03
-6.215735634741607100e+03
-7.405184211821967438e+03
-7.805527275157480290e+03
-7.096748018154125020e+03
-3.435728781884726232e+03
-4.873160261062218410e+02
-6.144853938926938781e+02
-5.852678274942912822e+02
-7.027481485807031731e+02
7.018952060228530172e+02
5.581533926966581021e+03
7.187214722292513216e+03
5.610103964103869657e+03
3.498279877837726872e+03
3.055793757582146554e+03
2.231633022560658446e+03
6.758903803891256530e+02
-2.034412573315439204e+03
-5.065389048017953428e+03
-6.907878623395671639e+03
-7.673949268297416893e+03
-6.543776870060125475e+03
-4.272357779613466846e+03
-4.417164180139674841e+02
4.786168144467131242e+03
7.613367558426146388e+03
8.425880935961238720e+03
7.458627395036650341e+03
3.962675141784254720e+03
1.315043000821598525e+03
-2.708253697667412780e+03
-3.088124604214514420e+03
-2.294436554643251384e+03
-2.611285348667114249e+03
-3.792772757424893825e+03
-5.310935688667327668e+03
-5.944808468252162129e+03
-8.266320094837345096e+03
-8.827323652962804772e+03
-8.935963728921055008e+03
-8.576381327116052489e+03
-8.179241009710609433e+03
-7.547495389217705451e+03
-5.166294150012410682e+03
-3.628632401651340160e+02
-2.546154027097443304e+03
-4.829124678244704228e+03
6.753367434977968742e+02
3.494168180226770346e+03
4.855313177761853694e+03
4.699798057824228636e+03
4.603633033505661842e+03
4.949977482489808608e+03
4.967984863263875013e+03
4.084496452152044185e+03
3.304471919630121192e+03
2.390005978891781979e+03
1.797084161164704028e+03
1.767680764329144722e+03
1.564737886356806712e+03
9.031692891778428702e+02
2.189906759248970047e+02
3.421172201305585503e+01
1.086030039050164078e+03
1.515569085988346387e+03
9.108172980460129793e+02
9.565001397470987854e+01
-5.989939650380285912e+02
-1.465060655663215357e+03
-1.511524174676555958e+03
-1.135418114128887510e+03
-5.787559381428102370e+02
6.895140499041555131e+02
2.192568868595374624e+03
2.863438033126337359e+03
2.222107382689692713e+03
6.256496661908506667e+02
-1.053910374318930508e+03
-2.336641360461394470e+03
-3.350659248532964284e+03
-3.202046243646025232e+03
-2.682881471254381722e+03
-3.214168938050063389e+03
-3.500825672545744510e+03
-3.581795382198824882e+03
-3.561025431509308419e+03
-4.186619724338382184e+03
-4.707590327560506012e+03
-3.409834693972353307e+03
-1.271360434865441221e+03
2.184592489066431042e+01
1.523773789953114374e+03
3.637372583139648668e+03
4.633592309892105732e+03
4.853584574785870245e+03
4.130785998157521135e+03
3.349482091061519441e+03
2.432177702550043250e+03
1.674937817491371334e+03
5.967527636608128887e+02
-5.126994056211582347e+02
-7.752970096826389863e+02
-7.659948720718537061e+02
-7.597879942178868760e+02
-3.137729879789271763e+02
2.520073955424286396e+02
1.486990951975351720e+02
4.294134906955322890e+02
4.312282802739879912e+02
2.661406298835895541e+02
6.170251173918176164e+02
1.227634274511023250e+03
1.590940626366204924e+03
1.875134837005262625e+03
2.348368799396538179e+03
2.020760821031830574e+03
1.195108975535815716e+03
6.082251844172667461e+02
-1.598882347564711779e+02
-5.841482982158501045e+02
-7.475578512293753874e+02
-1.305150322102220343e+03
-1.594928404551618542e+03
-1.766848232788895302e+03
-1.553970376483281370e+03
-1.221291811585554115e+03
-7.897052965604990504e+02
-5.221306733168145229e+02
-5.765554453440151974e+02
-4.370958990274060625e+02
4.840750212923254594e+02
1.287934948173865450e+03
1.243524037230268732e+03
6.389761081814211821e+02
5.283381716723715726e+02
6.375409354764627778e+02
7.216055825334261726e+02
2.095621822651517334e+02
-5.307606937331604513e+02
-9.875145057686050905e+02
-1.198738997739245860e+03
-1.286487563808698269e+03
-1.351776396185682188e+03
-1.218592204225267778e+03
-1.195025374573554245e+03
-1.178034330916884528e+03
-1.195509303713822874e+03
-1.156515991051970104e+03
-1.128334972462085716e+03
-7.846013830283241077e+02
-5.304085982263007963e+02
-3.848473101349492254e+02
4.571135683482184504e+02
1.568478223685088551e+03
1.835200952964337830e+03
1.483118493128248247e+03
1.214129321092419787e+03
3.662651251960624563e+02
-7.224324503348225335e+02
-1.510029319885308269e+03
-2.453556085691959652e+03
-3.385089887571683448e+03
-3.321622654465506457e+03
-3.324130885242258955e+03
-3.392663783693461937e+03
-2.516496517802449034e+03
-1.128375083400622316e+03
1.108013285182356924e+02
1.418198016833426209e+03
3.288660070277013801e+03
4.379124380183019639e+03
4.118792854325832195e+03
3.598103552355847569e+03
3.753250787217923971e+03
3.746193624978691787e+03
3.133966468157635063e+03
2.510323420529950909e+03
1.899317636874043501e+03
1.563763376546053678e+03
1.033434744983535438e+03
5.627771724760330017e+02
8.627117230304795612e+02
8.932303913370740247e+02
7.150118629406579203e+02
9.039771690098526733e+02
1.134532293372335062e+03
1.400070340401402291e+03
1.833796308740139466e+03
1.621763998903499214e+03
1.740907829847941457e+03
2.024438644120057234e+03
2.371234572245690742e+03
2.514019973008461420e+03
2.700175946728348663e+03
2.645693674409984851e+03
2.345016669171725880e+03
1.895282173137517020e+03
1.530459026764028977e+03
1.118249860714872739e+03
6.503637678148644454e+02
2.483454488795514123e+02
9.809373572801756325e+01
3.487573684970593035e+02
5.443977167658138114e+02
1.289725813901903393e+03
1.835878004925987170e+03
1.404887523180176458e+03
6.246623700313879226e+02
8.360845490018615465e+02
1.409951491459514727e+03
1.562205008930308168e+03
1.563043472667724473e+03
1.938555484330430318e+03
2.275791041230027986e+03
2.619744474380111114e+03
2.812530312312512706e+03
2.314181081055035520e+03
-1.566133411948123637e+02
-3.608888293048435116e+03
-6.686569820681993406e+03
-7.233755442234173643e+03
-7.709584156729091774e+03
-7.708994411806159405e+03
-7.181847173428986025e+03
-6.993013637590537655e+03
-6.399493338659890469e+03
-6.450421184219047973e+03
-4.515895147610525783e+03
6.250482255000304121e+02
8.846767679918261820e+02
-1.904979021051022073e+03
-3.824005802119022064e+03
-5.643088069659996791e+02
2.801132504670019443e+03
3.837275601008064768e+03
3.976136485809865462e+03
3.308756431904193960e+03
3.311945220522094132e+03
8.344145586954094824e+02
-5.424939555555345578e+03
-6.517072661484618948e+03
-4.350879417874119099e+03
-2.594197133767836931e+03
-6.298963495190414505e+03
-7.835034561543526252e+03
-7.201264453405574386e+03
-7.166582143446931696e+03
-7.119008812727430268e+03
-6.999478803814633466e+03
-6.066014269965889980e+03
-5.202664547570181639e+03
-4.931356611226102359e+03
-1.201916034099951602e+01
3.292485601148095157e+03
4.325282584285424491e+03
3.735590825523795047e+03
2.926596691152597941e+03
1.870294724374609359e+03
5.425673919622753374e+02
-8.716732620483371647e+02
-1.459498133833955308e+03
7.384785917562052759e+01
2.486426141571251719e+03
4.781527832940921144e+03
6.774196163684328894e+03
6.696523809555811567e+03
4.326476600542209781e+03
1.985713846482506142e+03
1.010360586110512259e+03
4.158035975030635996e+02
1.072067362905188475e+02
-5.065711558850182428e+02
-4.114664201206739449e+02
2.466700318827341505e+02
1.610012374799592578e+02
2.317690555372646941e+03
4.009752264918734909e+03
3.820088950740355358e+03
3.608597939678435523e+03
2.847220505187645813e+03
1.837724537076979004e+03
1.405975012563648306e+03
1.286987049285837202e+03
9.368464121253356325e+02
1.106863992002642817e+03
3.367295463305192698e+02
-3.745360425026356666e+02
5.801840486866665287e+02
2.749703447078660702e+03
3.808950047103345696e+03
3.804094428617764152e+03
3.156273223150745707e+03
2.079643454987085079e+03
1.016067802747079099e+03
2.685641633398325666e+03
3.140364121202806928e+03
6.082362909487424076e+02
-7.046972770726006274e+02
1.265715673694786801e+03
1.767005302620213342e+03
2.208097069671501686e+03
1.323900988481659624e+03
7.529097253621413302e+02
1.776194994819563362e+03
1.832379115300008152e+03
6.066567033845094556e+02
-3.112003196122042255e+02
-1.229224086453440577e+03
-1.070169140157212723e+03
7.470531392428165418e+02
1.043324721797292341e+03
5.786368952068580711e+02
1.156977660214735579e+03
1.565346492167750284e+03
1.820780402200759227e+03
1.621271705226995437e+03
-4.014443510612652233e+01
-1.949457411134482072e+03
-4.394683531383778245e+03
-4.959829569847255698e+03
-3.214942724404796536e+03
-1.560076628529578329e+03
-1.178177043651944359e+03
-1.365196551287279590e+03
-9.830818913058036514e+02
-6.338027690724951526e+02
-1.411403442285914707e+03
-2.721926643235042320e+03
-3.980417249950893165e+03
-3.483951583618570112e+03
-2.773571161200656661e+03
-2.162252640070899815e+03
-4.068996984060572117e+02
1.988530296351965944e+03
4.061098917475056624e+03
5.079808635781380872e+03
4.820634364590549012e+03
3.300447727429435872e+03
1.447249425444337021e+03
4.591670966964307468e+02
4.601316284947857866e+02
1.111187253846058184e+03
8.151560848654237361e+02
-7.703923780823436118e+01
-2.114238732150934652e+02
2.189069995616059146e+02
6.248393008305882859e+02
4.583971529649041941e+02
-1.298489834461118789e+03
-4.399917973018207704e+03
-7.451871663669578993e+03
-7.576329576273381463e+03
-6.533240083316954042e+03
-6.859583523524258453e+03
-3.712367495872430027e+03
4.543696306782842385e+02
-1.360303299843869329e+00
-5.255839581603548822e+02
-2.952045678892475848e+02
3.604634743130698649e+00
-1.084233027704568030e+03
-2.560755017311074880e+03
-2.918046897934279514e+03
-2.093070363608900152e+03
-4.038083481635151770e+02
1.163676445126797944e+03
1.508357759230057354e+03
-6.789841234316392971e+00
-1.723730679781481285e+03
-2.017487344586060544e+03
-1.305171614580572623e+03
1.271181004794845194e+03
3.426628296619851881e+03
3.325214182752421948e+03
2.186837954588664161e+03
1.482591203429716870e+03
9.254057638830272481e+02
4.711799919121095854e+02
-3.300509947486217470e+02
-9.493548919526033387e+02
-2.009737493821640555e+03
-3.274203248814876133e+03
-2.908843324175874386e+03
-1.444727806790444674e+03
9.601734441256802484e+02
2.440856893799620593e+03
2.350323825609750202e+03
1.680463830113194717e+03
5.842988785518128907e+02
3.108723507542226798e+02
8.582184872201834196e+02
6.202807100838457472e+02
1.246042856193633042e+03
2.969466364074723970e+03
3.012580774724829553e+03
2.309481516806277796e+03
2.035077580287742421e+03
9.092946092518553769e+02
-7.086945243517479298e+01
-1.673997424681013229e+02
-1.191333399477153534e+03
-1.376684312873814406e+03
-2.184900243215330136e+02
2.824376374528013045e+01
-2.376485796684229626e+03
4.793395633767993900e+02
2.029690026809839537e+03
1.813612868748205074e+03
2.056178410700530549e+03
2.572372326217043792e+03
2.453140293737390948e+03
2.466449603877945265e+03
1.986350888227332462e+03
1.618821461657807276e+03
1.860890302013380051e+03
1.737619335297094722e+03
1.702005092603892308e+03
1.722051760570947863e+03
8.057195886264441924e+02
5.599206342994340275e+02
1.206715770981202382e+02
-3.516960736538317633e+03
-4.064048002267556058e+03
-3.550652005695515527e+03
-1.369747266419099788e+03
-4.773420599103590121e+02
-2.786551307284789800e+03
-2.063486347236060965e+02
-2.386645758218352512e+03
-4.613849874849179855e+02
-2.346540306087410045e+03
-3.791217621578360877e+02
1.237925170472669834e+03
1.593690171146121656e+03
1.117143270645176472e+03
-1.605725894944238235e+03
6.231326504119629135e+02
-7.392940114639808371e+02
1.829286737360380926e+02
6.879324731275892191e+01
-2.540650636594609296e+03
6.355955033237642482e+01
-2.687598824910865005e+03
-2.066031451240579827e+03
-3.706678487857775053e+03
-3.358529966496434554e+03
-2.243606043441941438e+03
-1.020924240341847167e+03
-3.363473601108131788e+03
-3.574217892899055641e+03
1.818363401913118196e+02
-2.055324225235512586e+03
2.803464712349180559e+02
-6.390941209911176202e+02
-2.621619672598858870e+03
-8.722619211237476975e+02
-2.690966221552725983e+03
-1.463687553428948831e+03
-2.771546164274903731e+03
-1.050519234652347450e+03
-6.615769492549762845e+02
-2.407933252541496643e+02
-2.281906179037771381e+02
-4.177103259136179645e+02
-8.623092539060379522e+02
-6.240108025524705226e+02
-8.885492095378016586e+01
8.420398004428322736e+01
5.471617276524333420e+02
8.690551327793067458e+02
1.282789742079562529e+03
2.522340230786775464e+03
4.509975251057610876e+03
3.980965699994315855e+03
3.161509864805114375e+03
3.015364179626176337e+03
2.478775764514481125e+03
2.040160472934385780e+03
1.868867377422680875e+03
1.572537890922684710e+03
9.653301960329368967e+02
-6.956082215797646313e+02
-1.943310265036937608e+03
-1.343144351847703092e+03
-3.489815752016799024e+02
1.145875684228239606e+03
1.859508974653993846e+03
1.800309132777322930e+03
2.481570382970054197e+03
3.035749314918293749e+03
2.624412870818257488e+03
2.156042800101480225e+03
2.354387324118520155e+03
2.689556405653582715e+03
2.891696163055888064e+03
2.574154100283693879e+03
1.992317255047697017e+03
1.270521860621051701e+03
8.233020239982789690e+02
5.339119972714598816e+02
2.738070314032528927e+02
2.505284633732249802e+02
3.832942328641515815e+02
3.799900390606961196e+02
2.673689904855630175e+02
-3.102391277117835102e+02
-4.541571186094984682e+02
-1.230427593588902226e+02
-1.972719769511564323e+02
-7.250613048963192568e+02
-6.443125135448088940e+02
5.029939691237975694e+02
1.942890082296628862e+03
3.101425248353252755e+03
3.665638773094808130e+03
3.273551231671738606e+03
2.540170889752987478e+03
1.505436159826825360e+03
6.971295208905841037e+02
2.551283738947343807e+02
-1.155797435432895242e+02
-1.407879331375315068e+01
9.537621297589347478e+02
1.510156896664550686e+03
6.542125789496712969e+02
9.348351877941727253e+02
1.888013674610326234e+03
1.929758525946107284e+03
1.658077318370686498e+03
1.676859814020372824e+03
1.521115868220215589e+03
1.902940740192000248e+03
2.678108845574226507e+03
2.552555509754503419e+03
2.583399266537040603e+03
3.060643903417628280e+03
2.431355762423336728e+03
2.030571098820190855e+03
-4.177130264113426392e+02
-4.759532322008495612e+03
-8.577884778458825167e+03
-7.626831606640060272e+03
-6.695353222833713517e+03
-6.967377903374639573e+03
-7.135027895431187972e+03
-7.566375334598830705e+03
-7.358227571781096231e+03
-6.817556653025847481e+03
-5.084380542285380216e+03
-4.628659924668177155e+03
-5.447340763289202187e+03
-5.341603060649906183e+03
-5.147266118105027090e+03
-4.010137274279698431e+03
-4.383620365880609029e+02
-2.609159238588850258e+03
-4.364384888934660012e+03
-4.410999115310793059e+03
-5.143927872959845445e+03
-6.134197478350536585e+03
-3.836924482728868952e+03
-5.507306897277875635e+01
1.984486219317307985e+02
-1.760319222433602135e+03
-8.913272788813610532e+02
1.883386960409089625e+03
3.243727430303361416e+03
3.559811182203114186e+03
3.526719041888624361e+03
2.951401097602958998e+03
2.798874187800643085e+03
2.969158859528942230e+03
3.425334171262926247e+03
3.487554528398083221e+03
3.087899450484329464e+03
2.920451065268134698e+03
3.587152322712907335e+03
3.210883348608716005e+03
2.355586810739141583e+03
1.547289667128251267e+03
1.271017460922724240e+03
1.023697577037435508e+03
9.703856570041906480e+02
9.412318758902326863e+02
7.373233754851353297e+02
