7.464286862014872668e+02
-3.778065207870496067e+01
-2.754149849982490537e+02
-5.434554752621030502e+02
-8.668719147209072844e+02
-7.106312143102726395e+02
2.011739583441197112e+02
1.324591745153089732e+03
1.515615056238094667e+03
1.647406241334116430e+03
1.405013866590029238e+03
1.030364853895663373e+03
7.916003893753431839e+02
5.422425637511488503e+02
3.443014769258378465e+02
5.369256814551079060e+02
6.920481468456897574e+02
9.066559220229148650e+02
1.146791813661931428e+03
1.551431172175144411e+03
1.825528537465300360e+03
1.746044833692963039e+03
1.501987813488109850e+03
1.216319469504792778e+03
1.216999038529884274e+03
1.053046089746733742e+03
7.144490796428930253e+02
2.661939883601073689e+02
1.072854494299921697e+02
6.057586815346992353e+02
8.946267855944059875e+02
5.318595365744696437e+02
2.793966959633713145e+02
-1.957589233937553104e+02
-1.065647707174065090e+03
-4.912563267224732613e+02
-8.535672125553838896e+02
-6.986260787867228146e+02
-4.146228806518833920e+01
-4.250919312261549408e+02
-4.325065023008166349e+02
-1.987034419462286792e+02
1.563529284381941693e+02
-2.403117470647838161e+02
3.393592145579757471e+02
-1.920094228360470936e+02
-2.940271154620232664e+03
-1.666174440702608308e+03
-2.497806862739390908e+03
-1.213964235605071025e+02
-2.777027692933509115e+03
-1.431364611039596866e+03
-2.659466593512714098e+03
-4.184994314013864596e+02
-2.564769396738230967e+02
-2.013403308779427107e+03
-3.235321599345550567e+03
-2.929245401321580175e+03
-4.621112455873813474e+02
4.610430939378906032e+02
6.581735542823837477e+02
-3.566953531569265579e+02
9.894273896074461163e+02
1.181478564337744729e+03
7.694684858975955422e+02
3.773906096922015649e+02
2.422639093030921345e+02
1.760358232305914612e+02
7.171905388399500225e+01
1.553209839520283140e+02
-2.171835166753620001e+02
-1.437617900273104112e+02
-6.940677745327261050e+01
-3.081763731620323483e+02
-1.027118105019486393e+03
-1.230218973316179017e+03
-1.125486014543238980e+03
-8.659058122055994318e+02
-5.554290200229463608e+02
-4.750946210196531752e+02
-2.659073968337136762e+02
-3.478398148873881723e+02
-3.329450384160858221e+02
-2.132653234042077770e+02
7.723041385923585267e+01
1.949859796129051759e+01
3.784912617879173240e+02
9.432566057802508794e+02
1.129818891039644768e+03
1.351194643720137947e+03
1.039320366581151575e+03
5.971701988862458848e+02
6.777389477727907661e+02
7.780592046415338245e+02
4.230757313231338799e+02
4.917812681431996111e+02
2.892042585644084625e+02
9.331580721060672090e+01
-4.889522997855661401e+02
-8.135649321456705820e+02
-8.484611882224550072e+02
-7.726378978833886322e+02
-3.001036218602181407e+02
-1.868887717025840516e+02
-2.805737412727762603e+01
5.263711255737212014e+02
2.014939088342339062e+02
-1.016696910641818931e+03
4.637610134307955150e+02
1.232791572250843501e+03
7.634348449136606405e+02
5.146092218349431278e+02
1.043489999758230852e+03
1.594998555810479957e+03
1.612281950578140368e+03
1.295240727839101282e+03
1.207787449790929713e+03
8.548917232119320033e+02
7.575815287013264197e+02
6.688394895333899512e+02
5.096741954384981454e+02
7.330948978795850053e+02
6.890617019586109109e+02
2.805844535893705824e+02
-4.233099487251333812e+02
-9.616238031938996755e+02
-1.550393822101822707e+03
-1.632610586041278793e+03
-1.824273813326734171e+03
-1.535436857208607080e+03
-2.106120535238179400e+03
-2.152378206416122339e+03
-1.842195216716668710e+03
-1.597479941073193913e+03
-1.096231700919782725e+03
-3.594435271936869185e+02
5.828218278315288217e+02
1.052595968216746542e+03
1.245852301805324032e+03
1.556551119528240633e+03
1.577700313947439781e+03
1.726328525259551725e+03
1.363422388997522603e+03
8.550085945096451496e+02
2.860546604947961669e+02
-1.244106906738589799e+02
-5.153878981266568644e+02
-4.869083924441216595e+02
-5.439511565140950324e+02
-6.365035833841376416e+02
-2.165839324102401235e+02
4.778222004518807466e+02
6.806822941909932752e+02
4.100151053592201720e+02
1.738135073451903736e+02
-8.950079592410435936e+00
1.077180891254944015e+02
1.888794890743330370e+02
1.395311982506779884e+02
1.056738083243217119e+02
1.230596790995690881e+01
4.914685903844752488e+02
6.821083324970892363e+02
3.502874590015961758e+02
3.459910403210304821e+02
2.121884862843964470e+02
-3.716863440373369087e+01
-1.950595482210073328e+02
-2.244314577560007820e+02
-3.912565559499334995e+02
-2.345804500620553767e+02
2.997212119093902061e+02
-3.134542630759372059e+02
-1.382156451170430273e+03
-4.844158345952914715e+02
-3.972678303791241206e+02
-2.105063487797739015e+02
-5.491647260950479676e+02
-4.992644479648071751e+02
-2.008339912983833244e+02
-5.880205180827113765e+01
-5.502276651658007722e+02
-6.330884550215242825e+02
-4.232934884861286378e+02
-6.368658030526863740e+02
-4.948229950994365254e+02
-2.641601357331625763e+02
-2.488087203446837634e+02
-8.667789039174634809e+02
-6.431005455664494548e+02
-3.788043108013920914e+02
-2.508965567168104087e+02
-1.113045367309056388e+02
-1.090472171735202949e+02
-2.250730668403331833e+02
-6.823399771925589903e+02
-4.379067585891474437e+02
1.041828241568105824e+02
6.379440584636366793e+02
1.421279731208022440e+03
1.322241907052232818e+03
9.189017808406799759e+02
2.322856895906666637e+02
-3.265710089223202885e+02
-3.746847970950919944e+02
-5.700832978671220417e+02
-3.817113309031416861e+02
-1.615547502464851846e+02
1.633420279454068123e+02
8.129997155027758708e+02
7.654095274451340174e+02
2.965962363856450565e+02
1.586371634163349711e+02
1.015050984996392600e+02
-9.017035749193598804e+01
-1.288185293231629203e+02
-9.312576869103456545e+01
2.055660125907427584e+02
3.491635953007310036e+02
-4.613401358234195868e+02
-9.029808708674488571e+02
-5.375984160618853025e+01
-6.166511598511199566e+01
-1.106091738855889872e+02
-2.735896845525018080e+02
-7.656195112872751452e+02
-9.676970615704566399e+02
-5.858324593549418751e+02
-7.810121996680749135e+02
-1.016250167575107866e+03
-1.759518094952236197e+03
-1.581826249069233654e+03
-1.485171821696312691e+03
-2.019546341408282842e+03
-2.162982281633889215e+03
-6.312185303831240617e+02
5.365396738559843470e+02
7.163737806448101537e+02
6.892565246983797351e+02
5.591787550986216502e+02
3.841596757478206996e+02
5.532009653536410951e+02
5.912069766438935403e+02
4.424620225741122681e+02
-5.203405103608974258e+01
4.076219004669620176e+02
6.704422036598894010e+02
9.984453582581936644e+02
4.266221264559306974e+02
-2.302753585535602099e+01
2.652700792168842625e+01
-4.096817356364734337e+02
-9.756484546702829448e+02
-8.824059855999247475e+02
-4.729531392682952742e+02
5.272176207763360622e+01
2.159178592976667588e+01
-1.932836287246016127e+02
-2.018096055089225160e+02
-2.850701271183990571e+02
5.298819315878117209e+01
2.483523140480401992e+02
3.390022001656651582e+02
4.529142663403737856e+02
6.180869362791839876e+02
4.005712990860646983e+02
-5.765622244334021161e+03
-9.124474266539795281e+03
-1.588952992870467369e+03
4.978992440797754284e+02
-7.048810544263970996e+02
-1.732675732029493645e+02
3.168760607300045606e+01
2.310119801285337644e+02
8.087101207230315367e+02
1.077789312206386057e+03
9.622388856959759096e+02
9.940427340702544825e+02
1.069253286722505891e+03
1.139969625335311775e+03
7.402200703697824338e+02
3.669940356285106873e+02
4.523051189648648460e+02
4.081191069521789245e+02
3.404582505391481959e+02
6.942959153903642573e+02
1.231541855218032197e+03
1.341223031313818183e+03
1.057384278029701363e+03
1.106056772477854111e+03
7.402610576149869530e+02
5.309915280823698822e+02
7.771526537255086851e+02
7.698530030835104299e+02
6.910140768476230733e+02
4.265576732381748002e+02
1.827265263611568571e+02
3.053392404926169235e+01
1.178417488553797341e+02
-3.905825817867926730e+02
4.713905497742645139e+02
-1.188787928594018922e+03
-2.427361260051713089e+03
-3.234160111514302685e+02
9.617162913920318488e+02
1.265029693441073704e+02
-2.621243096237555619e+03
-1.140150977281509995e+03
6.517719938639730799e+02
8.405167863519426419e+02
8.967372194620646724e+02
1.000643216062119222e+03
8.005633010529127205e+02
3.460867286795424320e+02
8.111385155739385482e+02
1.002571860923275267e+03
6.113014609620096280e+02
5.412644586176123767e+02
5.814842178826062309e+02
8.486916831184019827e+01
-1.015541968443835117e+02
-1.267035927494840166e+02
6.274053567483045413e+01
7.570331716308909620e+01
-1.841457388785638329e+02
-2.784929919259350584e+01
-1.942200025073234428e+02
-4.100328600811122328e+02
-3.032503754876756830e+02
-3.761584731115794398e+02
-6.896658141755563065e+02
-9.665771536962050732e+02
-8.273268801263496925e+02
-7.221243181326008198e+02
-2.629890204107751970e+02
-1.456414962413119554e+02
-4.389605452867213842e+01
5.379348323106133876e+02
5.689890791851462382e+02
2.405982974075987784e+02
2.490366542077694589e+02
3.800088596320445617e+02
2.696552637399514651e+01
1.312125002383466494e+02
3.287120470248484025e+02
2.188218302273923825e+02
1.523581824146105816e+02
3.420535796390495875e+01
-1.156537972181105971e+02
-1.389300174969764612e+02
-4.744535059402640513e+02
-2.999199751124899649e+02
2.176789784497873370e+02
2.978519978411391094e+02
-1.401432775848614938e+02
-3.521826901978114392e+02
-5.351807228199530755e+02
-4.121772618014542218e+02
-1.455174847808351615e+02
-4.887019733848440950e+01
-1.256604727441422824e+02
-2.125297838506784558e+02
1.800907853561927823e+02
4.653727539862176741e+02
5.049401918028751197e+02
9.382283219099802807e+01
-8.875528233467823611e+02
-1.266525732648066196e+03
-4.051444793434271787e+02
-8.734459717487765147e+02
7.039172743163010182e+02
1.481341860510997549e+03
1.342270767114138835e+03
1.216895357559916420e+03
9.180015185967258731e+02
3.746703748627942332e+02
2.933266355306333253e+02
1.942390189599675239e+02
3.478571744753261328e+02
4.200480524395416637e+02
5.942357165244660564e+02
4.756402760084127408e+02
8.353918538610900058e+00
2.423889937959736471e+02
8.378948326535132765e+02
8.172132950619255780e+02
6.742473684651217809e+02
3.290324125989391746e+02
1.124555075876818790e+02
1.780709328336349699e+02
5.707211909185313061e+02
1.207557781991608636e+03
1.426442429069973969e+03
1.721483908849038926e+03
1.926280847023697333e+03
1.910109537806379194e+03
1.513872873535672625e+03
1.307463792235485016e+03
1.486032348892644904e+03
1.540773323072516860e+03
1.130455668911727116e+03
1.300075846296220561e+03
1.551456063392934766e+03
1.236395154800458840e+03
1.075596313056811141e+03
1.185604339147370865e+03
1.226962712042647127e+03
1.101283111575198973e+03
1.001346687478566309e+03
9.586643343366181398e+02
8.649717246401643251e+02
7.110675228329231459e+02
5.071410085483982471e+02
5.747279154486484458e+02
5.782207389321481372e+01
6.721107499156778431e+01
8.855382484989386072e+00
1.477084967362031591e+02
-2.334654251050445453e+02
-8.958146221631990329e+02
-5.706326483834903485e+01
4.050974657470164857e+02
3.888970844123754205e+02
2.723756300805630417e+02
7.737079517702966314e+01
2.808471906898519137e+02
2.871693508164317450e+02
3.755822446250921303e+02
6.331090432784000086e+02
5.098489641081636705e+02
1.177152225276335287e+02
-1.147722252994023847e+03
-6.556184110086458077e+02
-5.079213334772590542e+02
-7.553212631664496257e+02
-1.047656612501018799e+03
-9.379202703688730480e+02
-1.234097262866749816e+03
-1.375105132344913955e+03
-9.570485943739237200e+02
-8.998382777435411981e+02
-9.733675791451109944e+02
-1.289540604554992342e+03
-1.409301003487312528e+03
-1.347478613097307516e+03
-1.362007082834124049e+03
-9.340247470665441369e+02
-1.121286502064307570e+03
-1.072471500479795395e+03
-1.342601952973910556e+03
-1.284816919361971713e+03
-7.480508654008200438e+02
-8.151060035620723738e+02
-8.853261083148153148e+02
-2.262546233251887884e+02
-3.122887052743984100e+02
-5.224082246240602672e+02
-7.197314595190900945e+02
-8.686886164611325967e+02
-7.841405340075837103e+02
-3.931076111151407986e+02
-4.564783908594389459e+02
-3.349690053536609753e+02
-1.186403579842739191e+02
-2.536140429376983718e+02
-4.010473406878513174e+02
-8.757727622447381464e+02
-1.231501545403921227e+03
-1.393206914282763591e+03
-2.346812289679062360e+03
-7.491300849520625889e+03
-7.251711013013300544e+03
-1.913056850555194387e+03
-4.263304702318973227e+02
-1.673813675435600885e+02
6.606272015985234702e+01
-1.169853703127004430e+01
3.757121496142274708e+01
-5.522404517031417015e+01
1.679212948500735649e+02
5.213691666401194880e+02
1.004634629240154823e+03
1.092243205803019464e+03
8.552526373403828757e+02
1.006639682508390933e+03
1.071921197849145074e+03
1.410188193550990945e+03
1.514455456053997750e+03
1.261709587696296467e+03
9.929968858366001996e+02
-8.949319072143435960e+01
9.613003618959872938e+02
1.408272220980117027e+03
1.482684089052112313e+03
9.245555738973885127e+02
9.857278217323311083e+02
8.971842471762906825e+02
5.499033827333303179e+02
-1.352126346219976085e+03
-1.729372068632416131e+02
1.305664816404156682e+03
1.149630970894369966e+03
1.368906019261322399e+03
1.539540508705634011e+03
1.387452584628510749e+03
1.089779339516785058e+03
1.168454470371259276e+03
1.212368143598740062e+03
1.873755170436131493e+03
2.400558755459094755e+03
2.458020312354556154e+03
2.551798575282947240e+03
2.184620008618535849e+03
2.444498900872614740e+03
2.915443957732554736e+03
2.602624919455750387e+03
2.719965605587942719e+03
2.375127753438710442e+03
2.006342786173524701e+03
2.057650646936910562e+03
2.498882237696054290e+03
2.797493969959668448e+03
3.163662046500127417e+03
3.327644041396823468e+03
3.617636193323215139e+03
3.286983418179021555e+03
3.168688436563097639e+03
3.257860773048724241e+03
2.917157851158263384e+03
2.755744041924202065e+03
2.603887254009754997e+03
2.478926192670608089e+03
2.311417880979879101e+03
1.670671195201216733e+03
1.094573150087200247e+03
1.434096209007792368e+03
2.038251062005975200e+03
2.837885775223518067e+03
3.761804909635888180e+03
4.088918403376317656e+03
4.517423526404399126e+03
4.852118896959485937e+03
4.697486924813391852e+03
4.712337987006912954e+03
4.575637802981704226e+03
4.841368680769908678e+03
5.083475565860511779e+03
4.625961452762579029e+03
4.209685633402213170e+03
4.207417427355694599e+03
3.590063130736560652e+03
2.312416315707596368e+03
3.066272319426094327e+03
4.614567127366313798e+03
4.911274118089348121e+03
2.096238453738780208e+03
-5.266449662539974952e+02
3.885486326511492734e+03
4.790948834810807057e+03
1.681525246314759897e+03
-2.833381764071116777e+03
-4.135952009299940983e+03
-4.660179460549200485e+03
-5.674957289048607890e+03
-2.665640109098124867e+03
-1.764414779078660558e+03
-1.488316161624620008e+03
3.760741592559518409e+01
4.551251318840807471e+03
4.671530494804776936e+03
5.521209082952221252e+03
7.563015667133172428e+03
7.901987978437406127e+03
6.950057804378128822e+03
4.734094012693002696e+03
3.452987693589307128e+03
1.262743041450056808e+03
-9.324136053896005478e+02
1.011406060628935620e+03
2.847000374607691811e+03
6.052377849862742778e+02
-2.815091663977904318e+03
-4.095314233500452701e+03
-2.808517880429442357e+03
1.083264583350324699e+02
-5.876164901069666513e+01
9.461621133660364649e+02
4.729014519672351526e+03
3.991678257717373526e+03
5.841374274838235578e+02
-3.619633030406489524e+03
-4.541570053203281532e+03
-2.924553602896426582e+03
-4.967666731887246897e+03
-5.622055623820851906e+03
-1.166715101632537881e+03
-5.651708520984893767e+03
-1.532791000197521498e+04
-2.140823647070778316e+04
-2.409072490567760542e+04
-2.759838569186445966e+04
-2.703326677880487478e+04
-1.390138796042198919e+04
1.191298936341058834e+03
5.967846875375464151e+03
2.691260125252441412e+03
1.453650108457410170e+03
4.254131714837494656e+03
8.973618760959227075e+03
8.045229312893911811e+03
1.113914798434753720e+04
1.702035244695482106e+04
1.189975369527405564e+04
5.479658582739540179e+03
7.475145044906818839e+03
1.607432359991500016e+04
2.126834085737422720e+04
1.926232301818723863e+04
1.142648325992009450e+04
3.303934807841992551e+03
1.165808249277785308e+03
2.420313022389822436e+03
1.035859697324037006e+04
1.480789703030450437e+04
5.728247417514425251e+03
-5.284452438030836674e+03
-1.396903283058461966e+04
-1.969059174029634596e+04
-2.081073932596797022e+04
-1.903522929121151537e+04
-2.006197451442390593e+04
-1.977386163078746540e+04
-1.291354604489490885e+04
1.642047746605521468e+02
9.874506682709352390e+03
2.072151095964205160e+04
2.634743329120935960e+04
2.214242968720822682e+04
1.851161064088289277e+04
1.416714024737327418e+04
1.158419522517288169e+04
1.346795774322680336e+04
1.540170034592129559e+04
1.775559147081559058e+04
2.000281633883220638e+04
1.710664236616275593e+04
1.128032190308479585e+04
6.539022217787020963e+03
-1.106085249949291892e+03
-8.936664656893246502e+03
-1.065748283516521951e+04
-9.116398791339290256e+03
-8.440150684546395496e+03
-9.554513566543653724e+03
-8.765359826594742117e+03
-5.639437849373169229e+03
-5.455498047621256774e+03
-5.685420650797853341e+03
-8.795063018469643794e+03
-1.618920108087882181e+04
-1.530445096422554889e+04
-6.508519587477379901e+03
-2.156184233660350401e+03
-1.872314337736472908e+03
-4.562858624496149787e+03
-1.272605339373882998e+03
-1.807347704667690095e+03
-5.907911611186550545e+03
-8.886146791112230858e+03
-4.965956791188348689e+03
-4.211198839590858256e+02
1.757647696170702602e+03
3.559519031750069189e+03
4.663647896291095094e+03
2.838140204497008199e+03
-2.504743897892872155e+03
-6.608868614205996892e+03
-7.711256939400996998e+03
-6.599690382815620069e+03
-5.441976053616714125e+03
-7.000968039614880581e+03
-1.017749297783035763e+04
-9.882580799535815459e+03
-6.285073464673961098e+03
-1.487869800312430243e+03
4.146987665794891655e+03
8.701677884363716657e+03
9.801433289862918173e+03
7.432297756994864358e+03
4.505171894745314603e+03
3.846237002046994803e+03
4.960575918205170638e+03
6.024267430244149182e+03
6.675283149311700072e+03
7.106656792902607776e+03
5.631392449462463446e+03
4.494543348888407309e+03
3.184087156358154061e+03
2.353100077523014534e+03
1.300539989240047362e+03
1.256495710108749790e+03
3.659484697553829164e+02
-2.947225351572845284e+03
-4.556893878175608734e+03
-3.059168889384142403e+03
-2.439135948914565233e+03
-4.889780510816311107e+03
-8.352239527276051376e+03
-1.152866323695700703e+04
-6.291149044796225098e+03
6.697348299968276478e+03
1.692948053467996215e+04
1.533027423439304039e+04
9.653734090024956458e+03
9.305644801325606750e+03
9.457050073574982889e+03
8.351615158745795270e+03
8.101160772675234512e+03
1.082651706035312964e+04
1.299760954009135094e+04
1.322532128491356707e+04
1.049845370841181648e+04
9.036778957944034119e+03
9.783043229718068687e+03
9.687113621147955200e+03
1.009881922674172529e+04
1.007815994976328693e+04
8.431255572885482252e+03
5.358519617647586529e+03
6.841392474448491612e+02
-3.716000555923076718e+03
-6.434519022654152650e+03
-7.642261623584136032e+03
-6.360733073261093523e+03
-5.406485276968225662e+03
-5.751731092213874035e+03
-1.674746511339578547e+03
1.040417131495902868e+04
1.805679593009851669e+04
1.379192575690367266e+04
8.077271016926551056e+03
7.126498119725425568e+03
6.621343805915445955e+03
4.972518743207543594e+03
3.147787545826804035e+03
9.699293818546352668e+02
-2.703398605559385146e+02
-1.021130213147304289e+03
-1.773942152230565625e+03
7.879598494354447666e+02
3.208469664435202048e+03
3.571284435623091213e+03
3.475061129071276810e+03
2.791518491510182685e+03
2.018379905535416128e+03
3.395082953230932503e+02
7.514173156368236732e+02
7.174142444909377048e+01
-4.956828260584131840e+02
-5.221424684018774087e+02
-1.483931406006938232e+03
-1.622253982270521419e+03
-2.596353109322660202e+03
-4.736606833615448522e+03
-4.388276372280674877e+03
-4.749631393092511644e+03
-5.708949020547979671e+02
7.206907249246270339e+02
-8.611443726810954331e+02
-2.735631765831195480e+03
-4.727087248785467636e+03
-3.995761480407158615e+03
-3.610860552907055990e+03
-6.892664367018242046e+03
-7.095337249606587648e+03
-6.071089155813444449e+03
-6.358149628392992781e+03
-1.382877534727153579e+04
-2.056016553406969979e+04
-1.766357374941572198e+04
-8.213189895436731604e+03
-6.117206968375947326e+03
-7.018742910800965547e+03
-9.073937026005158259e+03
-1.375594880405224467e+04
-1.650295614381696578e+04
-1.484910954814541583e+04
-5.844527844379319504e+03
4.836385299155785447e+02
-4.687698977882584472e+02
-1.736797919343924150e+03
-2.215560229199421883e+03
-1.117227511654621821e+03
-9.429210962586084861e+02
-2.079754527643917299e+03
-2.768864916830367747e+03
7.856923559841155793e+02
4.117830440084634574e+03
3.092461879696272263e+03
1.075562437354250960e+03
-6.729796062624741353e+02
-1.908116348643422270e+03
-2.190901324630211548e+03
-1.229404274209142159e+03
-1.327004673541285626e+02
2.662554031811156960e+02
1.012867178369272665e+03
7.139023694052715427e+02
-1.090753523645988935e+03
-2.569869636024930514e+03
-2.978702658152323693e+03
-3.674354321285132755e+03
-5.030078754647452115e+03
-5.354949248518025342e+03
-2.273686130750685606e+03
4.363540165336263499e+02
9.864164304075644623e+02
4.774910706005048837e+02
-6.352099559232177626e+02
-1.435657204463947210e+03
-1.248949449661074595e+03
-1.139105827244827651e+03
-1.314851733213570014e+03
-6.623067527228242852e+02
4.066193658472333823e+02
1.842036231076684544e+03
1.470019490749090210e+03
-3.695899806375228991e+02
-8.693398113172353305e+02
-1.724672469006434994e+03
-3.021381594704774216e+03
-4.795484381406255125e+03
-6.384931572720094664e+03
-3.549572525326982941e+03
-7.808764826426939010e+01
2.985325374432522949e+03
6.082825486856076168e+03
7.851895440152907213e+03
6.934818385823666176e+03
5.140577644667914683e+03
4.119219574347029265e+03
4.364966389157584672e+03
4.525970750112536734e+03
3.967287996673477664e+03
2.179806332495303195e+03
7.180905316951469786e+02
-9.995248958637819214e+02
-1.334782265865107092e+03
9.934529794034210681e+01
1.085813000176364767e+03
1.125042465375566962e+03
8.931154270678750891e+02
-7.102183682924909363e+02
-5.841050070803208882e+02
9.091334298949366257e+02
1.580490718376429868e+03
2.580910806411792692e+03
3.042683321168442035e+03
2.642644988694395124e+03
2.401816510514378024e+03
2.242905313767352254e+03
1.395613759309459283e+03
1.348653798894467627e+03
1.779064494979972551e+03
7.476419236509789243e+02
6.832837423247316337e+02
1.867536798092053004e+03
1.296174346392894449e+03
-1.827970055138933049e+03
-2.700958193419328836e+03
-3.749457987273646722e+03
-4.752940186655860089e+03
-5.618003880866791405e+03
-6.746442919435881777e+03
-6.850613751382476948e+03
-6.538920218639630548e+03
-6.120128602422329095e+03
-4.676512115680387979e+03
-3.211275511413094137e+03
-7.439593395111860445e+02
1.340621063619521237e+03
1.897598537337410335e+03
1.428485533741059498e+03
-4.187605773444068973e+02
-6.234822111828361102e+00
7.637951339643079791e+02
5.200861692406625707e+02
-9.551671405337438046e+02
-8.161168423988724498e+02
5.667615177087977827e+02
1.317680647734219519e+03
2.077607141211008638e+03
3.406208582172102069e+03
4.774747470086069370e+03
5.006937131634273101e+03
4.353743751885052006e+03
3.959240915411927745e+03
3.715271177175547564e+03
3.805479006483932608e+03
3.216767809871982536e+03
1.821012852473370685e+03
9.320425240217650753e+02
6.982359764858227891e+02
1.848620855465794079e+02
-6.591278663535118767e+02
-3.045082196864203752e+02
6.037521892821650908e+02
6.741627225800081078e+02
1.245351209517790949e+03
1.656214407509115063e+03
1.054761535205852624e+03
1.291667087243913329e+03
2.059572683179744217e+03
1.133579032252242314e+03
-4.265092882354955464e+02
-2.069482229051109243e+03
-2.258100490387562786e+03
-1.098183160360889815e+03
1.020513888704013880e+03
2.717005560245459037e+03
2.590351327900873912e+03
2.709628835613529645e+03
3.171310829822833057e+03
3.524498163905731417e+03
3.410244863564177649e+03
1.936503683202798129e+03
9.975107476948885505e+02
6.949200502099187133e+02
9.177226350307734037e+02
9.936354965666444059e+02
5.634409681013248701e+02
9.544632481937082957e+02
8.068129345551357119e+02
-7.874612545765587868e+01
-2.706223722031625698e+02
-1.085317952895919120e+02
2.526663103222539917e+02
1.371625172009971720e+03
1.161571128925861558e+03
1.437507190457399702e+03
1.902854299283302907e+03
7.192475736743839434e+02
8.938793540855233744e+01
1.101103679517149885e+03
6.995243260965456784e+02
-3.952288792431140791e+02
-3.442303737061722586e+02
-3.257817409953848937e+02
3.588251385358886125e+01
-6.121938494124076158e+01
-6.592664424591505394e+02
-1.634322668777314448e+03
-1.692283293755149771e+03
-2.596238674248355892e+03
-2.846275357467008689e+03
-4.072527322067459863e+03
-4.023007899167424057e+03
-3.747816982885895868e+03
-4.897982697034660305e+03
-3.355392727264616497e+03
-3.035156918252028390e+03
-2.878514850188837499e+03
-1.985465915232298812e+03
-1.507800873392824542e+03
-1.354381341689534793e+03
-1.997170820852188626e+03
-8.558411452738041589e+02
-2.151182802417567018e+03
-2.670227010737156434e+03
-1.809082050508182192e+03
-2.152338323987624790e+03
-6.736415826332613221e+01
-4.918269700502334274e+01
-1.506061273082225398e+02
-1.069599941762766093e+03
-8.513558645755869065e+02
2.601813579747651488e+02
8.771598204545672388e+02
8.509340013591115621e+02
-7.214269985658027053e+02
-1.953973831683799290e+03
-3.091529282434120432e+03
-2.719026012086385435e+03
-3.178261562369216790e+03
-3.864941072793928015e+03
-6.863776939885674437e+03
-1.264239246098800322e+04
-1.242755059423599414e+04
-6.481138390544322647e+03
-3.102089664934624125e+03
-3.203402017458078262e+03
-3.066903229456132522e+03
-2.942297253580870802e+03
-3.239794308973442639e+03
-2.954999347640728502e+03
-2.139558296677972521e+03
-1.915318652782796335e+03
-2.235789495537801486e+03
-2.691082629710528181e+03
-3.237053050361029818e+03
-3.655336895379197358e+03
-3.899579467384656709e+03
-4.495571473150947895e+03
-3.995039013117446757e+03
-4.229694481620958868e+03
-4.839100856094117262e+03
-3.469219539089661794e+03
-2.871602923384806672e+03
-2.424874983456168138e+03
-2.071052077043035297e+03
-1.959087750725653223e+03
-1.866567077109664979e+03
-1.401869212228092692e+03
-1.370813759399958599e+03
-1.371033573306842754e+03
-1.144216016237544181e+03
-1.189056762888777939e+03
-6.641576201381881219e+02
1.357045022824277396e+02
-1.028366066993575174e+02
-4.285263713770127652e+02
-2.015336478102417459e+02
5.944545642538795391e+02
1.317226588050980581e+03
2.004176936991487992e+03
2.522135733542042999e+03
2.794517311216847247e+03
3.296720108175504265e+03
3.457844208201143374e+03
3.356230281884364103e+03
3.518771383213796071e+03
3.706203858066766315e+03
4.132275776115266126e+03
4.477585238851550457e+03
4.910516307794917338e+03
4.795221842254226431e+03
4.481039778624542123e+03
4.130748897077355650e+03
3.813934527613826958e+03
4.026144185359143648e+03
4.592691628715430852e+03
4.485076593097966906e+03
4.468474731227292978e+03
4.771786170863791085e+03
4.947554643747672344e+03
4.638133866672192198e+03
4.716285960610342954e+03
4.719295850626317588e+03
4.820375830402726933e+03
5.100600694543583813e+03
5.608241867741687201e+03
5.916671791246185421e+03
6.158074481749165898e+03
6.460248875549481454e+03
6.495298820274567333e+03
6.460753067148687478e+03
5.635884093749920794e+03
5.661875498288792187e+03
5.858902964068249275e+03
5.493114847241514326e+03
3.304527293662181819e+03
1.155218618441851277e+03
4.755335285466933783e+03
5.121056113188285053e+03
2.671575164960019265e+03
4.871140416780303894e+03
4.815855386104789432e+03
1.572775201833328083e+03
3.809042174663066817e+03
4.344755637559333991e+03
1.977042118497469801e+03
4.296732378451994919e+03
5.008785348761290152e+03
1.955443132729772287e+03
2.807865101556939862e+03
3.784140249019791099e+03
1.530297354206195678e+03
1.895289456785245420e+03
3.163092019085736865e+03
9.777346913306068927e+02
-4.377983689375599852e+02
1.993479746315048715e+03
1.335772413717236304e+02
-5.549327580402289641e+03
-6.436122294220271215e+03
-2.999952507823725682e+03
8.551506895015429564e+02
1.568185057927445087e+03
1.626133904264657986e+03
1.779859861966522487e+02
1.383634043750658407e+02
-3.528680881245256842e+02
-4.747747229470116963e+02
-5.695220269778936881e+02
-1.061187982858556779e+03
-2.546638198935359014e+03
-3.202746803978713615e+03
-6.366695700621606875e+02
-5.675889323829395607e+02
-5.955637189301769467e+02
-7.916343920858626007e+02
1.211990059735716301e+02
1.127889582530934689e+02
-5.739315190830707252e+02
-4.531638194556433632e+02
-2.881990660744151000e+02
-4.541041664701116360e+02
-5.878932664817831437e+02
-2.987462717540494737e+02
1.442838078306375564e+02
4.119519852999172826e+02
2.999570922715989241e+02
-1.168083591430568191e+02
-2.115151647300090190e+02
-3.903074991111722056e+02
-4.172616912869187900e+02
-1.215440208590104305e+02
-1.393335178872189601e+02
-6.107602565278747306e+02
-8.720289688610209851e+02
-1.170356898781468772e+03
-1.510808053016935673e+03
-1.544602778939784685e+03
-1.694079838309155548e+03
-1.447302779591820126e+03
-1.416260038061070645e+03
-1.247025333455011150e+03
-4.026934246313190329e+02
-3.144176806586563089e+02
-3.073321031261165786e+02
1.233917216245535542e+02
9.041849869653921701e+01
-3.264391428163226010e+02
-5.221942231626527473e+02
-8.670355552141463704e+02
-9.867537772259997837e+02
-1.267708661924567878e+03
-1.807466310140306177e+03
-7.263211873517846016e+02
-6.014965774588730483e+02
-7.920873830080205380e+02
-7.695489644221314620e+02
-8.180428840575112872e+02
-9.326632136952803194e+02
-1.654461313482981268e+03
-6.187015909470766246e+02
-3.276489198971243013e+02
-4.484842481125854761e+02
-6.904246799790100795e+02
-2.217317251575072987e+02
2.934102123152583772e+02
4.809137523495623441e+02
4.437205858834613537e+02
-1.842524843955995095e+02
-3.561547531211950286e+02
-4.271817421477198309e+02
-2.234581255194627829e+02
-8.570674265098904243e+02
-9.642026222521269574e+02
-6.040625794678892362e+02
1.252369880072382102e+02
6.546087779529151476e+02
8.409095146214993974e+02
1.135906069197769511e+03
1.568486800850095278e+03
1.841491593890239301e+03
2.165842243488917575e+03
1.939512185347483637e+03
1.704334259034056004e+03
2.123135678873237339e+03
1.456953238365470725e+03
2.094719096273784999e+03
2.235359127973499199e+03
1.216738201441782394e+03
1.696605127990621440e+03
1.828753164921205780e+03
1.298106650218968298e+03
3.796999359625002626e+02
7.974118938734482072e+02
1.306120345762277793e+03
4.357663361358969496e+02
1.335322270923391670e+03
1.834817303327179161e+03
1.910194284987004039e+03
2.686300267253575839e+03
2.169059310765434930e+03
3.734205405682135392e+02
1.791353825272780796e+03
2.585861691797812000e+03
2.589883098171089841e+03
1.700382526623311605e+03
-5.052712322291040437e+03
-8.988459161485594450e+03
-5.301951312141283779e+03
2.616702736872606692e+03
4.109582327956684821e+03
4.228611290855589687e+03
3.922634683294239494e+03
3.839948492778251421e+03
3.588481039872479869e+03
