2.959387877594100246e+03
2.882484678990636894e+03
2.193300881394994121e+03
1.987836416512124288e+03
3.521277833366045229e+02
-3.149712453986925539e+03
-2.308592028990345170e+03
-2.070590735522310297e+03
-6.087050262047730484e+02
-1.783891180578780677e+03
-2.451250658997736991e+03
-2.292802678891946016e+03
-4.238403980904991840e+03
-4.169045748722875032e+03
-2.161742955907488977e+03
-1.998463970261374243e+03
-2.019295327456434052e+03
-8.682434461462388526e+02
1.025727842099367308e+03
2.134538627607836133e+03
4.059193552243551494e+03
1.004790054703381770e+03
6.863978535365617972e+02
1.094930912704081493e+03
-3.030691022284669543e+03
-4.672484501585167891e+03
-5.245495432778448048e+03
-5.369800728646963762e+03
-6.228231668692452331e+03
-3.620917204164928080e+03
-4.100129693762804663e+02
-2.387483935410671620e+03
-4.087284759181115533e+03
-1.753584297474730420e+03
-1.103490986844900590e+03
2.709760603942682451e+02
8.057487033217664703e+02
3.207232030970806704e+02
1.969994992253760984e+03
2.842739968277376647e+03
4.452853694053967956e+03
5.925260429860039949e+03
5.567854124321536801e+03
4.176650671115110526e+03
2.731620552089456851e+03
1.656669150821180892e+03
7.996490669158711171e+02
-5.755465795448741346e+02
-1.516029005817910956e+03
-2.979844820068898116e+03
-4.041938588405334485e+03
-2.625385759397399397e+03
-3.592672275369596377e+02
7.913655267285433865e+02
3.230407151634217826e+03
4.942794445100249504e+03
4.716619495616828317e+03
4.667819015443967146e+03
4.969494351533799090e+03
4.919503403774848266e+03
5.247891978769248453e+03
5.351627110157128300e+03
5.139715477606275272e+03
4.239982681848048742e+03
3.309356190229285403e+03
2.855728535954687231e+03
1.530883033259423200e+03
-1.441993122106356395e+02
-1.771477521419512186e+03
-2.803997561381984269e+03
-4.007830352647033578e+03
-4.383115624521507016e+03
-5.231967039366264544e+03
-6.890260456182695634e+03
-7.369469542661368905e+03
-4.379563602434625864e+03
-4.047115185921783365e+01
4.510842838648580255e+03
6.594323022139815293e+03
7.153895276425104385e+03
7.227529039965621450e+03
6.713174244810752498e+03
5.226825596073549605e+03
3.313245225019124973e+03
2.033196354768552055e+03
1.921917513204115949e+03
2.073449407381777746e+03
1.538328878267343953e+03
-8.460701223918047731e+01
-2.089097533636469961e+03
-2.853012377370723698e+03
-1.818618854887214184e+03
-1.851223065450175511e+02
3.744537070033595114e+02
-2.797535448429107774e+01
-1.307417170010324298e+03
-2.097769735720227345e+03
-1.992100009732050239e+03
-1.811517793949873976e+03
-2.074972190833227160e+03
-2.831444455591652059e+03
-3.962887156271630829e+03
-3.767391660341075749e+03
-2.128030668448299366e+03
-3.398016743177844319e+02
1.119257313801992495e+03
1.776078732975920730e+03
2.014589889189911446e+03
1.023814064634783335e+03
-1.481249114101464329e+03
-3.220544371042982675e+03
-2.758185920576634544e+03
-1.524143140834809401e+03
1.368669822317112676e+03
1.918225720270700549e+03
7.125016291427883743e+02
8.705071075243954510e+02
9.202912283084790488e+02
-1.190753769803903168e+02
-8.996794717479713199e+02
9.684984395662647785e+02
1.847553580644689873e+03
-1.179427808284117418e+03
-6.430488619605524946e+03
-1.044460759306949330e+04
-1.174572932510427017e+04
-1.101187074992695852e+04
-9.049094715069388258e+03
-6.632496404950192300e+03
-5.785085647254850301e+03
-8.018784824442926947e+03
-1.112054668183074500e+04
-9.055295864701643950e+03
-3.935988050677995943e+03
-9.855325286229993935e+02
-5.228351460369750612e+02
-9.439125277767975604e+02
3.350194558739254262e+03
6.970609076534533415e+03
7.286364394834290579e+03
6.306458014374599770e+03
6.375981655545200738e+03
7.904006414375925488e+03
6.013489862171197274e+03
1.301517263239614294e+03
-2.318882861624060297e+03
-3.858746947497763813e+03
-2.553006894694070979e+03
-5.216558423127557944e+02
6.713514218783418528e+02
5.660565721146272153e+02
1.865502600104121257e+03
2.762750901455875464e+03
2.896819868814903657e+03
2.005732270743338404e+03
6.085815387837309345e+02
-2.524547750674123108e+03
-2.239567798029035202e+03
1.246588764063154940e+03
4.865956314678548551e+03
6.700564585928501401e+03
6.848502465211815434e+03
5.843852144560373745e+03
6.117605819388795680e+03
5.969816717561864607e+03
4.208416984454339399e+03
-7.226133949376833243e+02
-6.316127631083365486e+03
-6.004044355878490933e+03
-1.745366936831527028e+03
2.693815366674287361e+03
5.220499703689827584e+03
3.647726519513857056e+03
1.948624959920010724e+03
1.836280058061950513e+03
1.406751456194590901e+03
-2.859366184308252627e+02
-1.826778244513530126e+03
4.613274349965415126e+02
4.674404129013620150e+03
6.639492562180514142e+03
7.106556620037796165e+03
6.912676777751492409e+03
6.422901551442791060e+03
4.484211991164213032e+03
1.568643386005398042e+03
1.598172884874600641e+03
3.462872112483011279e+03
2.382788531732547654e+03
1.635872389830806014e+03
2.189179333722574029e+03
2.111789839174811732e+03
1.260007278946534143e+03
-4.583342914878604120e+02
-1.094704663788359539e+03
5.180401167028173859e+02
2.710078277208901454e+03
2.176563361545016051e+03
6.464442355113635585e+02
-6.743397348433504703e+02
-1.421774578121825016e+03
-1.238795100443666342e+03
-1.119376662130551040e+03
-1.706506032292169266e+03
-1.383245182971785880e+03
1.403155107928737948e+02
2.073169319580587398e+03
1.462292231642666366e+03
7.465829633689345712e+01
-6.237041871669198372e+02
-2.559813844328394225e+03
-4.974672173611565086e+03
-4.471223301736845315e+03
-1.581489847695659591e+03
-5.034367925654588589e+02
-1.092065982074060685e+03
-1.225420098890356712e+03
-8.905555813930798195e+02
-4.134556939698111933e+02
-2.080948733248461622e+02
-2.264922353870028076e+02
6.838734038527407222e+01
-4.574267581020678790e+02
-1.774007733557178199e+03
-2.435399997056481425e+03
-3.508681722174971128e+03
-2.746892901814057041e+03
-6.289787651226926073e+02
7.501557804080209735e+01
-2.649773883666031224e+02
-6.669704936709224512e+02
-1.038048625578652263e+03
-1.215246246140853373e+03
-1.500540572298059715e+03
-1.660020033399628801e+03
-1.542659199386115006e+03
-1.498491465725329817e+03
-1.265634596089914794e+03
-6.731392735109409386e+02
-4.060137163905665147e+02
-5.932417435422605649e+02
-3.027190068470777078e+02
-8.746439985691065999e+01
-6.305434627078883523e+02
-1.772043227079313510e+03
-2.688993893798110548e+03
-1.848318653289689337e+03
-1.292125764160844938e+03
-2.305446874750522056e+03
-1.925292216109389983e+03
-1.351725321933108944e+03
-2.356872767966114225e+03
-3.644846314206845364e+03
-2.915725473076191975e+03
-1.451523454877211861e+03
-6.052085140363474238e+02
7.917899085866000064e+01
1.249637472016104311e+03
1.446150252830496129e+03
4.307233169242306303e+02
-1.012716798242711434e+03
-1.355147651067570905e+03
7.138325794389014618e+02
1.974854679206004448e+03
1.707878158313218364e+03
1.532808038604750664e+03
-1.891169028061662516e+02
-1.876878020872771458e+03
-1.930428838208136312e+03
-1.780811804417965277e+03
-1.261183725481367901e+03
4.493725471583833269e+02
1.165829818181480732e+03
6.579752404321066024e+02
2.137223221384224701e+02
-4.880514566364671509e+02
-1.106862523008477183e+03
-6.767718724412897018e+02
1.244424998396907768e+03
2.923570721896874602e+03
2.828347585538094791e+03
2.559342907212134378e+03
2.310589189562753290e+03
1.269080122206568376e+03
2.004762992308603543e+03
2.752115542652071326e+03
2.396676648083875989e+03
2.147268201431904345e+03
2.469297796533097880e+03
3.135657760916094503e+03
3.794930759447118362e+03
3.626095896162093140e+03
2.537100284966257732e+03
3.680642578566623797e+02
-5.825949837819600816e+02
1.289787108968393568e+03
2.515818527971320236e+03
2.601805369791157773e+03
2.386140437424246102e+03
3.359439513163571519e+03
4.335187207079140535e+03
4.900735615071692337e+03
4.733055762748130292e+03
4.218907196364347328e+03
2.855721580287959569e+03
1.749272639527565616e+03
1.809595114759260923e+03
1.917856443896284190e+03
1.816185679586797733e+03
1.599989447298537243e+03
1.212222048860244740e+03
9.920244909914343907e+02
1.265127736609917520e+03
-2.666424006402390887e+02
-1.994722484210902849e+03
-3.860515381005483050e+03
-3.845247635679488212e+03
-3.547730749427929368e+03
-2.470280752734497582e+03
-1.823050922670318414e+03
-7.733452862614950618e+02
-3.652103256469197134e+01
-1.067395017691661451e+03
-2.673002323186928606e+03
-3.533645836391386638e+03
-3.235467947506213932e+03
-3.165275871515517338e+03
-2.382777313786206378e+03
-7.776521018285668561e+02
7.144732854878909620e+02
-2.045994430401884983e+03
-3.656417016573895580e+03
-3.903555751661617705e+03
-3.244295071446976635e+03
-2.946410334726675956e+03
-2.503384177911572806e+03
-1.826986579683862146e+03
-1.452563824368951373e+03
-7.548695518554673072e+02
-7.887351993170345850e+02
4.288223177650758657e+02
3.319084780554501776e+03
3.392252113556687618e+03
-7.644519299200026126e+02
-3.154027925752695410e+03
-1.518467599039810693e+03
2.202204835516133244e+03
3.223923123358140856e+03
2.485567541103897838e+03
2.543896436553559397e+03
1.622246625629099981e+03
6.965672311230124478e+02
1.437334422909030309e+03
1.878578830930099230e+03
1.408591707881279717e+03
1.697294627476818960e+03
2.195196745344028841e+03
3.371817622854905494e+03
3.655754993313462819e+03
3.999750145435217291e+03
4.560428461757916921e+03
4.774770851786009189e+03
4.678638451452976369e+03
3.720660419483072019e+03
2.731114809134247025e+03
1.888022016230328290e+03
1.588456736827464510e+03
5.603089901861046656e+02
-4.426637052563813199e+02
-6.853412803603338261e+02
-6.989475101280751232e+02
-8.872114219297982345e+02
-1.026496821845397335e+03
-9.955929137278753842e+02
-1.668516886104703758e+02
-6.622512095091728952e+02
-1.114490102477908977e+03
-8.252381002169215662e+02
-2.475627004344619877e+02
-4.873722210902819825e+02
9.703745998945146312e+01
1.212905134897243670e+03
2.206378093646585512e+03
2.450617904961522527e+03
1.234704254443298396e+03
-1.971659929729857481e+02
-1.482120157934252120e+03
-2.790092010151027807e+03
-3.556579368521244760e+03
-4.476700525512529566e+03
-4.626025107575259426e+03
-3.826744778137179765e+03
-3.387008325599105774e+03
-3.478366984236042754e+03
-2.937256195382664373e+03
-2.398964543009519275e+03
-2.521774615788162919e+03
-2.202473221665877190e+03
-1.884670715769727167e+03
-2.205128701285625084e+03
-1.656055983119103303e+03
-1.010213110650263047e+03
-1.498706747831197617e+03
-1.876397467538800583e+03
-2.530056624967534844e+03
-3.076714628142412494e+03
-3.584197520330222687e+03
-3.975657350436107663e+03
-4.451324277108927163e+03
-5.121860693383008766e+03
-5.675849117079921598e+03
-5.915664333290876129e+03
-5.871642788990003282e+03
-5.666115937616735209e+03
-5.226744203900670982e+03
-4.631108774335681119e+03
-4.799821101533053479e+03
-4.884631637526340455e+03
-4.704144227523443988e+03
-4.772236464654597512e+03
-3.916760000858341300e+03
-3.817129059588858127e+03
-4.441032995875406414e+03
-4.311281839925786699e+03
-3.430663972042673322e+03
-2.515775791311872126e+03
-3.117673939408029582e+03
-4.298165707258433940e+03
-5.568247487182849909e+03
-5.919535411195703091e+03
-5.779217230909000136e+03
-5.489177109890370048e+03
-5.329943535787580004e+03
-5.837782220816365225e+03
-5.260358190189706875e+03
-4.394539644972268434e+03
-3.978442783089550630e+03
-4.135771784592364384e+03
-4.279418441699029245e+03
-3.275272258245682224e+03
-2.223948016534143335e+03
-2.088018176667871103e+03
-2.600380848298159890e+03
-1.576097047025473103e+03
-1.260179197173668172e+03
-3.520354299030594575e+03
-6.779658540509302838e+03
-7.569254759812910379e+03
-5.029192160974817853e+03
-3.143426053285899798e+03
-3.337038366707163732e+03
-4.084415624053594456e+03
-3.719860884286345481e+03
-1.935496928816712852e+03
-8.288871624528457005e+02
-2.081336349065590525e+02
1.758264152225120114e+01
2.582696277165239280e+02
8.847478368738638892e+02
1.905841622668403716e+03
2.551520151062356035e+03
2.671889226695591788e+03
2.767784810544949323e+03
2.852393196536326741e+03
2.778574561439179433e+03
2.480928234732904002e+03
1.771840257451000298e+03
1.312415935257348110e+03
1.614600583196106072e+03
1.696837228985750926e+03
2.402652942000712756e+03
3.158910581112896580e+03
3.762184413253112780e+03
3.889257080999228947e+03
4.305923182611797529e+03
5.112686011489011435e+03
5.691123806337727729e+03
6.647169390106825631e+03
7.834117399159671550e+03
8.531293163562575501e+03
9.135097781006699734e+03
9.041123560939366143e+03
8.753797368499348522e+03
9.725902937007651417e+03
1.057294796995383695e+04
1.053368425421742722e+04
1.050163758018310546e+04
1.030139715057692047e+04
1.005438750683115359e+04
1.038793592636096400e+04
1.038664098539836232e+04
1.093407757443747141e+04
1.115694476902409224e+04
1.086182660863276942e+04
1.094734500412396665e+04
1.085494117929222921e+04
1.051821297822378619e+04
1.074900511210118930e+04
1.106898553521871145e+04
1.156975476587712910e+04
1.196375985399947967e+04
1.177335040708736233e+04
1.236711427311194529e+04
1.275965458068639236e+04
1.381150166085013552e+04
1.515139066220079803e+04
1.649088326281379705e+04
1.691866362259811649e+04
1.672056252674432835e+04
1.592618768176755111e+04
1.475789818662589823e+04
1.450227255033168331e+04
1.421012916074289387e+04
1.403590471213573073e+04
1.371304101690012430e+04
1.298015461299681010e+04
1.177609111174143436e+04
9.021708987485726539e+03
8.860651854266698138e+03
8.204388295877794008e+03
6.640606163433748407e+03
5.271091243827207109e+03
4.421627074938223814e+03
4.288911949644463675e+03
6.082722375994950198e+03
5.515898543094341221e+03
4.919334924586860325e+03
5.893943953248216530e+03
5.394419229620983970e+03
1.815307095050761973e+03
-2.221472548836727128e+03
-7.633043750229880970e+03
-7.667448696231481335e+03
-6.920919546135341079e+03
-8.533568619551951997e+03
-1.002852141301904521e+04
-1.553976805008664815e+04
-1.954605685911200999e+04
-2.203528188969792973e+04
-2.420355120456046643e+04
-2.712404349475479103e+04
-2.456777822638187354e+04
-2.349569642946312524e+04
-2.283469141609577127e+04
-2.139872737340546882e+04
-2.100480742662427656e+04
-2.154683835983099198e+04
-2.366571022453013939e+04
-2.569610682596295374e+04
-2.687260947038359882e+04
-2.301704280400671269e+04
-1.990646035203327847e+04
-2.172785404117293001e+04
-1.789259241123406173e+04
-6.269811255541060746e+03
1.831570248330542199e+03
3.950580266049911643e+03
-2.705626688850604751e+03
-1.112917167241083553e+04
-1.029362482902429656e+04
-3.108414039231672632e+03
3.767090906123097284e+03
-1.774820097174372677e+03
-2.053588077986608914e+04
-3.958569552486332395e+04
-4.157884334715410660e+04
-3.034781919592815757e+04
-2.587312935120775001e+04
-2.366732578973548880e+04
-9.961081816501220601e+03
2.314222220989896869e+03
-1.233777703421389333e+03
-8.816330665695017160e+03
-1.472302217312341236e+04
-1.181123194271700231e+04
-9.979476606989670472e+03
-1.236022001487455600e+04
-2.039480182461456934e+04
-1.235266186210713931e+04
1.189186304008343177e+04
9.404562900689972594e+03
-1.035395844885048609e+04
-1.742929703147336113e+04
-2.219311996919704688e+04
-2.230895656681682158e+04
-2.172113908186235221e+03
1.479206616709682385e+04
1.870062539004720384e+04
1.784704401450394653e+04
2.202758358999903430e+04
1.845299861002679245e+04
5.567002015466880948e+03
6.268251036258672684e+03
1.700823610141711106e+04
4.891548048630425910e+03
-9.343199563604091963e+03
8.627162639224516170e+02
4.195878960575034398e+03
-1.763243977809177522e+03
2.411925091621381216e+04
5.756394853850499203e+04
5.598323359333318513e+04
3.841973509455875319e+04
3.086494783528640255e+04
3.657039067621343565e+04
4.189364314910618850e+04
3.842713705287929770e+04
3.229348345928810159e+04
3.020219776658926276e+04
2.821364704191246346e+04
1.598535697449347936e+04
-1.224112992840475272e+03
-1.708235336487399400e+04
-3.141692288142584584e+04
-4.277242808610209613e+04
-4.614234816730165767e+04
-4.033328591515092558e+04
-3.337486206517294340e+04
-2.728162703110578150e+04
-1.165120320228800119e+04
-3.302139435955053614e+03
-9.461066710541741486e+03
-4.917691668252887212e+03
1.336533598676495058e+04
2.014234618554948975e+04
1.607359855008779778e+04
8.866296430378828518e+03
3.362086424488360592e+01
-5.594247447301597276e+03
-9.920189098723098141e+03
-7.662073547800861888e+03
7.385267908925884512e+03
1.508909461078839558e+04
1.684346654230782951e+04
1.576547345336091166e+04
9.162212569663162867e+03
5.347759463000691539e+03
2.058042703683458512e+03
3.500395320113714774e+02
8.057527895699736291e+02
2.386226588649698897e+03
6.484555345469509120e+03
6.519731007875607247e+03
1.615676428683934091e+03
-1.385685636241496468e+03
-3.543640256700498412e+03
2.286873060488296233e+03
3.392528974449318412e+03
-2.165945116687449172e+03
-6.306734223486256269e+03
-1.474803348708558588e+04
-1.751116483003977555e+04
-1.649398351816338618e+03
1.791708555272833837e+04
3.291004188579582114e+04
4.064214076806140656e+04
4.120604474517892231e+04
3.879633641136557708e+04
3.160962893373431143e+04
2.341566277911612633e+04
1.679509602001390522e+04
2.125258299593798802e+04
2.655569580250863510e+04
2.729902714494112297e+04
2.406912695561535293e+04
2.211452040805073921e+04
2.239769024852794610e+04
2.812107661585547612e+04
2.710419101716149817e+04
1.562253784555629682e+04
6.589606419525445745e+03
2.637846021214305438e+03
1.811732305509078969e+03
5.387412452338645608e+02
4.563061633197891638e+02
-1.910099270271899286e+03
-4.013043709574867080e+03
-1.073112289466726452e+03
2.766274692591448456e+03
3.575531702030762972e+03
3.171967993702862259e+03
-2.321068777509587107e+03
-7.171224060416110660e+03
-1.118700370487379951e+04
-1.958288978561476324e+04
-3.149146890100901874e+04
-3.768145849513035500e+04
-2.963552639416601960e+04
-1.439234667260159586e+04
-1.783494234941573040e+03
3.155494063737897250e+03
8.196947280940121061e+01
-3.533689149022016409e+03
-6.548039512281514362e+03
-1.118959926672261827e+04
-1.720291270832002556e+04
-2.057265570290973847e+04
-2.134739012485439889e+04
-2.324458164489654519e+04
-2.405073424922286722e+04
-2.312055686335614519e+04
-2.122342515077867574e+04
-1.909564876930304672e+04
-1.700372550795419374e+04
-1.522620926766887533e+04
-1.267287017710258988e+04
-1.115533493699740939e+04
-1.304410732462829401e+04
-1.613523026839537306e+04
-1.949027193125480335e+04
-1.890687572496760185e+04
-1.957847400002707946e+04
-2.161650511925101455e+04
-2.193236195144361773e+04
-2.196940530191851576e+04
-2.243196931937304544e+04
-2.199543204977847199e+04
-1.628516958457227338e+04
-6.827505953994197625e+03
-2.556759164171415250e+03
1.396806873743277492e+03
2.789958160429105192e+03
-4.705095601058191619e+02
-1.302827148098051566e+03
-5.672888558663373715e+02
-7.771412946814748466e+02
-6.366086440419920791e+02
3.140561065457515042e+02
-2.187367824353943433e+03
-3.721045315094049329e+03
-3.537074591935229364e+03
-5.589627384455140600e+03
-9.841859135914679428e+03
-1.163784642413889560e+04
-4.120704135551930449e+03
-4.452355733601376642e+01
6.007008909474943721e+02
1.371008344604753574e+03
-1.234587599555178031e+03
-6.307058718561534505e+01
1.966503010574566588e+03
5.617186139721401560e+03
8.179075958646219078e+03
1.131524705103249471e+04
1.294880590522370221e+04
1.146882104318431084e+04
9.651344246572816701e+03
7.340578569421563770e+03
6.479586228244276754e+03
5.449543322364739652e+03
5.091569479784748182e+03
3.217753614384897446e+03
8.913130827807443666e+02
1.348550046825163463e+03
3.891662084629698256e+03
7.584903533140231048e+03
9.593473881149891895e+03
7.924596491706364759e+03
5.840577530486397336e+03
5.455617440235461800e+03
4.016087245018830799e+03
2.399228720086940484e+03
1.292270468009289743e+03
1.441481347992179735e+03
3.068151664322907436e+03
4.455601469223727690e+03
4.683299676344571708e+03
5.488654675775582291e+03
8.949860515029367889e+03
1.052123849574002998e+04
1.037815434110516435e+04
8.686907128036078575e+03
7.608930889524986014e+03
8.026566076002985938e+03
8.933261674266062982e+03
9.775420883817445429e+03
1.014338354824867565e+04
9.976785297435299071e+03
1.054576751220550796e+04
8.516905366911811143e+03
5.653495027936621227e+03
4.536481431754491496e+03
4.924615389787615641e+03
7.618156059603625181e+03
1.106247217811048904e+04
1.060806752328908624e+04
9.771306022918846793e+03
8.858854915203546625e+03
8.426106199600604668e+03
5.930177259416590459e+03
3.550223326000950237e+03
1.756764169337005569e+03
6.541800834408455785e+02
1.696936624139558035e+03
4.682409953237898662e+03
7.001101392806664080e+03
6.111106328826979734e+03
6.251663058570184148e+03
6.873939644745277292e+03
7.120208852437138376e+03
6.807787978150953677e+03
5.563779461511425325e+03
4.135295754320803098e+03
2.080814252170075633e+03
9.118120431621929356e+02
1.777406543102651540e+03
9.537312437461316676e+02
-3.049589750136063685e+03
-8.103229922829477800e+03
-9.251546798476450931e+03
-2.959911211152654232e+03
1.965165346920166030e+03
5.976853432174899353e+03
9.268643304634253582e+03
6.771468835291444520e+03
4.083782750743812812e+03
3.282151789875889335e+03
4.809149004897113628e+03
5.307757024151313090e+03
5.175079872037900714e+03
4.819509967878034331e+03
4.013548486509721897e+03
3.714277264052466762e+03
3.596671094455006369e+03
3.239078596624479360e+03
1.056613337220997892e+03
-2.210711954540061924e+03
-5.289006991021316935e+03
-6.569145704729558020e+03
-8.051661575112258106e+03
-8.415515214713599562e+03
-8.761322690893202889e+03
-9.783967719431266232e+03
-9.027112732601914104e+03
-8.361183027602344737e+03
-8.389459253724829978e+03
-6.515533464139703028e+03
-3.429498456150266975e+03
-1.003716394348354015e+03
-2.007886361330047066e+03
-4.359056279506517058e+03
-4.890643666582844162e+03
-4.600459811979846563e+03
-3.027681507174365834e+03
-2.348494372476185163e+03
-5.448584448248332592e+03
-6.376441084318697904e+03
-6.472490721250694151e+03
-5.747892740410791703e+03
-6.246664889461656458e+03
-7.459758747835455324e+03
-8.512387097205912141e+03
-8.973192502345795219e+03
-8.316114226042542214e+03
-6.922769977458679932e+03
-3.379418650010321926e+03
-4.351874217658782072e+03
-7.531381633689553382e+03
-6.371520420983062650e+03
-2.727895924875597302e+03
-9.711138246080491854e+02
-2.392595939269383791e+02
-8.540457651656892324e+01
5.003320188780956812e+01
-1.177204676768666047e+02
-5.328879702059537067e+02
-8.105333408287177690e+02
-1.120861019338188953e+03
-1.607253145505602333e+03
-2.148608432872726098e+03
-2.600853545232199849e+03
-2.695056455263368662e+03
-2.973780187041041700e+03
-3.320859410390756693e+03
-3.160607206973520078e+03
-3.230181033906155335e+03
-3.082648325792380092e+03
-2.791786407687474366e+03
-2.947616883429523568e+03
-2.015981568412405068e+03
-1.190175242609561337e+03
-4.986560218559931741e+02
4.382759559198836428e+02
1.189865827425964653e+03
1.523338219182773400e+03
9.255582761795143369e+02
-2.686352122920217766e+02
-5.278021444317761279e+02
-4.692731212610860894e+02
-1.276817500363048566e+03
-1.556262918697757186e+03
-1.109287969895059177e+03
-1.095325328440191242e+03
-1.637607955254635726e+03
-2.027161238137168766e+03
-2.245111073982033304e+03
-2.196651569258579912e+03
-1.916936353387357485e+03
-1.371300022670896624e+03
-7.854940970197702654e+02
-1.710256888540185827e+01
-1.058344413197527274e+03
2.117249517649317170e+02
2.344603189031008696e+02
1.641600537964594366e+02
1.271739009673246414e+02
-7.970145535413497839e+01
-7.617722677528478243e+02
-1.675645135632243864e+03
-2.174359247481664625e+03
-1.597344360874749327e+03
-1.063379990414025087e+03
-1.278338559509844117e+03
-1.639912928740887537e+03
-2.252845728901345410e+03
-2.660623657651088251e+03
-2.519159745063428545e+03
-1.964479641604210883e+03
-1.455395971208380161e+03
-5.421178884861627694e+02
5.866050432122794973e+02
1.607068175368627408e+03
1.881230413432941987e+03
1.077918835064215727e+03
3.845749201792630743e+02
-5.838741306457109914e+01
-3.230443853545692718e+02
-6.674518046154278181e+02
-6.279500586689212014e+02
-1.116801779090334094e+03
-1.941004881663420747e+03
-2.240741274163734943e+03
-2.978901093922463133e+03
-2.995511935706676923e+03
-1.460970719739323840e+03
-4.594664235538049297e+02
6.810833736517646742e+01
8.297824455786403632e+02
1.337020927435991780e+03
1.600810450891121718e+03
2.693093447486909099e+03
3.812326553699112992e+03
4.339959808454636914e+03
4.557560379537971130e+03
3.966896028172714978e+03
3.442065019553770981e+03
2.791887935484311129e+03
2.361695462749436047e+03
1.865010807058338060e+03
1.279859495511802606e+03
8.012282006369509872e+02
5.812310107128995469e+02
1.479863876301454013e+02
-6.072418946112080818e+01
9.983265408248354333e+01
1.367200147070584535e+02
-4.851540079345288063e+02
3.829425558753065957e+02
1.396763001577081695e+03
9.720665622799102721e+02
1.941707190282761985e+03
3.264652818769136957e+03
2.827730095019233886e+03
-3.241692750154034570e+02
9.841202141356501443e+02
2.166701569220962483e+03
2.636511608131106641e+03
2.806077197025590976e+03
2.338383494444882672e+03
1.478441695611329351e+03
7.860966065700507670e+02
9.832636761701223804e+02
1.605845774767123658e+03
1.710625434542283983e+03
1.378998020943365873e+03
8.354808037800816010e+02
6.002380269744451198e+02
7.871746071532139695e+02
1.607338303183334347e+03
2.326008140178269059e+03
2.488066351773432871e+03
3.146353430110911177e+03
3.504847003264475916e+03
3.844477486180293909e+03
3.838988442608654168e+03
3.718467820949686939e+03
3.723764577994353658e+03
3.416759081913401133e+03
2.919604504008953882e+03
2.408527830296565298e+03
1.785301163748137924e+03
1.039056186231756328e+03
4.498749084489390384e+02
6.889446290667953008e+02
5.792816777239563635e+02
2.732186145843433565e+02
2.423769041289242807e+02
5.395925333978218532e+02
6.647428199426132096e+02
9.107755751426508368e+02
1.350548091850949731e+03
1.383057613916801984e+03
1.237504128887268052e+03
1.882022455124975295e+03
2.326671214986168707e+03
3.034300423228053205e+03
2.710875374994708636e+03
1.416442426874008788e+03
-4.185893528159299137e+01
-7.810223159561111288e+02
-1.320156653309488320e+03
-1.375361787359393247e+03
-1.625819862326343582e+03
-2.253494268966532218e+03
-2.952990562801940996e+03
-3.850230394545793843e+03
-3.665229085618741465e+03
-3.051770509923766440e+03
-2.481752054811507151e+03
-1.780168160614350654e+03
-1.892114982435936327e+03
-2.636632740491904315e+03
-2.249591309649004415e+03
-1.253832587750783205e+03
-1.143340297758538782e+03
-1.332291196975086450e+03
-1.129477102678945585e+03
-1.774719879519051801e+03
-1.967840352517073825e+03
-3.208733657247994870e+03
-5.800269792927679191e+03
-5.931502166215262150e+03
-7.057436256648235030e+03
-5.803991124412208592e+03
-7.608971489890201156e+03
-6.492228450531965791e+03
-5.270357628859705983e+03
-7.309096836928853918e+03
-6.670524412398837740e+03
-7.485603048052476879e+03
-6.469328297257121449e+03
-4.523579168045091137e+03
-5.929861073140512417e+03
-4.668126810684480915e+03
-5.254288151796579768e+03
-3.841225657187217166e+03
-3.543580510389887422e+03
-3.092129491179572142e+03
-1.912637866796178969e+03
-3.782981217756046135e+03
-4.873243152698822087e+03
-2.505430987681842907e+03
-2.619406331183325619e+03
-5.045768387997184618e+03
-3.533347824360712366e+03
-2.650923055732429930e+03
-8.843482073776635843e+02
3.804544832675891826e+02
-8.943074839510663878e+02
-1.554356420460517256e+02
2.203386451074137312e+03
3.177369821787756337e+03
3.744723081246238053e+03
2.061806246392465255e+03
1.929891319286457019e+03
2.906210207775990966e+03
2.740794641029964168e+03
3.584176749061801729e+03
3.505485353610350103e+03
2.722883750335003242e+03
2.220485239044659011e+03
1.575822859631221036e+03
1.628171392418808409e+03
1.821530199161253904e+03
1.578896079709963033e+03
1.566603539570356816e+03
1.458842676665464751e+03
1.114767566578987044e+03
2.226645130476416398e+03
4.002645422223838068e+03
5.032840354788997502e+03
5.480306837269963580e+03
6.203411061857579625e+03
6.940401297396392692e+03
6.819643821868181476e+03
6.474210833998919952e+03
5.878250361437977517e+03
5.204828524840064347e+03
5.140079910936187844e+03
4.815186924362625177e+03
4.614119465079580550e+03
3.831926097224823025e+03
2.754723661802188872e+03
2.006491722155175466e+03
1.971094714764952641e+03
2.252642451070620154e+03
3.092630632039538341e+03
3.059361884573167117e+03
3.062672118380684424e+03
2.881648464066550787e+03
3.221381252054920878e+03
3.680889784296708967e+03
3.773574709194685056e+03
4.026326997860666779e+03
4.137024598766586678e+03
3.685658842277103304e+03
3.039367451372671894e+03
2.869267678133503978e+03
2.336382395324961635e+03
1.420692788045515954e+03
1.003140741542120622e+03
1.313703147293640995e+03
7.482836714841580488e+02
1.640100111876552944e+02
4.150922279811107956e+02
7.242256778493889442e+02
6.332830007383211068e+02
2.804287522263231835e+02
8.458361534419551617e+02
1.190339436059157151e+03
1.312835241318222643e+03
2.502276331583026149e+03
3.566653929900538969e+03
3.795955473597759919e+03
4.153159426222910042e+03
3.918326631225657366e+03
3.283492055005759994e+03
2.529529534302945194e+03
1.826170478388320817e+03
1.194358753642500233e+03
6.811120189881888791e+02
3.024715824293251671e+02
-1.416110028146605089e+02
-6.973846937951136624e+02
-1.914973721766268000e+03
-2.499401276292378043e+03
-1.798805198038764502e+03
-1.076260916189247382e+03
-6.968252502416962670e+02
-7.435795218217273259e+02
-5.876529889854015209e+02
3.689240167734679403e+02
5.181036071314042601e+02
1.013861846356960882e+03
6.031379619397624765e+02
-3.392052059305470380e+02
-3.356286214878839019e+03
-4.678323372681069486e+03
-4.539522476521347926e+03
-5.168938933202363842e+03
-5.813535144487872458e+03
-6.423386933953625885e+03
-6.763637774416490174e+03
-6.868524887812825909e+03
-7.220271845310025128e+03
-7.114018092528831403e+03
-6.321844333883832405e+03
-6.602860866486607847e+03
-6.647951393036174522e+03
-5.550283110853086328e+03
-3.162922969391026072e+03
-2.304985743371207263e+03
-3.095601045871776478e+03
2.650684255196255208e+02
1.547011945377164921e+03
-2.489850034402551046e+03
-3.547705155579117672e+03
-9.287354378958381176e+02
8.409197225709399959e+01
-5.063804875634807559e+02
-6.703928651877007496e+02
2.619074577204256116e+02
-1.855970001483942724e+02
-9.889702577752351544e+02
-1.009313555865096305e+03
-1.067727013100580962e+03
-1.202369327743378562e+03
-1.408395256669193031e+03
-1.040891273969254826e+03
-2.168445757126282558e+02
3.476930965561884932e+02
7.266695439815816826e+02
1.526087411864184787e+03
2.103863247384297665e+03
2.441929291300300974e+03
2.667172908470056427e+03
2.986496119732990792e+03
2.724802988823399119e+03
1.876025692793697317e+03
8.760722186218733896e+02
5.408808857431769184e+02
2.792901132167892797e+02
-3.608146485192716568e+02
-1.209519945673388975e+03
-1.273959294745107172e+03
-1.422206234224766149e+03
-1.830164941211029372e+03
-1.443795769196079164e+03
-2.252071826129384249e+02
8.955252451520713919e+01
