2.775663833214542137e+03
2.547920145148531901e+03
2.099959899082727588e+03
3.157846305435522481e+03
4.361711339146897444e+03
5.534663370603031581e+03
6.797680774078434297e+03
6.529763379231030740e+03
4.833913018226224267e+03
3.023105930047915535e+03
2.405380281015253786e+03
1.782778483959523101e+03
1.962744902883217151e+02
-6.130805321579831570e+02
-6.133127495308004882e+02
-1.024444576661565634e+03
-1.997438716678012042e+03
-2.773272215052416868e+03
-3.801919627084771946e+03
-4.892345013558635401e+03
-3.575451366071464690e+03
3.247713396428869146e+02
3.115400051410631932e+03
4.437461506563935473e+03
5.153031534282028588e+03
5.040146989044421389e+03
4.391906152939874119e+03
3.949329854894110667e+03
3.484413041868834625e+03
3.117127333311038001e+03
2.349499335190048896e+03
2.403557658065687519e+03
2.126185922058777578e+03
1.834355337454524943e+03
7.140552298738313084e+02
-5.028338204485119434e+01
-7.654839132856449169e+01
-4.791241334633530187e+02
-8.882766039405840957e+02
-3.425897289352488997e+02
6.991708961037104473e+02
8.352236393419026399e+02
6.266168461476040648e+02
9.442126736794824637e+02
1.498152990604378374e+03
2.298229603411854896e+03
2.889586895773907145e+03
3.274368601379384472e+03
3.131440496548633291e+03
2.109803762354644277e+03
9.953378400003708748e+02
8.019926992169548612e+02
5.926459932629245486e+02
-2.047173735450097638e+02
-7.901728540089590069e+02
-1.078729538246634093e+03
-1.023362641603288694e+03
-1.243102860762585351e+03
-1.195965572260696263e+03
-1.082958316758784349e+03
-1.250069053374287478e+03
-4.762715677354926811e+02
4.294746948874444001e+02
9.951851647327041519e+02
1.462893025050650749e+03
1.950616413850211984e+03
2.124388513486271222e+03
2.310222644026009675e+03
1.024056961906908100e+03
-1.660697758572665350e+02
3.197916969586395339e+02
1.157592176798370474e+03
3.903724828411080807e+02
-1.005931834728264448e+03
-1.528382621283724802e+03
-1.877067239818157077e+03
-2.598948540832792332e+03
-2.639082341059093324e+03
-2.559503860287757107e+03
-2.368201893255815321e+03
-2.119204536101843587e+03
-1.916522677815500856e+03
-7.201063941144701630e+02
8.400791372217290700e+02
1.282085846712778903e+03
1.115944821441989234e+03
1.445628707572015173e+03
1.402086818715396475e+03
1.295298043971444486e+03
4.502167510170446008e+02
-2.716519237494987138e+01
2.161415467814670137e+02
-8.695423761843403554e+01
-1.179577163706446299e+03
-1.731717660246403739e+03
-1.242351568306670515e+03
-2.622567636345876963e+03
-6.066465353724509441e+03
-1.013097069292433662e+04
-1.029317650886089359e+04
-7.141072409228344441e+03
-2.656563116911757788e+03
-5.316983954931488370e+02
7.224969898096103407e+02
1.119042468830581811e+03
1.567995946279630971e+03
1.719318908219228888e+03
2.042928090615629799e+03
3.105833689036939631e+03
3.056027589119029017e+03
2.317465517762111631e+03
1.665154862777705148e+03
4.670319419347268877e+02
-2.229382496349300027e+02
-6.328048544210193995e+02
-1.075666177081105843e+03
-1.234537127409330424e+03
-1.214442680367133107e+03
-9.024072876874107578e+02
-6.245524976445240100e+02
-1.078332864455011446e+02
5.707658522416263622e+02
1.335248328530195295e+03
1.807657432781223861e+03
2.129956555178964209e+03
2.452201201088965263e+03
2.404384108531095080e+03
2.316442358625283759e+03
2.344394311787534662e+03
2.080239964355712345e+03
1.851911208515338330e+03
1.517357903420648654e+03
4.085587048448688279e+02
-9.654947495485828313e+02
-2.056922400835984718e+03
-2.015770752902895538e+03
-2.115007418006453463e+03
-2.670656647632083605e+03
-2.434785464944764954e+03
-1.729345964578520807e+03
-5.603295376616432577e+02
8.127665625689246554e+01
3.764993786613456450e+02
7.572867640165962939e+02
1.689598100887402779e+03
2.531494336435366677e+03
2.952069499069986705e+03
3.108267776979893370e+03
2.585065842784201323e+03
1.780531320925610316e+03
1.381619876555108931e+03
5.152427212261932254e+02
-1.376291931415671002e+02
-4.389210137375653176e+02
-8.636804237392803998e+02
-1.324988643055658258e+03
-1.243967425842083912e+03
-1.448622413823988154e+03
-1.889881047625561450e+03
-1.885717800504992738e+03
-1.627054255139771385e+03
-3.688886264353340039e+02
8.627886447246313537e+02
1.733984242489889084e+03
2.627821498498976780e+03
3.002312246150002920e+03
2.457483948255165615e+03
2.140357599105929694e+03
1.857934304492288447e+03
1.620220328883471211e+03
1.292163641373229893e+03
8.667345356427920251e+02
4.118661839224014329e+02
-6.951564294216665019e+01
-8.933361856276210347e+02
-3.129491634172350132e+03
-5.144094869604399719e+03
-5.630199293992325693e+03
-5.029759401565325788e+03
-4.242824058698291083e+03
-2.384377677517124994e+03
-2.379328623813355989e+03
-1.311615549036802804e+03
-6.561567639731697454e+02
2.000991701519762046e+03
-6.532086442742747749e+02
-9.827009507488513691e+02
2.155574814657888965e+03
2.537667266758732239e+03
2.415607683818052465e+03
1.050411447465058927e+03
-1.477854224770744850e+03
8.417234797891395601e+02
6.203128964950505519e+01
-2.978958697303609824e+03
-1.100242978598614627e+03
-2.969972816940882240e+03
-4.202059194213401497e+03
-4.022369183354850520e+03
-9.109180576058387260e+02
-1.804723606040684444e+03
-2.538837611121599821e+03
-2.688227108322822460e+03
-4.477860533596173696e+02
1.438536721972351870e+03
2.125869405352964350e+03
2.594333708182535702e+03
2.844023952782059496e+03
2.497891200445621962e+03
2.076934777298458357e+03
1.977149085817481136e+03
7.035050206940245516e+02
-2.495199754358584698e+01
-3.552049119411765901e+02
-6.673883708295354609e+02
-6.165452531393443678e+02
-1.103635336349312865e+03
-1.133828742315847649e+03
-9.572351842159899888e+02
-7.887523843312537792e+02
-4.544137081593866014e+02
-2.522290760107878782e+02
5.528391060671185642e+02
2.139850178728330320e+03
2.801845840950035381e+03
2.771818648803030555e+03
3.285916405814469272e+03
3.441023993495253762e+03
2.920831696543399630e+03
2.484238327269100864e+03
1.554710000808716359e+03
7.715187102126665195e+02
-4.437244821237923986e+01
-1.558687305122030864e+02
-4.389287715753670795e+02
-5.665621849811579978e+02
-1.376847064373776448e+03
-1.324919162485531160e+03
-1.126808833057229094e+03
-1.005543255863257514e+03
-5.220978276758315815e+02
6.124591812118910639e+02
1.081044045253179775e+03
1.476528876921958272e+03
1.428975034761372626e+03
2.053258532597816611e+03
3.112686303223566483e+03
3.526433666908162195e+03
2.716406732198344798e+03
2.093536007331312703e+03
1.737870967513973710e+03
1.590406902531442483e+03
9.961098695901922611e+02
3.228566835547717346e+02
-4.477360328176815756e+02
-8.577288099683627252e+02
-1.534653880393215104e+03
-1.500672281487173677e+03
-1.482994279348301916e+03
-1.493800388273652743e+03
-1.142131816664615144e+03
-4.108837333295683720e+02
1.010520456070665745e+02
8.025864777353307318e+02
1.944642757437908131e+03
2.939324455548267451e+03
3.691754318823268477e+03
3.691013255837105589e+03
3.225105616962242493e+03
3.297977715769932274e+03
2.792298679090500627e+03
1.819936045112859802e+03
8.079870107688291228e+02
4.345330254300976662e+02
-8.845728372057087086e+01
-7.489538449877918538e+02
-8.709155642139447764e+02
-1.050502299167655110e+03
-1.044993182010520741e+03
-9.004188412258894232e+02
-3.217590490120659865e+02
2.602029261296582945e+02
9.914890451289068096e+02
1.468023873443659795e+03
2.036840933049991236e+03
2.687905025782829853e+03
3.005313146638740363e+03
3.078276470747385702e+03
1.389708229096597506e+03
-9.694167598046210514e+02
-4.775173165106565648e+03
-3.461586882778397012e+03
3.591106002884997679e+02
-6.851857194271806293e+02
-6.103122577026694671e+03
-7.767512117877784476e+03
-8.343395054970507772e+03
-8.657833509894160670e+03
-8.448872184980364182e+03
-7.932329910828778338e+03
-6.657118839825204304e+03
-6.511198957638224783e+03
-6.077729591578089639e+03
-4.854824653400263742e+03
-4.828340809757199168e+03
-4.095411474654520589e+03
-1.302066909591322883e+02
2.800359281281549556e+03
3.522651223202247820e+03
3.512774719702443690e+03
2.986572192409884337e+03
2.534934814494441525e+03
2.052731107817550310e+03
1.051921597684267454e+03
5.166054151746933485e+02
1.256787178521137633e+02
-2.238138029306004455e+02
-5.847524943810090008e+02
-7.121049804058952759e+02
-7.148274979057283645e+02
-5.530191753363684484e+02
9.637904094925666243e+01
1.082525789818630983e+03
1.711745763948020794e+03
1.916951554075031254e+03
2.482058799423848541e+03
2.769078548337359280e+03
2.619915958437478821e+03
2.716578439161450660e+03
2.670278180302762394e+03
2.358079822039517694e+03
1.716006659779176061e+03
1.675276077649074068e+03
1.062876835689433392e+03
2.087138402478775561e+02
-4.131868524010822625e+02
-9.868658966317262866e+02
-1.862325827760724906e+03
-1.923713985931884963e+03
-1.596239137472665561e+03
-1.281742226270858509e+03
-5.929320881098515201e+02
2.834738493718702443e+02
6.644999850884037187e+02
1.200992621600786606e+03
1.607267379249195528e+03
2.171770674722177318e+03
2.469400438604705414e+03
2.452924789543898441e+03
1.979148568921506239e+03
1.476001788633899196e+03
1.204550047579469947e+03
5.568507080028630298e+02
-4.700247018049495864e+02
-8.898832722543118052e+02
-1.932610259702296162e+03
-2.828451536957798908e+03
-3.095584541427851946e+03
-3.010112539306670442e+03
-2.526848091663797277e+03
-2.180624415344133013e+03
-9.051589206703883974e+02
-8.056225607619023776e+01
2.991847098857637093e+02
6.181698651000423297e+02
9.581064117836975811e+02
7.099666169895459689e+02
6.989466323657804878e+02
3.552047021522744217e+02
7.058243138889317834e+02
9.359911152912802663e+02
4.746309576598407602e+02
-2.551642471880734675e+01
-1.055587717150047666e+02
-4.615037937753257893e+02
-1.079250800975380116e+03
-1.792643246415156455e+03
-2.644815179558299860e+03
-2.969950735486652320e+03
-2.375020289624889301e+03
-2.179867417085841680e+03
-1.412377821102964617e+03
-6.175635706386335642e+02
7.971407480166188009e+01
9.204658330717621766e+02
1.395664113261572084e+03
1.723327348689140990e+03
1.885482251919536793e+03
1.853029734062914486e+03
1.755049001191297066e+03
1.281685034624550326e+03
6.749879410122921399e+02
1.287472487083742578e+02
-4.750930471469706049e+02
-1.468677629316395496e+03
-1.985053103621374476e+03
-2.422295791966858815e+03
-1.940535606901707069e+03
-1.616757742705472083e+03
-1.718852314747973651e+03
-1.898689707517610486e+03
-1.601373841613560217e+03
-6.580302006804391795e+02
2.992469944532644490e+02
1.016679625596587016e+03
1.769362624701949926e+03
2.296257358199717601e+03
2.557168807861681216e+03
2.568087554723063022e+03
2.676946862240424707e+03
2.378591238751435867e+03
1.955015743921785770e+03
1.151189881661393883e+03
2.571071237101833162e+02
-2.751763203080153062e+02
-1.170716199141868628e+03
-1.668509050039031081e+03
-1.853649042839660069e+03
-1.987306029049435210e+03
-2.278660029625642892e+03
-1.228703172879668500e+03
-7.514566267291512531e+02
4.413570240877315598e+01
9.090378561057293609e+02
1.773142193265642845e+03
2.652518993669616066e+03
3.345027866264321801e+03
3.720592216322630065e+03
3.588210416459256976e+03
2.667709539819785277e+03
2.595165708243294375e+03
2.962622634637829378e+03
2.442259678159431587e+03
1.073995462450298874e+03
-3.045042209422553015e+02
-9.913888517481083227e+02
-1.662780217152943806e+03
-1.756973017048203019e+03
-1.608655766625260640e+03
-1.917863611818512481e+03
-1.897552625157886041e+03
-1.200138419133697198e+03
-3.200616324607483421e+02
4.143367281708810879e+02
1.277696141694505513e+03
2.015990783162926618e+03
2.579342751805323132e+03
3.728171587580308369e+03
4.722321949626491914e+03
4.968360178747206191e+03
4.700414077962364900e+03
3.961413676527615280e+03
2.669919449996418280e+03
1.566290476900743670e+03
8.736788620791718358e+02
3.166372594969287206e+02
-3.109340176278635113e+02
-1.374762787424342605e+03
-2.215040468153582424e+03
-2.853526703158217060e+03
-3.813836978588431066e+03
-4.118911937346731975e+03
-3.552707084825331549e+03
-2.024220751206831437e+03
-8.764566972193396168e+02
-1.002501394621314375e+03
-9.063379006999288094e+02
-6.298950381493074246e+02
-1.751203714836701408e+02
9.038420543400047791e+02
2.000933342988907953e+03
3.194138088148014958e+03
4.585357030862721331e+03
4.171553817017132133e+03
2.956719201795587651e+03
2.794836565689542567e+03
3.355898312829800943e+03
3.514889719012643582e+03
3.188963147861007656e+03
2.388156745929853969e+03
1.760209739959318313e+03
7.471366090570281813e+02
-1.208950670746223750e+03
-4.085032871568195787e+03
-2.630102861337360991e+03
-1.955023987278497998e+03
-5.328003134677578601e+03
-5.241972371004356319e+03
-5.751870152402868371e+03
-6.301613982332412888e+03
-6.215321622895012297e+03
-5.620012375384982079e+03
-4.636719760997791127e+03
-4.044349194074251500e+03
-3.788869419536804344e+03
-3.868261383977172500e+03
-2.630536684929815237e+03
1.497204651253216753e+03
1.795914707631555530e+03
-2.947325731374849511e+03
-1.912448020700234338e+03
-2.357354058530601833e+03
-5.200999742773234175e+03
-4.796241016525184932e+03
-4.809968256529845348e+03
-5.679164351814304609e+03
-5.830866524280704652e+03
-4.569063882905541504e+03
-2.804703717272625454e+03
-2.524726695529742756e+03
-4.550040421520071504e+03
-5.044455889974346064e+03
-8.500147343673866089e+02
2.383328829631223925e+03
2.496614783211057329e+03
-1.381813468648467449e+02
-2.126075475945488506e+03
-2.444071581296243949e+03
-7.331614395421649988e+02
8.497333825139993451e+02
3.586515299530022958e+02
-5.003641159257882691e+02
-2.732603541678053034e+02
2.437027299891642997e+03
6.077669948348171602e+03
8.849787175293500695e+03
8.383421867636323441e+03
6.910692689551869989e+03
6.168713722948665236e+03
5.814565968430910289e+03
5.109194921582661664e+03
4.323662709165103479e+03
3.764047702581799058e+03
3.717398651802448057e+03
3.514712499693080190e+03
2.720984455880987298e+03
1.062288469147405976e+03
1.831688850090523147e+03
2.393233750177070306e+03
1.360949034573315885e+03
6.539405864716454744e+02
-8.977364947645983193e+02
-1.461029002220893972e+03
3.271562694767587232e+02
2.244958531250947090e+03
3.995563125855183443e+03
5.110169429735163249e+03
5.049895445739532988e+03
1.691453080231562808e+03
-3.523189542493299996e+03
-5.643783589829674384e+03
-5.839086117675342393e+03
-5.671046241816735346e+03
-5.668734061268349251e+03
-7.323049900020306268e+03
-7.357891363503349567e+03
-5.642100472951870870e+03
-2.568997826940262257e+03
-5.885458806331554342e+02
1.184337195279913857e+02
2.908002850707444850e+03
3.832261156844125708e+03
1.153146150321485038e+03
-1.703572765604058077e+03
6.173720321380461655e+02
4.915934381226567893e+03
7.163106702141531059e+03
8.332908414603143683e+03
7.936340274030460932e+03
6.997468526563987325e+03
6.682397657479627924e+03
4.777064951881817251e+03
2.789428656693502035e+03
1.344481046764304665e+03
7.972476794599267578e+02
7.987293822282549627e+02
-1.200074798618074738e+03
-3.283167278642927613e+03
-3.906576289635475860e+03
-6.093388173557675600e+02
2.034524009160096966e+03
1.948139200970158527e+03
1.311519384937739915e+03
4.716326644913646078e+02
-3.524832148592324756e+02
-5.857786507940594447e+02
-1.457160985958268384e+03
-2.007645856265241264e+03
8.879058008775352562e+01
1.601031842164408317e+03
2.383086036594518191e+03
3.486925860016938259e+03
4.050557751234059651e+03
4.436930347566012642e+03
2.321062023951392803e+03
-2.653116362133524035e+03
-6.472674856652572089e+03
-8.694586208745822660e+03
-8.656932243865310738e+03
-8.243808908298497045e+03
-1.096417055713324226e+04
-1.053703991028915334e+04
-4.951423063558709146e+03
5.036638610283434900e+02
4.489220599994542681e+03
5.703260440064745126e+03
4.689799161188341714e+03
4.280854261984997720e+03
5.363335563451227245e+03
5.131254419791855980e+03
4.176601346512711643e+03
2.400303820188908958e+03
-5.859049664667917767e+01
-1.978164996775525651e+03
-3.700556783820099554e+03
-5.304869008274247790e+03
-5.859134315512414105e+03
-3.576394967568809079e+03
-2.473751097480853332e+03
-1.408261761890521939e+03
1.172037067560182550e+03
9.921803341202095226e+02
-1.134856252788892107e+03
-2.271061300861962536e+03
-1.864435648501827700e+03
-1.327948011870137861e+03
2.134281478311557294e+03
5.468206496302393134e+03
5.596860095649011782e+03
4.230213414314905094e+03
2.352139213619054317e+03
1.618628722643954461e+03
2.880626164069999959e+03
2.806054713210177852e+03
2.288686550264914672e+02
-2.501015828657398743e+03
-4.025674995313175714e+03
-4.503052232859588912e+03
-5.325291590948771045e+03
-4.830440565201798563e+03
-4.172496380132885861e+03
-3.650451675564218931e+03
-3.093361402537273989e+03
-1.999298971502272934e+03
-2.212288090829564680e+03
-2.365357067154179276e+03
-1.004499575191127406e+03
1.605315824689035480e+03
3.228065251662701939e+03
4.575710643042266383e+03
3.827217355708877676e+03
3.308593791723678805e+03
2.485716228338631026e+03
6.145342092043875937e+02
-1.633039268069708214e+03
-2.888034749664441279e+03
-2.087461009554629982e+03
-1.410308272389115700e+03
-1.864636395740813441e+03
-3.781526820942387985e+03
-2.838061263284268989e+03
-6.402418301102063651e+02
1.567921164527289875e+03
2.324426220408739937e+03
2.954288339483744039e+03
3.345528609124249215e+03
2.380136862020518038e+03
1.378183560081632322e+03
3.770721044245847509e+01
-6.342882593798336757e+02
-4.068205913535194895e+02
-6.699978981594541665e+02
1.412103944231767514e+02
8.147611631107325820e+02
1.253643364850132230e+03
2.078511553271379171e+02
-4.376271541407505197e+02
-6.029366189654153914e+02
3.069045812369600981e+02
5.878717349709507971e+02
2.169301917685054377e+02
1.462037680676040054e+03
1.734182377692981390e+03
1.532433030725684603e+03
1.795816568129533152e+03
1.944222185098449529e+02
-1.534405783266236938e+02
2.390113315459882983e+02
2.124713748776316152e+03
3.829747233246119322e+03
3.354214816143638473e+03
2.666059872226565403e+03
1.258214955306304091e+03
-2.462290459772353643e+03
-3.742483158932079277e+03
-3.754389227772603135e+03
-2.549035270868956559e+03
-3.549384297777888605e+03
-1.926423984544730502e+03
-1.867197919118459595e+03
-1.939745447013513058e+03
-4.316055796742644816e+03
-5.437043555912756347e+03
-1.639675627408101263e+03
-1.959626813072158029e+02
1.559097410540344072e+03
3.145531097719387162e+03
1.731399249695047502e+03
-4.012014961669273703e+02
-1.477188340704359462e+03
3.274495428889861728e+02
-1.789329448947484707e+03
-1.483548403178998797e+03
-6.951957789201688911e+02
-1.947129406077594240e+03
1.128567953652310962e+03
-3.071613906938920309e+02
-5.172515588700539411e+02
-5.977177779312033863e+02
-2.595729138639458142e+02
4.541236098110434796e+02
-1.476052911725986121e+02
-4.586291478905388317e+02
8.860831625672020664e+02
2.248545170435947966e+03
2.600818620434491550e+03
2.856859749091699996e+03
3.237637695508595698e+03
2.972088640361739181e+03
1.702164506217947064e+03
6.249933415162498704e+02
-5.324032657066101137e+02
-1.916102977450355638e+03
-3.516154707621554735e+03
-3.299557892853918474e+03
-1.514261325805260640e+03
-1.719216006240836805e+03
-2.468477724199173736e+03
-2.499020280333519167e+03
-1.593743179020134448e+03
-6.832684627781858353e+02
1.611174885909675140e+03
1.392649459649907840e+03
1.220486897328581108e+03
1.675498186793098739e+03
3.053790686356597234e+03
3.607409771658996760e+03
3.595320731465711106e+03
2.982482248142339813e+03
2.408786392804408024e+03
2.729212525570575053e+03
3.339752197920352046e+03
3.604472656113257472e+03
2.629334692827386789e+03
1.257869879394204872e+03
-2.877483301162027374e+02
-1.712405152975115243e+03
-3.087499080173534821e+03
-3.913564660148920666e+03
-2.678389523715705764e+03
-5.631916259678490633e+02
3.680689301028930345e+02
4.084575461789372071e+02
1.459887587421870592e+02
9.353075479686388860e+01
-3.969825925502012183e+02
-6.424308780719861716e+02
8.043360487969096084e+02
1.606315611549006917e+03
2.148189135930196244e+03
3.453725966969387628e+03
4.063086699572334510e+03
3.860436113472879697e+03
3.260644953585364874e+03
2.434528630087479542e+03
1.662958011422243771e+03
8.158639880873837456e+02
2.943353752828447796e+02
-3.065489252629719772e+02
-1.035943783955188337e+03
-1.113054387507001138e+03
-9.659957335202000195e+02
-4.977491677032348321e+02
2.189505756222023933e+02
1.167194782763714329e+03
2.353862421999534490e+03
2.728976045601014903e+03
2.946670000367531429e+03
3.174980936405700504e+03
3.824928744638736134e+03
3.649377837221307800e+03
2.671310582403846183e+03
1.804803823720505534e+03
1.362853882988509213e+03
8.002638795149052839e+02
-6.397372000068395437e+01
-6.238304819972281621e+02
-1.167357278298920164e+03
-1.704430092747830031e+03
-2.159099666692669871e+03
-1.806468114563175504e+03
-1.757490302273902898e+03
-9.842171705811314268e+02
-1.651779430770409135e+03
-2.057952534592776374e+03
-1.653450480067704405e+02
3.616916912742213697e+01
-2.875632778314750340e+03
-3.390850874685634153e+03
-4.877505464252591992e+03
-5.846612463006126745e+03
-5.662137146507046964e+03
-3.247255467638648042e+03
-4.304004278843108295e+03
-6.806545740936791844e+03
-7.600934017323032094e+03
-7.138088036561098306e+03
-6.807204459170887276e+03
-6.909133072194643319e+03
-6.540563249565109800e+03
-2.751507031016441488e+03
-9.733468011363996766e+02
3.679799042263561404e+01
5.350862817441882271e+02
7.335392749245530695e+02
1.427255769627403424e+03
2.722378945273629142e+03
3.489990790129333618e+03
3.638336117333886250e+03
3.421440894395017040e+03
3.190217767222984094e+03
2.914607470158549404e+03
2.506647157514677929e+03
2.015525442972422525e+03
1.523190899464292897e+03
8.654835461510997447e+02
-5.658770854809732782e+02
-9.978876998726879037e+02
-9.104002653383967072e+02
-1.508337853763965768e+03
-2.241495589822554848e+03
-2.198778703123013656e+03
-9.132997796900507410e+02
2.180262617651495134e+02
1.605168276492715449e+03
2.397955947146957442e+03
2.946447665676005727e+03
2.938735853249532738e+03
3.279893145615164485e+03
3.078917918673796976e+03
2.787783393807375887e+03
2.470749561277370503e+03
1.819125786666088743e+03
1.780945667315511400e+03
1.442132025977509784e+03
3.815798457945570021e+02
-3.517226647785460045e+02
-9.654856939978942592e+02
-1.494866646005531948e+03
-1.718428944071561773e+03
-1.804345379253104511e+03
-1.639475906983477444e+03
-1.375564651821910275e+03
-5.164336562823056056e+02
-1.210528438784807008e+02
4.724873085716165519e+02
9.203110346623371925e+02
1.438509785477970809e+03
2.432235025235217108e+03
2.944733533477238325e+03
2.728078294781256773e+03
1.905503358661737593e+03
1.506113065745751328e+03
9.394944024683386488e+02
6.443799680850851246e+02
-2.111896968369489116e+02
-1.594319253489306448e+03
-2.258006848585009266e+03
-2.777010919427729277e+03
-3.369191479369724675e+03
-3.340585074244298085e+03
-2.693317130519272268e+03
-2.236367737476999082e+03
-1.781917342236535433e+03
-9.319536851623979601e+02
1.677864657891218201e+02
7.334445612000994288e+02
1.584099617695923371e+03
2.050701536952073639e+03
1.846046147866075444e+03
1.142288830279617287e+03
4.577780248824872444e+01
-7.884748296076013503e+02
-7.675754900946378712e+02
-1.469619460621513781e+03
-2.237625143289806601e+03
-2.520678844453203965e+03
-1.833821479755863948e+03
-1.436105348072958350e+03
-1.526558529704553393e+03
-1.598157810802678796e+03
-1.813754566306043671e+03
-1.606364957880818793e+03
-9.070934101990902718e+02
-1.870804193605953856e+02
5.617083254453140171e+02
1.262347349080408776e+03
2.087000362591151315e+03
2.127637382456306568e+03
1.850218852623440171e+03
1.723859060587521753e+03
1.488591911552469583e+03
1.017391191070146078e+03
8.201114014733793738e+02
6.326648545506444634e+02
4.850824234483359874e+02
-2.664925469332115426e+02
-9.823031393982238342e+02
-1.515569805747090641e+03
-2.036372185164543225e+03
-2.441598064561082083e+03
-2.687230339726995226e+03
-2.828197726873808278e+03
-2.282437960272513010e+03
-1.078915458408280983e+03
9.742707366008383474e+01
1.180445758434569598e+03
1.364079841582309655e+03
1.587450481312672309e+03
1.645479942171308721e+03
1.964051847194561560e+03
2.444168868450459740e+03
2.781876147733696598e+03
2.853054464519072553e+03
2.347641856988779182e+03
1.957527006196109824e+03
1.317707574192598031e+03
1.412224447399088092e+02
-1.295141671733229941e+03
-2.167364951583012044e+03
-3.177441706660951240e+03
-3.813535714521553473e+03
-1.229562289020241451e+03
-3.415844825690248854e+02
3.214469374817095968e+02
1.231475009087659373e+03
2.579536126512861756e+03
2.976773505183949965e+03
2.890160043777719238e+03
2.934765770161291130e+03
3.050782866334340270e+03
3.002051760658858711e+03
1.880486860177308245e+03
1.174892555589196036e+03
1.187291139000562907e+03
8.544179373352279754e+02
-2.556359396359469542e+02
-1.343702772506819883e+03
-1.609878228487768411e+03
-1.697467572727665129e+03
-1.273467395247168270e+03
-7.897988151655922593e+02
-6.979879533644495950e+02
-5.352071421911222160e+02
1.510691652456514191e+02
1.074996298585120257e+03
2.054516478825806189e+03
2.692413186265393961e+03
2.935986608513500869e+03
2.957004426151605003e+03
4.132406883425563137e+03
4.223229423163544197e+03
3.318073422116552138e+03
2.325313510078229228e+03
1.192961753291533796e+03
3.907322347083731984e+02
-2.955227508787411352e+02
-1.082911348608156459e+03
-1.700398221943557928e+03
-2.007004812051287900e+03
-2.154915163195423702e+03
-1.326174198791383787e+03
-1.437407884711348061e+02
1.097371793175429957e+03
2.039151889346197322e+03
2.988608899862793805e+03
4.008822826188049476e+03
4.316824194532784531e+03
4.414678424559862833e+03
4.562443027068607080e+03
4.263107899721905596e+03
3.901523485931816140e+03
3.295496860635782014e+03
1.523113350764322149e+03
-1.233530448084040927e+03
-5.025550952310063622e+03
-6.315040665622944289e+03
-6.750056796028008648e+03
-7.095800923092350786e+03
-7.832064603412566612e+03
-8.208789326196523689e+03
-7.945048107932128005e+03
-7.201998500988107480e+03
-6.127575805474561093e+03
-4.668700295133763575e+03
-3.679183593323545665e+03
-2.893048331038917240e+03
-2.227315615517696642e+03
-6.809924345468016327e+02
2.512941375102722759e+03
3.967572241296908942e+03
4.776978562336331379e+03
1.132205898779739528e+03
-3.344770768478415448e+03
-3.831909885723358457e+03
-4.510202509428779194e+03
-5.158826437598621851e+03
-5.734912661562490030e+03
-6.530413962328567322e+03
-6.564201815689501927e+03
-6.637150169319228553e+03
-6.545247525104490705e+03
-5.914427859685252770e+03
-5.651620772445354305e+03
-3.804947037624037421e+03
3.464060786939607794e+01
1.842241032320402610e+03
3.685863859013889396e+03
5.189575271247742421e+03
5.515414974656518098e+03
5.037485457560304894e+03
5.312854986559516874e+03
5.255551403444856987e+03
4.515602542523835837e+03
4.329004405462162140e+03
3.185762570807506108e+03
2.189922643476212215e+03
1.423515826423188855e+03
8.366372369668102920e+02
7.543329768821155312e+02
6.725800970253646938e+02
-5.916790062569375550e+02
-1.500390887748365458e+03
-1.139432854847135786e+03
-3.187009014764141739e+02
1.238867474327262016e+03
1.908317280502041513e+03
2.454725400280055510e+03
3.629202508286766715e+03
3.901841165817539149e+03
4.174683950003776772e+03
4.548777710774591469e+03
3.708181462499748250e+03
2.117962748167670725e+03
7.031369697424776177e+02
-9.472491963569415248e+02
-1.602078907091334713e+03
-9.815365422799471844e+02
-4.887091211810979416e+02
-2.028567942183472951e+03
-1.876632626571984247e+03
-1.758258133455279051e+02
5.186793049003878195e+02
6.562664214511522687e+02
1.322284333176236260e+03
2.408425748420440414e+03
3.528406104305801819e+03
3.448431565041718841e+03
2.449791589703364934e+03
2.964362355996935094e+03
3.595331317472920546e+03
3.165889333386544877e+03
2.756953516912296891e+03
2.221442050356337404e+03
2.110426384607703312e+03
2.074106125810396406e+03
7.262082885303769899e+02
-8.957173963981267661e+02
-1.614177380654262606e+03
-1.732350722476265219e+03
-2.500214340973168419e+03
-3.961748061720382339e+03
-4.834004186129658592e+03
-4.501050519920815532e+03
-2.883809074383832012e+03
-1.337151332437530073e+03
-7.550190986981791639e+02
-3.793416283376779461e+02
9.738795979477737319e+02
2.692695478314058164e+03
3.237105212973592188e+03
2.639059681949081551e+03
2.409572520548786088e+03
2.059702381311317367e+03
7.544645276254398141e+02
-8.621849422050497651e+02
-7.192831746702564715e+02
3.092021574642061523e+02
1.782095414407733358e+02
3.670445925658911079e+01
-7.883464885295952627e+02
-1.447088542537690273e+03
-1.933506767598949864e+03
-2.082524870466217180e+03
-9.490878208602402992e+02
-2.772177401097600296e+02
-2.778477735260460690e+02
2.070388809715530964e+00
1.675422261224187821e+02
4.955262471267189426e+02
3.549374788668414453e+02
5.577887093547203676e+02
8.241348902549034392e+02
1.182904809586244255e+03
2.292046106018240607e+03
1.945567757519686211e+03
1.174295987967525576e+02
-8.524369453210883876e+02
-1.175162814272050582e+03
-1.960776560179782564e+03
-2.528302784357324072e+03
-3.259778315060605109e+03
-4.240243634349748390e+03
-5.665697092963866453e+03
-7.132212067774359639e+03
-7.299805520197601254e+03
-6.939481166947665770e+03
-3.754203609683209379e+03
1.200088564818210898e+03
2.100278452224485136e+03
2.543392564226502600e+03
2.575356540825256616e+03
1.045147809841743083e+03
1.056789039660951403e+03
1.507220311348683708e+03
1.254333984771467158e+03
7.280896768527844642e+02
-4.366050216463098650e+02
-1.653814146255991545e+03
-2.228580093013257738e+03
-2.220997936380289957e+03
-1.801137120207260978e+03
-1.384009136469935811e+03
-1.042659228874609198e+03
-6.801675552645959897e+02
-1.094573634357742094e+03
-9.267561511762745567e+02
9.492542307951458724e+02
2.421442103333917657e+03
3.383800351154660348e+03
4.044244519710358873e+03
3.979779136061647932e+03
4.047360512031920734e+03
3.868884520416832402e+03
2.868211630908624556e+03
1.338358948301660121e+03
5.432555647578852813e+02
3.257703549973193731e+02
-1.821431627770156751e+02
-4.495091683612751581e+02
-8.193719225931321262e+02
-1.274770077756945739e+03
-6.187713575997292992e+02
3.605592137945408240e+02
1.313218968289689883e+03
1.490302119154917364e+03
1.898805857076789835e+03
2.008662512094610520e+03
2.544863279736528057e+03
3.589452727793237955e+03
3.957362917125131389e+03
3.861590542790421296e+03
4.071089728574323544e+03
4.172861156254238267e+03
3.254903771293124919e+03
1.843148362329771089e+03
7.125422482020746884e+02
-1.789382172223714349e+02
-1.383486768401010920e+02
-5.367331435320681976e+02
-5.771629240674596986e+02
-2.116708286223504558e+02
-1.063268644616143320e+03
-1.751989382720656749e+03
-1.061787727579986267e+03
3.903494396874796166e+02
1.027473191382659024e+03
2.210548016997132891e+03
3.050546299273526074e+03
3.036534921663725072e+03
2.999521868826711398e+03
3.133513241511379874e+03
3.214486433710141227e+03
3.622418931508614151e+03
3.489392312070725893e+03
3.219446150174944705e+03
2.916472354020141665e+03
1.140483281663712205e+03
-1.781442921576235676e+03
-4.897607490254988079e+03
