2.137307038868524160e+03
1.848243597596365589e+03
1.770435569536402227e+03
1.763929516043448302e+03
2.385707777231013097e+03
2.666811488829588598e+03
3.003372110648195758e+03
3.337351019330304098e+03
3.409717101776307118e+03
2.746510622229152432e+03
2.462759728140507832e+03
2.195457854427093935e+03
2.139790351903183364e+03
1.757824512196696105e+03
8.732997999530456354e+02
1.262975718209535216e+03
2.110984206100535630e+03
1.935478438918573374e+03
1.736597257522616246e+03
1.536110314794678288e+03
1.066792361655876675e+03
7.437543469332925952e+02
8.692074535251857696e+02
6.939909846400046263e+02
7.346928877391112565e+02
7.343818089677347416e+02
5.031494502939297604e+02
6.171984702200624042e+02
7.520643718879684911e+02
1.251936933585079942e+03
1.184551016577689097e+03
6.660123380576486625e+02
6.521720173986885811e+02
1.009856171278573697e+03
1.074167192617910587e+03
7.921871026947638939e+02
7.306252076949720049e+02
8.782546636703572176e+02
1.091254989509875486e+03
1.071196703434459096e+03
6.811654702467363904e+02
5.693055078719405628e+02
7.060993721592099064e+02
7.686876767794008174e+02
6.010672652847182462e+02
8.500743899476059369e+02
1.150456826565580059e+03
7.113908630030695122e+02
7.128928625549852995e+02
-8.745458540221675037e+01
-7.498131778574881423e+01
5.134321156544845053e+02
8.417301097631146831e+02
1.337641233932909927e+03
1.598977827968541305e+03
1.789755515956599766e+03
1.876903711087983993e+03
2.025281002588679030e+03
2.305788123601414554e+03
2.792312722057745759e+03
2.400741091002326357e+03
1.529890036677706803e+03
8.916644675115335303e+02
7.649548105739378343e+02
1.162631400046604767e+03
8.866387805343669015e+02
1.032813927977395451e+03
8.130027092853919157e+02
-3.798900239678575872e+02
-4.601962545755250176e+03
-6.623295857145733862e+03
-6.353028582734544216e+03
-5.555250809123334875e+03
-5.553082797569096329e+03
-5.616698579120197792e+03
-5.343149105437571961e+03
-5.599496654197815587e+03
-5.992914744371730194e+03
-4.705545210364184641e+03
-2.349376622654915082e+03
1.293468503681451466e+03
5.778555214728260125e+02
-5.163347852590155526e+03
-6.358208724626831099e+03
-7.380873365120429298e+03
-5.224438210699813681e+03
-2.502243383025273360e+01
6.212689527742164728e+02
-2.792566186695787565e+03
-6.308642663950195129e+03
-6.090063417897814361e+03
-6.236903740341635057e+03
-5.395296922779613851e+03
-5.143332126799903563e+03
-5.597087522126023941e+03
-5.683553791510659721e+03
-5.634800624647764380e+03
-5.712967970493061330e+03
-1.688086311463756601e+03
1.547758923457378387e+03
1.187490270770381358e+03
-1.624947665907772034e+03
-4.105573737589366829e+03
-2.341406589792502018e+03
8.154747540043375693e+02
7.720126537905224495e+02
1.924154780359983988e+03
1.766840918817995544e+03
1.953028271523804733e+03
2.555571927380390662e+03
2.700441333501114059e+03
1.937634331968035212e+03
1.477149026729376146e+03
1.971986248864203617e+03
2.136093393029738763e+03
2.456364131119059493e+03
2.501811371166457320e+03
1.799462430026988841e+03
1.766300951730163888e+03
1.768270055543931903e+03
2.077284195692636786e+03
2.054271559109274222e+03
2.120262151139738762e+03
2.342266797919015062e+03
2.124328282051662427e+03
1.561439470247062218e+03
1.370610210585656205e+03
1.721874245192278295e+03
2.197215478038932815e+03
1.906608765998682429e+03
1.877190991563831403e+03
1.981166544067304812e+03
2.112371772058038005e+03
1.898683188009284095e+03
1.456156842842227206e+03
1.467869822536580386e+03
1.482899968745830165e+03
1.524194671351342549e+03
1.688506623916023273e+03
1.008686456045461000e+03
-5.984766323991438242e+01
1.197954866098018783e+03
1.513010812211120538e+03
1.715510624922639181e+03
1.373392712806711188e+03
4.849404746281488201e+02
7.684741870080258650e+02
9.132879520460461436e+02
5.807068781364338292e+02
2.629446648543751621e+02
2.147878649035371836e+02
-8.874033959208742317e+01
-4.962094603356405287e+01
6.939779273553034500e+02
1.579247487727721818e+03
1.492511487804185890e+03
6.224288610060516476e+02
8.168759807210378767e+02
1.405480644181966227e+03
1.557464368905465108e+03
1.285989275821262027e+03
1.358175361846203941e+03
1.270025580310840724e+03
1.160653756194421476e+03
1.452016668353738396e+03
1.393063974688519465e+03
1.132865550083201924e+03
1.109475633198667310e+03
1.467959606697021854e+03
1.355467658049593183e+03
7.519853209031201686e+02
2.975087788626793781e+02
3.700323565904278666e+02
8.475530740394250415e+02
1.068176083411628269e+03
1.446043286664541711e+03
7.201137336043514097e+02
5.523632951667739235e+02
1.127954862995593203e+03
1.412971313811248820e+03
1.726379652694846982e+03
1.505079396992614193e+03
1.395155586544351536e+03
1.169632949828045867e+03
9.575608438947143668e+02
9.649779208419570296e+02
7.188640146280550880e+02
9.632549488219526665e+02
1.041291218791476012e+03
9.789478410084982443e+02
1.190240050537568322e+03
1.335260790691909278e+03
1.330033141739215807e+03
1.099610326980968011e+03
6.919644966941732491e+02
2.400019217922137500e+02
-1.694131300607509502e+03
-4.972291909779062735e+03
-7.902505309012624821e+03
-7.824738869506621995e+03
-7.827909336781685852e+03
-7.712894011085405509e+03
-8.222645553386089887e+03
-7.379327066027457477e+03
-7.174835809683088883e+03
-5.847677850774904073e+03
-1.513256300870252062e+03
-6.986292260890495527e+02
6.322530481528950759e+02
9.484545316541616558e+02
8.978985310912315754e+02
8.466022123870274072e+02
6.745323674645717347e+02
5.317867898172860350e+02
2.165915689741988501e+02
4.289695122338457054e+02
7.528221885342976520e+02
5.740423973883663393e+02
3.995781442563264250e+02
3.065933936359032828e+02
2.421767242438667012e+01
2.543764392694303069e+02
4.471155279978229942e+02
2.544711619452509979e+02
2.634356413282091012e+02
5.129901490684900409e+02
2.300892959134048681e+02
4.697722886067514878e+02
5.780556444555379585e+02
3.647944757678877750e+02
1.603836947837980631e+01
3.129364410711523874e+02
1.584764227251562545e+02
2.375919690598177567e+02
1.702030460538294960e+02
1.314833540645550727e+02
4.544099121054757688e+02
7.729072123931098304e+02
1.760566223622968778e+02
8.092723568525029521e+01
3.075153662936091905e+02
4.358823503751835347e+02
9.299142650010328737e+01
-1.710570072224107605e+02
-2.832318228219117486e+02
-6.216990068726345271e+02
-7.584353434980321254e+02
-5.613499469938748234e+02
-1.544042080749125603e+02
4.714966362748336905e+02
4.554042761496099843e+02
5.222325514861895357e+01
-1.870299564761720603e+02
-8.663526776065898503e+02
-6.876727264470395085e+02
-1.289200914508843141e+02
-7.600640483618057885e+01
-6.299295933309693964e+02
-4.256918246431878288e+02
-1.003111718713668665e+02
-5.997329704906335337e+02
-1.222988980345613527e+03
-7.390571995346507492e+02
-5.628759939630710960e+02
-7.154197145252510381e+02
-4.906386387709083579e+02
-5.244564581063613105e+02
-7.959117937977179054e+02
-1.870263768450002999e+02
-1.047270295408695659e+02
-4.038325019180704771e+02
-4.503835140672303510e+02
-8.704069869977075768e+02
-1.064939237694585245e+03
-1.025874136782608502e+03
-1.055196994523735611e+03
-6.209360115426649145e+02
-1.630132951875768867e+02
-1.824007480586202803e+02
-3.101272621424474210e+02
-1.301391310529317593e+02
-2.984411806792652442e+02
-6.730084554379303654e+02
-3.948222078648680622e+02
-4.918930076568277627e+02
-7.612003476529354202e+02
-1.018761406378486527e+03
-1.786547399941653566e+03
-2.725486327646122845e+03
-2.939584093586309336e+03
-1.686883196069231190e+03
-1.433081538676816535e+01
7.661270018571913170e+02
8.214586292010214947e+02
4.636573704088414729e+02
2.847593083026920340e+02
1.267943278654495458e+02
-3.819496453404720171e+01
-2.922175305054288970e+02
-9.127241664177527980e+01
1.666480344755718477e+02
6.560712668195732178e+00
-4.105817870041081505e+02
-5.117639623490560439e+02
-2.399558807708137920e+02
1.805203850917189934e+00
4.361104279844942511e+01
-1.575947650647487421e+02
-5.784538178507856543e+01
4.183959691166534611e+01
-5.392434249752001696e-01
-2.309658999502532311e+02
-1.064452132974752203e+02
9.700631170950074988e+01
-1.386206693701072084e+02
-4.336199956244284692e+01
1.867885804964667500e+02
8.087964521657541184e+01
3.989893094745402209e+02
4.501080120608798438e+02
-5.781727126677419193e+01
3.061248289247435537e+02
6.478871883281162809e+02
3.224627438468236846e+02
-2.387498757053277529e+02
-4.147870323268172683e+02
-2.196341935693374978e+02
-1.404794846963671944e+02
1.188684901809418761e+02
2.421403679639702204e+02
1.523243131990293193e+02
3.562322405336453244e+02
-4.450126018552741698e+02
-1.421149927933720846e+03
-1.069891147183557223e+03
-1.496929587636092833e+02
3.199773816314873329e+02
3.990039267317020517e+02
2.059406794812544774e+02
2.038552895814128760e+02
4.082988721882121581e+02
3.846598523034350023e+02
5.773684646318470470e+01
-1.467779820716351651e+02
3.714062220302735682e+02
6.436413080261629602e+02
6.540012043009339777e+02
6.783166499655619646e+02
6.636418917607099957e+02
2.419738172480039680e+02
-1.050576352448475035e+02
4.728252967337832757e+01
6.398924883062529716e+02
6.016469740143676290e+02
4.924855148568964296e+02
3.519390584633559342e+02
3.609522301275367226e+02
-7.492065597745751404e+01
4.176526403524770217e+02
9.756814199376271972e+02
9.890090324584347172e+02
1.030578678553538566e+03
1.071252564810367858e+03
1.010689904411439556e+03
8.720215844242948151e+02
3.931064904772305795e+02
3.988398905352806878e+02
4.621904411836771942e+02
6.590692831341330020e+02
8.567529288173218447e+02
1.168211969161952538e+03
1.139345134049379340e+03
1.121055737047460752e+03
1.042342165387287878e+03
6.721835313009758011e+02
7.414728543384138675e+02
7.252775918373121158e+02
5.894790072650991988e+02
4.431272100206816162e+02
8.382723136242886994e+02
1.387853583595887358e+03
1.415778122827936386e+03
1.348937874509809717e+03
1.694275043036303487e+03
1.850807614561402488e+03
1.646435537312680935e+03
8.081510283230736604e+02
6.011060547846702775e+02
4.404659430556303619e+02
-3.497001565297661614e+02
-3.642076400885387244e+01
4.412251852586974792e+02
1.157268029029473382e+03
1.196814258840686534e+03
-1.397280654147401265e+03
-5.524183027450754707e+03
-3.533840180421740115e+03
-3.291255989853507344e+03
-6.057763424022228719e+03
-6.398407674589428098e+03
-4.564918659090555593e+03
-3.565258234547409756e+03
-5.796453141674708604e+03
-6.238496035815542200e+03
-5.688919389141440661e+03
-5.038867372644091120e+03
-6.169624086409211486e+03
-5.934278832876226261e+03
-5.930816501490025985e+03
-5.821207668715153886e+03
-2.259442430543189403e+03
2.494537618177164120e+02
1.300512699981544756e+03
1.522836701787581433e+03
1.504393858355553675e+03
1.571115566308005100e+03
1.778959249538897211e+03
2.019866908566712254e+03
1.918756587047048470e+03
2.106561037865183152e+03
2.118347889862283864e+03
1.909190695188448444e+03
1.765197455744041008e+03
1.517483098065884406e+03
1.604145736419320201e+03
1.849179354412030989e+03
1.641595753395893325e+03
1.750434795669739970e+03
1.882673905940667282e+03
1.580329200380634347e+03
1.303262195803941495e+03
1.693400322150678448e+03
2.283742460162354291e+03
2.406477735887433482e+03
2.160582445026053847e+03
1.802001423765505251e+03
1.913837140874614761e+03
1.904150920700319830e+03
1.715044162220887301e+03
1.456488286609213219e+03
1.565472548554604373e+03
1.706057466435035167e+03
1.574328281900519187e+03
1.307334003918265580e+03
1.344026061439890782e+03
1.107465036091066395e+03
1.052738100098274572e+03
1.041798726884523830e+03
1.006715554306609533e+03
1.211575863330592938e+03
1.153425437333005675e+03
2.673410920622563367e+02
-4.656364429100262896e+02
-8.033298977178731093e+02
-1.055554396436582465e+03
-1.241227125127999443e+03
-1.461537125978028826e+03
-1.659487754518210068e+03
-1.060084756833630081e+03
-1.348272121752436078e+03
-2.982009783812613023e+03
-4.358267373271963834e+02
1.567383070110612664e+02
3.227419118805688640e+02
8.125068364320070486e+02
1.122721415891418474e+03
1.241733146309989024e+03
3.005007266133274015e+02
-1.651111013446653715e+03
-2.757998390208118053e+03
-3.416131660061349976e+03
-3.876491697196999212e+03
-3.872114910300080737e+03
-4.027000343884696576e+03
-4.436092018956111133e+03
-4.301299442818542047e+03
-2.518618566289151204e+03
-9.080152682589629194e+02
-2.865026101444584015e+02
6.239697692662922464e+02
1.489494419786260096e+03
1.490083738158265305e+03
1.047764028553204071e+03
1.361658613426929378e+03
2.037660466473006636e+03
1.831687638844783123e+03
1.454772457231355247e+03
1.827929008025469102e+03
1.954149331222260571e+03
1.990487345122037368e+03
1.509988271489007275e+03
1.671709692637256012e+03
1.415688916617567884e+03
8.489134275045040567e+02
6.284130208427548041e+02
5.271741532731376765e+02
2.991679681103332769e+02
4.873412681108289917e+02
5.456590094683811003e+02
5.661730931190031697e+02
7.208250578022775699e+02
3.045920202370915604e+02
4.552972016714284109e+01
-3.724307619579835205e+02
-2.962850792205327366e+02
-2.070454260164473794e+02
-2.267990067704533601e+02
-5.595146728135575813e+02
-8.291398063972764021e+02
-1.039718671572137055e+03
-7.932542702968777348e+02
-5.817988882899339842e+02
-4.644437626245479578e+02
-2.542594058390537555e+02
-2.680873666622360929e+02
-7.276729188521550213e+02
-8.122053069676361474e+02
-9.427536453084717323e+02
-1.415259008630191374e+03
-1.339840293227283382e+03
-1.144445497571246278e+03
-7.750912102859922470e+02
-4.800993005619397991e+02
-7.486748639930755189e+02
-1.858690538097690478e+03
-2.404209203046208131e+03
-1.248465222417601126e+03
-1.480204868929839449e+03
-1.143365109450708815e+03
-8.768984286095028438e+02
-3.839751623180154070e+02
4.926716978215188902e+01
-2.013016251740396285e+02
-1.148258748031529848e+02
1.419429941152928905e+02
2.235632809547612396e+02
4.673867362479746816e+02
6.464509272284844883e+02
9.204709931953999558e+02
9.744017312205274948e+02
9.961358696854242680e+02
1.125671848922896288e+03
1.298973263960540635e+03
1.111008928994360303e+03
1.077721295844073893e+03
1.211966545684475022e+03
1.012011936671830654e+03
1.039567501359781090e+03
1.230318598383743847e+03
1.011127421166809654e+03
6.883278664117941616e+02
7.470853834551284081e+02
8.509825823411766805e+02
9.638566062522318134e+02
1.070879835539900569e+03
1.376846782595117929e+03
1.708892193805543002e+03
1.998896290331331329e+03
2.069045718840638528e+03
2.446068476783288133e+03
2.432726910085541476e+03
2.241776293999764221e+03
2.257736198795495056e+03
2.226454875890788117e+03
2.428749024062213266e+03
2.230421411029892170e+03
2.295518069277232371e+03
2.468055316570492778e+03
2.625248281419837895e+03
2.535898864968410635e+03
2.424988388448142814e+03
2.013412594325273858e+03
1.977071898360896967e+03
1.713913190989271015e+03
1.858879472660933743e+03
2.038916071325113080e+03
2.074014876625771649e+03
1.578171875234054596e+03
-3.937069402293585654e+02
-2.474631631999869569e+03
4.184255729983852916e+02
2.482490585594610366e+03
1.279493506597225633e+03
-1.255612775348071864e+03
9.041536427731323329e+02
7.797988511544913308e+02
-6.365940183046448908e+01
-3.746338793749745946e+03
-6.025293147433237209e+03
-5.474135867511491597e+03
-4.369812198130405818e+02
1.783024724783477950e+03
-9.723147581595931399e+01
-1.529721351002633810e+03
5.576414006108823287e+02
-2.148192821080363046e+03
-7.782248861960973045e+03
-9.157476416340974538e+03
-9.741829836611099381e+03
-1.009229687927974919e+04
-1.027289006001686903e+04
-1.006967197772203872e+04
-9.522611835357587552e+03
-7.113690629055301542e+03
-3.138925942340114034e+03
3.728727948466272210e+03
7.226371862235792833e+03
7.586025495971151940e+03
7.467700845383579690e+03
6.189480588564530080e+03
4.049447581910810641e+03
1.866617466870596616e+02
-4.982928353787056039e+03
-6.783370880715568092e+03
-7.097592928355573349e+03
-7.356605859963051444e+03
-4.776378549121265678e+03
5.741764774350481275e+02
2.787075087995580361e+03
2.669381754516866295e+03
3.592167568251657030e+03
3.598503673093166526e+03
3.142449459851753545e+03
2.143999461053809682e+03
-1.158744234906892643e+03
-7.707056037137133444e+02
8.401234226033352570e+02
1.596703341304367768e+03
1.839145409976797509e+03
2.298558168170648059e+03
2.048998663093919731e+03
1.212501821630351287e+03
1.560129628407223890e+03
1.048952801786571854e+03
1.166077475466565375e+03
2.542576178587748018e+03
4.032427675837124298e+03
4.461733264756651806e+03
3.264574104372940837e+03
1.502959576465725377e+03
4.389336644542743215e+02
-1.871367759503641992e+03
-5.598865273578529923e+03
-7.739431361391769315e+03
-7.727024343092987692e+03
-6.441483241292394268e+03
-5.422697211184585285e+03
-5.455816144977736258e+03
-4.426850021857140746e+03
-1.334670314283689777e+03
7.685680267626672730e+02
1.396488347041588668e+03
2.114437908274162965e+03
2.442944610092285984e+03
8.002587851622180324e+02
-2.740252242703830689e+03
-3.330624302819130207e+03
-4.133042013440598566e+03
-6.362373814161803239e+03
-7.896348748692896152e+03
-3.074033980589711064e+03
5.065970385810246626e+02
9.045732264650596335e+02
3.681020915441197872e+02
-4.607325825340773235e+02
-7.759775492224753179e+02
-1.519401091503185341e+02
6.373558352353619512e+02
1.065004729342615747e+03
2.006230671209226330e+03
3.797949762029244084e+03
5.603162551306534624e+03
6.841862362992333146e+03
6.988113033764137072e+03
6.210882699912805947e+03
3.869116989541354997e+03
1.584109428274941592e+03
-2.907477075347899742e+01
-1.143581174870953873e+03
-1.440310669085913332e+03
-4.231570086636560859e+02
1.019829771240853347e+03
2.281593805086934481e+03
3.551181026269330232e+03
4.591564887349611126e+03
6.444781254160438039e+03
7.066822298305415643e+03
6.306709900122588806e+03
5.242526386045225991e+03
4.981291991834167675e+03
4.431977799098368450e+03
3.435604922237879236e+03
3.047171731121358789e+03
3.151617950774565998e+03
3.754984987939556049e+03
3.756260095405797529e+03
2.964501386084529713e+03
2.313672149440259091e+03
2.473771382809951774e+03
2.596856160821704634e+03
2.111905980447370439e+03
1.731880066725117103e+03
1.855781136569084765e+03
1.145556604901068340e+03
6.822008730354185673e+02
6.776854270040905703e+02
5.079810869627045804e+02
5.740819263928482314e+02
5.330136152469857507e+02
4.897517616423734239e+02
2.992908547447222531e+02
2.266281072889612744e+02
-1.232983223336664338e+02
-1.193550237213292576e+03
-3.010149314786904142e+03
-5.830221315640984358e+03
-7.819735850860252867e+03
-4.532502128210585397e+03
-7.208958553097223557e+03
-6.056867393058972993e+03
-3.577315231642060553e+03
-4.567418775263863608e+03
-2.155218904414173721e+03
-5.117082508566477941e+02
-8.768499092001940198e+02
-4.696013077495091466e+02
2.099665081755437512e+01
2.229481249367690623e+02
9.919233450126176876e+01
-2.693828315294010167e+02
-9.028322045325177214e+02
-8.532168824414127357e+02
-1.078599519429124712e+03
-1.533161209578546959e+03
-2.115995499380887395e+03
-2.478114179660236005e+03
-2.380583780463732637e+03
-2.205474696775302618e+03
-1.591802014923161096e+03
1.193844340937091459e+02
1.092975025834377448e+03
8.059993367475890409e+02
2.965006137495145140e+02
-6.135162666178690642e+02
-1.381040237178712459e+03
-2.268093919435505086e+03
-2.669868560876554966e+03
-2.662443149263743635e+03
-2.215976211698131010e+03
-1.466488107188259164e+03
-3.488841215816450614e+01
4.847998004601510615e+02
1.188531011165416203e+03
1.718219617223283649e+03
1.864828064589488349e+03
2.307397806715625848e+03
2.100925829524309847e+03
1.717320621292656142e+03
1.842516366795246768e+03
1.297578252700945768e+03
1.218520531654936576e+03
1.462210422342282527e+03
1.110626062375445599e+03
6.957793486572885513e+02
6.727123849128073516e+02
3.493608058085904986e+02
-4.703038349297583522e+02
-1.088343489736653964e+03
-2.367790472361577940e+03
-5.236730626812851369e+03
-7.070264577057032511e+03
-4.514354508419080048e+03
-3.375403787464187189e+03
-3.471695785259733384e+03
-2.591389064420355680e+03
-1.472465071677408559e+03
1.012045524238272151e+03
4.179105958274643854e+03
4.573692242946723127e+03
2.386791847032421174e+03
1.712379180402444263e+03
1.588519012813853578e+03
-1.919788634847572666e+03
-2.586479475360602464e+03
-1.650632043166727044e+03
4.306841660089219204e+02
1.477518176010946263e+03
1.764817289502981794e+03
8.616006410680342924e+02
-1.127093427728613960e+03
8.577205763471171167e+02
-2.839998537145263981e+03
-1.862209329054679301e+03
1.084067165762472541e+03
1.083864530160400363e+03
8.832172106920604620e+02
5.661801876233495250e+02
5.247766400283059056e+02
4.819368169330501246e+02
7.086721649878062408e+02
2.260194354870538405e+02
-2.170977497561677410e+03
1.426857642259857357e+02
1.547019255609961419e+03
4.810294298319662403e+02
-2.793248700490810734e+03
-2.038774452935645513e+03
1.663549324406235428e+03
1.239705462911597806e+03
-9.503456270957789229e+02
-5.225635969314523663e+02
-2.396894593385890857e+03
-1.563309924255063379e+03
-1.355778741451257019e+03
1.971717180972539836e+03
2.666249078064602600e+03
1.101786238754757505e+03
-3.369730035516363387e+03
-7.552841198831097245e+02
9.201048238724381463e+02
7.844869765791090686e+02
-1.300064396714093164e+03
-2.652504501558871198e+03
-3.703829578128000776e+03
-1.539021236161284605e+03
-6.550305003006626521e+02
9.571346421560049293e+02
1.590457088403023590e+03
1.874069823223035428e+03
2.216966842315639042e+03
1.985154188277589355e+03
1.903679965303973177e+03
1.910588703844176507e+03
1.606838596762562020e+03
1.236514434611441402e+03
1.093789788873944190e+03
9.316246914674911750e+02
1.050668655814747353e+03
8.330228280716030440e+02
5.869206464479103715e+02
1.814883228696669448e+02
2.463340218877345649e+02
7.116139351135268498e+02
-4.775492554419931253e+02
-2.318967284851223212e+03
-1.255101825338163053e+02
6.736417746910220785e+02
1.074014625932432864e+03
8.256825544938925532e+02
6.421023196712616254e+02
1.307611910822439768e+03
1.073580549668559797e+03
5.242220064129581942e+02
7.235605102604695276e+02
1.296703193830592909e+03
1.669730998620464334e+03
1.853798859396617445e+03
1.841802944734298990e+03
1.881675802556741246e+03
1.686443168635298662e+03
8.898853783158471060e+02
1.466196565556157054e+02
-2.368885133542468964e+02
-8.776338010250909747e+02
-1.420053727120470057e+03
-7.420819476094419542e+02
2.422724975802273946e+02
1.807120955393309259e+03
2.495926248045590000e+03
2.297536083955025788e+03
1.979699101456787048e+03
1.887258223741212078e+03
1.847119674898029416e+03
1.906132964747333290e+03
1.590103164025387514e+03
1.450958646747447119e+03
1.486811827399332287e+03
1.730431265528399081e+03
1.688041972780495598e+03
1.266732849201376212e+03
1.515393057558374039e+03
2.352318390685301893e+03
2.803188930344319488e+03
2.176827482845621489e+03
1.800235650888916325e+03
2.045383155130050454e+03
2.236261510349709624e+03
1.696898678005009060e+03
1.457303928206807541e+03
1.173375693260176149e+03
1.274141393932865640e+03
1.476533003291156092e+03
1.131499570741358639e+03
1.536891049474734018e+03
1.779717017858018835e+03
1.139175201097649733e+03
4.823875222644057317e+02
4.972594203444315895e+02
2.648686409987636807e+02
-4.470906489211888868e+01
-2.676032037908620396e+02
8.230557075975216321e+02
2.028127559430598467e+03
1.601693193244912891e+03
2.307619757821514668e+02
-1.818282596055788929e+02
-4.677315751491400988e+03
-5.741661470215984991e+03
-5.769670107276141607e+03
-7.043612511382754747e+03
-7.633482246194285835e+03
-7.765905112417542114e+03
-7.071851544734075105e+03
-7.070505154493520422e+03
-6.540886968768957558e+03
-6.621823822514338644e+03
-6.915358447716388582e+03
-6.570033128077573565e+03
-6.196830737804484670e+03
-5.541612144004829133e+03
-2.753292541675317352e+03
-7.428070849790804004e+02
-3.205131609770021896e+03
-2.898435365441558588e+03
-2.051831029519257299e+03
5.827490138711247027e+02
1.391287824604607749e+03
1.611655419412094943e+03
1.333821476709468470e+03
1.571810112073970458e+03
9.886963749258454754e+02
-1.462357867217686817e+03
-4.632170883786768627e+02
1.164150427601252204e+03
4.097704002290249150e+02
5.056141241615358126e+02
1.644678178142636398e+03
2.403900962887636069e+03
2.485218615588218199e+03
2.468593458233438014e+03
2.141959050916411343e+03
2.074366763904121854e+03
1.130729262013311882e+03
-2.582193283609458589e+01
3.029170677988751663e+02
1.269924924602844612e+03
1.560105959349414661e+03
1.724583165844184578e+03
1.639444603062937858e+03
1.113655682727970998e+03
9.142410265258964728e+02
2.491691817439709951e+02
1.395075119449893464e+02
-7.562060752895304461e+01
-2.011664103506611525e+02
2.888439422212691170e+02
5.574091209307126746e+02
7.975998199500741066e+02
1.012422650109367510e+03
9.119242184484761538e+02
9.962422164581990955e+02
9.302947549048872133e+02
1.018091537559927929e+03
1.089641415690656004e+03
8.141820396266847411e+02
3.968022665252420893e+02
4.605319949789982275e+02
9.324424634629605180e+02
1.087660196630101836e+03
7.402526167104892920e+02
4.132910117897235409e+02
-3.971867114578575979e+02
-1.472054159911354191e+03
-1.370263862891308008e+03
-2.241224005041812234e+03
-1.088441971049911672e+03
-6.929510183395632339e+02
-8.700061526690626579e+02
-1.220428453726496400e+03
-1.146501822384062734e+03
-1.263319468124245304e+03
-1.786739255664865595e+03
-1.945774140242853036e+03
-1.202423039105952512e+03
-4.156462114744220457e+02
9.263635904595001591e+01
4.255132748304960728e+02
2.729983068538289217e+02
4.339999893713209644e+02
8.565364246414228546e+02
1.037744718252635039e+03
9.866870951307108726e+02
1.179313057985392334e+03
1.276583776478485106e+03
9.764941184948849013e+02
-7.803476710008588668e+01
-1.585029635645703820e+03
-1.920397755010807032e+03
-2.051162927614801447e+03
-1.831244657403398605e+03
8.643739388875056306e+01
2.652912810776561400e+03
3.704184064716619105e+03
3.857210330914735550e+03
3.005954300280054667e+03
1.686363171854431357e+03
1.390383790701691169e+03
1.497996792955545743e+03
1.598347653943313389e+03
7.974024195120574632e+02
1.840399000239717680e+02
3.812157019750029576e+02
1.042911303255514895e+03
1.200217718442207797e+03
1.851563535191862400e+02
3.386461516998880938e+02
8.837044917639750565e+02
5.523282638047461433e+02
2.254531880610210521e+02
2.291252296544316778e+02
7.953464544894819710e+02
9.000599410624361099e+02
9.342843266594915121e+02
9.000557291683142012e+02
6.923546694379484734e+02
-6.467177125814881720e+02
-3.498034666808513975e+03
-6.698719548712854703e+03
-2.464104660198759120e+03
-6.291610893257887938e+02
-5.108199391682890109e+02
-4.212418954816280348e+02
-5.648963839478975757e+01
1.692735254124456503e+02
4.919511555914770042e+02
8.216329842911899277e+02
2.876207532774372453e+02
-5.881930492720080110e+02
-1.308915341198672650e+03
7.646980148411491882e+02
8.434664415117042608e+02
5.672272754304959790e+02
9.037763381273591676e+02
8.800136868874957372e+02
1.127294057618407805e+03
1.162612633880971089e+03
1.246979629784307008e+03
8.680600079713968853e+02
6.922671470525020823e+02
2.232170425669001474e+02
-8.527815955412195592e+01
-5.688555145268577029e-02
5.068577253982680304e+02
1.261467444621768664e+03
1.126697006736282901e+03
9.715216958381968198e+02
6.359065935435318124e+02
7.218937710819891436e+02
8.276184798643056411e+02
4.287122986153792681e+02
-6.085560920817306396e+01
-2.708608996987096589e+02
-7.400856811736381360e+02
-4.438876779252390747e+02
-2.445711342505501023e+02
-8.298433701011374524e+02
-1.295704481917363182e+03
-1.430367680847089787e+03
-1.244460993488076610e+03
-7.760963417459563516e+02
-2.072664121924617291e+02
1.035581123561172262e+03
2.275560371771512109e+03
2.287850747037474321e+03
1.960742716987915628e+03
1.120707229496135142e+03
3.667570036364094221e+02
4.170196061172252371e+02
3.406637800802344600e+02
2.396906335319946209e+02
2.040664014514399298e+02
5.834708798123399447e+02
3.608367937672798007e+02
-5.585808656847929115e+02
-5.297709573509850998e+02
-5.238274382833232039e+02
-1.030768111870583652e+03
-8.155588076789591696e+02
-6.220541937983927028e+01
-9.666060287137291596e+01
1.821141572448969725e+02
8.101200541217161799e+02
9.231131376763963203e+01
-3.652279552296491829e+02
1.494916466243704178e+02
4.614689091859830228e+02
4.717260731088798593e+02
-1.056873756581988744e+02
-1.000800695380311254e+03
-1.454763236096348692e+03
-3.327397554714521902e+03
-3.213260209861329258e+03
-2.783744462767267123e+03
-3.259910668528027600e+03
-4.974674889842078301e+03
-5.178959536909525923e+03
-4.587843273348371440e+02
5.248141718440261911e+02
-6.021043005753012949e+02
-6.296484509730220452e+03
-8.217315841691543028e+03
-8.812629696298396084e+03
-7.044369289744911839e+03
-6.005454255366810685e+03
-5.016840571590984837e+03
-2.619524309315339451e+03
9.452250481975342211e+01
1.002363302991765295e+03
-5.009527290755424360e+02
-4.488408168622414451e+03
-4.225881914964606040e+03
-3.255298958450403006e+03
-3.494751593847026925e+03
-3.471292623399405329e+03
7.560090552645976913e+02
1.438258760987432424e+03
1.789614405798299913e+03
1.710071539503530857e+03
6.076190499104121727e+02
9.832503000200264296e+02
3.397028194925879234e+03
3.418977938461972826e+03
3.134124063393640881e+03
1.037587647396405828e+03
1.094374422820100108e+03
2.259557331528382747e+03
1.679180664389777576e+03
2.398181163105266933e+03
2.833530310339880089e+03
2.926249907573786459e+03
2.877462586781537539e+03
2.348187003264273244e+03
2.306419386345704879e+03
2.295192972860291320e+03
1.990587392032496609e+03
1.793612675401608840e+03
1.340300981187659772e+03
8.126510025446052623e+02
1.448708057642612403e+03
1.011523941565940959e+03
2.405019878614319495e+01
3.132382674558850866e+01
1.106439355890549450e+03
1.855413029148948681e+03
2.421187993127912250e+03
2.132869837972424193e+03
1.194461948968444631e+03
6.199868199579476595e+02
-1.247833633760327956e+02
5.422986920309504058e+02
8.742903066612092289e+02
6.550175731836675368e+02
1.980551003763509073e+02
1.517299771439006690e+02
1.992373397767610413e+03
9.658452866523751936e+02
-3.133922506773242276e+02
1.324750917515706988e+03
1.162209389805460205e+03
1.247864125269133638e+03
8.357548241454981053e+02
9.948276611816428385e+02
1.035142361169702099e+03
1.105636021638298871e+03
1.486250755824550879e+03
1.126043602390784599e+03
9.309509417158424185e+02
1.192920051379094502e+03
2.401900086523156915e+03
2.683795077296246291e+03
1.850568035244768225e+03
1.568447190804882439e+03
1.757345163007793644e+03
1.454051308269684341e+03
1.117398890899090702e+03
7.543785610072338841e+02
2.199215282353578118e+02
6.121124461985243670e+02
6.951015780477746375e+02
4.735432267151205110e+02
5.853404551561416156e+02
3.016731226438131444e+02
4.364371144835948257e+02
1.138504184626913002e+03
1.770936412148865202e+03
2.015710278934221378e+03
1.493698677130466422e+03
1.380932621529813787e+03
1.007465412630947299e+03
1.087275313558829112e+03
