3.796463624033972792e+03
3.641063284285539339e+03
3.803031914329631036e+03
3.591492637938173175e+03
3.232536942262084722e+03
3.697224673554328547e+03
4.038670004230300947e+03
4.343950247617550303e+03
4.312095120244663121e+03
4.755189026080483018e+03
5.310238358509538557e+03
4.695321689976503876e+03
3.869569215840855122e+03
3.771023184445058178e+03
3.911703606871595639e+03
3.605712110852358364e+03
2.906075869816684190e+03
2.442805808750244523e+03
2.023986189410732322e+03
1.550620321988649721e+03
1.313565957387752178e+03
1.417899065813150173e+03
1.661143339974854598e+03
1.694797186696093604e+03
1.602835906000518662e+03
1.738152335750900420e+03
1.620819627737993414e+03
2.287824173638857701e+03
2.983298818975133145e+03
2.860205740189660901e+03
2.692624446054835971e+03
1.988694529763674836e+03
2.415271276003797084e+03
2.367400405582401618e+03
2.181193150978240737e+03
2.377894588920793922e+03
1.605256412551173753e+03
7.256413821185601591e+02
-9.723516040161206320e+01
-4.079393091370918967e+01
-4.482951799606368013e+02
-5.393093291966060860e+02
-6.753440001721870090e+01
3.388140504383946450e+01
1.479148272135507511e+02
3.557745870068273462e+02
9.728116240202723475e+02
1.133992999568373989e+03
1.193913369113378849e+03
1.248394898206110611e+03
1.311291601455962109e+03
1.279635261479775181e+03
1.379452188420752464e+03
1.325710718840422487e+03
9.984584019080571125e+02
9.077246714940970378e+02
4.754388741407809107e+02
-7.638996737258347025e+01
-9.037869412822828963e+02
-1.172816930363509073e+03
-8.684908876640596418e+02
-8.818540335047961207e+02
-4.949183040465567274e+02
-5.546957807666788085e+02
-1.371747476884343087e+02
7.036088983774536700e+02
7.676496568662370237e+02
4.389994321850749088e+02
4.117029921643479611e+02
8.235937685157607575e+02
1.051697462080665673e+03
1.122035546851846902e+03
9.985200710652630960e+02
4.491455861438812462e+02
2.199076719343643447e+02
-1.242303376072807879e+02
-6.362871674076920954e+02
-1.392326943289812334e+03
-1.574495447837825850e+03
-1.432898164292789716e+03
-1.435563698906113359e+03
-1.793550386750232065e+03
-1.379820742647841598e+03
-1.078320559565355779e+03
-1.115136461100828228e+03
-3.226242243609142406e+03
-7.032590953309848373e+03
-1.015128514348649514e+04
-9.757457617436639339e+03
-9.329137092425729861e+03
-9.239242146961230901e+03
-9.332752125892357071e+03
-8.956775784742332689e+03
-8.229389104787873293e+03
-3.453659893905319223e+03
6.633504687592371738e+02
3.757086699521871651e+02
7.047637701668619457e+02
2.909037569965947228e+02
3.830813559495895220e+02
4.131018049062507203e+01
-4.784405863059789112e+02
-9.825481777175501463e+01
1.588348926666430714e+02
8.582801680236897823e+01
7.347169155158227341e+02
9.425305604493890996e+02
1.087276783161423737e+03
1.160845151436176138e+03
1.639127482208578613e+03
2.209129954921249464e+03
2.588910244029918431e+03
2.274464235477348666e+03
2.205785940200517416e+03
2.182827236794142664e+03
1.818507400440279525e+03
1.376732903353014763e+03
5.554550628625789841e+02
2.556051481094803535e+02
2.811554281575028540e+02
2.491304713813743490e+02
4.293791664221217843e+02
4.498604486105054434e+02
8.466490919185461053e+02
1.172719057864821025e+03
1.173086801206974542e+03
1.277815683215751278e+03
1.179836208230947477e+03
1.692216073949907695e+03
2.614964179497525038e+03
3.064034442780100562e+03
2.755432850760770179e+03
2.569145826868618769e+03
2.537169409815735889e+03
2.422472825778430888e+03
2.410028562067812800e+03
1.806783039922433773e+03
6.157169281037589599e+02
-7.512031773621188222e+02
-1.373943164291237281e+03
-8.835254379614998470e+02
-1.269935584730379333e+03
-1.090190788578239335e+03
-1.482173219529170467e+02
8.820181289491063126e+02
1.538504416402653078e+03
1.565320040666869318e+03
1.284467279426002051e+03
1.249959053105550765e+03
1.718862364040389593e+03
1.990067687959595105e+03
2.352625970302164205e+03
2.636551923351522873e+03
2.226839021799700731e+03
1.384579012527244458e+03
1.001802965628123616e+03
2.894678630297935342e+02
-5.138987223064190601e+01
2.282337854258352365e+02
-1.218641105125177774e+03
-6.722940053884428380e+03
-8.355684176031367315e+03
-7.387958270680053829e+03
-3.575837150750919591e+03
-4.548178818125212274e+03
-1.099408293898569298e+02
-7.500911521182141541e+02
-2.628566236549496352e+03
-1.378369825918811330e+03
-8.574495323645617191e+02
2.685241459905266311e+03
-1.243223972519764402e+03
1.137215323204320612e+03
-1.492462645067888161e+03
-1.353253771207741693e+03
-2.344145844807370395e+03
-1.186145469581141015e+03
-2.600231430693362654e+03
-3.143923480350652540e+02
-4.532627036012626377e+03
-1.426805523584194589e+03
-4.042000639176040295e+03
-4.490251201184471029e+03
-4.041456749673095601e+03
-2.863565234311274708e+03
1.667412906861822421e+03
-9.945384806422524662e+02
3.116935296849596853e+02
-9.928695735007697749e+02
-6.831834307987382999e+02
-1.649222490063804798e+03
-8.199894502837967991e+01
-1.213476579139439082e+03
2.602369879002510515e+03
-4.137092166710800001e+01
-5.365785086567041162e+01
-1.615744205557917894e+02
-2.380101946997006053e+03
-6.732597421123404047e+02
-3.300593387311679976e+02
-9.154652147791105676e+01
3.212909899745337157e+02
4.634928739895100875e+02
1.000046960281788984e+03
1.666992897679390808e+03
1.647340038995527493e+03
1.223141801528171300e+03
8.874160907268786787e+02
9.961249743220197388e+02
1.114342289850848829e+03
1.927070064590300262e+03
2.771309007339128129e+03
2.933096748468258284e+03
2.829609824272095921e+03
2.728989408713273860e+03
2.233354117656767812e+03
1.789308964979969005e+03
1.628695534426437689e+03
1.155438552986499872e+03
1.137702046468269600e+03
7.988624096913168842e+02
2.667951498180045746e+02
5.944406894496030418e+02
2.907592173694570761e+02
2.387271121061099848e+02
1.322335989765702152e+03
1.832679017931668341e+03
1.753648824235309348e+03
1.917125610062507121e+03
2.372033509143539959e+03
2.857880474987507569e+03
2.800467598945264399e+03
2.944836320440040254e+03
2.869803642584080535e+03
2.695893018135384864e+03
2.580385587183579901e+03
1.713338243808240122e+03
9.907242263516693583e+02
9.305125608240371093e+02
3.355606137866649306e+02
1.788703253460132885e+02
-1.706085994236000545e+02
-3.159663972359928152e+02
-3.495298746887895618e+02
3.688851798568706499e+02
1.670744773123273944e+03
2.015794863023027119e+03
2.332176707632905163e+03
2.477484537483202075e+03
2.713137429246441116e+03
3.119518235824398744e+03
3.498623960566506867e+03
3.476264056205505312e+03
2.799344062235621095e+03
2.328854414462420209e+03
1.917735654877321394e+03
1.667922000124847500e+03
1.271354722903784932e+03
1.128032325737692418e+03
7.789199919450802554e+02
6.639767446565531372e+02
2.811922087215494344e+02
3.964485968363371171e+02
7.807178714076364940e+02
1.136014521246314644e+03
1.373350199139121514e+03
1.218679844441246814e+03
1.689962796563891516e+03
2.739303497257207255e+03
2.744703088247816140e+03
2.353087644655176973e+03
2.934425789768731647e+03
3.394716077996299646e+03
2.592975884250258787e+03
2.253167367408449991e+03
1.871277448758845594e+03
-1.139736729582361704e+03
-6.355874611025978993e+03
-9.760190067995830759e+03
-9.916730627723232828e+03
-1.006349133303319468e+04
-9.929444518966602118e+03
-9.611605389507816653e+03
-9.259015233798783811e+03
-8.391711540228008744e+03
-8.416675569138968058e+03
-8.024824122162323874e+03
-7.072157236465016467e+03
-6.306617827597176984e+03
-6.163186647621128941e+03
-5.746904285241677826e+03
-2.419801065770831428e+03
-2.188937590843012458e+03
-6.440163649535303193e+03
-3.948427310036842300e+03
1.532246418802724065e+03
-6.025188052241187506e+03
-8.486684262557268084e+03
-8.320236596625532911e+03
-8.274871124254730603e+03
-2.152571819832573510e+03
1.408707576390903341e+03
1.104982924272534319e+03
-1.320805415478032501e+03
2.123463340175593203e+03
3.868840112961370323e+03
3.755384461859621297e+03
3.640103466931928779e+03
3.768038893893693057e+03
3.577245737575148723e+03
4.110755414930690677e+03
4.601604672426065918e+03
4.290826377744431738e+03
4.237470013566512534e+03
4.315586124991210454e+03
3.857268905316843302e+03
3.038512338331155661e+03
2.235291596151992053e+03
1.752690455450723903e+03
1.573726098087770197e+03
1.212416836854327357e+03
9.217737094410084637e+02
6.497926561190315624e+02
6.385876628130411063e+02
1.220275640628650308e+03
1.279906392168549019e+03
1.577496906968028043e+03
1.849153224641455381e+03
1.989936755426509308e+03
2.310882795314331361e+03
2.858134224315534084e+03
2.840666601702812841e+03
3.204543928765011970e+03
3.252831521647880891e+03
2.440578032914689175e+03
1.517805969608178884e+03
1.021550129964803659e+03
2.088842304105612868e+02
-5.531210397883469341e+02
-8.295185508847247320e+02
-1.388387897128064878e+03
-1.563766977659949362e+03
-1.163218341328465385e+03
-7.052159410724976851e+02
-3.916412573894332354e+02
-1.276620673309557077e+02
1.227568950568630157e+02
4.897095148884797027e+02
5.472280193989523696e+02
9.532887743371023817e+02
1.142907317789868102e+03
6.547912182479325338e+02
2.639633550001295248e+02
1.193960466130573195e+03
1.175403052752682242e+03
8.052731282747782871e+02
3.635101352891925330e+02
-6.781395415373526703e+01
-7.676404710674690932e+02
-1.391037358838324280e+03
-1.859993116818068756e+03
-2.130421486450271914e+03
-2.226323546781143250e+03
-1.399691845612630686e+03
-7.925183009860046468e+02
-7.987569734799512844e+02
-1.247400393935256034e+03
-1.143456023971609056e+03
-3.718546126026078582e+02
2.614290288552739980e+02
6.424278921725035616e+02
7.591397953606486908e+02
9.145816894692378582e+02
9.618007877238362653e+02
8.568548669761888732e+02
5.646944224093512048e+02
4.742600281924318892e+02
-1.264422802880216494e+02
-9.264116423758428027e+02
-1.330669624200268800e+03
-2.128256729982710112e+03
-2.174171186533411856e+03
-1.577428967362459616e+03
-1.110064841823576216e+03
-6.690595487128317700e+02
-1.204328049671329381e+02
-8.621472190753175369e+01
8.361714737638355643e+01
2.913488657743328147e+01
-1.371502328878304944e+01
1.950435206041681795e+02
3.903420087059637922e+02
5.131132535169127777e+02
7.334205131874624612e+02
6.533469874413787011e+02
6.968327793175766374e+02
-9.232428867631856662e+00
-4.639473692823485180e+02
-1.020252154057120492e+03
-1.468250994667364239e+03
-1.586062834464343723e+03
-1.776809406853592236e+03
-1.541511824298497913e+03
-1.454145910785940714e+03
-1.087727810227330338e+03
-3.672685107510824309e+02
-9.098420002180794199e+02
-5.224761445423240502e+02
2.176558913228624803e+01
3.038175006578530315e+02
9.656782205878398599e+02
1.556346463884325658e+03
1.448727121447388754e+03
1.437834980977624582e+03
1.238547439337251490e+03
7.906638268619093424e+02
6.650984691360083616e+02
4.395553029672564662e+02
-6.042958710320194768e+02
-1.516716411446246184e+03
-9.724980884394899476e+02
-4.828990311512558264e+02
-3.608037292240197189e+02
-1.857878794537749911e+01
7.518586741503219173e+01
2.979663145811369986e+02
6.705581546600483307e+02
1.063770414336000613e+03
1.462158447763056984e+03
1.532274527488389822e+03
1.709382111637697108e+03
2.401204859712095640e+03
2.518789607018891274e+03
2.377961805386809374e+03
2.221468474908880580e+03
1.892496666388729409e+03
2.315118915406456381e+03
1.571707855144771884e+03
9.420157916561862521e+02
6.593293727319676236e+02
2.517451267978374858e+02
1.541607171069883861e+02
-1.226088639198588055e+02
5.294393024711490625e+02
7.416491326273387585e+02
1.009703158746372083e+03
1.515526912586446770e+03
1.648481220056332177e+03
1.714418651684681208e+03
1.890924561628447236e+03
2.216952381810573570e+03
2.936624329290390051e+03
3.099127078228613300e+03
2.980872305758831317e+03
3.194227198281552774e+03
3.020244949339213690e+03
2.686802860341509131e+03
2.378680967748030071e+03
2.274783366031900186e+03
1.604115993080529506e+03
1.112615706821537515e+03
1.030216281129510207e+03
1.243927475687319657e+03
1.768754369988073904e+03
1.803705730634659176e+03
2.159808094159586290e+03
2.785039325847948021e+03
3.238325888932260114e+03
3.710627015609226419e+03
3.904013940359595836e+03
4.084473801578124494e+03
4.044005820279293857e+03
2.662624785404324030e+03
-4.946551561919077358e+02
-5.435849265311005183e+03
-8.623939239504321449e+03
-7.987960569962707268e+03
-8.168860378238408884e+03
-8.133674559227591089e+03
-8.167478266072444967e+03
-7.727125367926309991e+03
-8.899576289273220027e+03
-8.699960601532153305e+03
-8.859260930163058219e+03
-8.747412105359146153e+03
-7.520360381652223623e+03
-6.697075387028812656e+03
-6.231568622104407950e+03
-3.502736355042631203e+03
-1.552561120184282800e+03
-5.734972412275589704e+03
-6.450957384400820047e+03
-6.501490421544438504e+03
-6.176494340774806005e+03
-5.346924606220894020e+03
-5.778771868772548260e+03
-6.028970561640791857e+03
-6.012500865589583555e+03
-6.462322893737420600e+03
-6.798406908174165437e+03
-7.127730575398502879e+03
-7.109332415571122510e+03
-6.202216825362610507e+03
-1.701253238506957587e+03
-1.928384535794755266e+03
-4.931521277588327393e+03
3.733819275480675515e+02
4.903343035065437107e+03
5.611440835376194627e+03
5.633754363646848105e+03
5.787379813024118448e+03
6.020396996385626153e+03
6.133817853023741009e+03
5.658649238406273980e+03
5.531941345968887617e+03
5.722805950805061912e+03
5.422316770552739399e+03
5.104476852011113806e+03
4.381335416221716514e+03
3.454915929289928499e+03
2.947253923917012344e+03
2.520372925415406826e+03
2.297329952535345456e+03
2.057252630983944073e+03
2.288100035724948611e+03
2.486927968856234656e+03
2.682884207983776378e+03
3.078024327039288892e+03
3.340327038086084940e+03
3.628900740265516106e+03
3.824869049610110324e+03
4.076155149609236105e+03
3.828677482082926872e+03
3.920684123463482592e+03
3.840737256511323721e+03
3.448098979420985415e+03
2.986500515582948083e+03
2.792038194950179331e+03
2.709737723780593569e+03
1.805583816479777170e+03
1.132582151762027934e+03
8.147013531867855818e+02
7.890538041158098395e+02
6.476203200005347753e+02
5.244145101744509248e+02
1.857410146390015598e+03
2.437720864204000463e+03
2.463560593093540774e+03
1.931461040016770767e+03
2.122356428234107170e+03
2.613978432670414350e+03
2.523888509076808987e+03
2.441782392476109180e+03
2.229664558754475820e+03
2.096276676755983772e+03
1.989427764742513091e+03
1.468131270421783483e+03
1.212977353178080648e+03
9.382882604886748368e+02
-6.815151061345653716e+01
-3.913526915524024616e+02
-5.627956455629049515e+02
-3.363900031547997855e+02
-3.719807363279714423e+02
-3.875813656392416533e+02
6.581424325910144546e+01
4.332155997042228250e+02
5.485771608564568851e+02
8.449126460158038299e+02
9.272843772744558919e+02
9.186843616070931375e+02
1.187099923754330803e+03
1.327514816829621168e+03
1.199973983086795670e+03
1.328443176581183479e+03
1.629914230466260960e+03
1.176335790633718716e+03
6.826772741274829741e+02
-3.207626164908580790e+01
-7.449079867248187838e+02
-1.164892849696625490e+03
-1.423113771172114639e+03
-1.695616746589999593e+03
-1.357444665944347889e+03
-9.125599687104587474e+02
-8.139994462579996934e+02
6.420393528007225825e+01
3.280489177650203487e+02
6.335490092475000665e+02
9.116390969413517951e+02
7.613126380524597607e+02
6.616318354117800027e+02
6.605620107596832895e+02
8.540291459797356310e+02
9.410515899208713790e+02
4.245967046519007226e+02
-2.198411206992710504e+03
-7.300982597817833266e+03
-1.098920614615028717e+04
-1.165816675053695872e+04
-1.180290202121865877e+04
-1.157540615970729414e+04
-1.130065640106210958e+04
-1.055478642891738491e+04
-9.986880303153409841e+03
-9.659891538730473258e+03
-9.057849270936681933e+03
-7.716818700315514434e+03
-5.648726839788489087e+03
-9.359655886546647707e+01
1.689478895156126327e+03
2.359528605142632841e+03
2.375478041307568674e+03
2.450334732147285649e+03
2.629058750718334977e+03
2.442683694265070699e+03
1.914181739275762311e+03
1.755462649488487159e+03
2.076486928104508024e+03
1.872235137570478855e+03
1.369595196180336188e+03
1.027567065806168557e+03
9.441132054781187435e+02
7.112947055443163435e+02
1.100037834218579292e+03
9.552792033082583885e+02
1.272026466833228824e+03
1.512293244671237062e+03
1.474129959547437920e+03
1.791532118418500204e+03
2.345449847045611477e+03
2.714892047843146884e+03
2.632864829108209960e+03
2.559268419763538986e+03
2.782156926337384448e+03
2.666531468385700009e+03
2.505345609474364210e+03
2.466636209445544409e+03
1.994359499511476542e+03
1.162443108093283854e+03
3.138970822119352420e+02
-1.143050448972512925e+02
-2.031485984352944172e+02
-7.861414827084301749e+01
5.702871798688225908e+02
9.916092135597705237e+02
1.666350576778104369e+03
1.779550417727540434e+03
1.423177548658931983e+03
1.539222715223836758e+03
2.422708880101422892e+03
2.584663148563724462e+03
2.241100816103597936e+03
2.145055232974872069e+03
2.487556500681444959e+03
2.611684265286453865e+03
2.682416620335249263e+03
2.008763059917564078e+03
1.286667984936535504e+03
7.330916921457148874e+02
4.306865477761008520e+01
-1.043716689750515343e+02
-5.121894405890061819e+01
2.005971086219576875e+02
5.160518688647508725e+02
7.021811636500596023e+02
8.610207445458411257e+02
1.132556765143920074e+03
1.212845471321517380e+03
1.800978766668358958e+03
1.848976623441830043e+03
4.848888361117869295e+02
-3.894293133418745128e+03
-4.073523282841464152e+03
-4.954745203941140062e+03
-6.191161499715384707e+03
1.827888428642201291e+02
5.069365985559184082e+02
-4.500875446453844233e+03
-6.053634440566079320e+03
-2.954334725573604373e+03
-2.279930913919642535e+03
-4.112444555408781525e+03
-4.364895020405695504e+03
-4.284283803331236413e+03
-2.920546233884348112e+03
-2.185598562020338250e+03
-1.635401287048147196e+03
-7.749927219579317352e+02
1.148702968339002382e+03
-2.211235527993700089e+03
1.440227869014978978e+03
3.560964159379562375e+02
-1.218704208883743149e+03
2.202959152607431861e+03
-1.020881297253548382e+03
-1.930235902960130261e+03
-2.741061029470936774e+03
-1.034343908227915563e+03
-6.034071633949501120e+03
-2.390273272243430711e+03
-4.654980416075155517e+03
-6.333204023003215298e+03
-4.098973356961029822e+03
2.887657605766758593e+02
-2.530935283977787549e+03
-1.740581401245659663e+02
-1.968583272810740027e+03
1.653473528518939929e+03
-1.906836251615709898e+03
-3.371482161008832009e+03
4.555707457138913696e+02
2.867293128594128575e+03
3.206676809084544857e+03
2.988740545619148634e+03
2.994504762868522448e+03
3.022975218966119428e+03
2.778099452822421881e+03
2.240881260528480652e+03
1.377271611613781033e+03
6.291806807835750988e+02
7.546385981305249970e+02
8.366324285388296857e+02
9.661333474987374075e+02
9.551676592914564026e+02
1.463740036312886787e+03
1.710834463966805743e+03
2.037317319445786779e+03
2.153219443756253895e+03
2.422630164149029042e+03
2.751112427301965909e+03
2.937886710269729065e+03
3.023822871564511843e+03
3.385586330899428503e+03
2.835174771821530157e+03
1.797610141842554185e+03
1.684919152285095834e+03
2.130926089811683596e+03
2.002791281565068630e+03
1.384400565340189587e+03
6.027217648128226983e+02
3.117513505808132663e+02
4.223841174768511451e+02
1.557261508485797208e+02
3.352802509849148009e+02
6.007366348313775006e+02
1.255337360580883569e+03
1.636627921800072272e+03
2.007356230888377468e+03
2.072464943803668120e+03
2.180799647773239030e+03
2.530302856085222174e+03
2.652996485456188566e+03
2.894791794121078055e+03
2.885609757997213364e+03
2.843422176730418869e+03
2.575195507837914192e+03
1.961109533777472734e+03
1.385126461489639951e+03
9.995434948035288016e+02
6.722206724381331924e+02
6.895890359407055712e+02
7.808656586138961302e+02
6.816222623417811519e+02
1.016603489169313548e+03
1.416689843360197756e+03
1.699855886290578610e+03
2.513077657931733029e+03
2.887250330790107910e+03
2.766324608152247038e+03
2.287369381687751229e+03
2.729315588353392286e+03
3.290074634348786276e+03
3.475639895178424922e+03
3.275975842418810316e+03
3.112115862985357580e+03
3.027042661280237098e+03
2.558640145965018746e+03
1.958826640683669666e+03
1.839586037278219237e+03
1.060920713010672671e+03
9.817677779046509841e+02
1.238062324668211204e+03
1.099751534762988058e+03
9.838278669709075075e+02
1.695294746828162260e+03
2.199172340267909021e+03
1.344458140048444420e+03
-1.862839084587934394e+03
-6.647669794575229389e+03
-9.077058640073526476e+03
-8.272905592109853387e+03
-8.643185690478188917e+03
-8.341025021608704265e+03
-7.825499249651132232e+03
-7.653617749660186746e+03
-7.734295698771822572e+03
-8.036552414603628677e+03
-8.158439359078472989e+03
-8.536921489501088217e+03
-8.429018906496858108e+03
-9.063603013680089134e+03
-9.201884744779204993e+03
-6.200798481839402484e+03
-5.653351927716903447e+03
-9.283522883244162585e+03
-9.290294926301561645e+03
-8.590702566932834088e+03
-7.804625547636540432e+03
-7.499050222084963934e+03
-6.780927791415527281e+03
-6.134201659378421027e+03
-5.298825560008649518e+03
-2.411759303586689384e+03
4.599980435488565490e+03
6.583410085017909296e+03
6.180607766096190971e+03
5.515533080002626775e+03
4.879286974306887714e+03
4.513831582084866568e+03
3.875220197516224744e+03
3.507561414397220688e+03
2.900859224170853850e+03
2.446124177033202159e+03
2.301427884716456902e+03
2.293742003618463059e+03
2.581201706917624051e+03
3.120974444812546153e+03
3.128082795650750995e+03
3.436613719608778410e+03
3.371622535780842099e+03
3.633170454435354259e+03
3.779195368474182487e+03
3.560673346242731441e+03
3.390690608292754405e+03
3.726418754634396464e+03
3.701930363529631904e+03
3.616316717058445192e+03
2.732619688891818896e+03
1.690856044449151796e+03
1.366034308494728293e+03
7.351848319907142013e+02
1.324038985990302706e+02
1.546765626947128283e+02
2.540742578643864249e+02
3.597071054162888686e+02
5.557073187636939338e+02
1.091193198745580958e+03
1.366178577178305432e+03
1.400684194667338488e+03
1.662817064076802353e+03
1.861648970762903446e+03
1.934266477249175296e+03
1.962833036728133493e+03
1.563564388427764925e+03
1.029407655101937053e+03
5.126149087909926720e+02
4.084367006260515041e+02
1.169950997955473440e+03
7.730987806802442037e+02
-2.422372009798622230e+02
-6.630577644737846867e+02
-6.742705951164157341e+02
-1.325775735909568539e+03
-1.442660896623016470e+03
-1.482952576109231813e+03
-8.455238361935962530e+02
-7.627132813067034078e+01
-1.853649300755442653e+02
2.821722141782960946e+01
3.948913094345449082e+01
5.105045644749080793e+02
1.037269833197580283e+03
8.337965966680372958e+02
5.251184559640344105e+02
3.932788028477859257e+02
1.333322865138705708e+02
1.373034714092105446e+02
-6.717677464324110588e+02
-1.063888175366092582e+03
-1.764019720016114888e+03
-2.416172527154827549e+03
-2.827355636619879533e+03
-3.051617221811950913e+03
-2.599889828858224064e+03
-1.780141181816909921e+03
-1.345362546807456056e+03
-6.454712348590185229e+02
2.555559804148067258e+02
2.897191820412315906e+02
5.909609978122535949e+02
6.932538368908825532e+02
5.346320747859218727e+02
3.460805271840085311e+02
2.826449325260081196e+02
2.638592250158808383e+01
-9.567733448215413716e+01
-5.136027626468467133e+02
-5.664500935367491365e+02
-8.752988929496832498e+02
-1.302190676554055699e+03
-1.371158964134624739e+03
-1.571230301524447668e+03
-1.043504109167717388e+03
-8.939797928861055425e+02
-1.011565919355870960e+03
-8.193071445713387675e+02
-6.682765713154187779e+02
-2.995062826313390474e+02
-4.940113619605276085e+02
-4.058415735274267604e+02
3.919782139983872753e+02
8.484040186913964590e+02
1.641382265040489074e+03
1.475897241707049488e+03
9.109138295677926180e+02
2.863550543478030477e+02
3.195791412012305877e+00
4.736893299872575369e+01
-6.111961697823983286e+02
-1.130586605371727273e+03
-1.313920882722735769e+03
-1.574277766280846436e+03
-1.926658917599189863e+03
-1.848152861329861253e+03
-1.529849367876433917e+03
-1.144819698479018371e+03
-5.750987087837675062e+02
-7.645407517836360967e+02
-4.679395985669602851e+02
1.631601166091293180e+02
-3.577306713608992595e+03
-7.227656919111923344e+02
1.700991478554654122e+03
2.228958103243166534e+03
2.383436571519613153e+03
2.598724334115172951e+03
2.936863537451776665e+03
2.863096775673549928e+03
2.350520591942237843e+03
1.402851417431834079e+03
8.472059908240842105e+02
6.488040285705294536e+02
7.310262539956169121e+02
5.950657901092763495e+02
6.040167339419641621e+02
1.087075922366599798e+03
1.808724099189099888e+03
2.160547059050991265e+03
2.046556789433410358e+03
2.136958946771767842e+03
2.326491118535392616e+03
2.372279235562634312e+03
2.535800020993455746e+03
2.942503479832148969e+03
3.142193970991250353e+03
3.857904424555897094e+03
3.720191577812297055e+03
3.299493071058881014e+03
2.500939614635050020e+03
1.725762052878912527e+03
1.232521482417607331e+03
8.410829122290181203e+02
6.961244558959616597e+02
7.252546034766926368e+02
8.700926949214216393e+02
1.063653818856848829e+03
2.120864115118177779e+03
2.537901295784693957e+03
2.635886177339142250e+03
2.932115249754082015e+03
3.776488028440864582e+03
4.200833976653022546e+03
4.041064112874386410e+03
4.330113245088005897e+03
4.419987021140752404e+03
3.771684340611738207e+03
2.998195477116703842e+03
2.342420411297685405e+03
1.644329007768073552e+03
1.222893936459888664e+03
1.049128503447550202e+03
5.209764979670322873e+02
-1.941544021704306033e+03
-4.767479096070316700e+03
-8.733825644300399290e+03
-8.137578813105070367e+03
-7.168735480323564843e+03
-6.773251288147735977e+03
-6.869157619909389723e+03
-7.548442116614005499e+03
-7.512019094041686003e+03
-6.754764544828647558e+03
-7.345776660167581213e+03
-7.276094042276567052e+03
-6.983659777583636242e+03
-7.003426396006731011e+03
-6.272349057585030096e+03
-4.862448455896458654e+03
-1.053744615980353728e+03
-3.091169553535368777e+03
-6.672716857713317950e+03
-7.398396267266301038e+03
-7.128230265527669872e+03
-6.689137102737340683e+03
-5.714069297313958486e+03
-5.634914720397408018e+03
-4.994652840929883496e+03
-4.586260302741397027e+03
-4.608682295295741824e+03
-4.872825029587836980e+03
-5.568633502270324243e+03
-6.288060606213817664e+03
-3.974052556426669980e+03
-4.555603265751364574e+02
-4.390543597780552773e+03
-5.936897715104558301e+03
-5.705582439443938711e+03
-5.221593722925391376e+03
-3.378854472570960752e+02
3.529630183415721149e+03
3.861977163481496063e+03
3.891204975606241078e+03
4.394368974813910427e+03
4.280452175943388283e+03
3.935558258732100512e+03
4.378840615611003159e+03
4.841391149552268871e+03
5.096205942118676830e+03
5.323342144476023350e+03
5.542892856163253782e+03
6.251976386287526111e+03
6.982673335462748582e+03
7.021024479609825903e+03
6.339099748361554703e+03
5.853970270029733911e+03
5.651700065378181534e+03
5.461385824018178027e+03
4.719062644836947584e+03
3.433775311206954939e+03
2.339632284784315289e+03
1.249635359615570223e+03
5.457782503592846979e+02
-1.698341721676869440e+02
-6.000912639124095449e+02
-7.888614002135041119e+02
-8.459188807743165626e+02
5.289643042611392048e+02
2.408870071747017846e+03
2.921908208690857009e+03
2.798156319157417784e+03
2.679579598219245327e+03
2.753243532192449493e+03
2.636274443124448680e+03
2.002687786838102511e+03
1.974520447289315598e+03
1.446823537394294590e+03
2.582523943487959968e+03
2.714771970439629513e+03
3.164571499618845792e+03
2.938858620290997351e+03
2.070673675053986244e+03
1.747935774431512982e+03
1.016786430295771765e+03
9.512303364494817970e+02
7.362288665666062570e+02
6.398690909859061549e+02
1.020158519455721603e+03
1.802087343580109973e+03
2.430684784186480101e+03
2.759793951633555025e+03
2.875093169458309603e+03
2.669226335022253807e+03
1.888955726269219667e+03
1.943093600905662015e+03
1.370664556319841040e+03
5.626050837051687949e+02
5.259831442018438565e+02
5.127467323572607256e+02
1.991106724740827971e+01
-4.645102003298847535e+02
-1.959561964968469738e+03
-2.842228944334305197e+03
-2.378581507687668363e+03
-1.869701871530300878e+03
-8.055315817808195789e+02
2.829380879031666041e+02
2.086748464498320573e+03
2.961889067029837861e+03
2.022342822684754310e+03
1.033119599742861965e+03
9.802153130087222053e+02
8.965821405550950658e+02
1.425241289858813388e+03
1.936110701845922449e+03
1.868216423347332011e+03
1.727615833919835040e+03
1.333256925872943611e+03
1.014097518734646883e+03
4.970822502824399294e+02
-5.938872322649442594e+02
-1.205792605663606764e+03
-9.516168141482262399e+02
-3.064129489821672223e+02
-2.002502547557734829e+02
-6.141503535660996249e+02
-2.722050751413261764e+02
2.045295717120068844e+02
4.030864802393571154e+02
-7.545356604864915653e+02
-4.016349996129222745e+03
-9.660348477747184006e+03
-1.136352836462023879e+04
-1.027295585502220092e+04
-8.107659476891324630e+03
-6.848805890385970997e+03
-7.042372073665055723e+03
-8.095353574940674662e+03
-9.017836576099369267e+03
-9.045931205944158137e+03
-9.985542387752397190e+03
-1.099277059829966856e+04
-5.988647382730744539e+03
-1.880264567046829370e+03
-6.357225441277515756e+02
2.995860289877556593e+00
4.928553564931676192e+02
1.481868448185928855e+03
1.868014668655733658e+03
1.494216919072903011e+03
1.305474113366381971e+03
1.785774508633779305e+03
2.169075711523131758e+03
2.147378927115986244e+03
2.364640475522307497e+03
2.410913963444671481e+03
2.477162367026870925e+03
2.846315383041229779e+03
2.339267470405152380e+03
1.271038821325071240e+03
6.446273173963766112e+02
-1.900490113705066619e+02
-8.780489692988022625e+02
-2.994278564488963070e+02
6.056971196324344646e+02
1.226285346867897715e+03
1.124437521977614551e+03
9.331252628380049146e+02
8.363648743707204858e+02
4.401782561863496994e+02
7.945551274619421065e+02
1.698446873968099226e+03
2.713827348344476377e+03
3.117718658182540366e+03
3.306133767138948770e+03
2.980051857841156561e+03
2.517489549855895348e+03
2.494441868016884655e+03
2.353873678066328466e+03
1.563777196465498037e+03
4.430689561051790974e+02
2.087459239683261387e+02
2.298438476399066701e+02
7.212899814465326926e+02
7.530500628078492582e+02
5.271579636055796527e+02
3.086953717745665244e+02
8.216846575871768437e+02
1.311099643082981174e+03
1.805943038175202901e+03
1.981094923446857592e+03
2.164688796284779073e+03
2.038771447930992508e+03
1.959323806708432585e+03
2.190593343460092910e+03
2.519423253731377372e+03
2.813844987581090663e+03
2.501883166257464381e+03
1.769514385759342531e+03
1.736770208741116903e+03
1.517694326612738223e+03
6.862569771853632119e+02
1.914366368273190062e+02
-5.318166285213309266e+02
-1.705511403298886250e+02
9.418064530748607055e+00
-2.644858085514539198e+03
-7.006407511397766939e+03
-3.882876424589622729e+03
-9.317285417773084646e+02
-2.080954119639781311e+03
-4.910384252663493498e+03
-1.399465957975120318e+02
-1.406689960820170427e+03
-5.856324948805631720e+02
-5.166435561966723355e+01
-9.447185530550798376e+02
1.090251210939680959e+03
-5.011778750781973940e+03
-6.671798347777901654e+03
