-2.418752839568413630e-03
5.646493851134273996e-03
1.426662606147405428e-02
1.624081390781929521e-02
1.596709662244066852e-02
1.169710098902937076e-02
1.084460936028614972e-02
1.205839247543207329e-02
8.188159625271137360e-03
6.097116124775965249e-03
4.750537222732490426e-03
1.382340875718817471e-03
-1.884182029944852458e-03
-8.264962460139083783e-03
-1.057199466697622721e-02
-9.276183310892109277e-03
-1.747404700032261990e-02
-2.017027523628977040e-02
-9.001046876393480750e-03
-7.311390453523925956e-03
-1.255306331212056523e-02
-9.383502183345946226e-03
-3.651203939032007101e-03
1.881598192351419249e-03
5.418017624886142629e-03
6.322535575480150299e-03
7.960370235203125672e-03
5.904543354117227673e-03
3.582887007462142760e-03
5.889476717301720017e-03
5.969610296096979594e-03
2.278227892399026927e-03
5.179625706116337477e-04
1.131144425924564875e-03
-2.322164046237955564e-03
-6.430467022105901785e-03
-6.677486207820980749e-03
-9.875794563551636152e-03
-9.749799306693467463e-03
-3.311749988932943464e-03
-3.815488832894560088e-04
5.048307426369325838e-04
-4.247060895092400899e-04
2.255151505469431879e-03
9.335809088021843755e-03
8.002505545931893477e-03
7.988501195258361845e-03
1.115696452448256687e-02
6.545426917461407215e-03
1.677707036453292277e-03
-4.332856649322142442e-03
-5.992927534979249592e-03
3.269468705274431505e-03
9.021812790414541691e-03
8.726780675050296865e-03
1.747486970032239564e-03
-7.122473372413996168e-03
-5.192790556484846998e-03
-7.480820088758144285e-04
2.252347901478078413e-03
1.151887015047137891e-03
-7.247699756176462400e-03
-8.801592982466010032e-03
-5.452632688248567304e-03
-5.145159056192759491e-03
-4.692125040878574078e-03
-5.624150597523253602e-03
-5.930116799013285256e-03
-4.044261171933148657e-03
-9.728730878195697256e-04
1.661460419063133173e-03
2.919891945525965229e-03
4.708651397093236227e-03
2.776687776035171359e-03
2.130146599126587017e-04
2.170544939755952255e-03
4.511161232033858784e-03
6.248236589164615426e-03
5.890739228823121780e-03
5.431692238043446183e-03
1.591480298171122276e-03
-6.226932042739657426e-03
-2.367531557258882244e-03
5.547146215088897409e-03
6.909200922717432733e-03
8.962977817170428990e-03
6.900743728558332568e-03
7.140181917265124535e-04
-5.638633419602777537e-03
-8.949523826562111317e-03
-4.609441310239856954e-03
8.019492858812706307e-04
2.529326309544777975e-03
-7.960329010838096409e-03
-1.939891381214811292e-02
-7.467936974247971031e-03
4.146280025371637534e-03
4.212708934873754594e-04
-1.806368664515991043e-04
8.351847371079594053e-04
-3.655692480934072099e-05
-4.615449186167571577e-03
-9.808654706617014885e-03
-4.661215662667459771e-03
2.478527686866285537e-03
6.011129912700561434e-03
7.522086739037487334e-03
3.483246165192493103e-03
1.931111233142795112e-04
1.759651119887028353e-03
3.747381306824366844e-03
3.266692319656601395e-03
3.050704061063178388e-03
4.023284656955403507e-03
-5.316353468908382399e-04
-5.322727742252416835e-03
-4.824918221292760247e-03
-4.463199483558095634e-03
3.003741623026349354e-04
7.300439595006474360e-03
7.657601239531079858e-03
3.640612505131912528e-03
-1.844728995386747542e-03
-1.618707216328184794e-03
3.159920365741626311e-03
1.931570884383002886e-03
-6.117198855434437385e-04
-6.486056351056898421e-04
-3.009022986321030686e-04
-2.300039989618299450e-03
-6.767952158397412196e-03
-2.094805194673288705e-03
4.518794525559962326e-03
1.207448416333905357e-03
-3.841365365687667227e-04
5.201502692680353172e-04
-7.167861729018090450e-04
-1.296040241661695902e-03
2.383044192522755023e-04
3.237673754869811130e-03
-2.424912189494535177e-04
-3.532310845704957330e-03
-1.101062465882214408e-03
-8.600487047874730414e-04
2.662130010918336946e-03
-2.462983892469686013e-03
-1.812512564114987512e-02
-1.430829519199524821e-02
-3.325689015320711008e-03
-2.941534790679859249e-03
1.422337913406240047e-03
5.286278051693559313e-03
3.718014486292147997e-03
3.517041604447283289e-03
4.654893686397289058e-03
6.566272441060623521e-03
4.255114979239850610e-03
3.053789948405831629e-03
1.107948675088417899e-02
1.254866305750580724e-02
4.720006886102958918e-03
1.979552195935225384e-03
-2.608868161699406767e-03
-1.011297255624436439e-02
-1.053776153247203660e-02
-6.025822471629639979e-03
9.895052123023294777e-04
6.346155174070404383e-04
-4.972564043854220232e-03
-1.650738926549158480e-03
-2.044972724755536662e-04
1.704547576113656614e-03
8.515196335784314466e-03
2.690079963061317494e-03
-3.875938977591672756e-03
-1.561440283421634129e-03
-2.183333713047911923e-03
-2.603848927508240537e-03
-8.065235410920106778e-04
1.314170295573448451e-03
1.218921268373512629e-03
-3.461899567678069101e-04
6.291913144505420757e-04
2.826242974916705493e-04
2.127743666073169358e-03
2.982966030745250186e-03
5.304738551400053036e-04
3.500027046456827707e-03
2.300448209748810627e-04
-5.991125125139488104e-03
-3.610928612360563960e-03
-4.252868645900994074e-03
-2.980000499450062915e-03
-1.008917044940984328e-03
-4.452993366807590087e-03
2.084986347292722294e-05
2.601759799882944531e-03
-8.375421586618861857e-04
2.984212471309769833e-03
2.364532495041715005e-03
-2.325703949108424810e-03
2.197680802858333234e-03
3.860774878199730361e-03
-4.395629281385683923e-04
1.131511241137335552e-03
3.211422011227204297e-03
3.426283236510640953e-03
4.806332990646275914e-03
-1.880089182683365332e-03
-9.811722215609683037e-03
-4.446603212214724453e-03
4.720702257141618126e-03
6.913772446146092612e-03
3.725541582125374996e-03
4.006092382236574475e-04
-8.408516415429230506e-04
-2.888113804498214452e-03
-2.223241825018499630e-03
2.877082429087244892e-03
4.824774483113747348e-03
1.961452814921765733e-03
-1.698855654074992502e-03
-4.036458284072738135e-03
-4.632406100363277088e-03
-3.022823550372406940e-03
-1.090085979982118860e-03
-1.391050319050272759e-05
2.011212819884563956e-03
1.499927980322213021e-03
-9.772943344266739329e-04
-1.618846612314941980e-03
-1.781932359469531359e-03
1.481588760346480918e-03
1.637510242807337828e-03
-5.271563803588306951e-03
-5.637177781081889431e-03
-4.136453035234056129e-03
-6.399782067458851566e-03
-1.969612854614996751e-03
1.953774813084162201e-03
-1.326537520519525514e-03
-3.371270633131869410e-03
-1.896152698134867315e-03
2.254849483062455664e-03
6.941750799950669078e-03
6.871374111901911753e-03
3.679788937936184258e-03
2.478469263145495916e-03
8.632412207526883163e-04
-1.835236093814091333e-03
-6.827937992919209595e-04
2.039863668238526846e-03
3.020622288993753991e-03
3.777946825899340579e-03
3.232851992332700947e-03
1.313095183131125950e-03
2.445807135512944545e-03
6.216485835299970578e-03
6.390021659309339831e-03
5.284963490713379813e-03
3.654533949715553769e-03
-1.852900208531658944e-03
-2.100335286097540239e-03
-3.376173986746756461e-04
-2.647824093157532914e-03
-7.757368639349139115e-04
-4.309257566256790087e-03
-1.263192870599496448e-02
-9.200533053289720181e-03
-1.370473406379892501e-03
1.318577704724569095e-03
1.791284564394242688e-03
4.083013476596067219e-03
2.762580091881996092e-03
3.382032289066128766e-04
4.004753814258924828e-03
-1.073627297884357026e-02
-2.948007085412544456e-02
-1.310964385204078236e-02
4.277648684963187946e-03
4.326096685915442261e-03
6.555033851570479971e-03
4.451366844998255398e-03
3.023526127540383541e-03
3.749380655588013204e-03
6.311867998146246297e-04
1.330520284144042680e-03
1.893969810662150810e-03
1.657373273425286281e-07
-2.937572742244952406e-03
-4.043363519043012902e-03
2.387446627711821423e-03
7.850999052644566656e-03
7.876954167940902751e-03
5.751871634933424828e-03
3.911546929156135832e-03
1.895028744875375129e-03
-2.986774223859213050e-03
-1.763749892548427747e-03
2.720070665452110729e-03
1.309554170948106899e-03
1.088952101998944032e-03
9.004291435119565583e-04
1.173549786630855582e-03
4.741630997811438659e-03
3.513434741899796546e-03
-5.396402427150114771e-04
-2.422773578412504118e-03
-4.191787078808636470e-03
-7.306868472477071573e-03
-8.417574446778378766e-03
-4.231217723399765228e-03
9.235247064737419503e-05
3.664295331192885322e-03
3.755741841263091248e-03
-2.373091571454689474e-03
-2.485411897658517267e-03
-4.552176097690552922e-04
-4.833876798806192171e-03
-2.656170389481775189e-03
3.171157679654316303e-03
2.246179909943755819e-03
2.287627300278852974e-03
3.271080685823611438e-03
1.607739110966084368e-03
1.736763110882956354e-03
1.523805903870212222e-03
2.279524021115589966e-03
2.177247184283650615e-03
-5.615854971223354329e-03
-6.748080305523767794e-03
-9.149548176535169915e-04
-1.249013039136890333e-03
1.723269227146832739e-03
1.896564115469910865e-03
-3.157909346352578538e-03
-2.658112736074086466e-03
-6.550316808188041268e-03
-3.981348027970308366e-03
6.021506390890037606e-03
3.054661204954270317e-03
5.269346999479286716e-04
-8.915354070562970298e-04
-5.220521064806602461e-03
-1.135580643141293877e-03
1.411419696300729389e-04
-9.587077288465662653e-04
-5.038075875169495833e-04
-3.929361707468344463e-03
-2.973747799335241769e-03
-1.098591933937318431e-03
-8.365988037188958277e-04
2.529236755285431664e-03
7.953749197457714651e-03
1.742605141324236190e-02
2.215107719064910580e-02
1.797861288527088583e-02
9.087861278238042878e-03
-4.372189509799668042e-03
-1.132702894755924748e-02
-9.524670784413038702e-03
-6.106459315841118729e-03
-2.218447300956449559e-03
-3.054336229345035961e-03
-5.876228468987070366e-03
-4.474998514597430636e-03
-2.554034022671930471e-03
-2.404719790511143131e-03
-2.984942917256201960e-03
-5.119972497687846208e-03
-7.435980060326794795e-03
-4.826167192861238395e-03
-1.175252407606995142e-03
-5.840254392301381069e-04
1.861171980418292347e-03
2.648569284929993585e-03
1.316888680535321075e-04
-4.334835486663275099e-04
1.884274769927235700e-03
5.330830345745603965e-03
3.472442258915168448e-03
-4.568916304667791119e-04
1.577723235116084864e-04
1.168474383481213222e-03
3.256200706509265481e-03
3.952690519933632629e-03
2.385779279307220346e-03
3.876205578321528442e-03
2.665367455372705339e-03
-1.200117845404992650e-03
-2.850643346552509273e-03
-3.045108045493047626e-03
-5.041269982581029476e-04
1.255309595678892522e-03
-4.606839393927702033e-04
-2.671795752077669051e-03
-1.847210857264961446e-03
-7.603850104893092147e-04
-3.570121962545297258e-03
-1.086854107637895720e-03
3.553499422981089718e-03
3.443246819513849752e-04
-4.189215486581927676e-04
-9.014082036619121231e-06
-2.327283798591368684e-03
1.347457550252970830e-03
3.824316555553374051e-03
1.901108936128716956e-03
2.934649180457886159e-03
2.586731762962478018e-03
-6.892876103995393064e-04
-3.076592637652208334e-03
-4.249656973278175161e-03
-3.532423145898403415e-03
-2.971310949018895163e-03
-2.359677497598999026e-03
1.630697351018371884e-03
1.936719009136480141e-03
-2.641951950344966805e-03
-1.352058873612921319e-03
1.630409755557922198e-03
1.938788327188383041e-03
2.768150477013624818e-03
5.443107511943314544e-04
7.035887868030328823e-04
2.327687313858843154e-03
-1.885823302007148252e-03
-1.536100210932499427e-03
1.646726413824560606e-03
6.344494458081443439e-04
1.193074969432178544e-03
4.835855201404048944e-04
1.299518282540592859e-03
6.351799035054981474e-03
6.246153154568077903e-03
3.261744280006052647e-03
9.652671304929716931e-04
-1.685483633799206467e-03
-1.141167546966152064e-03
-1.234638404350218489e-04
-1.188069632529300298e-04
4.631925672937191817e-04
-2.965306788370624443e-03
-6.723326261354283656e-03
-4.396058716616215584e-03
-4.315909547850146043e-03
-7.882364373435910010e-03
-5.483215988838172419e-03
-2.849992808607332111e-03
-6.279791439909714404e-03
-7.802471542804547897e-03
-6.255646800766717815e-03
-4.359919139275862839e-03
1.099410497176121770e-03
5.447844743864915275e-03
4.407046682733969586e-03
5.199289282887618879e-03
7.231052687916676713e-03
6.839155544309707957e-03
8.604770926981572532e-03
8.687267632695793579e-03
4.591325289776080135e-03
3.025531514817432314e-03
3.599815841513105425e-03
4.433701984703545228e-03
6.154683602815630948e-03
7.014239803758260706e-03
5.024374923525526740e-03
-2.317957486359154386e-04
-6.206304749385074988e-03
-9.244403247419208380e-03
-5.382338446828754085e-03
-1.549297055499219197e-04
1.457232239116149769e-03
5.658134831707651094e-03
-1.526159535468047095e-03
-2.075016792265351254e-02
-1.847689607952055987e-02
-3.223056273599405903e-03
-2.565155197223087206e-04
1.036662379982656061e-03
3.557666146704706236e-03
1.633782484158346517e-03
-9.859680901084819180e-04
-1.231990447924732109e-03
8.461066770644120835e-05
-3.892024226241087284e-04
6.520952920820127612e-04
2.155111379826912029e-03
-5.978237475739181734e-04
-1.507456434005561858e-03
-7.373021496176457561e-05
1.561576849704728086e-03
5.015043885224881523e-03
6.337705550104592855e-03
4.958535632062305298e-03
1.181861448213312473e-04
-6.191602617428669866e-03
-1.902512651288033787e-03
7.321630560809903703e-03
5.931400935953359821e-03
2.662276198560253513e-05
-3.759141569789982255e-03
-6.437828160517147791e-03
-2.463652780855438238e-03
3.812105044519529216e-03
3.400684623310688392e-03
-2.679000610435497247e-04
-1.160763378646233928e-03
1.735602720735371710e-03
2.188100683356799213e-03
1.350601121063069827e-04
9.970030762240045339e-04
8.406599286920110993e-05
-6.858719854445916031e-04
7.093113824180687955e-04
-1.047342828718095167e-03
-1.172217462169613264e-03
-1.704615737142200181e-03
-4.585972874779445721e-03
-2.311573950153814928e-03
2.565929823135885838e-06
-9.708096044449257198e-05
2.139384036772629463e-04
2.734229231458468190e-04
1.935534416453839768e-03
2.199276617542892699e-03
2.324479719041703304e-03
8.416835204927235452e-05
-8.015240874238729885e-03
-6.826389299103774282e-03
7.052287190876271351e-04
1.488065214439027737e-03
2.955258586035956411e-03
2.957718955382886324e-03
-2.857577985449918857e-04
-5.369454630401475012e-04
-1.277187685073947381e-03
6.466991913860616580e-04
4.296232391908775053e-03
2.128428395800349877e-03
4.842206476746164080e-04
1.164177083462472574e-03
-1.215495471170598444e-03
-3.435890449796970107e-03
-2.095262913674601334e-03
-4.763418963995515090e-04
-6.373465685166414848e-05
1.401321562415386909e-03
1.233648765663451644e-04
-2.916666269045937922e-03
-1.021504014997052763e-03
7.597537070883398670e-04
1.164239966934195979e-03
2.834610567547507683e-03
1.701772333586562503e-03
1.222087463256313474e-03
2.004183211049101031e-03
-2.086152909927606975e-04
-1.017548996261757399e-03
1.195491106259333495e-03
1.056735777279205679e-03
-1.536288459597158311e-03
5.877487524865601751e-04
3.367723896247165009e-03
-1.562700207260023146e-03
-4.842655686997553860e-03
-1.629131171746612617e-03
9.831015917101109270e-04
-4.994041203699690424e-04
-3.415101644363885847e-03
-1.221372386509902725e-03
1.103613596613092730e-03
3.852212681625283601e-04
1.846765156570577895e-03
1.391704066411179191e-03
4.821194954363281220e-05
-1.968290244515920242e-03
-5.677513635722110721e-03
-3.704291542472204924e-03
-8.927403604768373389e-04
1.188429542161937484e-03
5.322148908276611544e-03
5.085844583951094032e-03
3.027359217239514438e-03
-3.437752941990276012e-04
-5.066149011656593051e-03
-2.948805321808358262e-03
2.755029101219013624e-03
2.637672097274943502e-03
-1.215984606148821055e-03
-9.839136202474008542e-04
-1.795137083680669200e-03
-3.198061761054173981e-03
4.845453532730281329e-03
7.129707658605960452e-03
1.850461179368568306e-04
4.827053013623727133e-04
1.597263943578076375e-03
3.471250338355134218e-03
8.197943159668964752e-03
5.083305926895612982e-03
-5.157972401028643704e-04
-4.188112454732322888e-03
-7.487031225929537126e-03
-7.076721488093098283e-03
-4.733633461737280466e-03
-2.002143503297627598e-03
-4.822246736564871029e-04
-2.050716055739427567e-03
-4.163492904933015215e-03
-2.758514223601787798e-03
1.744088892431553761e-03
2.221655845242254124e-03
-2.748216046835617573e-04
-1.128047729589605171e-03
-2.423561835953417024e-03
-2.492911717999936848e-03
-1.580873549916949001e-03
1.362198980421556668e-03
7.545922966140487971e-03
6.939554677332153594e-03
1.956112271349240254e-03
1.028961998222690383e-03
6.216037393138714394e-05
1.353070288816701295e-03
2.546022927975657036e-03
-3.773144528861254246e-04
7.847521407373677477e-05
-7.979293187506626478e-04
-3.172867118193777904e-03
8.406755501029251638e-04
2.212815926521314452e-03
1.179004715184317790e-03
3.709301742799158905e-03
2.546756004173954431e-03
-9.172444717800772463e-04
-2.163520915580706677e-03
-3.842237142616165921e-03
-4.209723444362681484e-03
8.189055328547688610e-05
2.614154807117566402e-03
-2.894856570206124843e-03
-6.292727201688430409e-03
-2.371858877239416651e-03
-2.618599958340463293e-04
4.109178335552712575e-04
2.748541449976493311e-03
1.917058074494357211e-03
-2.746921344565228604e-03
-4.963726925399201614e-03
-1.803221279548101064e-03
2.268612427846154484e-03
4.220799764012486861e-03
3.742914970864578798e-03
2.128201955012161938e-03
-1.331562131899940028e-04
-6.402679357064866919e-03
-8.943148631886881084e-03
-5.904875981273461543e-05
7.453564141490339606e-03
7.193515227896941054e-03
7.505676251369482709e-03
5.348188810937645407e-03
-8.930851710335120652e-04
-7.665536742920633787e-04
1.511503057133716790e-03
1.985243165686256618e-06
-1.711407521492588988e-03
-6.360071464254793590e-03
-4.759991053964227926e-03
2.724376300123173850e-03
4.036983366411606633e-04
-5.360976126037543185e-04
4.239324898789309515e-03
7.059194970597419683e-03
8.692298486177803957e-03
2.651344450280972154e-03
-5.553216953766748447e-03
-1.428223199485367106e-02
-1.950233735948414190e-02
-4.973758116068792597e-03
6.166025150533946744e-03
1.706184633049548675e-03
2.357297939718477030e-03
4.342474020352302122e-03
4.596868499627666978e-03
4.188764851369648594e-03
1.142926932593477107e-03
6.530166988527110221e-04
-2.483549902070229104e-03
-5.577524249732425214e-03
-2.512610680685785271e-03
4.532643349934150495e-05
1.552298067707119124e-03
2.451984538868191756e-03
1.101358375095910259e-03
-2.796329479664730853e-03
-5.915963969228878357e-03
-1.539597507543304013e-03
3.922213900974328912e-03
3.763822800531032089e-03
1.972413720559808986e-03
-1.641897983359408893e-04
-1.530859080988451488e-03
-3.131583619035580891e-03
-3.572064583578427998e-03
2.557579544187513557e-03
5.164762520381884978e-03
-2.693794681873225641e-03
-7.775934005642660789e-03
-4.338560375123611847e-03
1.822544721741426984e-03
4.717034489694095327e-03
5.355561870524978493e-03
8.663890135336858520e-03
7.139154104597305629e-03
1.818091716578705205e-03
1.902635484791310137e-03
3.110670325114240058e-03
3.570403080280997333e-03
8.172102061773850240e-04
-4.967771535044699900e-04
3.208290564301745883e-03
2.393432083851877560e-04
5.770728673811242621e-04
1.813632228934739356e-03
-3.810560054384822329e-03
2.705493494711318572e-03
-3.333347324652761665e-03
-2.580510012932757044e-02
-2.085747676163428321e-02
-5.557698962348762983e-03
-1.255400585388160954e-04
5.399715843139557547e-03
5.769909199760922362e-03
4.942226920586013754e-03
3.579218133282018564e-03
-8.135975764310294242e-04
-3.599984873432883828e-04
2.344160332124761801e-03
3.134530159599877215e-04
-3.574593697221009267e-03
-1.187132192873889634e-03
1.821021058588538893e-03
3.407660672554790144e-04
2.413944555059962735e-03
4.490104110269010906e-03
1.906326282803386032e-03
-2.659456392116670389e-05
1.297772274692430032e-03
1.156162529863937957e-03
-3.188948725893531091e-04
4.329552062242027904e-03
4.626167097811883198e-03
-1.346126301906374690e-03
-1.544677793174698607e-03
-4.552576874048434342e-03
-6.887476101552705496e-03
-2.240447717143029868e-03
7.707023075140277592e-04
4.306814716193642541e-03
3.241326206236802478e-03
4.092497425836935220e-04
6.073316178842541081e-03
6.940026917646448593e-03
1.223285118002571427e-03
1.011111870546709890e-04
1.874356345748187224e-03
-3.645315144051892585e-04
-7.148850611602789243e-03
-7.251729394645974915e-03
-1.971175774316260339e-03
-1.330321825377963002e-03
1.868863476468957943e-03
6.953767777795953099e-03
4.056895734014817276e-03
-1.559277099347133248e-05
-2.135996719212697893e-03
-5.189080680338165573e-03
-9.661393346107183385e-04
2.359994537799738144e-03
-4.489184343857247593e-03
-4.984691159345876199e-03
-3.220456978901330234e-03
-7.887061125416421070e-03
-4.419819494849661426e-03
1.002680014274188319e-03
2.748055698585454248e-04
1.204038545725423341e-03
2.747452754797475877e-03
4.608224501086975039e-03
3.508096795949266176e-03
-1.233680854427223654e-03
6.499624746961094827e-04
5.556504875219717317e-03
5.238825856619994462e-03
3.089074883824124377e-03
9.016180072373250779e-04
-1.462269692573622132e-03
-1.340959083085487783e-03
1.267834162257316921e-04
-1.911337941747027081e-03
-5.217927321989572834e-03
-2.116119759254477938e-03
4.068300766378856598e-03
5.060113079349940444e-03
4.737812584540601786e-03
4.805444622075709382e-03
9.046972980697811934e-04
-1.686299894198155019e-03
-2.166267139023514855e-03
-4.102656475301299718e-03
-3.861406846608502440e-03
-1.764403708478011175e-03
1.546933883370839704e-03
3.737617636906622864e-03
1.851426756827076903e-03
8.226772772565969782e-04
2.626746146132280546e-04
-1.704446849424894278e-04
-2.762356096084686856e-04
-3.260144506523994165e-03
-4.644810559123411717e-03
-6.205363090177737871e-03
-6.666955220851446956e-03
-1.160357407178832416e-03
6.794232061096291096e-04
2.900232503046632545e-03
7.713189610304166215e-03
4.261022945935979446e-03
1.659520408333257230e-03
3.132884980847835087e-03
3.341915560206958503e-03
5.890480241604522868e-03
5.739260253517250096e-03
3.180190163316797859e-03
3.876904310167792085e-03
5.078564523995393772e-03
5.828933073670614431e-03
6.302397663769767830e-03
7.938616596879641968e-03
7.726363591666618458e-03
2.959808320641235755e-03
9.328513041797351687e-04
-1.123008920916531176e-04
-1.569242097865984403e-03
7.263740157629827244e-04
1.403912061306421526e-03
3.344894065192676510e-03
5.686781377221689776e-03
2.756032944050135648e-03
3.749191649094489771e-03
4.396194031411932053e-03
1.218511122999301312e-03
3.093488326515121938e-03
3.552253036987088747e-03
3.011253957354123253e-03
1.334588483129929776e-03
-6.783785061286758296e-03
-7.902182884827649301e-03
-6.888496480929706678e-03
-1.403853642776602996e-02
-1.725911420639833146e-02
-1.776567616760668655e-02
-1.773851275029229152e-02
-1.489484742103103741e-02
-1.401659527718653563e-02
-1.043591357609528585e-02
-7.814209602395028736e-03
-9.400966376936902014e-03
-5.765242937575078622e-03
3.672305733330403187e-03
1.754090836318104168e-02
2.706078014567608533e-02
2.748461526212890929e-02
2.667612326547706691e-02
1.618305756910968715e-02
2.576105079126526053e-03
3.156161790760997690e-03
5.083600543372696415e-03
-7.712649707105204491e-04
-1.414886236179508337e-02
-2.847607557362526187e-02
-3.219618024743016449e-02
-2.814211177739673816e-02
-1.782012472589457677e-02
-6.634845205375741045e-03
3.963934847163547333e-03
1.932126648453330250e-02
3.091119490233041472e-02
3.830580871506766155e-02
3.913677102667181829e-02
3.120749168584697683e-02
2.280275119400219236e-02
6.564452217354621415e-03
-1.632924051921212649e-02
-3.837457696612271013e-02
-5.966711465870289804e-02
-7.280394333413738039e-02
-7.149439333728956070e-02
-5.165730031109749126e-02
-3.081986935505461045e-02
-1.286128229820015199e-02
2.809783557372062465e-02
6.288558131917557081e-02
6.756381246496373505e-02
7.860034485855436903e-02
8.561970682441288893e-02
6.146889788870268240e-02
2.998479534319505729e-02
-2.863026225747284433e-03
-3.257163641487736960e-02
-3.264282538951568391e-02
-1.463133434403240951e-02
8.972531932376934943e-03
1.712377414615156787e-02
-2.149434757364191914e-02
-6.201277217590780294e-02
-8.483805411420956843e-02
-7.167734575528553198e-02
4.009103625213544103e-02
1.318813479028014546e-01
9.664627870492155381e-02
6.891516670407445144e-02
1.035245604872509495e-01
7.754349194642125298e-02
-2.934385463183371290e-02
-8.932625027608956381e-02
-8.769530219981018504e-02
-8.985063787299253646e-02
-4.979395057886348147e-02
1.480054792520660648e-02
-2.064196533911814846e-03
-1.475175368515153629e-01
-2.977764989107932192e-01
-2.707337976626469356e-01
-2.099427935673508772e-01
-1.366640800738015693e-01
1.435673358297774316e-01
3.013360406065461183e-01
1.869850353682402933e-01
1.980968496704545723e-01
3.385118693313039495e-01
3.586632664430655093e-01
2.333261458442588143e-01
1.027413495668807880e-01
1.220918664365764489e-02
-1.414861061235992701e-01
-2.046476616687521732e-01
-1.184391510658999863e-01
-1.214419883726011590e-01
-1.797139974498504766e-01
-1.675394985739493414e-01
-4.706997165321041843e-02
1.439367515247859386e-01
1.881506682376430095e-01
1.151113232588510116e-01
1.325416303893304504e-01
1.679213905875942825e-01
4.169171146502176351e-02
-1.800464366921421255e-01
-2.429553470199029286e-01
-1.852691772422606076e-01
-2.435988683844780567e-01
-3.988175704677395794e-01
-5.366874670635821687e-01
-4.708581037489187326e-01
-6.136591711924395398e-02
3.806103516657749486e-01
5.322616271670690402e-01
4.537832360157128542e-01
2.576133014268200405e-01
8.143710735390337352e-02
4.509185522090689013e-02
6.089540025662115719e-02
1.288263065900302484e-01
2.583840175359319868e-01
2.199497469291515905e-01
5.951325200501198648e-02
3.702818220905912394e-02
7.941900403285157006e-02
7.163119492093576735e-02
1.800310563821799770e-02
-6.808416006311539259e-02
-8.550220959590836001e-02
-8.397274690047297485e-02
-1.466744702361579000e-01
-1.609341792257835690e-01
-2.000854935942661950e-01
-3.049919196474126237e-01
-1.904768410532922118e-01
9.910584981336484356e-02
1.957571614867911758e-01
5.774897182548361513e-02
-8.573005580041931362e-02
-1.097531451423204990e-01
-1.711642950298760957e-01
-2.927018118540937741e-01
-1.619941304948764871e-01
9.844266674205029433e-02
1.111584555199367219e-01
-1.499380054087659508e-04
-6.469073926709455191e-02
-8.445370432606835731e-02
-2.629170501979892147e-02
3.409949965608761579e-03
2.026966443188924633e-02
2.330764681843199848e-01
4.996368064599591707e-01
4.977458416560300303e-01
2.830261023840400236e-01
8.318514621732869818e-02
-1.100238100070582113e-02
-6.652388415019581946e-02
-2.209069211366193053e-01
-2.957044867607192540e-01
-1.217839325052774979e-01
-1.988907840787934242e-02
-8.336938966429532916e-02
-5.254239478384713224e-02
8.096748091293444471e-02
1.483839469284011781e-01
6.469874421267028664e-02
-9.211112725122871936e-03
2.603749912315320159e-02
4.361615789980025776e-02
4.844870035240875228e-02
2.489326299838481339e-03
-9.739796257738224383e-02
-1.195818410299934048e-01
-1.467334997502469929e-01
-1.662387256857153217e-01
-6.460566314752522188e-02
5.657126128652988778e-02
8.931220808618006712e-02
4.108752628689828212e-02
-1.201859096745813531e-02
-9.696634655557977156e-02
-1.552457583920883732e-01
-3.943125388515222179e-02
5.135981661855783947e-02
8.224745182877694905e-02
1.952026276687774120e-01
1.819106180477554624e-01
4.730256924459986384e-02
-5.315673216828543934e-02
-1.519108047836573716e-01
-1.282428661186042207e-01
3.474496827909911989e-02
1.327570539146125939e-01
1.130404225544626995e-01
5.773284999891198366e-02
1.187937327819030796e-02
-1.609846592368199478e-02
-1.184052335013049961e-02
-2.867041992411985957e-02
-8.133317193979118509e-02
-6.764201963482401048e-02
8.859747822913797283e-03
8.324336096853747480e-02
1.179353744552744249e-01
7.144547579291588013e-02
-1.074170534892435538e-02
-1.100748625796379720e-01
-2.298731726244960805e-01
-2.583357470581851834e-01
-1.788394340093102386e-01
-9.464166453723564520e-02
-3.167947392591267952e-02
2.066693911381761381e-02
9.704170397516957702e-02
1.999653253426779964e-01
2.061413430157429116e-01
1.170401227672280831e-01
7.754540218247227279e-02
7.095582983690655599e-02
4.577697752903498590e-02
3.997996938055419641e-02
3.353651755668024537e-02
8.211011718919473262e-03
-1.679565174623636565e-03
2.126900438029895053e-03
-2.040773015094901263e-02
-4.254623875846832992e-02
8.237406565798759475e-03
6.816374874702305076e-02
4.912691160455667783e-02
8.869633547838295592e-03
-1.749181993460821594e-02
-5.382789242043246186e-02
-8.000357527819450254e-02
-9.318403575626872659e-02
-1.085986018129727892e-01
-9.080859226661762429e-02
-4.364665636352244027e-02
-3.153969818114123191e-02
-2.436282481998238922e-02
1.428379852579470324e-02
2.594847069159572986e-02
2.326327421867750017e-02
3.992835549913588411e-02
4.464879426246273070e-02
4.283627910795804322e-02
4.474979276239587217e-02
4.350166623851870612e-02
4.160475056200794997e-02
3.549753341820671010e-02
2.340926931462725472e-02
3.810642306952553588e-03
-4.820074337565220281e-03
-4.056800531939317410e-03
-2.093643770698624604e-02
-4.768262240376870686e-02
-8.381140293138572561e-02
-7.988752317703523564e-02
1.969492106956542352e-03
4.632586432763521889e-02
2.273989823689144193e-02
1.474332525784375660e-02
1.302942506191304660e-02
1.254067559839378183e-02
2.178419307613089009e-02
1.963484262550611176e-02
1.890640971314827556e-02
2.006169587994858713e-02
2.157412637464207680e-02
2.509452396487372311e-02
1.382473608427824303e-02
5.783948162396168255e-03
6.078400836598302215e-03
1.235009208516845520e-03
2.197751635136069130e-03
5.999149508067381197e-03
8.117152943161736953e-03
1.371981565388044307e-03
-1.999497478664031755e-02
-3.874466020990019466e-02
-4.927961279118492355e-02
-3.728853437323961101e-02
-3.156929684814618366e-03
9.147332692406164728e-03
-6.949722242261702643e-04
-2.217988326399539072e-03
2.482461126816687836e-03
2.033888804885888163e-03
-1.762069426309337229e-03
1.665174012354042003e-04
2.332420582197979042e-03
2.990453747183172660e-03
7.232218750591772223e-03
7.311395801399542260e-03
1.736145454700779509e-02
3.286215236426338199e-02
2.386230340372911748e-02
1.964326524166011903e-02
3.818219901265497429e-02
3.744293591142758282e-02
1.171208480581649794e-02
-1.305586846680432782e-02
-3.286533790885243916e-02
-4.029202010134370904e-02
-2.611000143241572549e-02
-1.016860476672994812e-02
-4.692275591721039446e-03
-7.814691367562408481e-05
3.310682388486825296e-03
7.621589621199164818e-03
9.400019748607617645e-03
4.443144080175508159e-03
3.861213006802743323e-03
-7.645938965145239029e-04
-9.544819695517906682e-03
-9.409158734885009548e-03
-6.927846649089994951e-03
-7.644891333048422404e-05
5.347302744056838669e-03
6.247835480997377539e-03
6.502964182354313907e-03
-1.462879515024026814e-02
-2.864288304373537736e-02
-4.344941529559295454e-03
1.262416827008033988e-02
1.096198820324726167e-02
1.282194951606498504e-02
1.187470043696008289e-02
1.185961604177108476e-02
1.197605589354872567e-02
3.767492946173375649e-03
-1.270187467683530453e-03
-9.341069246320339743e-05
-3.515133215534268964e-03
-8.117656171384097022e-03
-6.673504280652543114e-03
-3.624461347893464299e-03
-1.941132747575561061e-03
-2.166625608585534546e-03
-1.682375607815448640e-03
4.393914795682753692e-03
9.333297649028772514e-03
1.068502856183987243e-02
1.473339685822113408e-02
2.258984357469982079e-02
2.997279636378765919e-02
2.446236914755886907e-02
7.049885859917945537e-03
-1.122263543718749271e-02
-3.104894851879815704e-02
-3.687295095238735804e-02
-2.072118835681379528e-02
-1.016476104649213785e-02
-7.948923664092768723e-03
3.832169575148309908e-03
1.591647318275863851e-02
1.959668863498177302e-02
1.855409636292910253e-02
9.644175862413771963e-03
-1.707017287264622155e-03
-4.050792779382810134e-03
-4.098079994887389617e-03
-6.608524879170359946e-03
-3.220907739265595638e-03
-1.037414685302164583e-03
-5.544937480923823984e-03
-5.288561189478734569e-03
-1.919972999354596296e-03
3.456803540421279821e-03
9.864308164985822330e-03
5.126657008845389440e-03
5.791638481052275265e-03
1.295061278946292929e-02
-2.093620648735247409e-03
-1.342747223103021338e-02
-6.714853630287988262e-03
-1.460030697050788279e-02
-1.867985521050654837e-02
2.525814207597946136e-05
1.334801540706753720e-02
1.231936084158470265e-02
5.932257279085262520e-03
2.784426172600436983e-03
8.094068912080091410e-03
1.117291538582678399e-02
5.361606762637311473e-03
-9.682629313341245200e-04
-1.604436339544531263e-03
-3.506623430262473923e-04
-1.165486134256750982e-03
-2.254332286069513514e-03
-1.537946321642923555e-03
-2.138812132878165420e-03
-6.029207834444221155e-03
-8.180605973313586493e-03
-9.968431642289955416e-03
-7.300547452272493874e-03
7.917776248211320922e-03
1.662381006850879861e-02
1.289279046540312522e-02
1.075611400545006639e-02
3.693509331407681881e-03
-6.720723768953858982e-04
6.688663875550514108e-03
9.148798632160538846e-03
4.956636696907506037e-03
1.397893897788922944e-03
3.725727865536463757e-05
5.854915432867031097e-04
6.243615096046732735e-04
7.884555312347347761e-04
-3.675684706951045256e-03
-8.219182587209796637e-03
-5.613420400347554629e-03
-5.151550929821958544e-03
-4.212525067980142299e-03
-1.419117238803585751e-03
-5.120073395222209285e-03
-5.603812625372794898e-03
-4.484765428018747438e-04
-1.568482627910114478e-03
-8.066093761899966602e-03
-1.066034716980850464e-02
-7.634274856548783211e-03
-5.986540362424800504e-03
-5.845375682792836036e-03
-9.211832079251601468e-03
-2.326034777244823798e-02
-3.177555156599509711e-02
-2.216886314818947504e-02
-9.574510183601451369e-03
-5.397369259697024687e-04
1.919552254476196342e-03
-5.347006552209869479e-03
-7.293860156591199309e-03
-7.449962986901986425e-03
-1.672419074614966278e-02
-1.890552211026965204e-02
-1.629411660599126496e-02
-1.732641808468844344e-02
-1.110685253273299179e-02
-9.444896275652352874e-03
-1.324564024322674206e-02
-2.007709868078215963e-03
8.969545774316207282e-03
5.707351346805073639e-03
1.419950802883406579e-03
1.570003618602394940e-03
7.181001544113081204e-03
1.363745442123336267e-02
1.515497554799842377e-02
1.907262424785749130e-02
2.378800203785618947e-02
2.389519813556794173e-02
2.726813896410521659e-02
2.515567298022873891e-02
7.391357260134985042e-03
1.134227821661099424e-03
1.690483080020720522e-02
2.897692319954754681e-02
3.205485741953571777e-02
2.829628704116116458e-02
1.782074172066898388e-02
1.503957403777464799e-02
1.312199698400015255e-02
1.517227300054382281e-04
-9.011539921737853412e-03
-9.331940759583044406e-03
-7.926072515897854970e-03
-4.451162160419332159e-03
-4.901652874581577564e-03
-1.146731985067808886e-02
-1.445357723132361868e-02
-2.220904957135992272e-02
-4.167661165799762396e-02
-5.038587693976373516e-02
-4.520367977893028494e-02
-4.036337835442621591e-02
-3.587069120121263305e-02
-4.557590174294408325e-02
-6.727749605650368281e-02
-7.079816398706795244e-02
-5.707648129505987766e-02
-4.133978233860463591e-02
-2.784588779893307567e-02
-1.746742286702678698e-02
-4.189036365163887124e-03
7.901434798801473466e-03
1.595705534075116463e-02
2.730139499072864809e-02
3.621838040060402358e-02
3.682596864747399862e-02
3.185108022135128836e-02
2.853084835974916550e-02
3.560370494631621280e-02
4.600139780294560526e-02
5.226890381724477730e-02
5.568042360580308103e-02
5.263343387570489085e-02
4.874431439717295117e-02
4.937718730811151147e-02
4.440973220160749496e-02
3.270759042942074368e-02
2.485795768992274044e-02
2.309530317389630119e-02
1.786786163128955759e-02
3.993076203518441600e-03
-5.364406093432495630e-03
-5.675703664929682320e-03
-1.190037996121340313e-02
-2.201631255799844575e-02
-2.694303020761152842e-02
-3.349425060760173600e-02
-4.000970328386090763e-02
-4.047072385079360235e-02
-3.641507980737315742e-02
-2.722802899927210737e-02
-2.318085497947036319e-02
-2.947691673626985989e-02
-2.946791531454850260e-02
-2.275463437018710594e-02
-2.096883081976010435e-02
-1.918698688104865033e-02
-1.389082645006513989e-02
-1.023128316175282021e-02
-1.108447072782167177e-02
-1.374486010824386983e-02
-1.424433025584940712e-02
-1.351867704323471593e-02
-8.920387608384986594e-03
6.114906516907832757e-04
6.339950354774384796e-03
6.022098753024293996e-03
4.278270348501450604e-03
5.752001343022423475e-03
1.170210353824582654e-02
1.598950986132011837e-02
2.239768490769318554e-02
3.139717644090783688e-02
2.629993784923089287e-02
1.454718710968854085e-02
1.499481769696730041e-02
1.879839546039147047e-02
1.717470530336421414e-02
1.391536838154435601e-02
1.268308901189288060e-02
1.320367361201512345e-02
9.603998917379357250e-03
5.254588477749882330e-03
5.153990451290939301e-03
3.549554671555244043e-03
9.482067693757260463e-04
-1.115087879084713726e-03
-6.064568175064058951e-03
-9.025078710295435930e-03
-6.965650742184625703e-03
-5.563679417400679318e-03
-4.086543233562256114e-03
-6.396821151639494815e-04
-2.420541982612123624e-03
-8.835958320275812475e-03
-1.154402223493584088e-02
-1.018538694592883466e-02
-7.165755362054862000e-03
-5.971773553435629454e-03
-7.550793433865212942e-03
-8.130206713623041800e-03
-9.051009411663459014e-03
-9.880921402851700758e-03
-9.305631739968700869e-03
-8.403934983166584660e-03
-5.939628181146532418e-03
-5.626131080896689882e-03
-5.378303888660691985e-03
-2.611655957598265927e-03
-2.534210626481534900e-03
5.373680967294241486e-04
1.541890438246560973e-03
-5.117391123645964775e-03
-2.452968463466005840e-03
2.565001021554065737e-03
-2.463571870405895591e-04
1.083188622446938946e-03
1.306574158014242983e-03
9.677368422265774262e-05
2.947001679518292637e-03
2.325054389352222348e-03
2.432405294514040223e-03
9.656776771356609824e-04
-6.120347688408703246e-03
-6.402128075249263403e-03
-2.752890222136122889e-03
-1.015265772231334872e-03
-3.109979611346042820e-04
-6.233107952482082673e-03
-1.205729941700256318e-02
-1.070949331584155652e-02
-6.921737178691426094e-03
-4.161757231305730949e-03
-5.832689017554660259e-03
-8.115925407190182142e-03
-6.702656292760312932e-03
-4.503855971694961657e-03
5.171353229959121630e-05
2.830191321098985639e-03
-1.139244937269264782e-03
-3.532539878179935793e-03
-2.408709950954323730e-03
-6.104110630724001070e-03
-1.251277913029078502e-02
-1.015890243116227346e-02
-1.529168032233477192e-03
6.602475231869170576e-04
-3.474620850246409182e-03
-9.269734684140183700e-03
-1.132765047666563912e-02
-5.471283948859715154e-03
-5.775087462555159468e-04
1.530657048524219303e-03
2.715694113619754498e-03
-6.731580872958260395e-04
-1.467675232542588583e-03
-5.743151902845206091e-04
-5.902930001854163333e-04
4.711476760766821099e-03
5.977689210026567758e-03
1.051264402219527537e-03
-5.310755285153630862e-04
-1.009363219473141584e-03
-1.087314248689907024e-03
-2.843095800462668824e-04
2.808136681367085939e-04
2.537089001757846657e-04
-1.391582368668877476e-03
-6.960803642239257218e-04
-2.041006605518767229e-03
-8.406890298145229187e-03
-5.590851948981527021e-03
5.580405497329511862e-03
7.825328984690833531e-03
1.742237123518389739e-03
-5.630813373504640548e-03
-1.786278599676162371e-02
-2.206498803564327371e-02
-6.761466761671944964e-03
3.925943619878147391e-03
4.185840186531218123e-03
7.929624122074293083e-03
2.742629078379612163e-03
-4.840947442199856551e-03
1.606980086155464747e-03
6.148718952645106095e-03
4.125566057359374844e-03
2.321750384304059524e-03
-1.399407130017157278e-03
-2.790080123653801078e-03
-1.686754287584797717e-03
5.061108687814443998e-04
4.167099410881626963e-03
3.333041123669747315e-03
9.256274671462184564e-04
1.408794733218130197e-03
1.048909850929719505e-04
-1.489425603711787326e-03
-1.922478452792441379e-03
-4.680182506900004355e-03
-7.733266016846922219e-03
-8.992672872395697514e-03
-8.470749115618873490e-03
-6.340161011765643555e-03
-3.301168428741587529e-03
1.229937511560715837e-03
1.520447242749815332e-03
-3.395672151564650774e-03
-3.826971444329482254e-03
-3.524764243132672958e-03
-5.010305175840052208e-03
1.746482162465205399e-04
4.077946769103197623e-03
2.881776973430455989e-03
6.639009413563028844e-03
8.465731724330578800e-03
2.105479648848392928e-03
-8.353530153115515562e-04
4.031914214798299097e-03
7.820144955828618738e-03
6.419581231656853147e-03
4.208293873178702189e-03
8.724510413707364798e-04
-2.859784380743385802e-03
-1.120307610230995420e-04
3.092945470431163798e-03
2.420065783454059764e-03
5.999858507436768226e-03
5.639361084008876965e-03
-4.036793503183359021e-03
-8.417328097828767619e-03
-7.452998426194679116e-03
-7.471374344843647805e-03
-4.721760501962470047e-03
-3.098070856443071487e-03
-5.329170217570567726e-03
-5.465619776884580658e-03
-4.467719254270382731e-03
-5.615616140757207463e-03
-3.863406776068073738e-03
9.686347973965375897e-04
9.913559473962714301e-04
-3.971964910133106820e-04
1.380900631331733646e-03
-3.862337995976734871e-04
-4.093354534324634454e-03
-3.258327189527364387e-03
-8.858995515219323953e-04
-3.106161215508005616e-04
-1.320992194196858409e-04
1.242083856181989835e-03
3.252082814718131824e-03
4.318196683082575586e-03
2.594486099434861401e-03
4.847896707932659952e-04
1.598700755716210955e-03
1.491492672879173899e-03
1.228330227409542503e-03
5.100531584860718178e-03
6.700389935578478576e-03
6.282191006168847888e-03
6.601946105252090927e-03
5.143960155225928838e-03
3.109316814848751831e-03
-2.824585762983226195e-03
-7.448466440715062475e-03
-1.130396513234748846e-03
4.066744693038994857e-03
-1.037999651590567046e-03
-6.465142745004112332e-03
-3.778097495820407093e-03
1.090468614664206288e-03
7.428246910803825375e-05
-1.801482930999462068e-03
-3.656423781522042185e-03
-5.868542247692251287e-03
-2.068651391549464202e-03
1.355201459493990813e-04
-1.348326634373361302e-03
8.283635193812682830e-04
-7.794345177596073964e-04
-7.222240412274314944e-03
-8.737532252354046625e-03
-4.301464988950080316e-03
-1.240808919318882829e-04
6.482025612925379054e-04
3.498544155782106532e-04
-1.593176098215223248e-03
-1.804468894401331253e-03
1.107944904080223258e-03
1.220338317102408632e-03
3.240144076783686537e-03
6.108879253469105299e-03
5.960440719669503687e-03
7.146477453846314734e-03
3.358654182572757239e-03
-3.479597136952223939e-04
2.581786322768354121e-03
1.662740179829196897e-03
1.955000898758537786e-03
4.391615678051294554e-03
1.439765416982131301e-03
4.213145689569815699e-04
1.137396607700911447e-03
3.075121561659077533e-05
-1.848860211935543030e-03
-3.619104723811658771e-03
-2.904279339947402755e-03
-4.935055481993325284e-03
-8.324140273759770767e-03
-7.603897454302357972e-03
-5.272922014243542309e-03
6.995460604839057531e-04
5.276268451883991788e-03
3.510123670931517351e-03
3.223578264845014790e-03
2.581471183688460388e-03
-7.655327123557465223e-04
-5.601926656870594504e-04
-1.750451131638642948e-04
-2.663641181667012608e-03
-2.076559789411335736e-03
-1.277912092066699288e-03
-4.673980224133184556e-03
-2.446444563367729079e-03
6.186996664171214716e-03
9.579198006283160330e-03
5.810769382865707371e-03
-3.290409520794498888e-03
-1.050167930685843264e-02
-7.582351900502277975e-03
-1.080388125590638635e-03
3.252361102695552637e-03
5.209498431278115557e-03
5.156019532427796696e-03
4.427480221600126400e-03
-3.145391891435918123e-04
-4.003877520480482802e-03
2.655544145799535773e-04
3.457295666991432124e-03
1.233188770823018124e-03
-3.614909148735816332e-04
-8.858782487855979080e-04
-1.840392986685692941e-03
-8.989442503209781835e-05
9.087994866654028120e-04
-3.158706132513747211e-03
-2.621902468503503961e-03
-3.009505949400395858e-04
-4.316654934442429314e-03
-3.699305416354983864e-03
-8.018822106411823574e-05
2.164997001912291608e-03
5.641789817180971681e-03
3.077663053220027790e-03
6.027825674548806679e-04
-1.459255581396378429e-04
-3.695722939133895459e-03
1.436723609273764626e-04
4.263012449716567856e-03
3.378510134176546977e-03
4.070185096337961515e-03
2.229404316163978612e-03
9.918147094491653638e-04
1.425939419292838062e-06
-1.781177071432424970e-03
1.075498597620120960e-03
1.988335255519039016e-03
-7.844327562954226101e-04
-5.823369673960615729e-03
-9.181767345398016145e-03
-3.065664983994836629e-03
1.637581639294570339e-03
5.973088139364033647e-04
1.015311330497054715e-03
1.652373387572192605e-04
-6.168212127520100556e-04
-8.715607586899696375e-04
-2.379529997502701118e-03
-1.854740785862104028e-03
-2.993042971576988145e-03
-8.172306442862632692e-03
-7.134434750749332754e-03
2.562563222140368507e-03
8.780715014743329522e-03
7.322139759541212121e-03
2.657965586288211970e-03
1.731356607604495230e-03
4.625842044296042330e-03
8.000611323496631530e-04
-6.171000212837126232e-04
4.072931029330120051e-03
2.837031477261172264e-03
5.000262920541901496e-03
-1.102848697962042135e-03
-1.983050984096999467e-02
-1.546050416602251683e-02
-4.497877522850651289e-04
2.148366827631460405e-03
7.313533002095188272e-03
1.048365535161462775e-02
5.112284874139778716e-03
4.209063300724727973e-04
7.202724442703508593e-04
2.219708289776453191e-03
6.664933494849265569e-04
1.792655458907964350e-03
3.348529631337298675e-03
2.165474331004180360e-03
2.571044219123831687e-03
1.882897873852279729e-03
2.911572802193912717e-03
3.153889305159824057e-03
-2.143526677764132776e-03
-5.208122926136631720e-03
-5.662953277334551241e-03
-3.608265518604553222e-03
-3.037925458774677449e-03
-7.799417619135257281e-03
-4.376482903607935987e-03
1.066708863633743492e-03
-4.627094570929581388e-03
-6.859302798685060210e-03
-2.400532423052324869e-03
-3.137094504156735884e-03
-4.853579549979461505e-03
-1.701927961425931486e-03
4.100979260386887655e-04
-8.687119551158338461e-04
-1.327876868214059860e-03
3.139632965558619552e-04
3.253987009255936147e-03
4.964307840214331538e-03
3.726712376916325488e-03
3.544891782109405986e-03
6.411693490969909252e-03
8.812439008829732121e-03
1.016670064220553428e-02
1.310199182455546417e-02
1.205355909876117473e-02
2.722962288659834529e-03
-2.612267018209863453e-03
-2.211916286456586719e-04
-2.013266339845599245e-03
-5.588102652739655035e-03
-4.227327043585109821e-03
-4.688020638367078156e-03
-9.552600332475074882e-03
-1.242991786095867628e-02
-8.989302911428485865e-03
-2.500658723677247688e-03
-5.116366140257850702e-04
7.361950221251131916e-04
5.838795446789286046e-03
4.139317887181389981e-03
-2.482808093610451832e-03
-3.622239741552099861e-03
-3.902321809966032441e-03
-1.577691250141191603e-03
3.053606497395262073e-03
2.213965780782894098e-03
2.330955919005990671e-03
2.866206579596161045e-03
1.266492101576655212e-03
5.219162593455093507e-03
4.714916993833920093e-03
-2.966454972426177221e-03
-2.983245197512590305e-03
-2.060723137009526969e-03
-5.555259347966673596e-03
-4.360399562668657372e-03
-2.470689393318678713e-03
3.672382679867454891e-05
6.983009691299320830e-03
7.593221574899360581e-03
9.898780510151506794e-04
-1.944330359206313539e-03
-1.608189277002591052e-04
2.366673897260728951e-03
2.416148849181903955e-03
-9.560773915503937258e-04
-3.572660376403745917e-03
-3.616733522916434668e-04
4.471086166768647487e-03
1.895206886357668876e-03
-3.312921940822820179e-03
-8.620857680477434165e-04
5.945275667874915827e-03
5.298157848600023104e-03
-2.651024668221093998e-03
-4.606536337415136247e-03
-1.929152450739088148e-03
-1.840923417460388258e-03
-6.116472700421478163e-04
-2.210392080316758278e-03
-4.049257429162585360e-03
1.730824645334559393e-04
3.119464503559825526e-04
-1.154174254115126509e-03
1.532667136561389294e-03
1.488723841396156263e-03
3.860215485515155814e-04
-1.124023538151954567e-04
3.387950185411902552e-04
9.159496223195054930e-04
-1.460946371067747785e-03
2.611384675796002072e-04
1.800963363584989416e-03
-3.997280133543408727e-03
-4.618494400304561966e-03
4.539783111348437558e-05
2.552174801559209567e-05
1.465178534477221302e-03
6.924105780324687522e-03
6.298696858159761464e-03
9.269964304100604836e-04
-1.649046675114826388e-03
-5.796267676488352227e-03
-7.209002197402175280e-03
-1.386464206910087600e-03
5.140566471769044462e-04
8.119203396156983487e-04
1.752624972701929571e-03
-1.350257862248059083e-03
-7.343153279123586490e-04
1.274370396862591981e-03
2.231204601819316256e-03
5.251761791535302336e-03
3.512281945623154777e-03
-7.150461438205912845e-05
-2.582793582709843813e-03
-2.539792653469387460e-03
2.974858742748438638e-03
3.861071135386672133e-03
3.639840862182912393e-03
5.606858744497301636e-03
8.205009508630890531e-04
-2.053995014665518232e-03
-9.400660475033963256e-04
-2.724399569515374058e-04
1.883036377040650695e-03
7.912567018703187290e-05
-1.731563392175581055e-03
-2.754103198238364893e-03
-5.499656365404808310e-03
-2.573031198753279822e-03
-2.245320240703941889e-03
-3.671709602379862568e-03
1.535222047102891398e-03
-7.224566912791460229e-04
-6.291048577912219421e-03
-4.371740856899909364e-03
-4.926142040235488226e-03
-5.706521119031246654e-03
-3.602440941069582226e-03
-4.017567570849357034e-03
-2.007751145933673025e-03
3.492507017930079460e-03
8.156422661463862828e-03
9.287968245448674151e-03
4.442578471448575470e-03
7.279377739235105707e-04
1.239262637468684916e-03
-5.177076385348923417e-04
-9.507398710062991282e-04
3.384538266074838680e-03
6.586836853903353835e-03
5.294461351852747764e-03
1.150727237677358957e-03
5.520364365919919409e-04
5.920952274733943220e-03
9.914209691434356167e-03
8.101530295780035029e-03
9.918790902642203415e-04
-8.045515769452147442e-03
-8.922935769006139911e-03
-2.026037348841625788e-03
-1.373000695826934138e-03
-2.787958134919735643e-03
2.532672000599031810e-03
1.493035265803696306e-03
-5.178506271189657791e-03
-3.210430568024362583e-03
1.139619923397596803e-03
1.936069789468192756e-03
2.539751386988334421e-03
-1.322035490669613714e-03
-1.352831499484843589e-02
-2.240654225913064207e-02
-1.417221718445685862e-02
-9.851568566216263329e-04
3.103986987766114546e-03
4.338911763358572517e-03
5.099819748092085034e-03
5.708728975829189742e-03
5.653533925832289822e-03
2.751340960490383531e-03
2.185920830190504933e-03
1.112485828294780717e-03
-1.135560835167221489e-03
9.321821163562646166e-04
2.500254717148363195e-03
1.982843311366310098e-03
-1.958450422164549880e-04
4.557403099741973488e-04
7.553371764934410648e-03
6.767243814585377493e-03
9.688926988900419283e-04
2.764953396075406529e-03
2.709947211346292123e-04
-4.610283023900298149e-03
3.762429651228949533e-04
2.694713483015322673e-03
-2.281424300942084399e-03
-1.825006016822707834e-03
9.757357634253482556e-04
-6.584858689598409266e-04
-2.811501352056181187e-03
-5.619167751722517999e-03
-5.581210204236246482e-03
-2.531884168393323069e-05
-3.128206601919633839e-04
-5.283436651089452180e-03
-3.853297026025134190e-03
-5.441105164801909649e-04
-8.237633953173445402e-04
4.113367896407501873e-04
5.775841728030743638e-03
7.163556580144565811e-03
3.624374034212464110e-03
3.652582213946159971e-03
2.148915884894045565e-03
2.899565156311463554e-04
4.795878163466516311e-03
3.250464328014116087e-03
-2.074594093353491087e-03
-3.271215869907650314e-03
-9.640606289356791481e-03
-1.039781503967579512e-02
-1.366373476595051772e-03
-2.073999699463052564e-03
-4.270891948675197176e-03
1.726818250467065247e-03
2.672352235287212257e-03
2.477285792229675168e-03
5.654571275641572664e-03
4.739600416771108139e-03
5.327214234641618890e-03
7.453292966630457352e-03
5.546428980433434908e-03
4.770615118217925651e-03
2.914124495160809632e-03
4.302720982093117120e-04
3.936712116245941022e-03
3.872055390839010576e-03
-4.800854698330677371e-03
-1.220940114627762883e-02
-1.530173603818318906e-02
-1.585366556008873870e-02
-1.193225370948639702e-02
-6.189127897726311688e-03
-5.828150993652007721e-03
-6.254791965080273505e-03
-1.925108270495072549e-03
-2.624752687391531335e-05
-1.307167699846667735e-03
7.680709791684555560e-04
8.151923158243389034e-03
1.290667092500796809e-02
1.079803247043704083e-02
1.197988204621328046e-02
9.125971064042061667e-03
-6.051750618273807857e-04
-1.079025754585853387e-03
-3.678427173063555412e-03
-6.126787158544897555e-03
