-3.951118048110534992e-02
-5.804743347442138657e-02
-3.434664414773461183e-02
-2.778478076616507433e-02
-2.092641193990918067e-03
1.501271523174525953e-02
2.720154761387385406e-02
4.731526193768190169e-02
4.497729090888030051e-02
3.984265956551020366e-02
4.270699194000687066e-02
3.960846643763627634e-02
2.769600336832623438e-02
1.034506677572026578e-02
-3.277234125961881947e-03
-1.591032391576378824e-02
-2.278055366248266794e-02
-2.300065498527827448e-02
-2.662262710001811819e-02
-3.028836821805476476e-02
-3.525148311386581274e-02
-3.591527045442183264e-02
-2.551310604908365795e-02
-1.412882754085810315e-02
-4.948752142082022201e-03
4.676626532681925179e-03
1.447832472339928220e-02
2.005039234841372517e-02
2.171898394022071105e-02
2.294387793127174516e-02
1.904529274097145619e-02
1.456418593523989106e-02
1.297052939485232245e-02
7.349744815087626802e-03
-3.250762493808020872e-03
-1.413523956407600028e-02
-1.481115893876370181e-02
-9.041443933237179945e-03
-1.051851217101523912e-02
-1.414385192363053732e-02
-1.548868805385055641e-02
-1.438302451089467325e-02
-7.606486112484244118e-03
-3.599961523296272680e-03
-2.878909575629567258e-03
5.700612993916682331e-03
1.157669719448744562e-02
6.678884755594764223e-03
6.210477266276484207e-03
6.529736737588286849e-03
3.461723295544038778e-03
7.223232003836669267e-03
6.410682464284207446e-03
1.807284289457251718e-03
3.185062678643487549e-03
1.618037873880962940e-03
1.459358678379665819e-03
3.753161853176645302e-03
5.023294494178379838e-03
6.880814079234404482e-03
1.082437814692531431e-03
-4.984661552842142331e-03
-4.505798915762921318e-03
-1.691712274503503859e-03
3.496622226775854183e-03
5.201573672623870798e-03
3.953352803921872903e-03
4.217212591243172824e-04
-3.014112996746680199e-03
-2.522861517640244845e-03
-5.795086406250378464e-03
-4.381352033597573324e-03
-8.856314690938797392e-04
-9.313030072582593934e-04
5.650857142037366693e-03
-7.851335875455601326e-03
-2.721662024954897563e-02
-9.947815706920637088e-03
9.212368692395498868e-03
1.288556836220662236e-02
1.004632626192742718e-02
-3.655830387175226012e-03
-4.464992857151700405e-03
4.399761431805815359e-03
4.850834043439309490e-03
1.205464913363304318e-03
-7.226106285099126100e-03
-9.164877446428781188e-03
-3.962483922536980986e-03
-1.935235031348736968e-03
1.134098442356295524e-03
2.154122160218272311e-03
2.973819949582040979e-03
4.278283126466202874e-03
9.471996901765582884e-05
-1.505643057031503954e-03
8.360779437862642669e-04
2.703169418827451077e-03
5.757547323115662710e-03
6.973804218318590750e-03
4.233565695391295659e-03
3.697271161877156774e-04
-2.479403611323401004e-03
-3.731321012832378940e-03
-1.349958992522295748e-03
3.252807253526605446e-03
4.385359364838871052e-03
1.072049334262208890e-03
-3.656670140119268938e-03
-3.868879810244065399e-03
2.404175524930139436e-05
-8.487794656516429222e-04
-4.200301228930750259e-03
-4.571881676903651048e-03
-6.720768843655753125e-03
-9.064134562179399987e-03
-2.418292631093884020e-03
8.215945799871046673e-03
9.263080857492488399e-03
2.461026528813865799e-03
-1.018459972456458879e-03
1.876653918064692022e-03
2.430042984601384244e-03
-6.018389534924275305e-04
3.541324286503395435e-03
8.081888147551598289e-03
4.127351286878499712e-03
-2.630100793198006208e-03
-9.718700133847728295e-03
-8.165994601835074168e-03
2.087061485200575328e-03
5.386888844347213073e-03
1.044107874633466411e-03
-4.518752940122855444e-03
-5.287414913361051551e-03
-2.653090118280990346e-03
-2.876322013773731021e-03
1.968503851706555896e-03
8.471065696753798599e-03
7.028882157765982755e-03
3.571737644716576308e-03
-2.365943806801325906e-04
-3.019917697216217486e-03
-4.131038988251880574e-03
-6.591366351131936439e-03
-3.754015166484307546e-03
2.533405379553385541e-03
1.381058232707559931e-03
-4.326390504643794904e-03
-6.279861634924261034e-03
-4.808082216446674800e-03
-2.811992120242870919e-03
2.096069774292531884e-03
6.927551696242944916e-03
4.783755952192842581e-03
1.089028442262355342e-03
1.948918408073972838e-03
4.361752472654416464e-03
4.654323172712775646e-03
-1.250020827202237171e-04
-5.761769078626682340e-03
-3.865356039680181363e-03
-1.089596775939822345e-03
-4.947910239546974946e-03
-3.591733030093617000e-03
5.463440148649454688e-03
7.306856563772111922e-03
2.848342352194312577e-03
1.546209597149551373e-03
1.327989233273297286e-03
2.053381228678180840e-04
-8.719964939218154392e-04
-1.151593260142508464e-03
2.026049409179898550e-03
5.137524446429493283e-03
2.486973151697537739e-03
-1.810368068326355124e-05
2.609719316977426005e-03
3.793866107526315881e-03
2.946810210729990109e-03
4.173588766903693972e-03
2.055095218391101482e-03
-3.915422733747303367e-03
-4.290617054889258979e-03
9.246957789597864399e-04
5.227457341360912217e-03
6.135040234512179232e-03
1.045334351092842276e-03
-5.828437355597414909e-03
-9.636897550052907907e-03
-1.424940270516284781e-02
-1.723371444716503831e-02
-1.827975075475048172e-02
-1.780268048439410597e-02
-1.010049034338843937e-02
-3.074282601318001698e-03
5.495451415328495709e-03
1.893903016378628568e-02
1.880267974129667952e-02
1.231823435723944718e-02
8.436577929600275888e-03
1.209447047859665879e-03
2.018268532565238962e-04
-1.214037211304451209e-03
-1.298656630723503186e-03
7.062477186523978719e-03
5.828548483985693772e-03
2.566696977511438802e-03
6.665069207291425372e-04
-5.242778477722481387e-03
1.159584307053635735e-03
4.174487191311017538e-03
-2.041367776852348603e-03
6.433621182699111960e-04
-6.734230579279183553e-04
-3.892776506603433384e-03
1.424311227320392589e-04
8.978910604419861052e-04
1.733619410275606502e-03
2.766447726134873154e-03
1.538593002366238707e-04
-6.350573371794199793e-04
-2.759341401951514831e-03
-7.552663541501890461e-03
-7.781565072454620265e-03
-4.118269296892511366e-03
-2.476866488436914055e-03
-1.820695622420664701e-03
3.453017697387316363e-04
5.229701290448347025e-04
-1.414360837956301275e-03
-9.680028185829237007e-04
5.797134328726073716e-04
9.047604415632159005e-04
4.849622102687218368e-04
-1.482481954846896115e-03
-5.591351364277749939e-04
4.507463925664466700e-03
8.251663416647458948e-03
1.264340479405517276e-02
1.212940577026259958e-02
3.606639044464301190e-03
-1.016903881480986474e-04
-1.018410178444924827e-03
-1.546907375354341068e-03
2.902276171315967997e-03
4.275735604693591332e-03
2.911630079358486049e-03
5.957395897091603788e-04
-9.332169095116813265e-03
-1.661157290927505609e-02
-7.110086564434993373e-03
1.918408051739103372e-03
-4.162974125852409064e-03
-3.646549911024490019e-03
-4.047752899379648719e-04
-4.403252065142857115e-03
5.109121132393561280e-04
-1.138220034482834327e-02
-2.951300321683801228e-02
-7.302012758473105589e-03
1.234611726360758215e-02
6.606672506459862829e-03
6.082574019225624011e-03
5.297487164664115705e-03
5.400107338615448525e-03
7.576475847250504179e-03
7.457328308327930942e-03
9.370326700663830777e-03
5.607406617811252353e-03
5.076707784101689575e-03
7.195798546384995185e-03
-6.722492638980909685e-04
-4.567468492654347748e-03
-3.469500052344548762e-03
-2.968134320368516748e-03
-1.867574825473870999e-03
-3.857492507710962373e-03
2.839551316086231028e-04
8.359571802365774185e-03
8.873977853033575974e-03
4.432817326227000629e-03
-4.208334455434475062e-03
-8.838847796485195876e-03
-2.492228269641619774e-03
2.985076013776316595e-03
2.386785572329977456e-03
7.441961497928531715e-05
-2.901348548270002957e-03
-5.446743948405180329e-03
-5.829067405859880702e-03
-3.496863065034533109e-03
-1.823937763708628973e-03
-2.585830874606181648e-03
-3.032588009375737723e-03
-2.743927381348788223e-03
5.229416919621459681e-04
5.508262694759573537e-03
5.802369564320584115e-03
5.565071759108806623e-03
6.235145913184504673e-03
3.334352045659956781e-03
-1.775254582024539168e-04
-4.274640948650884967e-03
-5.585614404485243073e-03
-1.767120111022275203e-03
-1.740992770617282026e-03
-4.625881263902943859e-03
-5.081361753431704563e-03
-2.369416384847745742e-03
-1.049397820613539017e-04
-4.897735692076444179e-03
-4.736552528153097422e-03
3.534435938700009917e-03
2.159009241496497641e-03
-1.331051690015391158e-03
9.766123810941421037e-04
-4.521381080512431238e-04
2.070566491659577880e-03
9.332409196839294707e-03
6.017827092138279543e-03
-1.534594872982674016e-03
4.877957373789131522e-04
4.223796361604020312e-03
3.197292145451969495e-03
3.989970350299411675e-03
5.534017032454647059e-03
2.649680955613070623e-03
-3.592254617308604861e-03
-6.226161822543005084e-03
-1.494307209021322660e-03
-6.849471387756904698e-04
-5.485318036185889666e-03
-5.575293260673072800e-03
-4.616421191523415075e-03
-3.221251974046156728e-03
-1.522252522695890023e-03
-4.487501957068132721e-03
-2.161789813958965231e-03
6.737107541201600019e-03
1.136419684042821836e-02
1.005483154750089723e-02
4.735171726541875098e-03
6.709360379397490137e-04
-9.126542999885159553e-04
4.980899273994485307e-04
5.320917113180466396e-03
2.995730343551179092e-03
-1.635812505027542732e-03
-4.181620696496930484e-04
-1.158893342841680425e-03
-6.973605838710725344e-05
9.773685794709249634e-04
-3.595944562689867147e-03
-4.527707528560790361e-03
-4.841176203751421971e-03
-4.641670931811475720e-03
1.406278383196065112e-03
4.655050771765210753e-03
5.479587575764320942e-03
4.558035190020984402e-03
-2.189081982088112929e-03
-9.389988142870588778e-03
-1.556711256610849789e-02
-1.561236610712641096e-02
-6.717932786764984135e-03
-2.087827385836329031e-03
-4.076791871206093994e-03
-3.499359145883392235e-03
-1.472558547650220642e-03
-2.214442758504027008e-03
9.948805354070455916e-04
1.206377193764275949e-02
1.763862619899264281e-02
9.704981848882684309e-03
-1.681230987199935217e-03
-4.225033373599011537e-03
7.054854002296453768e-04
3.613625521577332189e-03
7.356858592143264083e-03
9.751439511412864081e-03
3.905848498051315426e-03
2.340237941561217234e-03
4.371758974359259836e-03
1.427084796390733212e-03
3.467610710953526396e-03
7.329094546566931011e-03
3.774396294293792201e-03
-2.712676165319718221e-03
-6.012439548866199517e-03
-4.239709365567841115e-03
-3.464786714140935271e-03
-4.022340283200441513e-03
-2.251426604395044811e-03
-1.939176021250493473e-03
-3.506968063866031885e-03
-5.791078497056257116e-03
-4.097516972006565346e-03
1.879373099555253085e-03
3.505201601820558122e-03
3.236991779623666667e-03
2.224256587715096184e-03
-2.624114128815678484e-04
-7.665559286363092702e-04
-2.471309093618379634e-03
-8.642860670554422791e-04
1.992360846423010118e-03
-2.842288340665407014e-03
-4.920044556805789129e-03
-3.087433024876491596e-03
-6.305505014329121534e-03
-1.044752230244075895e-02
-9.780667829479160538e-03
-1.877331566003199049e-03
2.460126644432133070e-03
-2.417147853058672878e-03
-2.450791357817996927e-03
1.923777589838801495e-03
4.485113099415050618e-03
7.233021687308543481e-03
6.387021194504801692e-03
1.730759036941149475e-03
-7.798495584846456760e-04
4.013870049594570749e-03
9.022082941782506860e-03
6.395531357619837695e-03
5.811367172461277472e-03
7.015357016653892518e-03
6.023580072441859536e-03
5.387811021171678288e-03
-1.818525265805682675e-03
-7.173182112391943144e-03
-3.142544784918485396e-03
-1.343506499144303317e-03
-2.634695250392091442e-03
-4.737573287879240543e-03
-5.647809136131976514e-03
-2.871242969449462092e-03
5.191593361282150453e-04
4.631080427564564575e-03
5.550446195195997065e-03
2.928248336297989505e-03
1.200722582332190919e-03
-8.717119826512593561e-04
-1.422241553875992250e-03
1.163723436567674343e-03
4.782171998336194954e-03
2.548764218603833190e-03
-5.431068415711003648e-03
-1.193201886576204622e-02
-1.620693456659381276e-02
-9.827212160088137291e-03
-1.255298412003662918e-03
-1.137164636767925034e-03
2.822380234387961932e-03
2.110416757384661005e-03
5.416329887447855762e-03
1.614041557948592970e-02
1.200715352207182632e-02
1.344988237695888579e-02
5.298960853074357810e-03
-1.647750064437864675e-02
-9.555108001012519586e-03
-1.643690461657941471e-02
-2.913938742716638136e-02
3.135500738467173203e-04
1.580137603688100759e-02
1.054498645949225426e-02
1.133790324959109072e-02
4.631362803087279816e-03
1.707861004702814715e-03
8.385320419317285031e-04
-1.647357130542635197e-03
-1.888578894756100289e-03
-4.294302442951445330e-03
-3.926729912044432495e-03
-4.890534834625195545e-03
-1.599097609012788503e-04
7.786649417755599732e-03
6.761600978457639986e-03
1.051308112345900395e-02
7.390624752585234734e-03
-5.282168750536078879e-03
-4.516820734278969608e-03
-1.137578114666082602e-03
-1.700038131797677442e-03
-4.967461836881674909e-04
4.675183897712265708e-04
5.234350313827720782e-04
-2.415527646265932908e-03
-2.880820608787625862e-03
-3.267887238124907948e-03
-6.711642420440130062e-03
-3.724986293737401599e-03
7.677643128538031835e-04
-6.426757310476973080e-04
-3.217689550803844948e-03
-2.483458706415596611e-03
4.856777617878685772e-04
3.560757648998153294e-03
8.267987345850234815e-03
7.851853198115474330e-03
1.359519266119720883e-03
2.979795779022299503e-04
3.414790403710059102e-04
-1.630866855000637694e-03
1.589156753895384694e-03
3.354268063190587838e-03
7.885119185353060703e-04
5.036758762642771538e-04
-1.798350663436215028e-03
-5.728993432409570756e-03
-3.438065485854104476e-03
1.589194570777896238e-03
3.099248857560501537e-03
-6.256767962896662896e-04
-3.621140710061079068e-03
-2.465602837743356788e-03
-6.519660252208665449e-03
-7.482325073122315234e-03
1.628730414808144972e-03
1.216423666641563896e-03
-4.836194335991448462e-03
-2.732021293402351952e-04
6.107853039096232221e-03
6.853071932588021206e-03
7.042323950612132920e-03
8.357758158968863968e-03
4.251942430790542869e-03
-3.519406036997494141e-03
-6.152480579281586343e-03
-4.354825610824860846e-03
-9.912096364763384876e-04
-8.168004340129379065e-04
-3.231595934106166416e-03
-7.686983285554785644e-04
2.077147964335239808e-03
1.976480327505462931e-03
2.428335912356098004e-03
5.218320010674563046e-03
9.563939571759258462e-03
7.279745336049124084e-03
6.867246826442174054e-04
-1.591963777279825848e-03
-2.557788644122027926e-03
-2.903622178613761168e-03
-1.601804952245273160e-03
-1.556761158889993866e-03
-5.212741770674617775e-03
-8.161262336271046455e-03
-5.318505475094888191e-03
-3.381030739997905980e-03
-2.121649209342686606e-03
5.376248872593961635e-04
-1.279911407873969521e-03
-3.255487441769056717e-03
-3.643123772512187747e-03
-5.860036716683503667e-05
9.963505421332560091e-03
1.409988197849711480e-02
1.261821005994375779e-02
9.815993519375671231e-03
2.592787047872825539e-03
-3.628606404010936617e-03
-9.560975789547477080e-03
-1.320067658743679338e-02
-1.010244224211986550e-02
-6.713605665999841307e-03
-6.056119983032202080e-03
-9.718227461203238216e-03
-1.152955177920193981e-02
-6.095891884187031734e-03
8.621162754130057802e-04
6.840015670425252277e-03
8.146156433413678094e-03
1.047785854105485158e-02
1.545337542104945408e-02
1.436680017773903778e-02
1.506309294349639054e-02
1.666884147370991179e-02
1.651832519929035542e-02
1.475903975038840750e-02
3.670173098192612993e-03
-3.992236256257614656e-03
-8.977045563430433722e-03
-1.375282133525121929e-02
-7.043376114355367687e-03
-5.799148780908464258e-03
-7.642584128600576378e-03
-6.290488414412279128e-03
-7.888529944091128218e-03
3.754105480505156266e-03
5.590297152840587556e-03
-1.789450852268979764e-02
-3.001888602400794998e-02
-2.631983797767762853e-02
-2.282615231017150539e-02
-2.137266436276863760e-02
-1.583101959699414682e-02
-4.217771183869113878e-03
2.579632169165764401e-03
2.843105287496399368e-03
4.553985321074306876e-03
1.665056221151395982e-02
3.276631844022433182e-02
3.989729591977024536e-02
4.013736679108149269e-02
3.444850619048134971e-02
2.888493698239651825e-02
2.088733786375018830e-02
1.037591732847189217e-02
9.657067060275146067e-03
4.142091471505608517e-03
-4.052418194073604749e-03
-1.260261318541572827e-02
-2.762530612683785150e-02
-2.597007780214648925e-02
-3.082358047414697488e-02
-4.150668354201592081e-02
-1.900812319289010149e-02
6.066032083403690052e-03
1.628415796731014220e-02
5.935256896255438654e-04
-3.130359107408051123e-02
-1.942461521346186201e-02
3.071067804699396768e-03
3.365503538547070595e-04
-7.987636802516431779e-05
-5.097163650419641798e-03
-4.124752377292017699e-03
4.514032360179183641e-03
7.641382637827991327e-04
6.937464947488337745e-04
7.506958047697449496e-03
1.363794384975053169e-02
1.807116607482114196e-02
1.724008395103257540e-02
1.520263973924195801e-02
1.380737331079611926e-02
1.395189343805449192e-02
1.251983631687070449e-02
7.651627320938797494e-03
1.392974045527552596e-03
-6.891150078345043527e-03
-1.178134805466316166e-02
-1.324728681990263064e-02
-1.206730024957783191e-02
-8.642881480932758723e-03
-7.413771934822240874e-03
-4.555022882029492563e-03
-5.179974387186376227e-03
-8.731934360581922183e-03
-3.931405976319328997e-03
2.269281874984470457e-03
6.651817774860422326e-03
8.668229681850207757e-03
7.950057448487868111e-04
-5.829613585108356713e-03
3.364886229404291228e-03
1.241259013523477242e-02
5.319714442579530876e-03
2.157592024587567069e-03
5.249474356013834365e-03
-3.193944807275123695e-03
-9.048640415546769025e-03
-8.102793659729505896e-03
-6.800847582321097214e-03
1.490839840116538932e-04
1.784426915447296074e-03
-1.181465012284131644e-03
-1.881729493952729150e-04
-1.359287761004348335e-03
-2.036799920228823859e-03
-3.584762542821176047e-03
-6.895858088420699084e-03
-4.254430328059494518e-03
-9.254329432469072430e-04
5.175462428955418092e-04
3.639478162790210809e-03
6.748526582783271645e-03
1.074459847098807944e-02
1.177311299014313119e-02
6.310632548765674442e-03
1.553032864004548225e-03
-4.757093384786169831e-04
-1.381022803236326877e-04
3.452500132599711866e-03
4.457627120880250718e-03
2.658046509243190865e-03
-6.469074008044043735e-04
-5.554523640763364689e-03
-7.678051685627108013e-03
-8.081929370007774269e-03
-6.292538963679719655e-03
-4.101251819947654247e-03
-5.897131633662857329e-03
-4.347409858826358983e-03
-6.837100761406349463e-04
1.025049213555656764e-03
3.415963130158769772e-03
1.899375852340540183e-03
1.999748237764524192e-03
5.326219500735785393e-03
3.369116639029692568e-03
5.414673224075946655e-04
-1.909948025731228200e-03
-6.775198726897690982e-04
4.255712833206860314e-03
2.449514679491197541e-03
1.846128015814416882e-03
4.905524189206796580e-03
4.536969488903235675e-03
3.181226764742417935e-03
-7.939841354763019091e-04
-1.466736727066604573e-03
-1.471682221473965234e-03
-7.402572214991066241e-03
-3.714182538892287465e-03
4.488887676508716666e-03
4.352197617935840007e-03
2.034561017973759468e-03
-1.361711466378665546e-03
-5.290039294577008038e-04
9.129147789903341737e-04
-5.622909791833820455e-03
-8.272508922519261967e-03
-4.843550446660895188e-03
-2.440821664037168704e-03
-7.131501752011693961e-04
-8.526033733981607616e-04
-1.952145561904573834e-03
-1.569304551555543957e-03
2.276633463749573160e-03
5.536939103000246623e-03
3.108783846841571205e-03
-1.452631043376904517e-03
-5.813683270542596183e-03
-3.876172583671060913e-03
3.113113456033086111e-03
3.228403133773527760e-03
4.145240528127995885e-03
8.697195033852181054e-03
5.818438542366589569e-03
2.043543094530984264e-03
-9.309634313375983808e-04
-4.699910028313217074e-03
8.270322596446888930e-04
6.359940976278448399e-03
1.652734933964557923e-03
-2.361781079819398350e-03
-3.672648880657299400e-03
-4.493512838231200450e-03
-3.138771728093584824e-03
-3.739423705938345506e-03
-2.673180315758815189e-03
2.703092556417820928e-04
-2.776061339883785853e-03
-4.199666036759176768e-03
-6.397030335042715524e-04
3.025948021301730437e-04
3.019735580062259898e-03
7.918039927582566292e-03
6.539654791319877460e-03
1.039396752759350886e-03
-1.647718316067067106e-03
-8.177834298160874390e-04
1.670084656031362545e-03
3.611357881991833670e-03
1.930306338412908929e-03
8.674534442722735012e-05
-2.074501298144416136e-04
-5.194848456314372746e-03
-7.391091045086881951e-03
-1.336411737135363839e-03
3.452196001044703644e-04
-1.847845969525404057e-03
-2.212916365814510296e-03
-3.429999081397371464e-03
-1.516910556920219363e-03
3.202773937106494738e-03
5.336021629394008953e-03
4.709298100950590552e-03
3.050669233935915121e-03
1.747590302895898721e-03
-1.284238689759107733e-03
-3.124110712539003749e-03
-8.683624665769990600e-04
-1.505696664218123806e-03
-4.203381297414733424e-03
-3.121877012385753346e-03
-8.244377659891953796e-04
-1.815602360236855464e-03
-3.157524335185825370e-03
1.615256208281203509e-03
4.826038770746871216e-03
7.627702761260749843e-04
-1.942606965852710678e-03
-1.684002209306363889e-03
1.003920668526509484e-03
3.295140432070577021e-03
4.304803296840544607e-03
1.058787098586655602e-02
1.046698521429720828e-02
2.244062554709803058e-03
8.740224264363201899e-04
-5.271886104782691138e-04
-1.471691285133971787e-03
2.293553496881525766e-03
1.001322353699026467e-03
-9.472436983446081175e-04
-2.501709632876438286e-03
-6.831392557303609878e-03
-7.531578612092838798e-03
-7.184730627394322541e-03
-6.798856634495449927e-03
-3.429673444342521381e-03
-1.556875994705151462e-03
-3.763366698487217044e-03
-5.211853025725528277e-03
-2.009607930604172341e-03
1.463730075079001935e-03
5.907939214318595929e-03
9.969265874512005937e-03
5.199173735220294010e-03
-6.077626170885126397e-04
-2.034607964906328358e-03
-8.967505809263303469e-04
5.443015650216008472e-03
6.655059545323353809e-03
1.554158717513220425e-03
-1.109911470393528483e-03
-7.687538392592528635e-03
-1.158795939516618287e-02
-1.550881137458592299e-03
6.561215292518920127e-03
4.110906340878436697e-03
3.584635525496474972e-03
3.136398709000811497e-03
-1.384243214536026159e-04
1.160070818428501210e-03
8.956352410750311258e-04
-1.975727965677414807e-04
2.882867572425965030e-03
8.599925824849162731e-04
-2.503587930807289579e-03
-3.569012430869525267e-03
-2.373683407463583837e-03
5.268545391323153915e-03
5.470320666836800058e-03
2.486105277863130463e-04
1.249001025420345100e-03
-1.019728668324902058e-03
-1.885543980962173845e-03
9.591356558250638091e-04
-8.817687223066887495e-04
-1.754421618302995757e-03
-1.535492437973491739e-03
-2.513616934620896935e-03
-2.812262184550403873e-03
-2.728700029353545338e-03
-2.577200410282741785e-03
-1.638186043213004164e-03
1.885582255438113166e-03
-9.491815027893316581e-05
-5.469472955098642931e-03
-6.531838386241726850e-03
-1.118701738030406130e-02
-7.472106794978885733e-03
5.693568677681367166e-03
6.349645094180077047e-03
4.797180747608110682e-03
6.077641293363488829e-03
4.367784804268246175e-03
6.984484209791003151e-03
5.610452433216139324e-03
6.612295444421763951e-04
6.658829475917552986e-04
6.918709807777669724e-04
1.697287930626985861e-03
3.242961160116366714e-03
4.823134769576783998e-03
7.964361683739630549e-03
6.873864639302667591e-03
-5.468767239537374123e-04
-8.123969372147701526e-03
-7.914002524580996539e-03
-2.423584502046260362e-03
5.279278159559841130e-03
1.547184930516473655e-02
1.638136265272814932e-02
-3.783527182788542402e-04
-2.803103823450477441e-02
-3.600301501076070415e-02
-1.571228118182321082e-02
-1.339909435336957867e-02
-2.099052640775889850e-02
-1.573878701959977467e-03
1.156976169499730756e-02
8.772353856861644233e-03
1.243112179179946090e-02
1.373511102846176890e-02
1.172944090932650195e-02
9.793245619951845837e-03
5.402166289079884075e-03
2.751638517950273644e-03
3.544768369066738766e-03
4.120471930917071410e-03
1.380852726137877812e-03
2.841389473920459020e-03
5.995833995856510862e-03
3.088720592132844587e-03
1.162097770306711386e-03
-3.639206891379099737e-03
-8.717781789693703626e-03
-2.724716550761060313e-03
1.977689026664172962e-03
-2.432431674843165813e-03
-6.930395920161338402e-03
-5.882052048361235616e-03
-2.859063126533145302e-03
-2.726774254883002242e-05
6.274497748446372127e-03
8.810583439905398870e-03
6.051781375198436556e-03
2.861758067249279332e-03
-5.295618957526774216e-03
-5.071758410991585378e-03
8.825183336486613211e-03
1.233538506762191234e-02
4.606990343070064588e-03
3.011348790559715844e-03
6.324915408014186204e-03
6.529871663377327488e-03
2.229707970928976584e-03
-1.328106599240568746e-03
-5.703936725791325640e-04
-3.448743111332830749e-03
-9.737553881338421868e-03
-7.246816164620333532e-03
5.859331417158849739e-04
5.155857378583361510e-03
5.348924173268057580e-03
3.252941941901293585e-03
2.690138141002153434e-03
-3.461417073126087270e-03
-1.098094556567406378e-02
-4.814431175653940270e-03
4.450599100229131813e-03
5.436270887883243481e-03
4.872507919369536760e-04
-6.267966257837426572e-03
-9.134396178746411257e-03
-1.120780552793658631e-02
-9.689992805336004184e-03
-2.119754221559033225e-05
3.052399533179510436e-03
-2.273763465867005389e-03
-2.251228482940305885e-03
-1.313445104493311897e-03
-2.328987313800118513e-03
3.916370128428036182e-03
9.579814247882789680e-03
7.333086363716498704e-03
6.821158031829958716e-04
-1.202363916893716377e-02
-2.134794268318015650e-02
-2.075821548736703562e-02
-1.822627738153250604e-02
-1.659977998552800149e-02
-1.813454804069967313e-02
-1.991425569161820591e-02
-1.753321382387976538e-02
-1.083830891976214454e-02
-2.516546353616338182e-03
4.262281213884999698e-03
1.747188418302710738e-02
3.005293027266029218e-02
3.253083427874348815e-02
3.266300155563107988e-02
2.853873601199766880e-02
2.145810199245710634e-02
1.019703890280778021e-02
-2.958513825642921724e-04
-3.054147610071645657e-03
-8.911015536399183312e-03
1.948298409248820379e-03
2.799348708605293307e-02
4.053997310529035975e-02
4.301391395136918566e-02
2.886817427498199196e-02
1.259088397292670858e-02
3.476069880201603911e-03
-4.552284065636989091e-03
-2.037833305574391057e-03
-4.787400963505829624e-03
2.632794128697607539e-02
8.707782978962537446e-02
8.829422889684945819e-02
4.346551374302045495e-02
-1.223376154364377334e-02
-5.826111357108439137e-02
-8.923049629009381645e-02
-1.278926457593497490e-01
-1.411872350323460090e-01
-1.247548624764885372e-01
-8.262908981650654572e-02
-4.246909013486000611e-02
-4.122262061258055721e-02
-3.372510978133349407e-02
-6.272356773041601330e-02
-1.028630087233970702e-01
-6.657068514751833532e-02
-3.940157533557000352e-02
-6.382809258417628147e-04
7.360513141944548254e-02
7.818926354090595388e-02
4.493936868490838732e-02
2.757702318390818294e-02
4.969607144389019855e-03
-5.910894188545324189e-03
6.526055511899946093e-02
1.489321408685532755e-01
1.175553816024421244e-01
5.856688267948684246e-02
-3.334072575171837666e-04
1.495000733078604219e-02
2.516553391003298334e-01
4.203114533354502802e-01
3.374570986855442989e-01
2.324266996811630015e-01
1.543835802922948197e-01
3.716660546086796024e-02
-1.127865353548579280e-01
-2.784546785803535540e-01
-4.133335513778536585e-01
-4.414477800237835980e-01
-3.191703083532557716e-01
-1.432776636473495624e-01
-4.829973596587945617e-02
-5.609127078200337735e-02
-8.407324380308268952e-02
-9.666257585226123439e-02
-8.968469232459712337e-02
1.320255796903517347e-02
1.011452837022233098e-01
7.426608304572823727e-02
4.439567322621112283e-02
-3.983093190265753203e-02
-1.468890848095850132e-01
-1.176733142400192694e-01
-2.632644697119659524e-02
2.720104817999055916e-02
4.725016238430847226e-02
1.454925406646275787e-01
2.981619016505508979e-01
3.094860565676881836e-01
2.753297886487132695e-01
2.519102932156414010e-01
1.219045291945177051e-01
1.320439931601409024e-02
-9.145346025678865662e-03
-5.044306587810382797e-02
-1.284415167280925363e-01
-1.462582755985922522e-01
-5.885037216166672663e-02
-4.542716463325260218e-02
-9.565163938780212038e-02
-4.946340031462783532e-02
-3.777394021761581316e-02
-4.333228872694996903e-02
2.268468892091709058e-02
-1.960854553805624692e-02
-1.507479171375688543e-01
-2.294275841307100439e-01
-1.915337087158112406e-01
-1.072022920617252649e-02
1.023827920436252009e-01
6.865032147900516912e-02
5.939840109604745816e-02
9.123661220709496089e-02
1.009909051887600689e-01
8.126129106208977715e-02
1.073622345048410726e-01
1.501683607155003264e-01
6.815136346713565607e-02
-5.527060427202690196e-02
-1.368561777339322993e-01
-1.279222598084591989e-01
-1.323412872162403262e-02
-2.753425216526159125e-02
-9.339884472989959385e-02
2.521095198975206860e-04
6.833218913068427047e-02
4.612306902116681401e-02
1.125127684025977078e-02
-1.235050066815948124e-02
1.237552661610525316e-02
4.717530958708519156e-02
8.620510820102775251e-02
7.345707616485416813e-02
-1.512568996690841563e-02
-5.799539336685439334e-02
-8.842925617744591682e-02
-1.499126530142281533e-01
-1.407379409877837217e-01
-1.672990828731256430e-02
1.302052842301971991e-01
1.622624645694828449e-01
1.098629680946290738e-01
6.577896873366653741e-02
3.081264485197681910e-02
7.219595806999556248e-03
-1.394530257029212052e-02
-2.149456401312619530e-02
-1.047096589717983611e-02
-1.893970762657457355e-02
-4.169571194183522428e-02
-6.271535249795805178e-02
-6.405605154487079012e-02
-4.106109836547284370e-02
-2.201365115515062712e-02
-8.341124632921460141e-03
3.040436534464643643e-03
8.214139262154897259e-03
1.017786339558926154e-02
8.686004843353892571e-03
7.595980812577472763e-03
7.842101610919749444e-03
3.121250612303865055e-03
-2.255694842581669295e-03
3.878711915137771516e-03
1.216728280610488658e-03
-5.741652577847564803e-03
1.468757928857682138e-02
1.861719045337882281e-02
-1.825106111630728049e-03
-3.289057189326549842e-03
-5.019215825841062684e-03
-4.914249596870890260e-03
3.214609395314751636e-03
2.895377099196042633e-03
7.490468772579098045e-03
1.002509424846403929e-02
5.926748268731499639e-03
3.843761426897472893e-03
-1.053569978002971003e-03
-5.472079105178211545e-04
5.251881225288936722e-03
8.739288134332331287e-03
7.783588456893651523e-03
2.171361905558339377e-03
-2.131080423866536094e-03
-8.691120872638791184e-03
-1.239917469360468476e-02
-4.905047944482778498e-03
3.068062965158754006e-04
-3.172412633969500483e-03
-1.078041624436430063e-02
-1.964720580861252855e-02
-2.123375887239602883e-02
-5.284379644344485392e-03
1.426700575538344951e-02
8.608320589104998324e-03
-4.527910514803338421e-03
7.486418674184125953e-03
1.918945267998502929e-02
1.012097761353289091e-02
5.222406385660322871e-03
7.275789378901469616e-03
3.159353920282653196e-03
-1.118095280455043243e-03
-1.343813630792342097e-03
1.790925326123194057e-03
7.852115957282786250e-04
-8.048353057185873502e-03
-1.009402098542548296e-02
-4.394443588467964075e-03
-2.562956579497503175e-04
2.495312343643127373e-03
4.121345647491932683e-03
7.514012962447521454e-03
8.042535566768732602e-03
2.491334627107706472e-03
-3.820629360535869796e-04
-3.571979404333125007e-03
-9.261541449000361068e-03
-1.147273646999494474e-02
-1.041219240877951091e-02
-6.053671581544245103e-03
-1.268870615403172499e-03
1.548386159272400944e-03
2.480920199077616545e-03
-1.765906941357273411e-03
-6.928099930157173569e-03
-7.508958641595691978e-03
-4.184233371311014797e-03
4.073881796518265090e-03
1.114206917936996430e-02
8.249029855918276963e-03
4.210648910333786646e-03
7.082031187198809322e-03
9.414975688646177315e-03
1.079959341999744971e-02
1.271545700697813107e-02
8.232301121618108841e-03
-7.067932582434243056e-04
-5.853774818819199900e-03
-3.793919677050129700e-03
1.685525798668548181e-05
-2.656236182685295898e-03
-7.273373872968575543e-03
-6.490417856450761934e-03
-1.946289388487121297e-03
1.952610430767933499e-03
2.034539924630970019e-03
7.770316816505223444e-04
2.191958307563820259e-03
3.861984793874083388e-03
2.138210327266822780e-03
4.954747582933725176e-04
1.514263563224178518e-03
9.549504607247115114e-04
1.935539189996392326e-03
5.339571313388946291e-03
2.905752886983789529e-03
-6.961029925127437418e-05
2.237571618482872386e-03
3.983414529222396167e-03
4.772845034075223931e-03
3.040353773773527002e-03
-3.650746133763896079e-03
-8.135469996950870156e-03
-5.870184221588990725e-03
-3.197813087897087049e-03
-4.951985534627895667e-03
-2.439032141815108534e-03
3.241561322237503616e-03
-2.265743288942927494e-03
-1.028588480888020969e-02
-1.163838753549670257e-02
-1.424127404480313164e-02
-1.604407145503085330e-02
-1.674455222756527153e-02
-1.518192003997883427e-02
-4.480965720988511897e-03
8.052705031507626648e-03
1.611152244248314699e-02
2.173753323980975524e-02
2.757485617213917620e-02
2.749705179957160489e-02
1.219428944262209921e-02
-1.426982758298149349e-03
-2.727019216661314555e-03
-4.491269828127562175e-03
-6.461452585569272232e-03
-6.969290906107002311e-03
-3.974819315207733274e-03
4.234097422836471600e-03
5.864673136356022762e-03
3.003631164421878118e-03
5.006129754865595166e-03
8.877996852135318015e-03
1.127634258081206334e-02
1.381914794672585954e-02
1.437053357453110455e-02
5.266658724315309570e-03
-6.670824902562666643e-03
-1.439255284211787139e-02
-1.890205667996171582e-02
-1.444698046744091226e-02
-1.182800967164830339e-02
-1.282708497883493746e-02
-6.471945561961544788e-03
-1.455367910412044526e-03
6.741576509850607905e-03
1.120793004554542123e-02
2.327911680561419068e-03
-2.230412020397788686e-03
-1.697805526412512339e-02
-3.149462701610472593e-02
-1.332093404363568143e-02
6.342587586086192390e-04
-1.517247581162805593e-03
4.648848327833468401e-03
7.093178863036658961e-03
5.485119488306059755e-03
4.491477466458799334e-03
-8.688586813717672983e-04
8.419324027360898001e-04
1.166570695050621158e-02
1.749245439293589319e-02
1.230726927396830900e-02
3.555355687917034161e-03
-2.952545307895893673e-03
-5.123874870068906295e-03
-1.004349994081885685e-03
8.983072908765643615e-04
-6.638385731351986252e-04
2.790452618116888092e-03
8.103955280241976686e-03
1.006721594673160199e-02
8.027862963435633548e-03
6.555475079122716903e-03
6.331926268001703169e-03
-1.385917392753442797e-03
-1.036112504699322409e-02
-1.205735032506654973e-02
-1.255344389004920888e-02
-1.048883845934811022e-02
-2.484138588935803221e-03
4.536060509528268281e-03
2.244778733742386952e-03
-4.702334719619234715e-03
-1.787445181015109071e-03
3.532949314348572852e-03
-6.238079960202486856e-04
-2.817771815614573440e-03
-3.968650454942714359e-03
-9.083395724517759340e-03
-6.856574258812090511e-03
1.059814511561053135e-04
4.925068197880336576e-03
6.265258781019515666e-03
2.390112184050907120e-03
-2.140334305281874246e-03
-1.037406077741974235e-02
-1.755624813067934928e-02
-1.125499658263567210e-02
4.551423131817086080e-05
9.090296590403855459e-03
9.961060734794559279e-03
3.062813542964590774e-04
-2.091218972128931763e-03
2.330017871165092520e-03
3.963046404953049842e-03
9.390138382536654393e-03
1.497182358173644416e-02
1.270171698007484772e-02
3.829258882594723315e-03
-3.900258964969525489e-03
-3.336202661083706791e-03
1.512060381642598567e-03
5.723028129245365941e-03
7.979538326382191668e-03
7.476865388341443278e-03
5.768468233919041808e-03
2.563253473286807894e-03
-2.649736214761716849e-03
-3.900688588045575153e-03
7.230875320686413945e-04
-3.028676364732873355e-03
-1.761698888395781676e-02
-2.596190061499903043e-02
-2.781502949759528248e-02
-2.930337728251353191e-02
-2.501483140528304450e-02
-1.304884262664315550e-02
5.816377377333765974e-03
2.111232442108394725e-02
1.740335447746588216e-02
6.697540271782863666e-03
1.002836778846638750e-02
1.807177996630160086e-02
1.679606245078799423e-02
1.308361206070946317e-02
1.175127786345768997e-02
1.009370063707621182e-02
4.727710359792257171e-03
-3.693685396549041371e-03
-4.269000735448704766e-03
1.249011294947918911e-03
1.466612287419836579e-03
9.536348655546313027e-05
9.116935567993078192e-04
8.681883465192997886e-04
-2.534890089586587427e-03
-7.583424718456860045e-03
-1.012586899233636206e-02
-1.334487043378876706e-02
-1.675697018941921246e-02
-1.542060510287788198e-02
-1.083798001684407181e-02
-4.847901928241568625e-03
1.825797375900384701e-03
7.220797549947415885e-03
6.924593273844390461e-03
3.761066517107001291e-03
3.868410170205097923e-03
2.686000983219344069e-03
2.089389043863234315e-03
2.810346937742032921e-03
-3.086612339367414025e-04
-5.049875182376289528e-04
1.636153250085600665e-03
2.575749921355352696e-03
3.703850613721716093e-03
1.924855654971776523e-03
2.011758741403923273e-03
2.656269497668487748e-03
9.903681567137367567e-04
2.983581026990860842e-03
4.931034503423850288e-03
8.030755907928465581e-03
1.076995950425053625e-02
3.968737324845629522e-03
-2.798792672099562669e-03
-4.286528608418387239e-03
-6.313403561488708376e-03
-5.445249061421993456e-03
-1.471840791879329771e-03
2.019600039895801807e-03
3.158232301211032211e-03
-2.912968633074079425e-03
-1.195860240730825703e-02
-1.181526116871498694e-02
-9.107098002447865798e-03
-1.250377052331021373e-02
-7.598353617800592333e-03
1.559021128163806235e-03
-3.574830011875199803e-03
-8.243663974678747466e-03
3.499895499040357044e-04
7.234557665003199176e-03
5.434263129210394061e-03
2.055774673077267328e-03
4.467539290368610421e-04
-8.139711028408224769e-04
2.777631445150125769e-04
6.111028352183980883e-03
1.242667176954509109e-02
1.427351364096913176e-02
1.273745004688503837e-02
9.369251414228724553e-03
2.894161480075727998e-03
-2.780166691665612519e-03
-3.760038359062278877e-03
-4.644073618833550673e-03
-5.342708798422561405e-03
-2.769333786746732556e-03
-3.270095067770496453e-03
-7.245650784290621343e-03
-5.116520501384274645e-03
1.271282838016533218e-03
3.341496754557007811e-03
2.464041949856986182e-03
-1.343408273110380810e-05
-7.092768261749681120e-03
-1.231896949377166324e-02
-6.477311834551110863e-03
2.864657464178681223e-03
2.822585451549588370e-03
-2.709461167874861829e-03
-5.527043496247362360e-03
-6.196295470957927272e-03
-5.651355647817324357e-03
-3.669308544778423792e-03
-1.158490781523483979e-04
3.269866008943542266e-03
3.200948376370495001e-03
3.006223878460542189e-04
-6.310363107185391895e-04
4.193523720185827856e-03
7.836471792078018861e-03
6.895878068041635944e-03
8.231623825291392929e-03
7.644123402924743980e-03
2.417212188046770176e-03
-3.543453832374464721e-03
-4.994587369734499946e-03
2.840440732651164629e-03
4.926903972114834648e-03
2.714726930098427951e-04
1.191394366764702509e-03
-5.483201838686612177e-04
-1.331213891307271840e-03
-3.462977932666582749e-03
-9.561909692467436203e-03
-3.256011008836344478e-03
7.379403617753430532e-04
-3.020841750012980779e-03
-1.711599692019013554e-03
-8.657659902658835106e-04
3.724289755627019707e-04
-8.465410469334817140e-03
-1.584888135497364986e-02
-1.517698479741448440e-03
4.395072139797629937e-03
2.176078569858915391e-03
4.069906617215413198e-03
-2.744978515115331814e-03
-1.828566914664758866e-03
2.214590243220907612e-03
-3.279365761834829394e-03
-3.399030202117924761e-03
-2.389648323901298870e-03
-1.942491568252961362e-03
1.855943245156736147e-03
3.352049396232630214e-03
3.598241589299653199e-03
9.584309957578983612e-04
-2.318320092959443978e-03
-1.332147213746202375e-04
5.841289501341034168e-03
1.128407327537110649e-02
1.124452608305689938e-02
5.013941621456942388e-03
-2.557826988165459205e-03
-5.040900126747634158e-03
-3.021589062130275623e-03
-1.705881043767027566e-03
-2.286598042516608652e-03
-4.110213274871610430e-03
-1.347638508555110311e-03
3.280378145918591906e-03
1.125172379965769156e-03
-1.692064104786858512e-03
-1.514336971166737114e-03
-2.966107553177689364e-04
-6.660234830617615606e-04
-5.105579264489951488e-03
-4.999653907021192265e-03
-5.081551294995349452e-04
1.120954279536693667e-03
2.810803870518599652e-03
1.962092007619001266e-03
-3.288995146500715491e-03
-5.309262632783969676e-03
-4.095502151176312784e-03
-1.931909794733787126e-03
5.389031757186035949e-03
1.031664851712432718e-02
4.623533067675412132e-03
-2.249829955019423851e-03
-5.740050272750034377e-03
-4.437952518828737133e-03
-2.131819429388260266e-03
-9.450637318718773175e-03
-1.025498674977650369e-02
1.294243227596639061e-03
4.231094016309496636e-03
2.011968187091386917e-03
3.517194535183456542e-03
6.456373382906556782e-03
1.041762388112051074e-02
1.150930206916512925e-02
6.523704312764421094e-03
-3.983323795882884322e-03
-9.231144542845428486e-03
-5.037477496661261871e-03
-2.668724128621258098e-03
-2.078313235543526125e-03
-7.298439265526388518e-06
2.642459426836797892e-04
-2.246172276330136997e-03
-3.201431701784449805e-03
1.707676910160677171e-04
-2.577823547329240010e-03
-8.303797446031416576e-03
-6.733771544542195564e-03
-7.433647953574854320e-03
-7.969938453455687258e-03
5.720541971045980598e-05
1.084096937733535979e-02
1.721889203162417850e-02
1.407346165822041632e-02
8.433184688134023541e-03
5.330105174014279461e-03
1.950087360562288935e-04
-2.963484445832786224e-03
-9.678797113043457676e-04
2.677599020935900707e-03
1.699549612604111387e-03
-2.074477963792619416e-03
-1.530806311733651053e-03
-2.386104559599170824e-03
-3.407100521974150246e-03
-2.877972760678523985e-04
-1.163846504191178672e-03
-4.831551405762385398e-03
-7.082210417384928076e-03
-8.216570007468216447e-03
-6.134282982514488620e-03
-3.444458123411606740e-04
6.226742171710450066e-03
5.944049666077094382e-03
4.041829203528164737e-04
-1.968287143566208822e-03
-4.068612483338743258e-03
-6.855120259737689827e-03
-4.426386253227307215e-03
1.278470652504266631e-03
3.284067277368911148e-03
2.911118384086408377e-03
3.141844801507514412e-03
2.190916011535877506e-03
2.900282770156055370e-03
2.639455699333101164e-03
-5.755892261018912730e-04
-7.571075222378805176e-05
-1.176853675146398480e-03
-2.780594413411239651e-03
2.104179267353839446e-03
5.057699222606471152e-03
6.218858653618445677e-03
6.273159792629866630e-03
2.364168529455267648e-03
1.111935401603374781e-03
-2.360608812279682903e-03
-6.613961189410633677e-03
-1.277422460358092855e-03
3.728299241592918003e-03
1.391672239042291868e-03
-2.387268456526292579e-03
-4.845493237774551980e-03
-6.164910705606193274e-03
-5.985769396709465784e-03
-3.315533272729319445e-03
-1.445127186293948844e-03
-1.669544360906933915e-03
-3.760970394367820283e-03
-7.241754358386367010e-03
-4.587838166716627815e-03
1.864707175430239516e-03
5.288713120322394851e-03
7.011615042383524329e-03
4.994162489181871133e-03
3.221730484603308776e-03
2.617585719967919014e-03
-1.351116653188857465e-03
4.840884811579493981e-04
6.202264904495537363e-03
7.191868035680507726e-03
6.002040839101026662e-03
3.472007159768765103e-04
-2.530202176328380341e-03
1.609156089075508079e-03
8.419093565335117584e-04
-7.542916440126128021e-04
-1.060428209350099083e-03
-5.717133471978500664e-03
-5.460743978655589401e-03
-1.387374425832039798e-03
-2.679949333572425371e-04
3.743763957296110650e-03
7.573700297319583066e-03
4.250861816768766212e-03
-1.784444172728107472e-03
-7.039150733060991344e-03
-9.797375936199061511e-03
-6.569241299218413037e-03
-2.359539581225661691e-03
-1.227436808815286166e-03
1.524457429263969318e-03
8.638821448152686705e-04
-5.842638680648077655e-03
-6.010066793024693328e-03
-6.926254921962489170e-04
1.242932414340101486e-03
1.853794715895555048e-03
1.843160300889006790e-05
-4.148113701380341974e-03
-4.117524528168374498e-03
2.583438981274240650e-03
1.131413451521698886e-02
1.299460181363158023e-02
7.969367646957948789e-03
3.812365919482365965e-03
-2.252879322573701911e-05
-2.252790371974209421e-03
2.846811064337812728e-03
9.094792125009031752e-03
5.865764314758800495e-03
-3.421987272026660344e-03
-9.342308529338922210e-03
-9.400674986108303877e-03
-6.375331183606039800e-03
-5.529866687770243136e-03
-4.651863977778738189e-03
-4.049988233072065904e-04
-2.212935694195409619e-04
-1.903881377844881748e-03
-1.222699133539479656e-03
-7.273386387565715155e-04
7.345793790615335987e-03
1.554080436567966024e-02
1.137428493346548213e-02
4.071997549806247348e-03
-5.478361979442975677e-03
-1.148877298885340667e-02
-4.164589194550506572e-03
9.639211605599154768e-04
-4.847622655142813696e-04
2.963789541658467305e-04
-2.722311999397851630e-04
-2.191610571772504863e-03
-9.401529892084447377e-04
1.096306070647613644e-03
3.797634767961145558e-04
1.689355358492593056e-03
1.920749393164903869e-03
-1.472517979184315672e-03
3.293413781393711263e-03
-1.278532962660646486e-03
-2.000976602206082713e-02
-1.460293548309226502e-02
3.959600759624113363e-03
6.978352164538023129e-03
4.770136578182329612e-03
2.337130943873264033e-03
3.932630859457501155e-03
6.386035406604774999e-03
1.754308482481944367e-03
-7.726955944284440766e-05
-1.441566684651896836e-03
-3.711861316275565092e-03
-1.898646181683184700e-03
-1.990108348828611377e-03
4.738010539208514934e-04
3.103232366091625803e-03
-2.261397336584423153e-03
-4.215252860044329218e-03
1.331621879955671760e-04
1.771132537323371042e-03
2.622455808725077889e-03
5.654512778881634096e-03
6.416017061878300648e-03
4.759725697311443203e-03
2.755002041633546755e-03
-1.811217314261237641e-03
-3.184185837290689006e-03
1.330728545651306679e-03
2.801496244949798400e-03
2.046189566431346613e-03
1.279558722829508355e-03
-3.007785932344886858e-03
-6.531780805844196978e-03
-6.375053760833118179e-03
-3.591524848368281026e-03
-5.958698485858002171e-04
-2.043654453184245556e-03
-2.230185461035303664e-03
1.651212287972756527e-03
2.681422331363436835e-03
4.383696319355856290e-03
5.277626785410640710e-03
3.175481770878222330e-04
-1.371240341734347983e-03
-1.335755973613847632e-03
-3.614681079739901978e-03
-1.506209451782961626e-03
3.185117178223925965e-03
4.864748091630159525e-03
-8.293386988277864306e-05
-2.633128447878693105e-03
-4.262155103002747717e-04
-7.875639459051932134e-03
-8.227665933022288228e-03
2.725194987804160744e-03
3.257574941301560195e-03
3.319785158352471770e-03
-7.575617099364249886e-04
-8.827295775802488850e-03
-2.137953063774746931e-03
3.810629325087880066e-04
-1.881671490918098398e-03
4.635462102090515644e-03
6.683529231006165271e-03
3.591166073016230018e-03
-1.609483896624852800e-03
-2.045411056340131796e-03
3.684918212659842561e-03
2.672778614323847654e-03
1.009563992279487741e-03
-1.107970410682056293e-03
-3.189787180962281969e-03
2.776438547618172593e-03
2.389051544496817968e-03
-2.154180500986984867e-03
-8.211519050229416786e-04
-3.209620375826321721e-03
-4.825992288907893571e-03
1.784423949424467038e-04
3.712681286036552310e-03
3.714962210189149544e-03
6.287086841885404162e-03
8.733339843169275404e-03
4.719426066175082431e-03
2.092762261829934217e-03
8.290093903162424520e-04
-3.780939782433406348e-03
-3.007818577232053165e-03
1.866709820650681341e-03
3.251664356759679554e-03
-8.507220804803285012e-04
-6.720548194672849689e-03
-5.171900661620060929e-03
-1.344404345044474328e-03
-2.805440656901336035e-03
-4.201404306336044801e-03
-5.857061544384322554e-03
-7.793956251627950568e-03
-5.015383041719450805e-03
-2.428852324595019707e-03
-1.397834767847737792e-03
4.437454167482537785e-03
7.540040215280355632e-03
4.361279509004919834e-03
3.487096181721477135e-03
-1.419856166354032051e-03
-7.724105098437832745e-03
-4.604001059121817178e-04
8.084975566485796961e-03
4.812372327917761178e-03
-1.616532127671886903e-03
-4.377813960438797433e-03
-3.340011477153236995e-03
-1.595840592161865178e-03
5.325180533234465693e-05
3.011928059269403709e-03
3.800373286649777384e-03
8.575814528990518670e-04
-1.653323834845126135e-03
-3.615938049275978878e-04
3.079654137087608871e-03
5.821035820953765483e-03
7.025170171815246778e-03
4.426550615956002799e-03
-9.327313990446937843e-04
-3.825900501687456469e-03
-2.820318494102029300e-03
1.373641020687709890e-03
5.230189371051926703e-03
3.279820081481905555e-03
-4.030258499965077472e-04
-6.312349677014201296e-04
-7.401931273570525223e-04
-1.119478961298273328e-03
-1.772191866566763876e-03
-2.562598054035960301e-03
-9.385478100618519859e-04
-2.589353010715437619e-03
-6.130534791537883832e-03
-2.836967165030458184e-03
2.417630703520004445e-03
6.179981329015249263e-03
7.284084438768405854e-03
3.288312370934028984e-03
6.611447872516947261e-04
-3.008377183127917791e-03
-8.383834415478326821e-03
-4.962662473507942554e-03
4.454445419957387894e-05
-3.588892373169018032e-03
-1.040740387201532363e-02
-1.313997259313571912e-02
-8.036188069702290479e-03
3.410980466252504467e-04
5.426534087465089209e-03
7.173838228466543517e-03
5.309247421143896244e-03
1.188369160994209167e-03
-4.070720527036569988e-04
-8.135644978563756104e-04
-3.357772812829225555e-03
-2.296189526069049563e-03
3.238115484167486229e-03
5.166678270690811849e-03
3.923894744544820581e-03
3.362935696714428394e-03
4.078259136240419865e-03
5.977317665617759915e-03
8.686567154647802450e-03
9.876264618136905427e-03
4.125409336637188631e-03
-6.090769737233880064e-04
1.124002888503129825e-03
-2.905935291758019769e-03
-7.645321139978822865e-03
-5.199472331444726821e-03
-2.760451630168229802e-03
-1.749183353367304459e-03
-3.333806418639971136e-03
-2.207380200232024643e-03
3.620642448824906365e-03
5.780995270592365932e-03
8.183704304305062030e-03
7.302423313272842290e-03
3.697996648206491356e-04
-2.645634635214560645e-03
-3.232736702655259441e-03
2.316780828972822733e-04
5.428333145300790093e-03
4.741079083110679403e-03
-1.733546794423229762e-03
-2.049314658480952053e-02
-3.121964039756278120e-02
-1.306755974124944840e-02
8.370464764569727611e-04
-2.453816674863603092e-03
-1.572783281321653000e-04
3.798695059723058466e-03
2.869412560115106210e-03
4.664473684427362585e-03
6.556295433178199218e-03
5.588913937086880356e-03
4.532725340562943767e-03
2.982615201426177913e-03
1.461104462892538281e-03
-1.850046157784735086e-03
-6.039421693315194864e-03
-1.592384685441732960e-03
5.499550520151056526e-03
3.820675582389938298e-03
1.501653735378087346e-03
3.825732263059242015e-03
6.289831664444195045e-03
6.809745083420761479e-03
2.910114679206339712e-03
-1.940897640324473804e-03
-4.070815233341961293e-04
7.386051340150064830e-04
-4.537240054334196540e-03
-5.269989669746638454e-03
-1.666369689501176216e-03
8.549929351273039902e-04
5.710036675705719607e-03
3.272513978219780250e-03
-3.624962721193367848e-03
-4.030781308117417638e-03
-4.489854349390102507e-03
-5.886067146764668596e-04
3.738501865789761042e-03
-1.039501802092648343e-04
-3.690914317987122311e-04
8.880970977013622099e-04
1.821659620459283556e-04
-7.151243347411539910e-04
-3.743094830605349886e-03
-4.866557787160883655e-04
2.792116419805522245e-03
-1.732800156852532100e-03
-5.712433912782410687e-03
-6.068773083977733150e-03
-3.339991445207812076e-03
-2.937706316194825095e-03
-3.372084328911577355e-04
3.615750333771424168e-03
-5.481739067809006903e-03
-1.249797320942340820e-02
-7.800231629948490425e-03
-2.695414285774923834e-03
3.482550237225542217e-03
4.964638991681358075e-03
3.528489132325784549e-03
9.454995325417757737e-03
1.414184515769020475e-02
1.192929575020630975e-02
1.001672994335220390e-02
1.187158944059365194e-02
1.159191464612054426e-02
4.415907750485468207e-03
-5.360566127718411136e-03
-1.005175678613674968e-02
-8.659517715202021126e-03
-5.626630799616231388e-03
-1.242205769806452656e-03
-4.292152561279765320e-03
-1.662122789236164522e-02
-2.136661292425941910e-02
-2.046825139022295098e-02
-1.573597299089130735e-02
-1.229682963654322309e-03
9.318378934794278867e-03
1.310990776909235454e-02
1.871809633893002298e-02
2.557238079791981922e-02
2.874919751920412825e-02
2.413112681135144363e-02
2.130541031863955256e-02
2.315407951745478837e-02
1.815432163630364970e-02
8.895813298896703206e-03
3.953419687335473810e-04
-1.221180494668028076e-02
-2.396371556117861054e-02
-3.048015028182753799e-02
-4.021662770354009209e-02
-4.626622394207427491e-02
-4.539242129877803233e-02
-4.607915788121476341e-02
-3.291995133271295726e-02
-1.228917094525919067e-02
-7.865081302700057189e-04
1.040640791737994231e-02
1.594356723400967152e-02
2.583974366889156202e-02
3.588229449363412871e-02
3.353807494362034264e-02
4.264294605528720639e-02
2.058205494531447494e-02
