-3.440228986519310722e-03
-3.833232648361539589e-03
3.378269105698851189e-04
4.209052190567592541e-03
1.148613992010648040e-03
-5.508954986408974401e-03
-6.739830734236586934e-03
-4.755201499032733238e-03
1.165883395623318547e-03
8.511952699318453552e-03
9.130461601008280775e-03
7.863641136472747373e-03
9.946113038938234063e-03
1.174630185634653774e-02
1.102226113136540488e-02
9.895474996367337184e-03
1.010773274358439666e-02
8.677585037589944858e-03
4.132803919649171917e-03
-2.120022634396988986e-03
-1.229264310389763942e-02
-2.019378908300420439e-02
-1.304677995229996945e-02
-2.409245545058671337e-03
-3.082275147340275603e-03
-4.578924532454409398e-03
-4.399298878942273401e-03
-4.598206880463182045e-03
-3.973649349975626492e-05
1.293514738576815540e-03
-6.817127096832383991e-04
-4.043845172363699824e-04
-3.075159933904059173e-03
-4.119815106340331268e-03
-1.310725246649042225e-04
1.980795433567640595e-03
1.540925121351791093e-03
8.969863973437738848e-04
-1.872833327061849571e-03
-5.152004509635325219e-03
-3.205053699415161012e-03
1.877717292985749424e-04
3.513580229112046698e-03
8.359718457093464131e-03
4.704474279198153468e-03
-1.725032714411092825e-03
1.244073166620591293e-03
4.347353903660264654e-03
2.593173331670038488e-03
9.999925197895710889e-04
8.152789481354458159e-04
-3.392284135221838469e-04
-1.445278595623905810e-03
-4.303413748209846800e-04
-2.391488220610642809e-03
-3.105758800609305977e-03
1.657461277679466924e-03
4.323656345470142451e-03
3.647105594997691186e-03
-2.761156688111967433e-03
-8.779073671917474869e-03
-3.725413348864896074e-03
3.033190942674389348e-03
8.766007979532492583e-03
1.252383610603446072e-02
4.717693311179964842e-03
-5.995245850198125184e-03
-7.503889506564834916e-03
3.824848281095822558e-04
8.762977466999884862e-03
8.842822756611148916e-03
3.696379819910975122e-03
-4.960300840066763500e-03
-1.167712512692894826e-02
-9.351537726309094509e-03
-5.111244710813053413e-03
-2.021078015024784305e-03
-1.171315221088730036e-03
-3.706082985850024311e-03
-1.484540075051160937e-03
9.285543463618294632e-04
-1.297615876784877567e-03
1.949421772454255084e-03
6.901364653922961896e-03
3.036662635408535985e-03
-3.278066267847175048e-03
-4.579565432146486849e-03
-6.548135253141300523e-03
-7.510829317183124500e-03
2.130091970914873862e-03
9.623253692295838727e-03
4.870754091466554525e-03
1.286183358181834007e-03
4.095267259663498151e-04
-6.579248866392011300e-04
4.455508850585480039e-04
-3.089709555681225588e-04
1.019813529220318747e-05
1.527429296478810972e-03
1.374535392739526418e-04
-1.134747579216286665e-03
-8.872415911045233861e-04
3.864147923410762853e-03
7.067676535257641328e-03
2.004655976818337740e-03
3.647790944095761025e-04
1.876779156603012157e-05
-5.166997866607271617e-03
-3.421656935075797525e-03
1.923247330943893925e-03
3.401422645111432889e-03
2.963556703865848421e-03
-2.972243846267249266e-03
-5.810469678107799477e-03
-2.486864299543312985e-03
-3.591672628561851620e-03
1.722408970207991996e-03
1.106123277107224495e-02
7.365272654795582304e-03
3.944674528726621089e-03
5.078634918927116965e-03
2.663709599917746772e-03
2.470099033076257784e-03
1.070996606603149875e-04
-6.905162381532208016e-03
-1.396191641687953566e-02
-1.621111207654408679e-02
-6.950149542069747680e-03
1.884876803787949350e-03
3.546407032883055338e-03
5.253055547845169801e-03
2.385993298827447043e-03
-2.022866441701577991e-03
-1.909573558808719262e-03
-5.466155689480294358e-03
-1.336938622830206348e-02
-1.353780378635601953e-02
-4.109816058267705408e-03
2.401897892172482219e-03
3.896600456587985366e-03
5.429329203106595877e-03
6.321633563705022878e-03
8.656760526149396076e-03
8.230573622867522893e-03
2.565930975193595268e-03
2.001601687267374509e-03
5.436153425521161701e-03
5.017728161739840216e-03
6.001394098417308330e-03
9.291956925462311473e-03
8.349963556486997285e-03
6.306874273549030289e-03
3.609593616466943815e-03
-1.742820461265722843e-04
-1.380115550663758633e-03
-6.328262154958684202e-03
-7.189212175186311150e-03
9.403418780913101955e-04
1.943739200562312518e-03
1.718391336828906232e-03
1.355993665510421727e-03
-1.804987902512976547e-03
-1.853053143038100366e-03
-2.047276977635829193e-02
-3.549567821921239402e-02
-1.294865283413111808e-02
2.622963046019519216e-03
-1.966204785007730303e-03
3.234571289707160492e-03
9.059105128866706824e-03
6.926527757580997965e-03
3.159515795333221484e-03
-1.762608173721609073e-03
-4.016000996811542635e-03
1.685940520583065292e-03
6.602873827493810008e-03
3.524769114219992484e-03
2.572470431479166510e-03
1.601845558740487433e-03
-1.875148763826620969e-03
6.665191975341379924e-04
3.810440167192783497e-03
7.019415343990231468e-03
9.916535266262644505e-03
6.841090674157740241e-03
3.637938171477509124e-03
-1.060190674587103976e-03
-6.602541242511575023e-03
-5.710334507034952288e-03
-1.357702717224938639e-03
3.219361555063895031e-03
4.661908200941052190e-03
2.301516555682382899e-03
-2.410613126116555819e-03
-8.330179202129851107e-03
-6.841042425899973578e-03
-1.479178500247337524e-03
-2.877088874321614975e-03
-4.371577621335815018e-03
-1.494926555445477961e-03
4.623159652052889930e-04
1.394620748742612893e-03
2.293760845313609631e-03
4.513809359270515818e-03
6.620122708019473765e-03
6.488014642580413639e-04
-5.747705802211621438e-03
-3.582350455886640275e-03
-5.299120946000985925e-03
-8.812652361358993755e-03
-2.762065377311234953e-03
4.327359288149418629e-03
4.536466996039339832e-03
2.603543938329930946e-03
7.036353776162756861e-03
8.732246330558395692e-03
7.671946790884820759e-04
1.398315020596486340e-03
4.352493904786765289e-03
-5.449133498527362505e-04
-1.080953765185918726e-04
-3.899957703778211826e-03
-9.370911935188269704e-03
-2.610150693647834367e-03
2.583024140846330321e-04
-1.360166341706539692e-03
-1.399140113369945699e-03
-6.389236334761694454e-03
-7.537656934826005017e-03
-2.659134237465518667e-03
2.972459926676101084e-03
9.125612889299947877e-03
7.042164767677982010e-03
-3.804934974639356360e-04
-2.211701528381119185e-03
-2.388841915490510712e-03
-2.201524930403985360e-04
4.352486096645435606e-03
1.142054813832811891e-03
-1.793274936853542527e-03
2.916504934881664155e-03
3.559435700436638494e-03
4.298009505791106251e-03
9.830264056049985849e-03
8.188626423069523055e-03
1.466986939268221995e-03
-3.354015601007321722e-03
-6.806435003445168198e-03
-6.327476378268256409e-03
-1.977926162771506853e-03
1.642782424194423260e-03
3.872239639666874133e-04
-1.587333859154128500e-03
-9.306751995746617582e-04
-4.068191573247906256e-03
-6.302393845867378629e-03
-1.367873293632993273e-03
2.258304966581514087e-03
-1.623713762543124283e-03
-1.002790007880201457e-02
-1.455673384803075378e-02
-1.409627883476390758e-02
-8.048060927646061638e-03
8.264551858351955674e-03
1.632412785712687719e-02
6.885621257694046413e-03
2.688353954049596366e-03
6.594893081531933224e-03
6.954437607803227832e-03
5.391999952958443677e-03
5.544903821422108615e-03
8.762123672494277413e-03
6.229616460780925020e-03
-6.189244951131938829e-03
-1.205347114123390267e-02
-6.412595795455010121e-03
-4.463685640374531836e-04
1.754558960129376640e-03
8.599366469326785983e-04
1.355339209351936070e-03
3.938174506469690854e-03
3.430392849473197503e-03
4.289336983662351589e-03
4.984291157206109310e-03
-1.149034020059470310e-03
-4.365732775679542071e-03
-4.333040824936452290e-03
-9.704578807259693282e-03
-1.082384099990810720e-02
-2.881204122227636055e-03
4.445889448778272100e-03
6.460369450086080913e-03
3.568120324347129595e-03
-1.451720071050842820e-03
-4.760118706083546480e-03
-3.244823888860850786e-03
1.891967139368940041e-03
3.815669965827096517e-03
2.690040212286688107e-03
2.896503412064934616e-03
2.275277947436946200e-03
1.608093139951451795e-03
2.070092759989475804e-03
1.955995140842914349e-04
-1.438758710749232089e-03
-2.584423555657335003e-03
-5.088601601831622620e-03
-2.998277797486380465e-03
5.198553440353598275e-04
1.319650095229867948e-03
5.507045325227361010e-03
5.855700100906901032e-03
-5.098030555424718294e-03
-1.370461278829561771e-02
-1.113697437078592020e-02
-7.548201105503057722e-03
-7.809706109169398808e-03
-1.420867912301305167e-03
1.152579467682891476e-02
1.602684389843250443e-02
7.636849198760871718e-03
-2.319320751458795512e-03
-3.073847345988088651e-03
2.127901342051714828e-03
6.022959767264602152e-03
4.887959268500610514e-03
-1.386211866208617244e-03
-4.235804863470551268e-03
-1.091099820815261351e-03
5.322251545774013722e-03
1.077508079107128078e-02
7.185639213021333821e-03
2.397480810405465401e-03
-1.213400005422250651e-04
-4.702157505733099707e-03
-3.829199684027017464e-03
-3.084483236523875849e-03
-3.624319668355429139e-03
-1.058952413262117826e-03
-3.134696114380089785e-03
-2.350037482990443780e-03
-5.288994641325204952e-04
-1.962755495604509744e-03
3.631752883186008078e-03
4.335878852764736904e-03
-1.002787233282305792e-03
-3.375983688287829011e-03
-8.715751447587814782e-03
-7.076907498068375942e-03
4.334872575101965755e-06
1.585840946204011229e-03
4.898089400138297064e-03
5.477911226075402561e-03
-1.122508924482258251e-04
-4.845596671143745371e-03
-6.648740887409723167e-03
-2.034448648537926820e-03
4.462874648008844855e-03
4.928885328012323069e-03
3.682628447277732503e-03
4.127554199733604080e-03
1.464221844604148481e-03
-3.588850421205480742e-04
5.315149399702148031e-03
9.077641268786372508e-03
5.317333071351036666e-03
-6.621605364224640924e-03
-2.017729927383421842e-02
-1.417711681671731533e-02
9.640242063607796586e-04
3.767845973988029253e-03
2.669564459574167055e-03
1.650187658777027295e-03
-2.086296033028990204e-03
-5.563002359677167441e-03
-2.629983996096366648e-03
3.654137391886298162e-03
4.288737831795791898e-03
6.869315533277231371e-03
6.855000448908850179e-03
-4.316935844472523961e-04
-3.308030289131277078e-03
-3.669251419155628285e-03
1.326531297349390270e-03
4.391546357403213439e-03
-1.450638494526984004e-03
-3.444291580085432312e-03
-9.597883328862470004e-03
-9.698039501002359702e-03
5.284231610740355335e-03
1.102593691946944683e-02
1.086372974355580105e-02
1.054216269612367855e-02
8.280053853350542031e-03
4.731614702818007223e-03
-2.041084841191709038e-03
-6.645377500698409655e-04
1.200640735945095010e-03
2.808396360805095766e-03
1.303333002302652695e-03
-1.829624375101536818e-02
-1.997255821798769870e-02
1.053443661944097670e-03
1.112493883249655001e-02
9.562927749082503204e-03
2.288316247678813531e-03
3.101085995523041559e-03
-6.805269591534296447e-03
-2.835890050698355869e-02
-1.624205198960504762e-02
6.362261547879042613e-03
1.417045775048360497e-02
1.414546259700735775e-02
3.047926581076698324e-03
-4.409462743690308398e-03
-4.063407857532266333e-03
4.966927947940223166e-03
-3.955104371064208091e-03
-3.229546010533331651e-02
-1.541063639824565533e-02
9.491039432589422342e-03
6.493446928540802564e-04
4.408433869656780413e-03
9.835514273547618647e-03
1.103387474705147010e-02
1.439240592837766515e-02
4.212884482822608356e-03
1.623967012821970893e-04
1.031182757293109766e-04
-1.418698748343321910e-03
2.876194286194537139e-03
3.861757474046281346e-03
6.738933677825533451e-03
2.575920103089515863e-03
-8.241553602067073700e-03
-5.969575761746834415e-03
2.681297420534299339e-05
5.410298025257997967e-03
9.907868371846401123e-03
5.397645291224970748e-03
-3.659015250903844413e-03
-1.024489202055781263e-02
-7.549217007709137575e-03
9.860092466507527041e-04
5.392623435876905784e-03
3.688386262985127693e-03
-3.081277008428636582e-03
-8.483484055813984848e-03
-7.787691474514088844e-03
-2.410070324269278363e-03
4.034986074025271111e-03
5.671763495496813523e-03
2.244692873096281859e-03
-2.465643426920253057e-03
-8.129465566791067854e-03
-1.116209027877828990e-02
-5.638347192684385958e-03
9.405806346538244994e-04
2.148857046378200870e-03
3.944436575258173511e-03
3.383109218326805882e-03
1.219075381814139786e-03
5.655541936082354032e-03
1.022057258927633501e-02
5.863273054204564891e-03
-3.761970258553768570e-03
-6.454536994406646737e-03
-4.239027893414009686e-03
-6.103063582270939515e-03
-4.119290081840635241e-03
1.488014708708284076e-03
5.358099429592843785e-03
8.158689055111179728e-03
5.201831636256848933e-03
7.882017398112979275e-04
-2.143047476149277045e-03
-3.962441206606577039e-03
7.273684752105568513e-05
2.680633613407430293e-03
1.259052812432131423e-03
1.503902586817078973e-03
3.135008662034637506e-04
-3.631521342921611214e-03
-4.691789574891796523e-03
-8.330135547440093704e-04
2.089142966347104328e-03
3.876539313878263251e-03
3.911027271548511187e-03
-6.982670441687136367e-04
-2.089447223315667960e-03
-2.800592003520170018e-03
-1.934483717384131128e-03
4.697517664701388561e-03
1.104473985751675078e-03
-4.291439431112959758e-03
-1.010193067875721261e-03
-1.053452034971072123e-03
2.080745526864048647e-03
3.486250348090530991e-03
-1.627466034005539642e-03
-4.845869537985417327e-04
-1.361668835557400519e-03
-3.637244820290332602e-03
2.527416552048614064e-04
3.718049195344391017e-03
4.809949356600005596e-03
-1.363683914485864937e-03
-8.140419214740433201e-03
-4.652463866291815103e-03
7.542042749768422582e-04
3.087007288320398925e-03
2.955998663923865150e-03
2.294077284396033901e-03
1.714638692607704795e-03
-2.033093290136308347e-03
-3.626533020997092880e-03
-1.815472374856719065e-03
-1.510769480512752982e-03
-1.137268882911784355e-03
-6.112903110691660959e-04
-1.322887611137167207e-04
2.345614580148882699e-03
4.565916326308130414e-03
5.964608208769687885e-03
8.206101160406202577e-03
4.424327973576504605e-03
-3.057096015811059091e-03
-1.293980196964998695e-03
8.948326482101964297e-05
-2.431780069498843018e-03
2.252300818875378145e-03
3.636854830538569470e-03
6.593462726628231997e-04
-1.128335697162906022e-03
-6.132691958554934222e-03
-5.100707087333596415e-03
-3.928997134768013417e-04
8.987324331289316603e-04
2.365785228457595746e-03
-5.531657122174839843e-04
-2.950662585988551682e-03
-2.496220244846615154e-03
-2.439221757512554083e-03
2.827531404653475539e-03
4.883906996129664356e-03
-1.493022723461455556e-03
-8.872064924872035546e-03
-1.204293255059301314e-02
-6.495558477483075882e-03
5.366148429357343787e-04
3.551783606158955258e-03
4.662413743460646146e-03
1.150084528800862475e-03
-2.970510165666403329e-03
-2.536778729937133256e-03
-5.574796095414439505e-04
1.544987742406961156e-04
3.171240229872865617e-03
9.879471684132699189e-03
1.225498957814484882e-02
8.248674844663420047e-03
1.888821448347273967e-03
-1.961120701461589125e-03
4.682435893600240227e-04
4.046269031497152883e-03
3.052022683076011707e-03
-4.389268828577508677e-03
-7.135782445467414060e-03
-2.164986238113650145e-03
-3.541222131327238700e-03
2.078133959416776731e-03
1.212264517228927793e-02
5.184765617703918431e-03
-1.787051662472463175e-03
-3.294820767133087476e-03
-1.502785598653582407e-03
2.221610101505907143e-03
-2.923791454739883789e-04
6.356158688853830521e-03
-1.554516235103789445e-03
-2.697728251607378960e-02
-1.601981095786981710e-02
2.959682266234275883e-03
3.231464030827386515e-03
1.089508043003733009e-02
9.779776792059139204e-03
-8.185797778745005412e-04
-6.468702227701162398e-03
-8.550832283191070818e-03
-4.681330015021285471e-03
-2.849218148700018594e-03
2.948225834281474698e-03
7.779157426311917277e-03
1.470556322069506297e-04
-1.297101150935771200e-03
-2.575081333731091705e-03
-7.880994792801770954e-03
-7.185740567961977718e-04
5.484599294892290866e-03
2.049659853099286208e-03
-2.772281266237410727e-03
-4.940879249849299687e-03
-2.615893657491435639e-03
1.110002557956578850e-03
6.464109329177884604e-03
9.990332192166651720e-03
7.671112205400090062e-03
2.522230605891582003e-03
-1.035646807829599747e-03
1.261039501382459028e-03
2.869187619738309755e-03
5.175437749873428722e-03
9.305028723237539212e-03
2.758329987936518086e-03
-3.689143204340609300e-06
5.249536072939640398e-03
1.601513992644276177e-03
7.496851315426087715e-04
1.621177783900859710e-03
-5.787798453772693280e-03
-9.226012580472932323e-03
-5.224536910482160262e-03
-5.227046490229033749e-04
-1.268219227525729060e-03
9.361098890408606427e-04
5.336498733854969263e-03
-2.327798648710961097e-03
-5.027020338086250935e-03
-5.382741583618857149e-03
-1.099229514730091367e-02
-1.593732187880142048e-03
-3.695371815893209143e-03
-1.839349363114498731e-02
-9.905999690201783281e-03
-1.262143024808821956e-03
1.948273204915986292e-04
4.972787765326935720e-03
2.237354417548499241e-03
3.563323441390467763e-03
8.981857687565722448e-03
8.984873926399317492e-03
6.813832721825578177e-03
2.370250824325758222e-03
1.874608365496748365e-03
8.939253496771994720e-04
-1.124639701672395728e-03
4.043094657374985725e-03
4.069389046823821375e-03
-9.077760575955924702e-04
-1.908231979767473945e-04
1.477276223237431818e-03
2.157043574499109290e-03
2.901072970543297404e-03
2.125016422863157221e-03
-2.483419824360707465e-03
-6.809702092613194833e-03
-5.746970166824493138e-03
-5.437816209448835710e-03
-2.545137970574735432e-03
5.198107332812275556e-03
5.701812776949507014e-03
1.047150756854143975e-03
-3.072010099803439837e-03
-1.620777852510646390e-03
7.641690074581517639e-03
5.956208192048884770e-03
-2.573065191871530197e-04
3.677461786271665756e-03
-2.523995411989924179e-03
-9.733339182464554457e-03
-2.215933051653098257e-03
2.228687773049471254e-03
5.208035596960238801e-03
6.351360592317509615e-03
9.320463094438226305e-04
-1.406560547474121434e-03
-2.155780264151500956e-03
5.776740421646981913e-03
7.299543428664318802e-03
-1.857549354747497355e-02
-2.832673819062948156e-02
-9.148824684130757098e-03
1.480172474579040430e-03
7.011230811236074216e-03
1.211760884741802137e-02
8.122687406697285187e-03
1.377707309954408861e-03
-5.708710207588118223e-03
-7.828076996677209298e-03
-2.864485103004562293e-03
6.922905966281045877e-04
3.091837470480617196e-03
7.922728395278412841e-03
1.158901067995675785e-02
7.058543477891623431e-03
-1.148360484776129791e-03
-2.278308276530103659e-03
-2.976770286702193347e-03
-4.652189358658228267e-03
2.005965108650061782e-03
7.310138600713093730e-03
5.700712420629570377e-03
1.193767235993362314e-03
-6.504372980954979157e-03
-6.812663190226350349e-03
-1.122962353589387723e-03
1.766162916093623860e-03
3.977220699860436158e-03
-2.370728277481886324e-03
-9.003890090525299567e-03
-4.632345877761347500e-03
-1.088635021527820882e-03
5.090113174239210142e-03
9.242938173479516364e-03
3.600731937244604978e-04
-4.714313139967800728e-03
-2.993138819987584565e-03
-2.866466925306568152e-03
6.807080503508140422e-04
6.538444871408438490e-03
5.527088633113194129e-03
-1.326269638226362096e-03
-3.202662873111969660e-03
-1.894297117601784729e-03
1.128850279342185920e-03
6.754314256426264748e-03
3.812396399244307333e-03
-1.800432330457297191e-03
-3.999512290951243339e-03
-6.572254266524342123e-03
-3.240941853897697563e-03
7.351160541957882247e-04
4.347986225301699904e-03
6.331088129164033976e-03
-1.759245595471051584e-03
-4.725857457726304750e-03
-2.334342538273548231e-03
-2.422797895792392492e-03
3.011208800240549634e-03
2.674674077939852204e-03
-1.348231166468786104e-03
2.981114306210927260e-03
1.435361614340698337e-03
-4.523440834668972059e-03
-2.341545014040491424e-03
-1.233335969607366519e-03
-5.303572763163013140e-03
-2.569636478529239380e-03
3.534711821045968903e-03
1.420551948618759431e-03
7.052085740086147568e-04
5.096897351759184687e-03
4.990683633178642428e-03
2.013057605079745377e-03
-3.769564571101967788e-03
-9.141997564760744044e-03
-4.691569595531493511e-03
1.097849305194091921e-03
2.362865428813893320e-04
3.554621221970409497e-03
8.605766224340966747e-03
3.074826509208670577e-03
4.659017331815388206e-05
4.829498969617110338e-03
3.167400643143615524e-03
1.482811570274883417e-03
1.581890688814530880e-03
-2.317363221439440370e-03
-4.214706114690478823e-03
-7.391876385216932487e-03
-5.701980683047924367e-03
1.762444710130684888e-03
1.426293363902561865e-03
1.210399590583086799e-03
2.146364236913253336e-04
-2.046017107429613617e-03
4.124539975929895040e-03
7.460040821499195306e-03
6.502655617958091362e-03
-5.457510367455532634e-03
-2.409056998741493372e-02
-1.335878399343795771e-02
5.040445839824068963e-03
4.097902026231708267e-03
6.759774969527719037e-03
7.936948737249463828e-03
3.183761806918015708e-03
2.062797422099909607e-03
-1.950963961980452547e-04
-2.035423924832908732e-04
-3.241026921410722610e-04
9.079854184929115907e-04
6.495340873761058786e-03
2.222537195282523782e-03
-6.590959846928204184e-03
-6.128365316285227377e-03
-1.761292691532930117e-03
-2.084779694714472727e-03
-4.549191369556105508e-03
-1.205394824148772271e-03
1.705573517361088590e-03
-1.244585416559118888e-03
-3.558511116309684419e-03
-4.922656417293761041e-04
8.041592349532588821e-03
1.161222719987774384e-02
7.304138123589488420e-03
2.998048631674138896e-03
-2.294916708089342079e-03
-4.935183574729535769e-03
-7.855057921744241839e-04
4.026747042483618845e-03
5.075131295172444733e-03
3.230180581366367838e-03
-7.580992470398905314e-04
-8.199367532152926699e-03
-9.579617604928083660e-03
-1.771779636346394867e-03
3.599874344754652429e-04
-8.618338800109626467e-04
1.673327510110376093e-03
5.547809142206563699e-04
-5.755933303775658677e-03
-8.939630547299333083e-03
-1.506107031498614282e-03
4.408475863533314540e-03
-7.388429162137236756e-04
-2.385698841256185705e-03
-9.606633906994808524e-04
-4.849787631021262521e-03
-3.697212864654205941e-03
4.738709836663875137e-03
9.484547038480950487e-03
8.951920989209435214e-03
5.761472166794555719e-03
-3.883353784134283742e-04
-2.096723069464263324e-03
2.490488495721380514e-03
6.830486100908379939e-03
8.390741483230322248e-03
1.716029364737627462e-03
-4.550711912099346390e-03
-4.757084610418492628e-03
-9.456125069933972796e-03
-6.466981570031695575e-03
3.785592844197141829e-03
3.864301050612025095e-03
-1.117689300478561572e-03
-1.099476265348501083e-02
-1.458167933736763573e-02
-2.768192796512218209e-03
2.824125469363868331e-03
5.745836847280278749e-03
1.210371780040638348e-02
7.254149307820533486e-03
8.243310159651352255e-04
5.658049372880019244e-04
-1.171501435657273417e-03
-7.632635802323407175e-04
4.736934325525065173e-03
7.369703900109270990e-03
3.951012806709208389e-03
1.761378125779904146e-03
4.052191121920420717e-04
-2.710838872254226449e-03
-5.807024770460334244e-04
3.980977938443736042e-03
3.118047980349208156e-03
-7.960390739432076897e-04
-3.922284703872691743e-03
-4.177256700219674629e-03
-2.537882890775666755e-03
-1.624036989877867968e-03
-1.222792859021061855e-03
-2.477437417584299906e-03
-5.057032594930348408e-03
-7.046389584861757240e-03
-1.100589348367102781e-02
-1.372115316586847503e-02
-6.950142933323325174e-03
5.253589146376878849e-03
1.227728167518401040e-02
1.147771686919561544e-02
9.204476752875704118e-03
9.901514038986062791e-03
8.802272237752756592e-03
4.773147377447983612e-03
1.205123382253022206e-03
-3.248746667295816966e-03
-7.019141282525019447e-03
-6.181906473823507372e-03
-3.730427304353168237e-03
-2.202670942729376656e-03
1.302603652779533820e-03
2.398234086513862870e-03
-2.636178111726827748e-03
-4.324748054130669352e-03
-1.139521998865323463e-03
2.881048686547635785e-03
8.550453842887719216e-03
9.290543979406607963e-03
6.139493990050189608e-03
4.935455342486741274e-03
2.494701591732941936e-03
1.613282888783794129e-03
1.591275684632866092e-03
-1.875368689709938121e-03
-3.637049349270078842e-03
-2.828780958593017821e-03
-3.331521295160972534e-03
-3.448872168957202791e-03
1.718522560416422141e-03
9.427477276125416014e-03
1.308758887607062819e-02
1.307099115647496548e-02
9.952335714895153146e-03
7.707456496260769140e-03
5.027852479925738229e-03
-1.279203452636198945e-03
4.358966539640023782e-04
3.361202003274473341e-03
-2.232903402013454702e-03
-1.777263059463981328e-03
-1.479531215645374896e-03
-8.935180595703912446e-03
-1.177136688967500046e-02
-1.435581152466033211e-02
-2.055651803328862118e-02
-2.327197727238182814e-02
-1.947270542307293420e-02
-5.325922662995704639e-03
9.491432139511511018e-03
1.074563679550870517e-02
4.355721812986238992e-03
-3.205371416463286861e-03
-9.817999141061002286e-03
-1.076778475052604309e-02
-8.617097759791981712e-03
-5.147508615977668470e-03
-2.100987053615650021e-03
-6.521248524410905648e-03
-1.782017762916505293e-02
-2.593620025244900221e-02
-2.573879252832518560e-02
-1.986197904535469752e-02
-2.586240488240256451e-03
2.107887688971496823e-02
3.018116349557512651e-02
2.163857325085629876e-02
6.585156525593191361e-03
1.559435449898785228e-02
5.241076681580792568e-02
6.779631008608501264e-02
5.627329869834779563e-02
3.594432544305481425e-02
1.143132891757666150e-02
4.120063047275072075e-03
2.503978090763343475e-03
-8.868949448532333774e-03
-1.446165468790545743e-02
-8.724436136412841436e-03
-2.776974378590224470e-03
-1.677696158607513977e-02
-3.638478528364928744e-02
-1.343577889608081263e-02
4.281597352695120512e-02
5.395383363758296524e-02
1.449992904564872953e-02
-1.315646314817252652e-02
-5.504035934697254495e-02
-9.761342171836887016e-02
-6.534840967637804698e-02
-9.622406910324671561e-03
-2.736085744826177377e-03
-5.861194994782299023e-02
-1.281726664220528000e-01
-1.129604622861933166e-01
-1.470232629648496846e-02
6.058281969073005258e-02
1.822373614374040579e-02
-3.597167785286001923e-02
2.168653169221828464e-02
4.795945565732797483e-02
3.290200987074121813e-02
7.833465371483104567e-02
7.179060186764525675e-02
1.031270116626706312e-02
-1.941625042607181230e-03
5.776988098140028484e-03
2.819045858990169504e-02
8.659194101877584759e-02
3.763913506705537926e-02
-8.168759555340820988e-02
3.646402478368219319e-02
1.911624942346070721e-01
1.489452949460016995e-01
2.071180218863844791e-01
2.398274337797116629e-01
8.986702303556722005e-02
5.802924902088921894e-03
-1.020760274748299390e-01
-2.825153316445985219e-01
-3.899438978828065894e-01
-3.566882087717371252e-01
-1.667548579831389932e-01
-1.903873214252640653e-02
4.671044183225147445e-02
7.117707067575214375e-02
3.837163599297774286e-02
1.339027073489369446e-01
2.143534610686602671e-01
8.044646081024943440e-02
-8.101808594750184445e-02
-2.417886108130684331e-01
-4.062828181641071068e-01
-4.616609047792686882e-01
-3.276468532720779314e-01
4.962198148472576897e-02
4.296217842631798733e-01
4.981050331386209784e-01
3.346135600995781556e-01
1.813936424428509997e-01
9.724605251424413288e-02
5.498899804919129414e-02
5.030477038586422811e-02
7.185867295715878122e-02
1.125241977340792204e-01
9.423022129341761255e-02
4.496506656112154998e-03
-4.711606060042243527e-02
-4.161892626900631081e-02
-1.047498343204505966e-02
-7.353696012093137446e-02
-1.998484983191547992e-01
-1.873604288301636833e-01
-1.548483707274855847e-01
-6.030612182174793084e-02
1.630298378871768983e-01
1.132495015100700025e-01
-9.020216120164631368e-02
-8.995370528375878916e-02
-5.592093870057444904e-02
-4.648460915080457334e-02
-9.334089672820236605e-02
-1.626481209961853081e-01
2.564774183214680800e-02
2.046954295238799793e-01
2.116329746668462602e-02
-1.590790651570449799e-01
-7.507698940167040202e-02
7.149959827585934680e-02
1.450008557565655720e-01
1.139422936821745946e-01
6.586279890718382823e-02
1.119309993731304881e-01
1.274685632268213464e-01
5.799906696292335406e-02
5.476326785524299363e-03
-2.441740469198512217e-02
-5.386788609195155425e-02
-9.263618382025737286e-02
-7.552958208922291861e-02
1.275676951834712504e-02
2.119868214480946644e-02
-3.221877271856418007e-02
-4.772400741909818556e-02
-4.841795772838306672e-02
-2.642615423651607787e-02
8.611094600707974375e-03
2.054426976575440128e-02
4.223805145689728258e-03
-1.729005830193445711e-02
-3.800413432084718407e-02
-6.833067856816288366e-02
-2.785639678294237961e-03
1.300343763723040003e-01
1.403746195309217570e-01
6.513416273520829247e-02
6.824701265745605067e-03
-2.024864713328663676e-02
-1.873401093128430547e-02
-3.464181948786022869e-02
-7.844918679025339459e-02
-1.137689540817431871e-01
-3.371568833981919422e-02
1.219314029933700610e-01
1.160780244574311504e-01
1.550840104788054480e-02
-1.200407113541209804e-02
-2.622929438606786193e-02
-3.936402828956432620e-02
-6.116014312410181231e-02
-7.023925400605500469e-02
8.127390397607686320e-03
7.183094430429605437e-02
5.268691544531318299e-02
1.937743784231178712e-02
-8.152165245598886126e-03
-2.521359253103282877e-02
-3.063466353085298605e-02
-3.703703628263208675e-02
-3.036148760434322774e-02
-9.655216271458905153e-03
6.413254027934744538e-04
1.000329052353370919e-02
3.383761684594211588e-02
4.051710561386747539e-02
2.911329781907801006e-02
2.158369468684028999e-02
1.006260184362222851e-02
2.994191930874729943e-03
-2.721414716915449439e-03
-1.054758603073911206e-02
-8.708480768599027519e-03
-1.347179818218898796e-02
-1.811251942431345643e-02
-1.091597639631772601e-02
-6.284673797098675428e-03
-3.581346100126236737e-03
-3.896360152857951745e-03
-3.783814741292865561e-03
-1.691244817869918008e-03
-6.196396898099091471e-03
-6.084525488328364207e-03
2.103103336428509447e-03
7.806602443553937662e-03
9.288307341557158411e-03
8.310532284716416057e-03
3.407046744843562642e-03
-4.444748927364002532e-03
-2.334978432099352099e-03
5.284652073107677824e-03
5.319356931488812210e-03
5.837634075455095696e-03
5.167071866401817988e-03
-3.518703996469065010e-03
-1.133815682506192704e-02
-1.071115160517970011e-02
-7.569322942842531335e-03
-6.079354276168826877e-03
2.032056076285107104e-03
9.950361135802313420e-03
7.379104004706016004e-03
2.618838958827517452e-03
6.327530592491345529e-03
1.919196167858509827e-02
1.646883466782227134e-02
-5.820055161486220423e-03
-1.740438474432907251e-02
-1.876262844194480015e-02
-1.512087857219449223e-02
-2.862862534536040303e-03
3.914047107601916452e-03
5.685074745129025352e-03
7.910687946387781957e-03
4.014023051929401995e-03
-2.321463804742925682e-03
-2.447461791898085468e-03
9.835278385680588410e-04
4.362588395034329609e-03
1.055317529664846939e-02
1.266160971333497517e-02
1.305120980880132391e-02
2.016478697375984064e-02
2.030493803411464668e-02
1.078804243875399436e-02
3.704806191294496569e-04
-9.138930759848491389e-03
-1.558790853687734915e-02
-2.078675358615702726e-02
-1.710788970786846289e-02
-7.588351423641006947e-03
-6.842580061442980928e-03
-5.255836781541357514e-03
-1.444375314216962908e-03
-1.991447237803139082e-03
9.468398142856592923e-04
4.310050080954931292e-03
3.957271335802515187e-03
8.718044347782567816e-03
2.173799622381494823e-02
2.514728759514482312e-02
7.602072294726924806e-03
-1.272423710202136467e-02
-2.539839309888061725e-02
-2.732979615825829531e-02
-1.337090693320892691e-02
-6.022248732680919418e-03
-1.801836835845513352e-02
-2.169092520547219807e-02
-2.697594081198638732e-03
1.985917583352558510e-02
2.746280679421751747e-02
2.237413361876180659e-02
1.930596573282587422e-02
1.806174431089905066e-02
1.257578678704146177e-02
9.380946119634152661e-03
-1.081500720875036093e-03
-1.755774918772271681e-02
-1.586992559777862175e-02
-7.828242919488038673e-03
-5.176645769911470199e-03
-2.103779973037126633e-03
-2.722661938948019514e-03
3.728925963853846250e-03
1.440353904769249918e-02
1.699997050111356003e-02
1.158503205418438473e-02
1.942954276301884033e-04
1.218536714158616240e-03
4.045384948004997379e-03
7.259130254815667404e-04
6.711245382255873887e-03
-9.221325637711295931e-03
-3.065814985251468644e-02
-1.731814732623726538e-02
-9.646745996942629117e-03
-1.255933320212088838e-02
-5.684334202742553736e-03
-5.464650083068416445e-03
-5.596925947918354911e-03
-2.041491694434504137e-03
-2.404423700496201560e-03
-1.848121856523753819e-04
9.163000588889717510e-03
2.142699313454718771e-02
2.558419515322123833e-02
2.219840719964415177e-02
1.687290615232078100e-02
5.894649235165539021e-03
-4.480442126933137890e-03
-5.475434420882486358e-03
-1.754388624068432953e-03
-1.398157606651193171e-03
-6.282714411310520372e-03
-7.731696580183805220e-03
8.805165629049408913e-04
7.661373889034552541e-03
6.442430793369762106e-03
4.277308450649073245e-03
-4.375909766056198494e-04
-2.901808985860014688e-04
3.886081832704744131e-03
-2.405777182803607757e-03
-4.399164021977416093e-03
-3.295081696516841433e-04
-4.501319155554236312e-03
-9.637054229933281549e-03
-1.720439093121525764e-02
-2.163015258337798799e-02
-1.571623196649953383e-02
-1.012485511303884943e-02
-1.950255421830413179e-03
7.911364171321304956e-03
1.182547321065360174e-02
9.039248368031667369e-03
9.123357700601003335e-04
1.155991198664403597e-03
1.278471851382662582e-02
1.818338933073683494e-02
9.028766451742215385e-03
-2.120282016212025455e-03
-1.150602824287776278e-02
-2.366749515730833670e-02
-1.913252600541653220e-02
-1.736363387755746014e-03
8.372745092509261550e-03
1.781980330379976524e-02
1.599850604144897534e-02
7.091552973089540468e-03
9.445639205255781587e-03
8.593510256976199385e-03
5.073260912251397262e-03
-1.352112834132127830e-04
-9.004335128487037446e-03
-5.927567281054904949e-03
1.237233382579788071e-03
5.322722170565234029e-03
7.445837919667818751e-03
5.154955238336479152e-03
4.186410576190438895e-03
-8.587969359371702899e-05
-5.260930675540337678e-03
-6.081191951383091779e-03
-4.024461167140882742e-03
3.015165056443968629e-03
-1.372754996634255060e-03
-1.265277665328163291e-02
-1.259510929966417385e-02
-1.534433362302184412e-02
-1.505374560641731772e-02
-5.475264223398001139e-03
-2.225784718980848131e-03
-1.354106413011460638e-03
-6.806238461691712684e-03
-1.375436169535499721e-02
-6.918870577747767737e-03
-2.689600562247498015e-03
-1.085604954540732260e-03
5.104099269437833118e-03
4.913809598731342168e-03
1.168356768659249874e-02
2.567842224645726368e-02
2.364628335234946616e-02
1.100633502440629373e-02
5.558321123263041015e-03
6.391330142394784086e-03
2.052659646188146150e-04
-6.190863631372165929e-03
-5.369296400245670989e-04
1.831969217574266895e-03
9.663572643725268450e-04
6.711642465346926226e-03
6.237614878850523438e-03
-3.937151908148330036e-04
-3.663463864341378468e-03
-3.324566461164938855e-03
-1.243892294513678550e-03
-1.626625499324997615e-03
-8.007816914306848180e-03
-1.813069014444508228e-02
-2.207425466367338510e-02
-2.732889362218187193e-02
-3.669485784528979389e-02
-2.108360810769821514e-02
7.902736234247894134e-03
2.123291583420190004e-02
3.078132333380721730e-02
3.117044622196703946e-02
1.710058596113324392e-02
8.439236665233188980e-03
5.109000638197053190e-03
-5.045691867096906364e-04
-7.907662221028110075e-03
-1.057629021269442492e-02
-4.574492942833413220e-03
-9.929481102280020809e-04
-8.915316670335179244e-04
1.542894171134977666e-03
2.013676503665740025e-03
8.406734977308552353e-04
-9.228154777774074877e-05
-1.575221438967111705e-03
-3.216661433629927104e-03
-3.835882588169025730e-03
-2.440428204308596645e-03
-4.341603844013003019e-03
-6.856800586559566243e-03
-1.694566839253282969e-03
-1.053259792357531767e-03
-7.551991818694649486e-03
-2.849645106467480708e-03
8.114241504410944772e-03
1.198231364197690531e-02
9.220114732851935127e-03
5.783772048461722874e-04
-4.363378009807917721e-03
-4.022679089377875251e-03
-8.471120500562048794e-03
-7.078352190464529993e-03
2.753238310538363987e-03
5.592480140167315622e-03
5.065718184007294081e-03
4.645602616374054639e-03
1.705797480831296653e-03
4.997925173495633942e-03
8.082940415363079265e-03
1.946050297507167940e-03
-2.254380092454323983e-03
-5.978870709299417656e-03
-1.035572314541657532e-02
-3.528152665109651059e-03
3.237618031798054040e-03
2.026172347744436240e-03
3.372612809903535389e-03
9.811695337628434377e-04
-6.195088258314730353e-03
-4.759595970616845723e-03
8.269921960321863870e-04
1.594778533380783805e-03
2.080537642756560574e-03
2.400774359748951599e-03
-2.870024903948551528e-03
-4.985321688038620892e-03
8.661851032505575197e-04
6.812105601214198591e-04
-4.279488997164581504e-03
-5.021814705474934859e-03
-1.062376541270894023e-02
-1.609990475702148885e-02
-5.093837551850403413e-03
9.550320112107541295e-03
1.145949457224157940e-02
1.066907683673695012e-02
1.029519072860572877e-02
4.251477091764103294e-03
-3.696470205661330183e-04
-3.360544305348965761e-03
-4.682742374120892406e-03
2.160549441309572109e-03
6.307856746461955322e-03
4.650941032926649704e-03
5.633780778966596646e-03
3.148466244121742291e-03
-1.202682887402780872e-03
2.014136154406291710e-03
5.544085183031567145e-03
-2.726520247604182021e-03
-1.568105850976677512e-02
-1.727453477403598572e-02
-1.156286338898309535e-02
-6.838078968327683700e-03
-1.111562990891474742e-03
2.589463425479536333e-03
3.528098692811628724e-03
2.580323890682852811e-03
-1.404441792189203972e-03
-1.651917514782443594e-03
4.454476104867033208e-03
8.885073268763827442e-03
7.289199805093104709e-03
5.240896571774371002e-03
3.700162664776751771e-03
-2.697672111923646917e-03
-5.405924355024479752e-03
2.816745953992145970e-03
1.015231362560100464e-02
6.529313081716240676e-03
-2.613052403541720695e-03
-7.831559936098292721e-03
-1.009603034622579866e-02
-7.453413821022780023e-03
2.325169672391826006e-03
6.458178309177076484e-03
3.828281460327008501e-03
-8.147574081601511502e-05
-7.447271769771113270e-03
-1.153076466771342512e-02
-1.060686259045862632e-02
-7.188723948193384214e-03
-3.395629422760762864e-03
-5.412128746167138918e-03
-7.825590877281856858e-03
-8.431346007068135293e-03
-3.238444317093827369e-03
1.479547696808807510e-02
2.241803709262751160e-02
9.904135800872964843e-03
-5.673595057707688264e-04
-3.975809751968315160e-03
-4.752911792958103981e-03
-1.501932582402754589e-03
5.009691336020570887e-03
8.688519862395494009e-03
5.688260861446726123e-03
2.301652916532856072e-03
-1.656407382027167644e-03
-6.458645700958372780e-03
-3.803849892835050022e-03
3.724562492362486557e-03
7.723812210297842547e-03
4.625721254646230490e-03
-2.517569477101359171e-03
-5.719740622331342776e-03
-3.128779256605903128e-03
1.412019658554916363e-03
3.877023235416279627e-03
-1.195091519967945287e-04
-1.093209936620363407e-02
-1.770563204767014107e-02
-1.411939826884982783e-02
-8.032511217750197205e-03
-1.695211073311553513e-03
3.966959686855426638e-03
5.039003758612667708e-03
2.291172182677177649e-04
-9.268091519937467215e-03
-1.148200956184475957e-02
-6.192840020808569081e-03
5.135224875434071020e-04
1.051849987253630422e-02
9.432095857871419450e-03
3.605329191625736979e-03
7.496999063694025599e-03
3.102968489550717024e-03
-2.602071277692950737e-03
-1.515666854431640931e-04
-4.166480488085571275e-03
-3.480653691747601260e-03
6.271873083748453342e-03
9.656946268190729626e-03
8.612210320725146445e-03
9.797558987100860733e-03
1.176733723734198038e-02
1.208457055024116100e-02
9.062241527655690368e-03
4.321174633980651289e-04
-6.006112327378082191e-03
-1.056471694388631290e-02
-2.509252614231145470e-02
-2.648727056441448416e-02
-6.079594094253873600e-03
1.530776180350251845e-03
-3.159860613697089253e-03
-3.151194682148585838e-03
-2.770164861991605680e-04
3.529411403705047350e-03
5.861670271294267031e-04
-6.344554570162230442e-03
-8.148018768122187311e-03
-7.295591612054641920e-03
-5.383152066216599467e-03
-2.660905876600654779e-03
2.338393697045737778e-03
5.166420748784495906e-03
2.882562566257274115e-03
5.400865891354053420e-03
6.488996200564243512e-03
8.314605589826232213e-04
2.592965974701353510e-03
6.054045514736529528e-03
1.882968464573893516e-03
2.325279608534201736e-03
5.367021115461494130e-03
8.574190307607588470e-04
5.963040389190508994e-04
6.459630048879626968e-03
4.922934552666248173e-03
1.296416059569020828e-03
-6.405667625921262391e-04
-5.766132860831719477e-03
-7.166277198889140811e-03
-1.306563226564172323e-03
4.335997674633142174e-03
-8.047621879388268179e-04
-1.006761673885233667e-02
-6.485497678117156835e-03
-2.213379914063654755e-04
5.322507904644286757e-04
3.594473000667238773e-03
4.563939534903203692e-03
1.121543474300211105e-03
-7.167081734378236667e-03
-1.737600715646901023e-02
-1.530566084012014577e-02
-1.383825979183321000e-03
8.518845821488091677e-03
7.194543886159435186e-03
6.484492377426842938e-03
8.289974403436142433e-03
1.281553351043032696e-03
-3.353212121729173129e-03
-1.769468272539067005e-03
-1.478610872952717701e-03
2.261334993764645487e-03
2.869840662767690360e-03
7.670218142831029687e-04
1.103249092132886112e-03
-2.817008593148737777e-04
3.862972582439913247e-03
6.816335287300289217e-03
-3.223148204870266050e-04
-4.507445163547831209e-03
-2.834854930901670785e-03
-1.007772624485746629e-03
7.210736353444183785e-04
3.233300859028887236e-03
2.250184270520944746e-03
-5.627133537243133969e-03
-1.328243559801817013e-02
-1.724677405451948212e-02
-1.515286014434884775e-02
-9.032833295535657239e-03
-5.155118921385392662e-03
2.915765289813863296e-03
9.621986885846282520e-03
8.046249949733611309e-03
8.671130388455693810e-03
8.156302493610137830e-03
5.507808914612314158e-03
8.795202330234584698e-03
9.058303340697810430e-03
2.984717171396760512e-03
5.800642293771797204e-04
7.426748748471072173e-04
2.996291232746685091e-03
1.001486253268347483e-02
9.897597812688089733e-03
4.296300339768518300e-03
3.115528405138642473e-03
-3.045199559638166707e-03
-8.644702432525495223e-03
-5.577645959100115299e-03
-2.972463171579048987e-03
-3.876003467384268701e-03
-8.583610750237774881e-03
-1.004548237081753781e-02
-9.738205932207286836e-03
-1.048425381351068483e-02
-6.210505142641759360e-03
-1.560920757469491139e-02
-2.428942791123120393e-02
-4.377623605103140095e-03
7.670616899711010447e-03
3.882207670767869566e-03
1.082774036773582853e-02
1.609933060652478723e-02
1.039965834534198330e-02
3.914962556272273166e-03
2.282912048013602865e-03
1.081717652133178239e-03
2.430249664156048728e-04
3.308512618364334128e-03
4.794000158595220808e-03
9.340428418477294062e-03
1.027375193245312797e-02
-2.407501631671922059e-03
-7.523873015190995529e-03
-2.756126699001684027e-03
4.686434581254045610e-04
5.072971241986671057e-03
1.666753552857253452e-03
-5.632299744277791641e-03
-2.755113685969801367e-03
1.859307592065455891e-04
-1.021442426143583043e-05
2.855414433705888173e-03
4.142805628421501090e-04
-7.039053720608546769e-03
-8.836007120553704061e-03
-8.319655766803681768e-03
-8.212081182921727660e-03
-4.386426192921574242e-03
3.827625630772077663e-03
1.427303217527401205e-02
1.611469500093204443e-02
8.634820794259395749e-03
3.130710537935480972e-03
-2.244909202193748517e-03
-8.180999569846482064e-03
-8.795801812244515364e-03
-3.348010222277134854e-03
1.351950028196296843e-03
-2.676030160858840386e-03
-7.429382933101430324e-03
-3.212788034549791689e-03
5.375444912715690408e-03
6.315754144224836747e-03
-3.391217434155742363e-03
-7.917362794889706845e-03
-5.374139654660787385e-03
-3.916097145042435855e-03
3.704447309434599940e-04
4.062364934935548851e-03
4.899290515103568028e-03
3.967139528322859154e-03
3.261824650014948524e-03
3.456821086287668095e-03
-2.393002121650211582e-03
-2.205575772982756345e-03
2.413387537679235247e-03
-3.670661191995605154e-03
-3.121592811136936121e-03
2.159765623002382878e-03
2.906942935148347246e-03
6.661754254290820805e-03
3.356742105461673047e-03
-1.052934156536143150e-03
-8.108834569376315938e-04
-3.752796259093729627e-03
-2.715863717716033958e-03
-2.014326538077930613e-03
-3.137057724082747273e-03
-1.615015420101563372e-03
7.409694335608054891e-04
6.047347843442662726e-03
2.943128860502879605e-03
-2.945648215762390956e-03
3.649193888712575222e-04
-1.218492479944056423e-04
1.421564695759253974e-03
6.698091661904222172e-03
3.523915446871446824e-03
-8.619145756365668163e-04
-3.379613414043067254e-03
-2.391924086903655846e-03
4.744224341050054528e-03
7.795650094721352612e-03
8.424893845146140276e-04
-6.597755730726514306e-03
-5.299241234320112466e-03
-3.613822880422167937e-03
-2.238996455716603818e-03
3.537038471615414417e-03
3.098453731728138295e-03
2.589190090755562505e-05
-1.770185398951145414e-03
-6.757175925368281814e-03
-9.349299772284642637e-03
-1.302812552168792527e-02
-1.307104458429116274e-02
-3.714199133224115826e-03
2.662161526948820752e-04
-2.958069454383368516e-04
1.451879424856304755e-03
3.547688508901628967e-03
7.489792194993382009e-03
9.849404712999679234e-03
8.478995770689232506e-03
4.062864311733053665e-03
5.670413119998731020e-04
2.338409623998948927e-03
3.599578748909689017e-03
3.345759721791257638e-03
3.016849659331529310e-03
2.713065864047437079e-03
4.031157281099847882e-03
7.595925573761160877e-04
-2.843891977622934296e-03
6.496325232683600149e-05
3.817357033494389942e-03
8.530265098331135318e-03
8.561816766428656522e-03
-1.211483074141525562e-03
-1.057678195378077696e-02
-1.195886316056371003e-02
-3.599107720156008005e-03
2.307732649714496018e-03
-3.882631764072413949e-03
-8.697557003454189917e-03
-9.418248658560250328e-03
-1.078047076877570488e-02
-9.036708475951898620e-03
-4.111739758784789013e-03
3.878831971407581663e-03
4.740057355792866300e-03
-1.908824757327134535e-03
3.074034367381917108e-04
4.588965539660650773e-03
5.467416995321525836e-03
7.893972626905229953e-03
7.149788225953591578e-03
6.066615140262670430e-03
2.017351047976534764e-03
-3.349113499330923314e-03
5.157747979177577848e-04
3.931767434642447975e-03
5.663136758551961733e-03
7.527545099789063367e-03
-1.506879383813081120e-04
-7.093337930134945533e-03
-6.208591686474303033e-03
-3.795527468143873422e-03
-1.144023042415087373e-03
1.948703335529970108e-03
6.247959066398424063e-03
4.025445321379763838e-03
-3.500636153435224707e-03
-5.068862430809932366e-03
-6.344202017991949251e-03
-6.178769958070466466e-03
-2.673067812614828617e-03
-5.494362375958318327e-03
-5.332249164949016094e-03
-5.597543370164021793e-04
-5.883130799817241007e-05
4.563884372146257210e-03
8.487319076431496662e-03
6.312894521720110140e-03
5.749445304445014934e-03
9.427290004201639099e-04
-2.211019414520311571e-03
4.312005617342101749e-03
5.566138089792995944e-03
-4.740979733349831799e-05
-4.401749000292292172e-03
-6.943426038309128377e-03
-8.007434886650710223e-03
-1.002844479156278501e-02
-8.768343843216367881e-03
-1.879511388689642263e-03
4.368399667155295658e-03
5.164897824656245959e-03
1.936104880871340403e-03
1.796870544255834085e-03
3.321768642654122309e-03
5.482199851221964543e-03
5.867641699494467386e-03
-1.285795433282312106e-03
-1.985559140916062695e-03
3.294419826282576035e-04
-4.855072539045423956e-03
-2.543177828444413528e-03
3.525338339513463606e-03
8.708789735425484166e-03
1.191725829437797687e-02
6.928188906146105254e-03
4.344406878525056831e-03
-1.905576987789991267e-03
-6.447893013350840946e-03
-3.680968300966728710e-04
1.328803739425811091e-03
6.921202252057587039e-03
1.965214941887159263e-03
-8.889915252950023744e-03
1.576263042737897262e-03
-1.302791301392589550e-02
-3.294641067927284867e-02
-1.188899060069052022e-02
-2.296641869640422048e-03
-2.149740616966892750e-03
6.934192996375064533e-03
3.892657933800764032e-03
6.389065355477267609e-03
1.080988218399362398e-02
6.679196503678546011e-03
1.817554484918753243e-03
-5.245107295402442679e-03
-5.256787679523913445e-03
-3.366606613248694733e-03
-2.428236035726784661e-03
3.050288150949123818e-03
3.187234626926217264e-03
3.977761653319200619e-03
5.761864578835259459e-03
3.152179816332791040e-03
6.451842201132622009e-03
9.410334932594782015e-03
4.109067511697910707e-03
-1.787768567345756872e-03
-4.054262241005204825e-03
-5.576106908611252154e-03
-6.185270278188703501e-03
-1.316444791791588839e-03
2.474311928490225115e-03
-1.034798482655709855e-03
-5.900406369281439162e-03
-8.273864878097650713e-03
-7.563636150527297541e-03
-5.387061995706244298e-03
2.570417060012892982e-05
1.002193437560281765e-02
1.131352284396651073e-02
1.485129159152404543e-03
-1.742810150356932219e-03
1.440715127581040748e-03
2.712376871747244553e-03
8.657411123611921319e-03
9.356948360386058150e-03
-3.501929651502800039e-03
-8.969115851006811621e-03
-4.435827906897912495e-03
-2.464190072621833243e-03
-7.688354270888264836e-04
1.740370096557389019e-03
3.154443736761036125e-03
1.992199339256843591e-03
6.601665904743394620e-04
-9.771899766254053821e-04
-4.913795275856554928e-03
8.130901690564656947e-04
8.282901166850022145e-03
3.523958818828600080e-04
-6.076989358364869552e-03
-5.775740979479289904e-03
-8.854365824744667851e-03
-5.278236447219883908e-03
3.509033334042403057e-03
4.080366016787535972e-03
-1.058444092340394844e-03
-5.703955036422024387e-03
-8.162793019946110520e-03
-5.783356404732482685e-03
8.875047884591296971e-04
7.724449395609439724e-03
1.044064149030115955e-02
7.051975625319222875e-03
-1.454888006642053599e-04
-8.045566001443824750e-03
-9.552202461498985817e-03
5.884667736129885836e-05
9.570027987480463766e-03
9.622191245836327414e-03
3.681717890871381588e-03
-3.877973850723841036e-03
-6.321281668574167158e-03
1.252959237689288928e-03
9.625747619114123285e-03
6.569078216764671213e-03
-1.237558785588519731e-03
-4.320641102438110143e-03
-5.348610509775391340e-03
6.771597160500622201e-04
8.490548752479456021e-03
5.898575175368812006e-03
2.732644923947386700e-03
-6.549326031644403740e-04
-6.723183585059844952e-03
-7.581458167337368041e-03
-8.061474103889449891e-03
-6.090377823727987847e-03
-2.516777612831989138e-03
-3.307284668733270327e-03
2.012309877284495640e-04
1.983203872504492055e-03
1.332566141212696790e-04
5.527292041838425575e-03
7.525105181665108986e-03
4.114525837825456535e-03
2.360921836896844126e-03
-5.030940739780165316e-03
-8.983478317426501353e-03
-8.742471769400977531e-04
1.956413349746494515e-03
-4.723152201295148294e-05
3.853387633580920586e-03
1.600103826516415494e-03
-3.293302552429256975e-03
1.413992085699507153e-03
4.208697884983292337e-03
1.703707770970858603e-03
1.165668448030951010e-03
1.279877140347662973e-03
-1.312346313546240663e-03
-4.585659478359545294e-03
-2.046491212105982626e-03
2.715105825917767113e-03
5.010934328228666343e-03
4.494434284007721263e-03
-3.330629497694928120e-03
-9.808514424070234605e-03
-7.626719917601070334e-03
-4.247278181989140068e-03
-1.092832598282534153e-03
3.887943103654826517e-03
8.649604266183620258e-03
5.904411695883149749e-03
-4.400872248237677926e-03
-9.158407044831949270e-03
-2.619263027508726346e-03
7.571896299332820518e-03
8.585406627030143373e-03
2.018504102993519487e-03
-1.859507025901190741e-03
-6.567256302231054034e-03
-9.243561761629846829e-03
-2.946009399383598543e-03
6.230719825723444495e-03
8.339924223358368555e-03
-1.946373289356012371e-05
-3.852904584764354871e-03
1.076511561465294878e-03
1.458359111291716295e-03
1.732514510828837449e-03
4.703662465085100587e-03
5.165727321112821395e-03
2.570078304181175419e-03
-2.098730111412275712e-03
-4.416117063471967132e-05
2.770310217259939860e-03
-2.172396351575353948e-03
-2.577988776304534352e-03
-1.533292083808053714e-03
-5.112633904757012474e-03
-4.909765752889793007e-03
-4.989109529818725602e-03
-4.376426204581297316e-03
2.708538033160036267e-03
3.940110430166254320e-03
-5.142273339543426084e-04
-4.405769373418231150e-04
-2.707201080302771169e-03
-4.278890904143597268e-03
1.509574800816725505e-03
5.958841550008274479e-03
8.434781481494057001e-03
5.175754938943295802e-03
-5.186494459709941815e-03
-5.953955844235495239e-03
-6.507634700169523910e-04
2.536756885618070452e-04
4.239708386440837681e-03
7.513657528122778990e-03
3.541725518463899759e-03
-3.524878030718070943e-04
-8.902456593875718999e-04
-2.620122008641279001e-03
-3.619940860044950498e-03
-9.730292806530827616e-05
1.488110444335366794e-04
-4.672565805294544641e-03
-6.260073843720466436e-03
-5.567182390914603152e-03
-4.044113194120522829e-03
9.805620650548427329e-04
5.511806986804300770e-03
4.944326671302338126e-03
1.732971636508696045e-03
-1.092858258908149631e-03
