7.945712556329198595e-03
2.466086741874163376e-03
-6.858444594522032298e-03
-1.208458763858254528e-02
-1.051626600826706046e-02
-2.947702848978168109e-03
2.693947645746798403e-03
6.434719818009671487e-03
1.074097816076657365e-02
1.364738494468072799e-02
1.716769442403539431e-02
2.115794896824114285e-02
2.321623463389501513e-02
2.224759366677309808e-02
1.690672928327083963e-02
9.460634726855193105e-03
4.099324298616266807e-03
1.627804079437634695e-03
4.479519991292153238e-04
-1.991540421183882886e-03
-8.172477493600120019e-03
-1.465909185552523135e-02
-1.805301309547201541e-02
-1.908908300075120093e-02
-1.325754600783038591e-02
-5.749920468808573069e-03
-7.497808050612525359e-03
-9.505802102873715451e-03
-6.482283427235467632e-03
-3.970567902219231983e-03
7.040639007160304046e-04
6.405692050442350974e-03
9.606861555639174821e-03
8.469462794107837297e-03
3.231851770142984102e-03
2.466038498179679624e-03
4.058710191806011273e-03
2.001176911565392524e-03
2.408276049723297955e-03
2.656357213199116597e-03
-1.803781699288869826e-03
-4.952818424808221043e-03
-5.835750506840087920e-03
-6.755054638827478683e-03
-5.100894141332060552e-03
-7.149696177840509986e-04
-1.171132019574568604e-03
-5.669180596433842645e-03
-3.897924556586184787e-03
1.995453955366564348e-04
2.452091797732737933e-03
5.938449081951490890e-03
4.972383052313687594e-03
3.350542491226577834e-03
5.287292474477838823e-03
3.662172213569041355e-03
1.693966342526297998e-03
-3.260204330550029621e-05
-9.156009386658427824e-04
3.923860165349658813e-03
4.769762437291306771e-03
9.702655868234731640e-04
-1.132642848631440187e-03
-2.802057292902309770e-03
9.166749450808962720e-04
4.935784034474990055e-03
2.582383104324264232e-03
-7.013665038909876713e-04
-3.614632961533961828e-03
-3.900659939350281918e-03
-2.765105721784054307e-03
-1.857406764782182059e-03
5.660671763969127692e-04
-1.887784978120888527e-03
-6.778021802370852444e-03
-7.136176582480472860e-03
-3.773635431120819176e-03
1.403202604023299788e-03
3.104905258278313485e-03
3.375336176317206976e-03
2.794495235047921369e-03
-2.832510405771721234e-03
-4.709048753462525411e-03
-9.783433562182669140e-04
2.367238447580614306e-03
6.774986193454071541e-03
8.922727217916776726e-03
2.964921135276962078e-03
-5.289478324003229863e-03
-4.794399769982192125e-03
-1.228416623310700116e-03
-9.051788926189820650e-04
2.495411367766014587e-03
1.257597638978505796e-03
-4.055096017192709283e-03
-2.407775776446334330e-03
-3.479263458752695787e-03
-3.554303254107648528e-03
3.108142481180478645e-03
8.841601417006898561e-04
-1.810533046377824778e-03
3.651931617971751649e-03
1.987820553836990543e-03
1.730494335430755068e-04
4.162358024630160441e-03
-4.826211309018418557e-04
-3.726127764397807723e-03
2.478911913909701698e-03
3.168041658679308491e-03
2.615283452552730030e-03
3.970726070380781875e-03
-1.737336962537222151e-03
-3.676906356014071706e-03
1.039127533470128031e-03
-1.472473770457953047e-03
-6.979238429380116987e-03
-4.734133481361518965e-03
-1.106336263726190924e-04
1.922784407694602335e-03
3.841025037796925393e-03
6.043334176615651390e-04
-3.351539963957201988e-03
-8.060377136251677555e-04
-5.013560149941153265e-04
3.161396225915097304e-03
2.363281134953899680e-03
-1.636581638334196412e-02
-1.664911075837429213e-02
1.973744942596902807e-03
4.868615884019172717e-03
5.137622548452860927e-03
5.303265791368160821e-03
2.471140435384054472e-03
6.514807813958811873e-03
2.155875016303263666e-03
-5.002382094279290634e-03
-2.324500096827097299e-03
1.111445511193977958e-03
5.138631283518419086e-03
5.285717227397968183e-03
2.852219250478383716e-03
2.536160375378452257e-03
-2.408569463181656819e-03
-4.427989204098529107e-03
-2.662407128762411639e-03
-5.361008439338625815e-03
-5.453366658392568185e-03
-2.612375256744410134e-03
-2.101939426013430413e-03
-1.172975173468283503e-03
6.185684066259472189e-04
1.665896484162760708e-03
3.815899643160530243e-03
3.781096296693392360e-03
-2.644894537234823966e-03
-6.870015642966055547e-03
-5.885526563002112244e-03
-4.049753761428926541e-03
2.134544361890964616e-03
7.449146666953370376e-03
4.666582635868571187e-03
3.373831167000774633e-04
3.031161594895208497e-04
3.426431070545859266e-03
6.241883819810170424e-03
7.967247665750709987e-03
8.934152659002159158e-03
4.550465164484613495e-03
-4.398653506692024040e-03
-5.028494222670161495e-03
-3.924919970230937713e-04
-3.662016602545230433e-03
-2.618717483853163705e-03
5.437956074799193615e-04
-6.818235801157903654e-03
-7.147004909138275283e-03
-5.444214611971648007e-03
-5.196892732512478456e-03
4.569361953966564679e-03
-5.207860789741426688e-03
-2.042567565067570506e-02
-4.788461222145720154e-03
6.108164670027341897e-03
-7.828021228431228037e-04
1.653832064171030080e-03
8.194937833476389696e-03
6.656279948968621754e-03
3.560791354711627908e-03
3.562085746458486593e-03
-6.991257840009330610e-04
-3.084644165984970661e-03
2.907248021821927809e-03
4.983670819362575992e-03
3.941968820243571536e-03
1.162312959699206803e-03
-3.763230512288885578e-03
-8.846372314940262804e-04
2.231769493261728105e-03
4.149612622390231264e-04
1.888277589254753553e-03
2.819172935505219729e-03
-3.317748339783647862e-04
-2.381053468722228294e-03
-2.639772072790234209e-03
-4.474139859891822484e-04
6.125022952986516889e-03
4.188583472773537396e-03
-5.950522127564354669e-03
-6.783452271192485714e-03
-6.288852049989967184e-03
-4.779021849680440207e-03
2.298188569103536052e-03
1.347613024541594127e-03
1.284793908735147681e-03
8.221343608221820011e-04
-6.340664040823402146e-03
-2.800835821301567337e-03
1.552169152573812470e-03
7.779717017148583347e-04
6.199679987952836334e-03
7.444040187826269153e-03
1.895162350934382614e-03
-3.524275286926219219e-03
-5.582531931655693516e-03
-2.601528918841462205e-03
1.104931947668969959e-03
2.360038374235154217e-03
-2.330438428531895838e-05
-7.703708723589790383e-04
5.166330390273053252e-05
-2.940050927224640426e-03
-4.142470771395800194e-03
-3.066102381879542114e-03
1.004554160048080208e-05
2.806574133336600056e-03
-1.881400672921462128e-03
-4.947939845773215509e-03
-1.670378265982938723e-03
2.284790363016617285e-03
4.317469117118668057e-03
3.362425476674394450e-03
4.325777127453742273e-03
3.327597612365418636e-04
-8.798446977598177454e-03
-3.783619508504958845e-03
6.827499030169823131e-03
5.794576272220460650e-03
1.863489425885917535e-03
1.037628036225205636e-03
5.251206946002567747e-05
-1.232357599081881873e-03
-1.953405433140210402e-03
-9.963971238589998738e-04
1.185660291442375497e-04
-9.718530947093880715e-04
-1.977803425465915357e-04
1.057627260681364735e-03
-1.734312824993434685e-03
1.131081112505997934e-03
6.821519671546719989e-03
2.171185057863068892e-03
-1.733023370356119239e-03
-7.229299513274642635e-04
-2.937266605071734912e-03
-2.648381203076820550e-03
4.090556494463544078e-04
1.052829824693268237e-03
-1.175492811250688141e-03
-1.732910579685026809e-03
3.023280555802314480e-03
2.686974404550304240e-03
-2.828478974238221068e-03
-2.860327073570927744e-03
-1.225131777991616622e-03
-2.597220134690076711e-03
-5.598679398682098254e-03
-5.434937231687492903e-03
-1.860183087554668222e-03
7.842905544274534789e-04
5.248140467642016353e-03
6.056233689331076003e-03
1.411348799376159870e-03
-4.984373614657139264e-04
-4.403786073945589914e-03
-6.920277848758258840e-03
-9.044428194565276840e-04
4.154140826299605738e-03
2.640056395315090992e-03
-1.110704125858636348e-03
-5.583569770510908364e-04
1.235035516447885104e-03
-9.502072986562692079e-04
4.172408534014173873e-04
4.586569900409035935e-03
2.215284053669159051e-03
-3.853200162282402561e-03
-4.010999673746992560e-03
1.894999646414871359e-03
4.723992487297038433e-03
3.360585836126178411e-03
2.437265536740633367e-03
2.613470269162638041e-03
2.628130689280187404e-03
1.277591005249735555e-03
-7.012439654889088140e-04
-1.834911165941441845e-03
2.442643002494145066e-03
7.386762060523299755e-03
5.088866338047952527e-03
2.690795959465281263e-03
-2.399280976166224839e-03
-4.566800614237691291e-03
3.859744351259472486e-03
-5.888874152486947219e-03
-2.267674374843926116e-02
-1.291647025722819989e-02
-3.641880480793386558e-03
-6.670784523648121307e-03
-2.100099610924884268e-03
3.911502267220735851e-03
2.212710638266193047e-03
-1.323854759958877688e-03
-1.623075247571092289e-04
-4.310702994587926472e-05
-1.498802236586421928e-03
3.998905745877782796e-03
7.880790205851251340e-03
6.038420262397878671e-03
4.084542682143645423e-03
3.941677494412510916e-04
8.471087006987118974e-04
5.523262434047402324e-03
4.853927234213463796e-03
3.310425380552837159e-03
4.155327536424674971e-03
-1.008877523390177373e-03
-8.871911566219059173e-03
-9.453459594268099134e-03
-4.471435702908445158e-03
4.038891108746798207e-03
9.822497759912488316e-03
4.060823103792327027e-03
-2.874745964345630858e-03
-5.021926535302498849e-03
-5.761442153546575060e-03
1.464181810611017058e-05
3.074492085838571778e-03
-2.132653372025454259e-03
-2.075847919537790118e-03
-2.203679667681554522e-05
-1.345408573541715400e-03
-7.329004693767710455e-04
1.216776837611757386e-04
4.014496402099209174e-03
6.823320941795500867e-03
-4.608157126471729885e-04
-4.939125238161381180e-03
-2.477271108127614141e-04
3.566568256503026280e-03
2.885391129738468403e-03
-1.159142848983432325e-03
-2.160449776380456502e-03
-1.133500893729268285e-03
-3.898214566849804615e-03
-4.270597998415626324e-03
-4.765906185385537959e-03
-8.590102825033035447e-03
-5.745759121358240754e-03
1.363058341054272388e-03
2.663108036898592657e-03
7.023651306220908769e-04
9.242122753280793395e-04
1.215821976482101517e-04
-8.933479511377211656e-04
7.618994311814782355e-04
-1.262662393172217881e-04
9.804937491140462182e-04
5.469961944509117366e-03
4.557943942561820325e-03
3.914611890666638665e-03
5.465979433801830545e-03
4.811506049886028584e-03
3.244409811290558353e-03
1.895033125458874803e-03
3.177727995195047447e-03
5.268767521793327234e-04
-2.822869139762138047e-03
7.670195640914180763e-04
-1.711473776707161942e-03
-4.559444354532145999e-03
-1.782500482117926974e-03
-5.233793253904270477e-03
-4.455512430546488233e-03
5.750439761312111427e-04
-2.350568613782744176e-03
-6.016748743540786815e-03
-9.401580182537070188e-03
-1.069578858280346816e-02
-2.842274174720387566e-03
7.273250696765922937e-03
9.435822009950016465e-03
1.878162048791267962e-03
-4.719545925561302417e-03
-4.564800297503652723e-03
-2.060581747602224182e-03
4.822249567564931491e-03
8.458506583902210621e-03
2.298187171545127642e-03
-1.023123353955377509e-03
-6.814165919325667741e-04
6.849957491538331356e-04
4.926806397711926480e-03
3.490548367230616577e-03
2.110853802747336694e-03
4.098533605469511024e-03
-4.375313165937138194e-04
-3.301181510557781203e-03
-1.625478616338580946e-03
7.238165675167338668e-04
5.288982996805858573e-03
4.018373996357505612e-03
1.432652867352245173e-04
-1.318752549734571742e-03
-3.533555244346370684e-03
-1.547894442055827453e-03
6.225625776803509360e-04
1.107562305004461227e-03
2.080459918938993690e-03
-2.130827466358837033e-03
-5.031413628963479594e-03
-4.195194063671896061e-03
-3.653684393676457677e-03
-1.920909917683133418e-03
-2.929624828242818977e-03
-2.836963548890695554e-03
-1.578962346248419203e-03
-6.200747306387041115e-03
-6.839686814183955701e-03
-1.401690988593203534e-03
4.284772851465800921e-04
1.897929807195135408e-03
4.253815280893956732e-03
2.544797491429520025e-03
-3.718385556469429396e-04
-1.363717296794419087e-03
3.883361610899799276e-04
3.774539531167510949e-03
2.070445837458958702e-03
-4.880564381590973876e-04
4.030223558099443708e-03
8.508762117660084376e-03
7.980061105628578899e-03
3.368872440267907820e-03
8.920380495302294727e-04
4.282258707965366611e-03
-2.942870372844727739e-05
-8.655134726327610994e-03
-6.482971670534103635e-03
-1.092826943998916013e-03
3.921394493112934088e-03
8.907123936930220337e-03
6.845773793067448827e-03
1.228979471279243330e-03
-4.946713341477795844e-03
-9.210532003974602339e-03
-4.026053589266036931e-03
4.229517270126810155e-03
5.683234079915657107e-03
2.310725010620698187e-04
-7.490858249818446724e-03
-7.386746282647394662e-03
-3.060728363605474695e-03
-4.812817516021590525e-03
-2.867265127940970670e-03
2.214453344756875299e-03
-1.031953838243715709e-03
-3.686062825450009926e-03
-1.260095588397744512e-03
1.542369185618986142e-04
4.421654930686337256e-04
-1.038133992282972752e-04
4.618692058726837067e-05
-1.076027395656119212e-04
-3.177023689795045475e-03
-4.737669413853107941e-03
-4.048521263525035798e-04
4.870715239616274159e-03
3.756354657330567091e-03
-1.838219100536134958e-05
-4.786657542420685125e-04
1.365543630470611794e-03
2.384189802241938778e-03
1.705371387522657640e-03
2.934539838268414216e-03
2.577939010055772199e-03
-3.090753134904878838e-03
-6.854446660924448133e-03
-4.050747790126513204e-03
3.656178540863617727e-03
7.315870508652401807e-03
5.922309521931453519e-03
7.056451034699874961e-03
6.678500048542164620e-03
5.165630383892152490e-03
2.543029945059436994e-03
-9.106723291905196357e-04
1.916937373890350389e-03
2.122287895525655412e-03
-1.346528532144600730e-04
-7.639250416057944814e-04
-5.501686434138598758e-03
-3.388503710068003702e-03
2.904306483799550930e-03
4.282396686073133146e-03
3.374170137135026979e-03
-4.097941302768225331e-03
-1.463929066292412456e-02
-2.587147242462575075e-02
-2.483233381153360578e-02
-4.820872419991670266e-03
4.464666704951571891e-03
4.430549239199976438e-03
6.576230437019136774e-03
3.668314547269611891e-04
5.312304459492676336e-05
5.689461757415352483e-03
5.110858775714491146e-03
5.327802244305024533e-03
1.503161144810028372e-03
-5.243644350630085292e-03
-1.770154318729645886e-03
6.437425782423951241e-03
7.343144043796758988e-03
6.107859552115953855e-03
7.728295724041476557e-03
2.451583765319700643e-03
-3.983661471291027358e-03
-8.131893431107377074e-04
3.509340547890557258e-03
3.414229475621873879e-03
1.496532567227708667e-03
1.866686617842702560e-03
1.697224298122663056e-03
-2.531924909718595660e-03
-3.906369060306402047e-03
-3.882505284220962808e-03
-3.304305511275257377e-03
-1.389330193453788831e-03
-5.563835766927888865e-03
-8.326819029426569749e-03
-5.619201024418091564e-03
-5.143230965878619644e-03
-2.777533299028343318e-03
3.907555523861939127e-03
9.683704452052533870e-03
7.744127755755967311e-03
-7.803408295529522904e-04
-4.189984886940279797e-03
-1.177552779809187171e-03
3.524777902683232187e-03
5.604388786104932962e-03
1.385446161105050120e-03
-2.050584420366598128e-03
-2.923188094025478551e-03
-2.610513362473798876e-03
1.760240968751086233e-03
2.048404246682150598e-03
7.867104792596935981e-04
5.170903696172221564e-03
3.236266715813724496e-03
-2.461200287634200939e-03
-2.744851974957166190e-03
-2.418943114845690905e-03
-2.822648401028603855e-04
2.587633347016104644e-04
-2.612366949708531515e-03
-3.905299285707498555e-03
-8.157420841109909448e-03
-9.080702458805363017e-03
-1.729830521856040278e-03
2.739418282925204940e-03
3.500571485729199548e-03
3.395849025153306784e-03
9.294413886004155526e-04
-2.753833078642915332e-03
-1.182796097137474127e-03
6.447313064607867322e-03
5.987283022880048045e-03
6.183168633714209534e-04
1.163489991227949086e-03
1.584100725605757948e-03
4.717269232697747852e-03
6.590850262052648338e-03
6.144501022892637568e-04
-4.227145224216401600e-04
-1.446866101924270667e-03
-7.048965705650100770e-03
-4.042877392383038664e-03
8.265427925304717933e-04
2.351123788070707318e-03
5.623507044103532269e-03
3.900936744759947103e-03
4.323213190947715985e-04
5.404517603404626353e-04
-2.961867188815904724e-03
-5.346487209188458684e-03
-1.629310509031478560e-03
7.219785341770844746e-04
-7.988930567272204243e-04
-5.634423943312127578e-03
-9.214623794824744127e-03
-5.575560437585298096e-03
3.688228143770618125e-04
3.375235810775375524e-03
4.623562343707194981e-03
4.425410573728068807e-03
-2.956578284514772381e-04
-4.953171900902975620e-03
-2.152741969835680197e-03
-9.128032534590629909e-04
-4.629909385552390989e-04
6.632171483440715484e-03
8.093456499141395491e-03
4.495191675057355445e-03
4.271810382303547560e-04
-4.868689529343762229e-03
-3.448099569149506646e-04
3.735606313531832697e-03
-1.725111587352558826e-03
-3.683681618303645110e-03
-2.176016974964901582e-03
9.123880228233351066e-04
2.183749314367064518e-03
3.641679411229165617e-05
1.914025064963210780e-03
1.731840347668201201e-04
-5.361361576498144613e-03
-4.166705941790926210e-03
-1.221690146646172738e-03
-1.219792228547876512e-03
-7.067995009122933405e-04
2.411963700450430771e-03
2.089644620235228505e-03
-1.837705785152415764e-03
-1.270170337167907462e-03
-1.169519099500222590e-04
7.219138849905913603e-04
2.890516157866181591e-03
2.101004461473752506e-03
1.093699670222271622e-03
-7.971505178429997597e-04
-2.190540372118436260e-03
-1.209335642611801629e-03
-9.693327833591388904e-04
5.108774754330220637e-03
8.616177752448966887e-03
-5.882388826667482194e-04
-6.116644085657514142e-03
-4.264188532527976930e-03
-2.560934271511442189e-03
1.250079373885831227e-03
3.935390839696564433e-03
2.843253495807749037e-03
1.014636184281836502e-03
-2.804386576367488100e-04
8.264280228994341218e-04
3.370542567146144093e-03
3.371169555226188625e-03
1.103896368235129499e-03
-2.817141154564875224e-03
-5.728274943228012402e-03
-2.616876315709928871e-03
6.231244449832048712e-04
5.498687006538710911e-04
3.378155802203027403e-03
3.043227692116805619e-03
-5.066087236446678577e-03
-8.297140345550528887e-03
-3.089749512478900603e-03
-6.152527129301068199e-04
-1.071701164907610778e-03
6.121589811378970718e-04
6.259620918127024956e-04
1.261782702205161344e-03
2.522061562613113136e-03
-8.439827068470608746e-04
-1.335370353978278495e-04
5.970556894236310995e-03
6.754984615833993511e-03
2.046156191207079613e-03
-2.452660621717217375e-03
-4.318092933186962537e-03
-6.097662890002142518e-03
-6.634208052535082133e-03
-5.850194312645564353e-03
-8.128915097171058105e-03
-9.761463245504909542e-03
-8.258700619250427741e-03
-2.049349794652660954e-04
1.130396226279228866e-02
1.288725210065605302e-02
1.139290854438065360e-02
1.101382411830274799e-02
3.606399758063555654e-03
-3.055638783519390271e-03
-1.497592597266739168e-03
6.244066060569456941e-03
1.145138612839682012e-02
7.922128100738749443e-03
1.085323107513874990e-03
-3.306190806900343934e-03
-2.713951921835685080e-03
-1.481197559696706368e-03
5.610128043118823432e-04
3.977200622720384118e-03
5.501088418112213153e-04
-2.957429877440064317e-03
-9.889848205439563927e-04
3.055405458580817604e-03
5.334808902238421906e-03
3.546208867522629708e-04
-5.130784878665241473e-03
-1.798652007466989416e-02
-3.304882440213881972e-02
-2.431879041519254686e-02
-1.022010877803134800e-02
-1.925096950214023515e-04
1.319548894688768979e-02
1.264776443274057485e-02
8.132347501608967744e-03
6.320110967173523872e-03
1.700282733241285135e-04
3.776752331648813420e-04
1.623740044322553259e-03
2.862060315803858362e-03
4.633626380411738632e-03
-6.809930672640111642e-04
-7.903408813717040259e-05
4.664022185800078754e-03
4.089803238645939309e-03
6.627309950749920263e-03
7.344581648726243930e-03
1.795697791423880602e-03
-1.268976679488533366e-03
-2.208721219179085333e-03
-1.860161688044713801e-03
2.771844453283153504e-03
3.963528788843177428e-03
2.426051827845692311e-06
-1.022442597319574153e-03
-3.118662610698795697e-03
-7.485811348432212971e-03
-8.318961362515397626e-03
-3.597185712134280070e-03
3.367095809530900284e-03
-5.550250273753500399e-04
-5.934987570867683929e-03
1.268791941932532097e-04
-4.971126195770459930e-04
-1.623045218916207037e-03
5.484748260659190640e-03
2.265853876073171437e-03
-9.722056739240757446e-05
5.297056357424018841e-03
2.242326075886636599e-03
-5.068064893222353449e-04
3.038121385859843173e-03
3.831532718939400541e-03
1.349577609100138624e-03
-9.289952588810510958e-04
5.711234478293503039e-04
2.644774175918768611e-03
1.072744558881604665e-03
-4.981907689392755601e-04
1.111625942589227790e-03
1.117685855887812869e-03
-8.429177683645830421e-03
-1.415908376104254955e-02
-4.706318764172574311e-03
-6.447304788289352035e-04
-1.666513507671338237e-03
5.851833220846456435e-03
6.734235238515497157e-03
8.906914899954503431e-04
-2.252162378815235518e-03
-6.622614973670395803e-03
-5.672255457319350970e-03
-2.790913299954047612e-03
-5.275309640713382250e-03
-2.208705676772741624e-03
4.822981806666392160e-03
5.388270833437902585e-03
3.888422912157945416e-03
4.167007251536539343e-03
2.822258499171012049e-03
1.332612877398392168e-03
8.831565292588003727e-04
3.571906862645420067e-04
2.594438866155361970e-03
4.132862693007641891e-03
3.149095211646650919e-03
4.273364934978276207e-03
3.456735271503422018e-03
8.103907944182746782e-04
-7.914397578591622628e-04
-2.471831340836234958e-03
2.998767128126749067e-04
3.713832944536732492e-03
2.808830066561011484e-03
1.570854303373972645e-03
1.739226900325433584e-04
-1.945523380394189239e-03
-6.452166291547880086e-03
-8.932857984563303058e-03
-5.546941304969124284e-03
-6.390531404009108796e-03
-9.419733825683174189e-03
-7.587089707083514122e-03
-4.935529109400045578e-03
-1.600337197265990071e-03
1.792536901579801440e-03
6.720445627571997212e-03
1.031668851195722755e-02
4.405740977168417366e-03
-4.412896743406134422e-04
2.013365082463934152e-03
4.561992515435280351e-03
8.919793182117463984e-03
1.122482639859826575e-02
6.476833152211939650e-03
1.324815388189271113e-03
-1.464838094189470016e-03
-2.329420546130943001e-03
-1.791709726069379369e-03
-4.849674613305627636e-03
-9.447147624354321205e-03
-7.736567667015826870e-03
-6.589696776472074927e-03
-1.077817342043504815e-02
-7.336750691873326381e-03
1.917527533754972166e-04
6.783351982303185155e-04
6.660910212398852333e-04
-8.110621134907589807e-04
-3.848831412167444746e-03
-7.603509720807443729e-04
5.143522877396132509e-03
1.022912500716042193e-02
7.404590178991280955e-03
-2.561003185531596444e-04
4.539587699408152363e-03
1.069762553324702867e-02
9.569038151271540629e-03
1.345180550581125990e-02
1.345888797540903403e-02
7.364567205217539825e-03
4.785628158548165152e-03
5.522892305612147300e-04
-1.864296004027366210e-03
6.032274510700112204e-04
1.252738641605414616e-03
4.203370735241085247e-04
-2.964552109593807192e-03
-9.005524791970847404e-03
-1.427298199902158303e-02
-1.652553105335110781e-02
-1.303727481484433064e-02
-9.018439500480288779e-03
-1.134869425882942609e-02
-1.576388666885287365e-02
-1.385710988325629910e-02
-8.412588696573276847e-03
-6.898353622421986645e-03
-7.377966141811892866e-04
1.572217991416431648e-02
2.762102857237962172e-02
2.406513379246951606e-02
1.322124904779822807e-02
8.458911197263361409e-03
8.150915608413309213e-03
6.993872314598787061e-03
8.353205339350897041e-03
9.185330333475625816e-03
9.508846547503722532e-03
1.298431181022692907e-02
1.322278500553667781e-02
1.123065151303205902e-02
1.104873861595239565e-02
8.260162282216491209e-03
4.379732784285274641e-03
2.007901201411186210e-03
-3.120063202369294676e-03
-1.086262246453067667e-02
-1.361590940520115631e-02
-1.159139525752614364e-02
-1.404908732403000945e-02
-2.219047342108483242e-02
-2.784271567144803311e-02
-2.093994908946270050e-02
-4.130542182545170020e-03
7.603370455846836760e-03
1.279570208557925977e-02
1.542762269339455726e-02
1.135078524774068426e-02
3.317774381108583390e-03
-2.772736126180137123e-03
-5.150865093309724661e-03
-1.959040330029646407e-03
1.855325730370172010e-03
-6.852624281302724038e-05
-3.701476022519494501e-03
-4.232003627033824843e-03
-8.538134092928371770e-04
6.940715743815993252e-03
1.184213511049519649e-02
8.604570861177253394e-03
5.120611816161898221e-03
2.221458589741990858e-03
-4.184522896831215609e-03
-1.030365859906662122e-02
-1.452598336665508749e-02
-1.313450989536142817e-02
-6.857809870307686462e-03
-3.443159211138720113e-03
-2.306892768868207873e-03
-4.876089383812227777e-03
-1.611960667433711900e-02
-3.432980060800536887e-02
-4.232543250259013234e-02
-2.967365459916408363e-02
-1.586220548684945386e-02
-6.436267219924350289e-03
4.721458789288605386e-03
1.493265045995426608e-02
4.094312686734604551e-02
7.527789182125317613e-02
7.666869250881175324e-02
5.150276015144880648e-02
3.850981554362930409e-02
3.466194411434373596e-02
1.983842417215912410e-02
1.551953290090788209e-02
3.163971409153584075e-02
3.206606066344652728e-02
-3.918890326347360988e-03
-6.502785210791940662e-02
-1.094277360345777550e-01
-1.137749329520015285e-01
-1.170071150195330228e-01
-1.043249571287568067e-01
-3.403460703839284590e-02
1.522852344216384796e-02
7.837005807355870712e-03
2.958446518192665506e-02
6.398141407005160375e-02
5.191315263174572231e-02
2.350385030094477232e-02
-2.308217190501235180e-02
-7.883101986464197131e-02
-7.994516688700652185e-02
-2.278829292817984714e-02
6.094220861743378931e-02
1.314893076473978850e-01
1.526448054686180000e-01
9.662467151787730579e-02
-1.368855986474912419e-02
4.596332877558879926e-02
3.058142633894260221e-01
3.418292638630419655e-01
8.579633607877049095e-02
-1.001727735693480753e-01
-1.851516180540727918e-01
-1.902407720016190684e-01
-3.329375662215608433e-02
1.601964828304898794e-02
-1.728817518548529386e-01
-2.757069834624812366e-01
-2.041018618253788997e-01
-1.211472803049625790e-01
-3.011925339623358275e-02
2.351370963528640751e-02
-1.240208076504782783e-03
-1.217293649359551394e-02
-4.209984704831291891e-02
-3.400445478056480370e-02
1.487120508629166116e-01
2.511200868432147959e-01
7.224871457887570292e-02
-1.294328194177236380e-01
-1.405474101918742225e-01
-7.057331762669259712e-02
-9.368515432055966874e-02
-9.394896516043957369e-02
1.350684656347651003e-01
3.944528378329416607e-01
3.603432693754566873e-01
1.352867720650924310e-01
3.635460497180343503e-02
2.034824022531270954e-02
-8.018416621170222636e-02
-1.499294336472198896e-01
-1.901280287719833983e-01
-2.008805288358882501e-01
-4.769442280937275652e-02
4.883586561061523112e-02
-1.939034542349602971e-02
-4.509035631448676112e-02
-2.948140739356758244e-02
1.669785238279153025e-02
9.308094590931961787e-02
9.939506851396376352e-02
1.810519046586972144e-02
-6.226547277928499297e-02
3.725811725304453009e-02
2.152200908758683806e-01
1.955050209288044516e-01
9.215766213660737949e-02
5.084701900021269122e-02
3.628211115274204354e-03
-5.699622525960251762e-02
-1.205014473789160351e-01
-1.696611002702572701e-01
-1.512791518827446280e-01
-4.398680835323758032e-02
7.334920580970934190e-02
7.866716490483692537e-02
6.060189051495254789e-03
-6.213525560710577572e-02
-1.324494485936552335e-01
-1.194440183611811673e-01
4.059041091970826826e-02
1.292942461601029602e-01
1.296354501452961529e-02
-9.770860443867430967e-02
-1.065625432272392786e-01
-7.497224800355470342e-02
-1.120941436069004989e-03
-2.634450852044619568e-02
-1.959869814273779431e-01
-2.360143131609923339e-01
-3.684424652528867777e-02
2.017029691217101517e-01
3.037863920991490940e-01
2.710118229948038637e-01
1.895321596379492268e-01
1.059824709894344325e-01
3.374088507068052217e-02
-2.783605053367282922e-02
-6.288633734883022908e-02
-3.828500694156274781e-02
-7.634864163593822403e-03
-3.115810879182348905e-02
-5.728577778623386574e-02
-7.910208135929645834e-02
-9.338974779171624330e-02
1.420454957653375684e-02
1.532915488708367080e-01
1.391696562351554256e-01
7.420294752471388866e-02
3.866038793016297187e-02
2.645247958724181083e-03
7.773735100794095659e-03
1.170427504130704122e-02
-6.608380841946694291e-03
-1.704395377097032288e-02
-4.651817020218299015e-02
-5.933444731948323003e-02
-5.306991796051026972e-02
-7.255682180298808626e-02
-1.001650735760224176e-01
-9.294518495696782456e-02
-6.024782242638750465e-03
7.311836200253329920e-02
4.504126765271863203e-02
3.946495005249442758e-03
2.951205917212997541e-03
-2.044359681355123297e-03
-1.520994116535853008e-02
-2.924873578829922938e-02
-2.547752758716528149e-02
-1.087274440630932835e-02
-7.077825564465242171e-03
-3.484325075670849283e-03
-3.583841225615475891e-03
-1.544479990737284824e-03
1.469558527584042228e-02
2.680724521061122329e-02
2.766316833499403091e-02
2.639604609963034157e-02
2.915731883928537882e-02
2.968559301068994516e-02
2.178743000123269449e-02
1.415304144025119129e-02
2.543882181484432431e-04
-1.517671947300706405e-02
-1.039536121395959710e-02
-2.316510005765255167e-04
-1.717754134027924548e-03
-7.067948427821051267e-03
-1.151871175049918802e-02
-1.254398844751856111e-02
-9.697861542475025298e-03
-6.753288478459915437e-03
-8.648471530206843297e-03
-1.466868637468793195e-02
-1.475947769953753382e-02
-9.190591104326408314e-03
-4.627877743677942871e-03
2.779266150658380591e-03
1.176366786810875177e-02
1.511925269028965846e-02
1.826317829904717735e-02
2.680622123737393461e-02
3.771125454008163874e-02
4.781407390818386005e-02
4.507832673954060426e-02
2.104517632115618028e-02
-1.150567361968780379e-02
-3.433620915228961096e-02
-3.462063150048422938e-02
-1.737439489312993593e-02
-5.989209307444829690e-06
1.022182687539151431e-02
1.168996107942821619e-02
8.777067835901996434e-03
3.530811450440716863e-03
-3.364092075988115490e-03
-4.316844189778283603e-03
-5.303925217482745487e-03
-8.817549821600387597e-03
-1.183005038181889589e-02
-1.795586018038071441e-02
-2.143234399640717852e-02
-2.867939792442318267e-02
-3.418963162639676590e-02
-1.502180318790984591e-02
7.962751460306144446e-03
1.158420581305415198e-02
9.768544343175224881e-03
1.363789925069460590e-02
1.771729068247001118e-02
1.605594381137732604e-02
1.493607006093834906e-02
9.554457982006986719e-03
-3.442621549777246607e-03
-4.313114155661272771e-03
3.948128056889243717e-03
8.818228069758808976e-03
1.455155223140151312e-02
1.452472866303682573e-02
9.611568288045723579e-03
1.300066334439275127e-02
2.054438838867135228e-02
2.145752169995056649e-02
1.474597176744412569e-02
3.869482801264473651e-03
-5.752661373241226180e-03
-9.244013021414228606e-03
-7.732693534402187117e-03
-4.915135252655276205e-03
-5.262612980125708738e-03
-3.905579380317627386e-03
1.935413289002282152e-03
-5.299567512557097279e-03
-1.637760059872721274e-02
-9.210315696607542651e-03
8.751026356100041889e-04
6.068440064195569465e-03
6.119844765361212927e-03
-4.237422222778211914e-03
-9.869281189992553521e-03
-6.212186393236163867e-03
-2.102818617933900885e-03
-4.257963523851843006e-03
-1.101868285449406765e-02
-6.438186449253212144e-03
2.792728123188848409e-03
5.921313471080432572e-03
1.097363742509150676e-02
1.323604969344603297e-02
1.169714967395749441e-02
1.124331954366064243e-02
7.373717583307501378e-03
3.854765547995173992e-03
6.303404164120935890e-03
7.165484643024352257e-03
9.066266061556055300e-04
1.898218636288445888e-03
1.250607278829708909e-02
1.067982796334261859e-02
-1.649447936379320502e-03
-9.641380563818214081e-03
-1.161548734162491832e-02
-6.880096053618721917e-03
-3.939043634618631662e-03
-4.523735523755351672e-03
-1.377961022436266199e-03
-2.237805643762272052e-03
-8.418562014958866704e-03
-1.176463925125840505e-02
-8.685702978955638781e-03
2.786455929790602332e-03
1.035874847484962585e-02
7.263600187411781671e-03
6.009687270519669701e-03
6.221470710900926446e-03
4.713720955320894676e-03
8.854285824596751925e-03
1.200638414578106446e-02
4.692158591902343204e-03
-2.609173886656872710e-03
-1.820342596187152239e-04
3.668798173667185691e-03
4.262227457438973362e-03
5.342469606908060997e-03
4.674460651312142313e-03
1.432749496456828427e-03
-5.591353275673552857e-03
-1.107869858100059106e-02
-3.173116058170293800e-03
5.842366790972992711e-03
5.124407577975647471e-03
1.279485470920880327e-03
-7.665273175490109649e-03
-1.555838611962768667e-02
-1.814803989527559794e-02
-2.259760708955693698e-02
-2.492641952092149171e-02
-2.286997787835185966e-02
-1.593238834495171868e-02
-3.262197969278312227e-03
1.090834406317915152e-02
2.104484152826556487e-02
1.700531415875724400e-02
6.649705605249857723e-03
3.163396894026837547e-03
-1.100837106701172546e-03
-7.083180647547829278e-03
-8.684277311970063293e-03
-4.288059894168198133e-03
1.956038630458043198e-03
4.811760768405675889e-03
7.316164898277450687e-03
3.124320959051776238e-03
-5.041692722986975371e-03
-5.058272712120922068e-03
-5.183535571212835244e-03
-2.700885556424506388e-03
3.988867966621210265e-03
1.381711703979112294e-03
-5.664115210526875395e-03
-1.163555423382407229e-02
-1.052474394111492344e-02
6.136839444453230132e-04
4.359415032999252801e-03
1.360839726447146117e-03
4.013582856985614331e-03
8.205255246960408561e-03
9.146330391795590153e-03
6.778789040081288457e-03
5.430633859464425658e-03
7.184551641403189200e-03
9.089275977801175924e-03
1.144524881401791892e-02
1.106320227363110330e-02
3.125326114155619305e-03
-5.957955521788762393e-03
-4.843944556852999676e-03
1.685972283352080506e-03
-1.443053112576059933e-03
-9.588389643264316059e-03
-8.526537551695981265e-03
-3.062802538032938400e-03
-5.114705917529401187e-03
-1.373680040305148842e-02
-2.001987948226605432e-02
-1.929479713968872828e-02
-1.668344045126440855e-02
-1.772936678854255058e-02
-1.705688776177325880e-02
-1.349551283795316289e-02
-1.071611505751320775e-02
-2.348673030756807598e-03
8.310475092090792784e-03
1.425388054933801260e-02
1.638488607226516389e-02
1.023121415890926658e-02
7.331224535628751322e-03
1.435988921670162087e-02
1.351833797359568851e-02
8.355533330716379686e-03
3.726753297978429875e-03
-4.183201800531098982e-03
-1.775402973803366213e-03
5.874243382413867412e-03
6.141899489687581426e-03
5.374003389236298167e-03
3.734956270572140861e-03
4.479856123143415112e-04
-4.301411651733894059e-03
-1.189443591028954868e-02
-1.329742746702376049e-02
-8.191147216407254281e-03
-1.067375253435224637e-02
-1.823524878712761213e-02
-1.696356707587651919e-02
-1.389164284315337096e-02
-1.197140833393106271e-02
7.758980911465032312e-04
1.270068318275499424e-02
1.438786444135268204e-02
1.331521577405283749e-02
7.749104337884198633e-03
4.378394637977772903e-03
8.350392748110113672e-03
1.097121756255824837e-02
9.899177862378445020e-03
7.490072657123213011e-03
7.785822272375930372e-03
8.837398220651130828e-03
9.093448935456653615e-03
1.132411512954923857e-02
1.036620085291728444e-02
9.681382860872974130e-03
9.218192909299652987e-03
2.031207954506155256e-03
-2.984828150028212210e-03
-3.850145398467326539e-03
-4.809770019471323529e-03
-8.644504335546547916e-03
-1.576660468403448187e-02
-1.793267912249099996e-02
-2.273343616888074542e-02
-2.758840448226055828e-02
-2.252251120757247163e-02
-1.994372532095570541e-02
-8.378251843145740480e-03
6.739745765241954116e-03
-6.323908582144467661e-03
-1.941884348541365879e-02
-9.617394828377170274e-03
1.335577952165440578e-03
9.346526594714662031e-03
1.107981406643464110e-02
5.466644242907429951e-03
4.578202429121539484e-03
5.729732127763901423e-03
7.179466295103839601e-03
1.195360377473163489e-02
1.473327669135678780e-02
1.335589595707270365e-02
6.919740371656695616e-03
1.891173790892469470e-03
6.773968315881260388e-03
7.478550027899357779e-03
-8.509066169715110046e-04
-4.069786480383353472e-03
-6.210207031464288346e-03
-7.246001877745288956e-03
-8.750172583542251267e-04
1.935141967572559431e-03
1.449448750887826192e-03
3.980816157369736034e-03
3.591483120945706490e-03
-5.563431455875590941e-04
-4.461126216879110311e-03
-5.338547079172756803e-03
-1.788646492177980519e-03
2.065322811571820676e-03
4.168365610528707390e-04
-1.127071608308158508e-03
2.365209187595087095e-03
1.590693067354491353e-03
1.179980548992961946e-03
5.179389416728333653e-03
2.422199874384693870e-03
8.907526899471624165e-04
2.222175153702248527e-04
-7.745638406382792870e-03
-8.659621571243582977e-03
-5.617147846869031784e-03
-6.509918535537574311e-03
-6.616093243752583196e-03
-1.161993492126551369e-02
-1.696733765738807354e-02
-1.852607246362428239e-02
-2.009372401866663452e-02
-1.411910776842753915e-02
-2.586762369389587323e-03
4.448291790283670152e-03
2.444655998378876538e-03
-3.999083554896372406e-03
-1.263507682547825852e-03
4.402861679017552356e-03
1.318091764459419562e-03
1.930790220531338353e-03
7.436685034589864997e-03
3.269075182971007461e-03
-3.300518837476582989e-03
-2.333010666765079726e-03
-7.523776056311697090e-04
2.691784259945734659e-03
7.417664368641445523e-03
4.014486557074866541e-03
9.568607550514038025e-04
2.176973946687268523e-03
-1.420651666854234147e-03
-2.280698305376850817e-03
1.677723496728302476e-03
1.001540755954307381e-03
-1.678859971661748451e-03
-5.062608630522073480e-03
-9.291690511459154561e-03
-1.024374662545532444e-02
-1.036609086912047839e-02
-1.165487337669175380e-02
-1.291635056683531312e-02
-1.217654850418931588e-02
-8.016585858443895513e-03
-4.558190845570729045e-03
-7.661362264296990446e-05
5.741911111529372259e-03
6.011693724909688077e-03
5.858526179693675055e-03
4.616922212942701532e-03
-1.397043424683599641e-03
5.661285672881097688e-04
7.274460851081152556e-03
7.939543135009330399e-03
5.706463967462448855e-03
9.137935794757888431e-04
-3.012722510011970820e-03
-5.131783352858374468e-03
-5.798289855163334117e-03
-6.683490593569119034e-04
1.075253569661318524e-03
-1.317301255195595664e-03
-2.836370049614101840e-03
-1.009974887351289090e-02
-1.149071694433757319e-02
-2.350399956374216778e-03
7.025383889889282550e-04
-4.715662976283992256e-04
-1.545434572479310095e-03
-5.862820773497845993e-03
-8.870021820300281329e-03
-9.951421403323350637e-03
-9.649220398336478405e-03
-7.072794327177462509e-03
-5.399403345179716075e-03
-1.899962832101844724e-03
2.336053951131689729e-03
4.744076307443889965e-04
9.753466420740108033e-05
4.103886313119847924e-03
3.656009420645215703e-03
2.337203000542675650e-03
3.216621527202157601e-03
4.006387138862044402e-03
3.170503139367417209e-03
-1.736062276890155357e-03
-7.621872890643238002e-04
6.256833847909203626e-03
6.914419768953497004e-03
4.891436635077571135e-03
1.064325293807463681e-03
-3.957731933552507790e-03
-1.953317468948109065e-03
2.742892944623578390e-03
4.505229772390218976e-03
1.280088766575674872e-03
-4.822968914339133446e-03
-4.687077392140584324e-03
-6.425030147423686734e-04
-7.892943680261282988e-04
-1.782310906504738519e-03
1.135619766159974477e-03
-1.717211906390344841e-05
-6.740628867095429556e-03
-5.832751314194061128e-03
-3.862929422086085456e-04
-1.016422309124195568e-04
-1.015472691349690723e-03
-1.679214238472935680e-03
-5.753700064045216660e-03
-1.198938510344464692e-02
-1.196194907597346660e-02
-6.554469748815765738e-03
-2.701363349105411274e-03
3.161959912675588093e-03
7.073845571117491453e-03
5.615524402726878098e-03
3.263095370935040207e-03
8.849338309394283409e-04
2.288255308484250187e-03
-4.267986418621616085e-04
-6.761818244403187093e-03
-3.622118215483519175e-03
-1.075781700828398833e-03
1.319389101149127073e-03
6.405598881182377261e-03
3.036347481915245995e-03
1.918502349694860623e-03
4.820997582246187504e-03
4.387471862782587120e-03
4.347984315677083482e-03
9.042004595882119659e-04
3.510589299007276128e-04
5.495442598560940084e-03
5.504243674962878800e-03
1.954451447147629532e-03
-4.567256916707696521e-04
-6.905105669868714892e-04
-2.746763868617028287e-03
-7.128943646718169033e-03
-6.678653786559187247e-03
-6.441642035927322776e-03
-8.861519684471933986e-03
-8.804002926194482229e-03
-7.254646303482843901e-03
-1.437636593909649707e-03
5.546086904193552915e-03
5.870641004223658976e-03
3.140989712107549424e-03
2.122550115247411398e-03
3.413340962709592551e-03
2.864142590681088753e-03
-1.573538875449704676e-03
-2.150436520137577467e-03
7.928753923849569517e-04
2.464070765090066017e-03
5.115216983159778102e-03
4.061019730643117970e-03
-1.238559519111985465e-04
1.723361512070935211e-03
4.302013266369309787e-03
1.883315417754397687e-03
-1.933754367509279938e-03
-5.728686313231798333e-03
-7.813322004115391337e-03
-6.689867558202460332e-03
-4.009051754157782685e-03
-4.969381920721003057e-03
-6.541184160709237819e-03
-4.512822035091366871e-04
4.399452927937813271e-03
1.021561734297454262e-03
-3.087016464292079761e-03
-2.372255568662300605e-03
4.523633810692276325e-03
1.098160238301909043e-02
1.183003478788238576e-02
5.591551293214890896e-03
-6.864347344721943509e-03
-9.950189990680502819e-03
-1.223830265794782855e-03
3.897374811988614692e-03
2.934427094043256124e-03
1.222354239588308326e-03
1.604884601263955940e-03
1.508295183773775703e-03
1.910389630238680872e-03
4.654042498548757560e-03
2.611256411120588695e-03
-8.720744350605629056e-04
-2.539685987283237228e-03
-3.346713862316041781e-03
4.633393735773411030e-04
3.230933209197389949e-03
6.388699394832077910e-03
2.349529746051403321e-03
-1.674792463124443256e-02
-1.900987761125685210e-02
-4.030031076333310223e-03
9.062110229969371194e-04
3.545370921667241604e-03
3.695185965068908604e-03
-6.115182703432808786e-04
-1.714465966418505854e-03
-4.619015479279447479e-03
-4.300312936161703424e-03
1.598349719955658452e-03
5.808727507050226967e-03
6.703508148355489735e-03
4.523849342673197035e-03
3.767087512194526068e-03
1.683072677566475233e-03
-1.538260349988981434e-03
6.471647320779298383e-04
1.462794115664138106e-03
-1.036096244217817649e-03
-4.217113096112254204e-03
-7.532410918594387855e-03
-6.658939099581156693e-03
-1.841255842773317254e-03
7.747080770359124520e-03
1.347737515939828427e-02
5.917769563787504336e-03
-2.052714536537153002e-03
-4.007679432729178981e-03
-2.972926601923691313e-03
3.892182558262128472e-04
4.537502050726737921e-04
-6.677656301754930201e-04
-3.323829833100439479e-04
-1.589299815765387713e-03
-1.324187299515687316e-03
8.606825544904400920e-04
2.702969442550586399e-03
5.507080858805016819e-03
4.798396100904343820e-03
1.327601424739790353e-04
7.145812166935622311e-04
2.618450461788382304e-03
1.912144017329398937e-03
3.011271536110323496e-03
-5.856917915325980922e-04
-3.768115394965701470e-03
-3.662577405848335601e-03
-9.564739448771822708e-03
-8.170008206520121621e-03
-6.780126021063733583e-05
3.539464176585290205e-03
3.261734711027377675e-03
-1.126590851610617672e-02
-1.840097345343459298e-02
-2.102982926357549898e-03
5.322891303404689994e-03
3.746939825902074507e-03
6.737998924802437138e-03
8.337111516554996174e-03
8.850347179651421939e-03
3.617735560444601713e-03
-1.456864635489579134e-03
1.163173011191981137e-03
2.037239697824967666e-03
-1.753379010210992430e-03
-4.924618705799736762e-03
-2.140106701769391856e-03
-1.651583307677860653e-04
-2.467448588471540718e-03
1.009598630164346058e-03
5.949925643958664176e-03
7.497164637214170924e-03
5.930288957126066476e-03
-6.210977210519526628e-04
-5.001625250651630522e-03
-3.938830613515660085e-03
7.019465349778421411e-04
3.630092308152455937e-03
8.369169165343428272e-04
-4.292344289105579774e-03
-9.687703170583712720e-03
-8.804023728256274092e-03
-6.460901029315988670e-03
-6.070242596968262148e-03
4.008538652618978682e-03
8.685842510090826391e-03
1.467815600804924176e-03
1.168995821914284392e-03
5.666070992133805280e-03
9.004352713912724265e-03
6.389758800929885504e-03
-1.245586780604084217e-05
9.273486775074836399e-04
2.796415215378723115e-03
2.413679900248874750e-03
-3.554821429993610597e-05
-2.405964394506344712e-03
3.436373333074742211e-03
5.155555124010667220e-03
-9.416994590724755065e-04
-4.417215401338300644e-03
-4.488752529847260184e-03
6.294671007049133576e-04
1.665012610933046342e-03
-2.671179383107801647e-03
-1.281797342687307668e-03
-2.384338554945334213e-03
-7.699006267624874077e-03
-9.815712739632848766e-03
-8.548395972621920802e-03
-2.957344173586263624e-03
2.938544010382838217e-04
-2.369953205702604419e-03
-3.649467560275691282e-03
-5.208926072509353130e-04
1.740063963274242733e-03
1.372302521649222890e-03
5.439235073690294048e-03
8.622113778973790679e-03
5.540753922013850509e-03
5.394963082835959461e-03
3.501592036663681191e-03
-6.487120457649673015e-05
3.460077168208286480e-03
3.390273041884489871e-03
2.912854456152845408e-04
2.390974303266444646e-03
1.945815368268553284e-03
3.110025094585858879e-04
6.552856404251888173e-05
-2.724114770821279338e-03
-1.115270183230081518e-03
3.538705041817725126e-03
2.997047122810550003e-03
1.631526249294229687e-03
-1.087239630501254115e-03
-4.695334531643806028e-03
-1.995157732900857631e-03
-2.633217985230870716e-04
-1.928387191645033766e-03
-4.832655660666481203e-04
1.427411458465470732e-04
-1.081453705766430556e-03
-3.629438820530961340e-03
-4.333203190434571639e-03
-3.636878052016638790e-04
-2.202736562291805842e-03
-5.637393359654550157e-03
-2.202386424276288335e-03
-8.217563143091048770e-04
-4.323555746028648447e-05
1.406232402095634448e-03
-2.047341198872801521e-04
9.992045531733236181e-04
3.185926039888427146e-03
3.056143882187467489e-03
2.486407570811398956e-03
1.456521119934656725e-03
3.084037091571911488e-03
5.030083085952934303e-03
3.514370512512947180e-03
1.996422002656263964e-03
1.734168325389061089e-03
1.360702613772147565e-03
-1.226039934123288652e-03
-3.051123829384585952e-03
-3.988644478070473790e-04
-2.700615074896317407e-03
-7.863646866775578573e-03
-1.079358367836477954e-03
7.254698162289796581e-03
5.314585105646309551e-03
1.969611511824958736e-03
9.603022016878030778e-04
1.925676690724187345e-03
-3.821372823367988553e-04
-7.598409414945355399e-03
-6.740552411882735732e-03
5.647516666830139712e-04
4.910588929880349389e-03
2.525769008469461435e-03
-2.732838977980109243e-03
2.387457690014352894e-03
-1.127743561645188318e-04
-1.670298701966361349e-02
-1.200593239779946045e-02
3.528591414034795790e-03
3.627210372999149866e-03
1.861831261370508993e-03
3.885753569239710093e-03
5.230832393375074198e-03
4.686316660382299458e-03
2.441527696020788941e-03
1.714843438930249535e-03
2.047974936619167789e-03
2.268030438662685042e-03
-9.256343027046504569e-04
-2.865263997435165983e-03
5.588985649825466964e-04
1.319224333618374814e-03
2.175202549456362565e-03
3.827395122913627989e-03
2.096408338051935962e-03
1.248350342629275713e-03
4.423472726010862881e-04
2.717040333443430412e-03
5.621824123023933147e-03
1.139264941741718591e-04
-4.701364956941029433e-03
-3.559293183007781504e-03
-2.948867050427266077e-03
-3.656487505318361305e-03
-2.892902883307356225e-03
-5.627432695479346342e-04
-1.480803703903994925e-03
-5.784934701716211436e-03
-8.354538928292973635e-03
-5.072432384964483017e-03
1.263804983695359643e-03
1.481798030458986344e-03
6.515412335331773356e-06
1.021961771643515845e-03
-5.593659146338875437e-04
1.895139627236881470e-03
6.685586883725619031e-03
5.205938938047752554e-03
2.984763978702499338e-03
-5.706399528058920829e-04
-4.865704372344016072e-03
-4.146966758871981399e-04
5.158005288640932565e-03
2.593519333711110687e-03
7.292930447614618967e-04
3.739604814254679412e-03
4.499757994647802552e-03
8.993274030833666019e-04
-7.337347389257790637e-04
2.390820798564962085e-03
5.038637715194945257e-03
4.300841927864992864e-03
7.906317652251579516e-04
-1.027642135630853172e-03
6.097236336902268688e-04
-4.031914731185477774e-03
-8.985737423561077422e-03
-2.890688189501761270e-03
-1.103894488737893267e-03
-9.216785139150881698e-03
-1.346630764682469478e-02
-7.136425605502345372e-03
5.709363433218113577e-03
1.038363663988178982e-02
5.806395444603553412e-03
2.176418763966504917e-03
-1.525574398564819630e-03
-3.172363747345732267e-03
-1.741601099146204657e-03
2.885463492467888087e-04
4.550264367016319290e-03
6.185667905873764617e-03
4.003433918487246147e-03
1.587991422461561362e-03
-7.883446704319634849e-04
-4.596184650975548326e-05
2.668594662478322027e-03
3.351237475363756570e-03
5.087493485953907980e-04
-5.161559315169051039e-03
-6.680990990382751002e-03
-4.437080640966409653e-03
-3.295163742263216428e-03
1.828414466203281703e-03
5.642368498808630721e-03
3.380730255191265665e-04
-2.928834687065659092e-03
-1.742738078694136897e-03
-2.092135589962705600e-03
-4.287394712989560006e-04
1.427739123075474860e-03
1.228773279964313295e-03
8.304711176063773797e-04
1.549970664663482363e-03
4.535448489310167121e-03
1.637506611521600880e-03
-4.417548020241316743e-03
-1.389110368698545043e-03
1.390597716617817965e-03
-1.928025685529349094e-03
-2.120175316158443360e-03
2.020239797859863309e-03
6.276934980846166946e-03
6.627975370606686324e-03
4.085727707396223998e-03
1.582418312976838822e-03
-3.179475113351295764e-04
-1.748163982160347470e-04
-1.243454629736848128e-03
-1.558310667575800446e-03
2.457299930540776407e-03
1.068968466790662765e-03
-5.561991313738400347e-03
-5.915430325854016680e-03
-2.360699078783979731e-03
-1.492113692843272544e-03
-5.433493799773416290e-04
2.265231039139150616e-03
3.621876534707525654e-03
9.079172304489271407e-04
-5.484169003947912853e-03
-7.823070357388852564e-03
-2.785265810880587379e-03
-5.691653730155420143e-04
-8.836861536896038587e-04
2.027468910301530054e-03
2.782762636556240701e-03
3.017377690769552142e-03
3.846854213391745058e-03
2.396343532618422888e-03
4.305793003513798227e-03
4.391947111217683712e-03
-1.281873209654068625e-03
-2.716680130462072098e-03
-3.240851987573614788e-03
-3.930139447067475082e-03
1.509868555656388887e-03
3.573652836977704236e-03
1.852855330993294879e-03
2.474048173328391095e-03
-5.086293521448224421e-04
-2.194332266436433906e-03
4.970891885707209249e-04
1.283582216113424808e-03
2.132659968874504354e-03
2.163521414910803044e-03
1.516965690849798919e-03
8.055660267912290303e-04
-2.802955579447511444e-03
-3.908749932184896539e-03
-2.600557217907932886e-03
-1.513576093824180397e-03
1.762764315657998110e-04
-1.637524008608618657e-04
7.480765481215770688e-04
1.296340371393765126e-03
2.329115298841693995e-04
2.527919039241525827e-03
1.095222818428203976e-03
-3.346162440105378538e-03
-4.215626131453125390e-03
-4.968692324470127229e-03
-3.128066815828921439e-03
6.681239534798274950e-04
3.828884508308266418e-03
6.687123964723897668e-03
2.316232891339450699e-03
-4.967377189745967453e-03
-5.173329267624975081e-03
-9.140179874039837046e-04
3.926768780931598653e-03
5.069515248003184094e-03
2.004982902595914013e-03
1.110257046406950025e-03
1.275133239376014579e-03
3.727670988416429635e-05
5.361857968227365942e-06
4.693061431303430903e-04
1.976341229530804034e-03
2.655962773077492640e-03
-1.224881076165923541e-03
-3.094380221093386528e-03
-2.159855908969999117e-03
-1.522914389101967872e-03
4.073499804720475542e-03
7.157432804187121439e-03
2.034189256122491754e-03
-1.597767157786445305e-03
-2.981307337471460813e-03
-9.098990848152550088e-04
4.700005946253088193e-03
3.822608942275855341e-03
-3.190850946368895642e-04
-1.828675666980044637e-03
-7.756277011393845726e-03
-1.893205333470448018e-02
-1.963146267842723336e-02
-3.033528468704881510e-03
9.907103628010317797e-03
1.043577232655015612e-02
1.065269668678377711e-02
8.463792032957087944e-03
3.383218757846358921e-03
2.659078030331778371e-03
1.792611493953566578e-03
-4.790939381050979100e-03
-1.148363690160436427e-02
-1.396831748842422560e-02
-1.599149979557104931e-02
-9.674272769140122505e-03
3.895649678520026783e-03
4.604164368450670147e-03
1.344718041880340080e-03
4.410698787273372584e-03
4.416275642546684151e-03
7.538007679437378102e-03
1.361926216693062040e-02
1.848465064701353827e-02
2.076514244090857039e-02
1.325130071962599305e-02
7.436522453648721984e-03
7.652336673719877663e-03
5.555548207755913598e-03
3.833242122143477350e-03
8.459400672379596611e-04
-3.706181345838346040e-03
-1.112470531851527528e-02
-1.869134766057231611e-02
-1.949283040823727303e-02
-2.019420046740814240e-02
-1.794667238390328448e-02
-1.374053003344500971e-02
-1.338124036357523500e-02
-9.413279464298398430e-03
-5.865094633479216515e-03
1.648130647628597706e-03
1.071291712666963374e-02
1.302345708692599635e-02
2.236515482055674228e-02
1.304511255492513469e-02
