-2.645078549781633426e-02
-1.623174098064947626e-02
1.151224481391338941e-02
2.070818115880160987e-02
4.145548782069980592e-02
5.226735134932350424e-02
4.704138369448416374e-02
4.347001107066200687e-02
3.553114099795945391e-02
1.896377076667877734e-02
-8.391209325432912340e-05
-1.331448794372611794e-02
-2.690807242583232936e-02
-3.996509613690508306e-02
-5.060526924494229695e-02
-6.183651203591111756e-02
-6.274231201963648141e-02
-5.990642473323122552e-02
-4.686665825098593197e-02
-1.744872346146316908e-02
-1.722101427816101092e-03
6.848750406068377511e-03
1.657261850425602659e-02
1.367814509288673569e-02
1.571597455466652860e-02
2.453064407267537342e-02
2.728913921463697878e-02
2.773422122402331019e-02
2.551023654226705975e-02
1.785969934782825549e-02
7.072392653425367028e-03
3.536866417759215730e-03
3.236019343708458965e-03
-4.123667855887905818e-03
-9.273205951192962579e-03
-1.409900765450928205e-02
-2.061208713297320305e-02
-1.968125025297002423e-02
-1.590327550689346961e-02
-1.106404642976586451e-02
-3.260438351137144586e-03
4.280106048914283749e-03
9.190874179874158889e-03
1.178885148006629524e-02
1.658034985038237333e-02
1.646643318527085328e-02
1.063087176995290879e-02
1.159328806580658087e-02
9.607633911525107970e-03
1.245000110020177009e-03
-2.839026057647792492e-03
-6.145536693025247486e-03
-2.316732752536564913e-03
4.827169363146487785e-03
7.687184521806972315e-04
-1.614848761634061266e-03
-1.917354055025555747e-03
-5.795588335082748829e-03
-9.064332866097144989e-03
-2.351716444070333853e-02
-2.793705116851740930e-02
-5.125419440982771982e-03
7.381807368541198205e-03
4.357529229314464729e-03
2.889734592700827793e-03
1.465844835742582345e-03
5.270097565824372228e-03
9.245034964262639418e-03
9.608809335106464553e-03
9.943196231369532540e-03
5.300990943835510831e-03
1.440992520282698098e-03
2.415780451221699945e-03
5.992265958276381081e-04
-4.082334648153531677e-03
-2.033637319599031733e-03
6.434293723810801877e-03
4.447631789853812197e-03
-3.311393936995316988e-03
8.857462025596430765e-04
6.679722357610082956e-03
3.391452495159347214e-03
-2.369832721483258655e-03
-6.301317937524684477e-03
-8.562404874623766662e-03
-9.261077081968459301e-03
-9.943291673446178966e-03
-1.230590242115119429e-02
-1.168242681598355773e-02
-9.578101321871097806e-03
-1.042449738192523581e-02
-5.915488727618281595e-03
4.409387431512280624e-03
1.219331556121228642e-02
1.207794261569663553e-02
7.598286433816951214e-03
1.002062542335967026e-02
8.994382508490042158e-03
5.686593171889998966e-04
1.428953742874069502e-03
4.468680568267100091e-03
2.355479539574141176e-03
-9.351530389142720693e-04
-6.263740454348513086e-03
-6.427525056734218790e-03
-3.588516568152777357e-03
-1.603918605063331219e-03
6.243002341214227112e-03
1.200136171259105072e-02
8.212854651162004860e-03
2.049583282896905341e-03
-4.104481220364534014e-03
-8.542832123830629981e-03
-4.690432285094804990e-03
5.788793226152647150e-04
1.477327221324937177e-03
3.321422293395982078e-03
-3.997530753507870689e-03
-1.405868055646446180e-02
-6.071668319529376599e-03
5.309475749568841156e-03
8.915652481729942000e-03
5.579622774781132707e-03
-4.073871097264661345e-03
-4.160188067463772843e-03
1.218157349682042964e-03
1.076652478835543256e-03
-1.171244981808914221e-03
-7.083036716377708909e-03
-1.123010282997760449e-02
-1.005141674210793465e-02
-6.377604321344479930e-03
-6.411797144115333712e-04
5.782357232893423418e-03
1.328841096399997583e-02
1.867360228656605656e-02
1.967178253993818668e-02
1.106898866857648767e-02
-8.061998725464254766e-04
-9.041178656414840210e-04
-5.250187937030978760e-03
-1.814811110719547968e-02
-1.804292882153778546e-02
-3.441732911730110978e-03
7.452232564759780215e-03
3.776807817798755011e-03
6.931733414995115347e-03
1.121786421587578700e-02
2.275212031913560317e-03
7.211107867261592856e-03
-2.350556197329174007e-03
-2.799100127227635917e-02
-1.187968790413759974e-02
3.962467967718692405e-03
-9.662788762260902248e-03
-8.233889265185798112e-03
4.411771697717042223e-03
8.486732493641596653e-03
4.801168890606631601e-03
3.146129911370376415e-03
6.450593981299643231e-03
5.829138339155825153e-03
3.595165522649997926e-03
1.770470522471766055e-03
2.819836293634861261e-03
-7.152168229344999135e-05
-8.608122903137080048e-03
-5.006450388711145699e-03
-2.109365372412162938e-03
-7.043967753242463999e-03
-4.339341088271437066e-03
-8.298818884962098517e-05
5.167179855907174171e-03
1.056105993691597127e-02
8.285461076212185041e-03
3.190719899020407445e-03
-1.030160741975710489e-03
-3.943085887322857370e-03
-5.514707675462848617e-03
-1.461033886760235590e-03
5.276291069430823731e-03
4.324894104087246768e-03
1.717542427617756162e-03
2.352294396492360645e-03
1.731159332816742391e-03
-2.313854432383621700e-03
-7.455328061099872339e-03
-8.493948061662455820e-03
-5.561990695902586587e-03
-1.951102684370467763e-03
-4.904423435590124503e-03
-7.767150227383243753e-03
-1.071280134242597916e-03
2.937485304063960738e-03
6.620679516432292737e-03
9.168092955685073694e-03
4.262780619366753933e-03
3.581627520313519688e-03
3.730680128859442104e-04
2.138297795604153680e-04
7.331166474961858109e-03
4.794474241948159382e-03
3.576724345593836844e-03
-2.906137953242225649e-03
-1.242106643057898016e-02
-2.246386380608728084e-03
-7.312119935400729701e-04
-8.536173619067524004e-03
-3.528712724034347055e-03
-3.959670859532629303e-03
-8.611003464314459163e-03
-8.083375054437813914e-03
-3.931762666832121743e-03
6.546420021879356677e-03
1.354587511781496847e-02
9.283833627877062858e-03
5.646650089324956739e-03
1.040819553516316408e-02
6.028280434282278118e-03
-4.021636471206324268e-03
1.473821005881559287e-03
4.699842430992501319e-03
-5.406285901066177875e-04
-1.981068351002734582e-03
-5.606403027485030131e-03
-4.612780813131321309e-03
-6.697017606721057930e-05
-1.101627100297952223e-03
-8.422363018549699522e-04
-1.999510740511187441e-03
-4.312213781771265415e-03
-3.716299779523430345e-03
-4.437800869819110393e-03
-7.701345239186457815e-04
5.721838455498578016e-03
4.292122672084735732e-03
1.876747485386686363e-03
3.273108162591724314e-04
-7.442957496555815608e-03
-7.180414025471028479e-03
1.644679683411386746e-03
2.841877820819630179e-03
4.404682760476908918e-03
5.715658271864252661e-03
2.552406300214369109e-03
1.167953441584374322e-03
-6.542416649395499731e-03
-8.256325194680150595e-03
9.918765798244131345e-04
4.008913730361683692e-04
1.584781278433070495e-04
1.915368639835553872e-03
-2.052039892638630406e-03
1.158256547503700232e-03
5.615392427278380512e-03
7.143557223922476079e-03
5.508291802659678535e-03
-5.051139448271774364e-03
-1.009996177917268055e-02
-5.881241159273905422e-03
-6.527947333291659986e-04
3.867461287979852193e-03
5.162934402509276009e-03
6.127826918363040408e-03
4.045403807735902836e-03
4.638204457217737133e-04
-5.698468496352609557e-04
-4.574941067984701973e-03
-2.876573824473931291e-03
-1.341828563928206420e-03
-9.233685973485132939e-03
-4.720158843911019531e-03
2.903658539398470267e-03
9.984957643866571204e-04
1.137856326659758902e-02
2.013053467841060748e-02
1.167582514747769751e-02
3.802439316996401256e-04
-1.222937131078865799e-02
-1.613097111123533087e-02
-5.498465122625509696e-03
4.872781631242152807e-03
8.120341542020096878e-03
-4.763432042597494712e-04
-6.668796116182696548e-03
4.149916227527233837e-04
-3.014477370972446554e-03
-1.188279656006223720e-02
-7.363242865276298406e-03
-3.413697648597463323e-03
-5.139266268316191287e-03
-5.414917918776424727e-03
-2.095076086429372309e-03
2.168010758533395980e-03
2.094016574798294658e-03
3.156925660765980655e-03
8.328098417407796619e-03
1.091637105099570182e-02
5.498150269309163771e-03
-3.527885646302783887e-04
4.918442911084329808e-03
7.741263045172765665e-03
1.430463858248682066e-03
-2.390776484456330793e-03
-4.061298704890720958e-03
-1.218490957583414497e-03
2.179356155346116094e-03
6.629323954124556823e-04
9.236327192739905972e-04
-7.696087901086828744e-04
-1.575168370500992570e-03
1.563080041743962782e-03
3.922790769020493770e-03
9.095289471027676390e-03
7.352549616533263568e-03
-2.895042278900959200e-03
-5.874391616482573832e-03
-3.137837405907224590e-03
-2.661449369834982710e-03
-5.014492888230774256e-03
-3.498287236174387436e-03
1.166321213981826943e-03
-1.071718534079858180e-03
-5.586547524369642193e-03
-7.118006481992873204e-03
-8.917839590007444264e-03
-8.932388681891924309e-03
-4.571288596236264094e-03
-2.576930355840864433e-03
-3.715036485851100356e-03
2.517470932304796682e-03
4.732268783524689118e-03
1.474390637394175536e-03
7.203006298060430149e-03
3.110169338564242915e-03
-1.817785784670616824e-03
1.045446938885488154e-02
1.126188335993344100e-02
3.112008559688650769e-03
8.620396726813581980e-04
-2.733783257490326850e-03
-1.530722268262444362e-03
4.065905216654117256e-03
8.438044698357217988e-03
8.881304777713115717e-03
4.131301014427405001e-03
-1.888268690527369464e-03
-6.506530653584649028e-03
-4.203684840477058676e-03
-8.392607517132517425e-04
-1.917397017480694348e-03
-5.830437212526949110e-03
-5.780807402228144674e-03
7.498251321444777961e-03
9.234681791498726595e-04
-1.918527804004025589e-02
-3.320551746643293344e-03
9.526627231032579537e-03
8.543740059073700547e-04
5.021117573772678096e-03
3.546055250295193639e-03
-2.187994867673977769e-03
1.853965502398525946e-03
2.562517904029241490e-03
2.027154376646863633e-03
-2.348956806179120990e-03
-8.809042241524971464e-03
-6.924165655078502214e-03
-1.737298703129832754e-03
1.083805458619619246e-03
-1.123581723820658807e-04
-3.962156145502391917e-03
-6.001138508616979741e-03
-2.160693515798729671e-03
2.351954579501350836e-03
8.587668415093262621e-04
2.526232446147882744e-04
9.830384022778740870e-04
1.271026833045266419e-03
3.219332129020333576e-03
3.608723225887948850e-03
7.682956604573465409e-03
1.331961113271275948e-02
1.036684934852675523e-02
2.805567333390728783e-03
-3.054678565814211363e-03
-5.017485582247434642e-03
-5.138956797349933554e-03
-8.292537582676973509e-03
-1.369035130858614613e-02
-1.191049216141193412e-02
-1.662474467828979922e-03
4.412566930105892189e-03
8.704994336507950597e-03
1.208494925831882227e-02
6.337806387769034412e-03
2.041249741763068691e-03
-6.027332140639250508e-04
-5.946582828521314659e-03
-5.236205711049524668e-03
-3.582405467427811612e-03
-1.698051652727959474e-03
4.334924696028139186e-03
4.729373229454728045e-03
-7.296734503164685947e-04
-3.229116809419969609e-03
-5.724912751294843581e-03
-1.285887342608225785e-02
-1.112744667730830236e-02
2.312750579915739263e-03
6.250593962062249778e-03
2.128697909065865694e-03
3.592623830987851530e-03
8.804424975487688820e-03
1.556967085131643301e-02
1.627812718316780025e-02
9.275280872807861038e-03
4.391318696554392248e-03
-1.427095136781667993e-03
-7.569552607459398112e-03
-5.160980204534119584e-03
-2.759254857830222593e-04
-1.405040935043196928e-04
-3.450450177841789343e-03
-4.664965578008568176e-03
-9.643536747702647705e-04
-8.202844635456646438e-04
-3.014202381581970562e-03
-1.642745925319359689e-03
-2.669146770168255838e-03
-5.352578488459724254e-03
-1.004902807025289009e-02
-1.590482010472057950e-02
-1.664112786020664411e-02
-1.644874048886355369e-02
-9.180466220032183419e-03
3.275051768515411642e-03
4.374890978014968693e-03
4.192422995025007169e-03
8.296737095178145088e-03
1.035830826326593693e-02
1.312122366561780697e-02
1.206025018104452291e-02
7.920909065665695387e-03
2.067761295048381985e-03
-2.462871162960284313e-03
2.861661830500612878e-03
6.545864367296996833e-03
5.480664651164224646e-03
6.624838786607629808e-03
3.651373710807503427e-03
-1.176343574552538517e-04
6.547180789463974762e-05
3.641064945417319364e-03
6.856177668449613127e-03
3.550002729860858401e-03
1.354222300908682281e-03
5.713630141179850720e-04
-3.338148628027664579e-03
-2.908519364829619674e-03
-3.637557831096567681e-04
5.726199155933241539e-04
5.535892136616651308e-04
-3.278085305729792637e-03
-9.152360161118049467e-03
-1.300931028162241945e-02
-9.799909097401741931e-03
-6.696860251855834591e-03
-1.025191753865650583e-02
-5.115828613683928543e-03
1.555904420077723355e-03
-5.861641980432516323e-03
-8.066379695194747512e-03
-2.640721762383756339e-05
5.283704257218298055e-03
8.322284638087654868e-03
6.821087107629695070e-03
3.526593472080909696e-03
1.351669506637070192e-03
-2.056755679009253292e-03
3.920508094530432376e-04
3.647369376840078371e-03
2.560095445646364942e-03
4.469839130038585559e-03
5.096937006293111166e-03
3.409004658637677584e-03
-1.195300361802016566e-03
-8.245114825410867695e-03
-3.070612210872532451e-03
5.908307691908943997e-03
2.131620889519860416e-03
-3.819001429961890130e-03
-3.051735420948378449e-03
8.173945930346052970e-04
2.453310991893774794e-03
3.898131506472472460e-03
9.371281800751453395e-03
9.343358821732728262e-03
1.478875057131232625e-03
-2.825675269520856302e-03
-1.142645399853626847e-03
1.782732563285014315e-03
1.749403218306157942e-03
4.988023938277833316e-05
-2.379803497235329513e-04
-4.535901764738638035e-03
-9.847586849044680235e-03
-5.671199147783682025e-03
1.056925876715667954e-04
-5.292421428899939714e-04
-1.590384118423302656e-03
-4.160832744485496414e-03
-8.229710897768008696e-03
-6.028486798971110193e-03
-1.541707606657285621e-04
2.406845406808668687e-03
2.194597439119796902e-03
1.675157792866335989e-03
8.022102724010342703e-04
-1.163331343508995858e-03
-1.102860496224345246e-03
4.923928987436555424e-03
1.110184536772992198e-02
9.058601714565130483e-03
4.184744206091569815e-03
1.692462508697576730e-03
-2.059225718880291697e-03
-4.857403269615020135e-03
-4.952495845776710287e-03
-3.396982394028548718e-03
-7.017693226987951850e-04
-7.923223123044687791e-04
-3.597047051148801367e-04
2.908983926727282988e-03
4.883267076853787386e-03
7.289683673503622591e-03
7.764226867188775590e-03
5.217264300657635176e-03
4.698327640084717406e-03
5.305874363437519366e-04
-1.376319967146120461e-02
-2.521109186795264523e-02
-1.457239864508071137e-02
5.528737315493031587e-03
8.036705711278194220e-03
3.977123027028962128e-04
-3.010060316832073764e-03
-5.098893093830959670e-03
-3.381904627426503794e-03
2.063968622510782298e-03
2.759136613990885185e-03
-1.251895252857154533e-03
-1.734870553515735318e-03
3.445335821487296481e-03
8.094492076363729582e-03
9.172471434110577096e-03
9.113994160148249091e-03
8.803171600944459385e-03
4.761314406361651791e-03
-2.870174385492962714e-03
-6.402572621161513322e-03
-5.651632275789804372e-03
-5.213961007305561134e-03
-1.404936752431201405e-03
2.697751817381956792e-03
4.389010565892908751e-04
-2.184540555660630145e-04
2.188327952182352824e-03
-7.447531733866587797e-04
-7.403340263307417110e-03
-1.525659309278334409e-02
-1.736759396629513133e-02
-9.559696435959517957e-03
-2.627534877607938524e-03
5.141928250282881696e-03
1.307754223919747015e-02
1.252292299276677907e-02
1.285881468673363490e-02
1.054610652731474349e-02
1.967383620145557802e-03
2.639751451116265513e-03
6.652492911282732735e-03
6.141586271160695554e-03
3.853073111587039350e-03
-2.591133170842189592e-03
-4.166135778681109673e-03
-2.628622607959490640e-04
-3.134384913922160214e-03
-6.596961846042211260e-03
-2.735294071428349440e-03
-8.250834551751823776e-04
-4.484701343188328242e-03
-7.097799307288071846e-03
-9.781300852643753929e-03
-7.035200171616894441e-03
2.604490264007674766e-03
4.763974783038721350e-04
-5.456763912378382805e-03
-3.351917626450868441e-03
-7.708559712979208903e-03
-6.615283297304793211e-03
5.996775605645447184e-03
8.796624983241225701e-03
8.767139901616670394e-03
1.156318463565147829e-02
4.557951882887218385e-03
-3.007255810696234447e-03
-1.189374354226274601e-03
2.210486525546757810e-03
3.961442509956299325e-03
2.157695548838189144e-03
-4.027517146101530603e-03
-4.900500659744959527e-03
6.929812579259141993e-04
6.789155657242611740e-03
1.108315601721408111e-02
7.977940187502101724e-03
2.160038023137647156e-03
-2.600890327281164642e-03
-8.950249477687608618e-03
-6.883079382673630044e-03
-7.077760545359999779e-04
3.289293372421032806e-03
9.076236193824855150e-03
3.239494258924374009e-03
-7.100908016906207730e-03
-8.664796218769107647e-03
-1.177222318252278167e-02
-9.764406960976411073e-03
-5.692145715302836945e-03
-6.979119989526455341e-03
-1.599301242686390319e-03
-8.689618239148568218e-04
-4.441602108121517171e-03
3.705602731341552103e-03
9.891235120329924801e-03
9.479948973002687296e-03
9.913849928376752829e-03
8.548737957003321036e-03
2.604646849558319918e-03
-6.980463386089041065e-03
-5.276838601839796590e-03
7.738688661783303148e-03
9.956669816774194742e-03
4.459910799995739014e-03
1.475651172256463566e-03
-3.643536821627964620e-03
-6.936860081538476913e-03
-6.420127595783282383e-03
-5.382722876173485702e-03
7.843948319965904359e-04
5.926848204090479945e-03
1.204879923554721260e-03
-2.914508652212998568e-03
-2.146405240365369636e-03
-2.887280298545664200e-03
-2.705679491844816074e-03
-1.015452720576169934e-03
-1.757773704998189836e-04
-4.974725641119592898e-04
-2.029451172970108113e-03
-4.271276743617593782e-04
4.059330106192447080e-03
5.678127009785989554e-03
2.986872824332534315e-03
-1.478741675934421712e-03
-2.940797765828981596e-03
-3.358809094299319148e-03
-5.381012011496752456e-03
-1.087914014716909921e-03
5.227566138891959029e-03
3.591111727476895910e-04
-4.650871650072949462e-03
6.286283833262471541e-04
3.150108997954637752e-03
1.616358247761478682e-03
2.585093484178907150e-03
2.828633752334826050e-03
4.578510451803060287e-03
3.494431553825391029e-03
-2.786365528130436368e-03
-2.766080557820366909e-03
1.571401973818033855e-03
5.286248341817622286e-03
3.696570827728908569e-03
-7.059475632208075772e-03
-8.354432112359921891e-03
-3.088169242384316161e-05
-3.197276017614672722e-04
-2.863405213126017559e-03
-4.493110896846677464e-03
-7.162124007492554068e-03
-5.029708829150204147e-03
-1.300621717242173491e-03
5.053544767177677380e-03
1.233392424406564228e-02
1.040142631226629102e-02
7.166710847590819326e-03
4.753743018316863161e-03
-6.878442770291022176e-03
-1.060132855100760080e-02
1.273851265474174217e-03
5.485875009183800721e-03
2.650251843775758200e-03
2.330498576355140121e-03
-1.700849650448776808e-03
-3.316729903607249820e-03
-1.701825040107303238e-03
-4.430925004088541626e-03
-4.251238739690016769e-03
-2.092913755637657112e-03
-5.107169038185969956e-03
-5.791961119466604128e-03
-3.431615398843382747e-04
5.066432283177501467e-03
7.065666687505300046e-03
4.993937211598015527e-03
2.680038538899566286e-04
-2.994413946939344668e-03
-1.391470990325426602e-03
2.846218707499347054e-03
4.282274152548609138e-03
4.352898531735017139e-03
4.545303674483700332e-03
2.521081549788702948e-03
1.730373921576451330e-03
2.079776917349690328e-03
-8.920820629150516285e-04
-3.284989800204983317e-03
-6.913170070346386000e-04
1.283845938005451128e-03
-5.405403568767861398e-03
-1.066109968930747769e-02
-5.459175129986473113e-03
-1.246497544293934199e-03
1.921793719227552063e-03
3.063062738051966841e-03
-2.487265196500417289e-03
-2.423507031268546004e-03
-2.067597414394695653e-03
-2.018628153088998251e-03
7.371539782001064467e-03
1.211690199104127445e-02
1.177583252785701501e-02
3.599819642205106564e-03
-1.207067173814632514e-02
-1.022378303620643733e-02
-5.407229815885972873e-03
-1.039935596363189031e-02
-5.846950924314029893e-03
1.389372524336840919e-03
2.326982255981796099e-03
-6.545481345029163138e-04
-2.196271581405073899e-03
3.576508189954000390e-03
8.411387881298627162e-03
8.670978801477128781e-03
5.320600700789230447e-03
2.099015868917894316e-03
1.839718824593014482e-03
-1.159048319178836769e-03
-4.394562402788208897e-04
4.307380014938976681e-03
5.078111780562249988e-03
4.293101223150849917e-03
1.454488888582531649e-03
-1.309247104804098704e-03
-2.971460646704688485e-03
-4.825827538489340339e-03
-4.766205252260508410e-03
-3.341146630024197008e-03
-4.305759841190396134e-03
-1.069541975062780759e-02
-5.528186928661661496e-03
7.846349956033851769e-03
7.132399649342471490e-03
9.883567758000892309e-03
1.019743689845239998e-02
2.776112973503023270e-03
7.141471900411968873e-03
-1.083870214681402488e-02
-3.122046773574304809e-02
-6.159381376090920790e-03
1.125776557635509503e-02
7.292466383035003507e-04
-5.536698607688708001e-03
-5.956587210214813605e-03
-2.270515426219381697e-03
-1.138005898548357341e-03
-3.574369354588570078e-04
4.481984621970398416e-03
3.770928254891408107e-03
-3.102289782973122038e-04
-1.370416940728358445e-03
4.153740077554061647e-03
8.022412253442639737e-03
4.859384746149853287e-03
5.195586675109440875e-03
3.823296665600046332e-03
-1.803875430527239433e-03
-4.138147216032342195e-03
-6.795928437654228955e-04
7.998973520994200406e-03
8.517616235902037911e-03
2.825319555345822027e-03
8.397776303551255121e-04
-2.722141505483953710e-03
-4.669965531108008147e-03
-6.126873390925978782e-03
-6.666997562802898063e-03
-2.445536566239232910e-03
-4.246320815961593040e-03
-7.993769068509177025e-03
-7.596095716842668315e-03
-4.948722780544553487e-03
2.878531798901811170e-03
6.455117461382832780e-03
7.319599457965043909e-03
9.378714055123702278e-03
7.812853069493407802e-04
-7.780216268969551881e-03
-3.178262279063493075e-03
6.070879786692184865e-03
1.014133217964405947e-02
6.757320771383580095e-03
3.828542234675570092e-03
-2.153177816789360148e-05
-5.440864416758216596e-03
-2.548291416748691383e-03
-2.787729110779415230e-03
-6.272314343855060932e-03
-1.418914176734730219e-03
-5.011494036301319607e-03
-8.729289122074228649e-03
2.663313441799021897e-03
4.884000701076841866e-03
3.110015382846275777e-04
3.313450823781560230e-03
1.476341118614363712e-03
-4.037924420604297078e-03
-8.308136046924504900e-03
-7.981949440473250224e-03
3.042751405543787577e-03
1.074917274079692162e-02
7.430677400728590183e-03
4.685845084569738479e-03
7.986804602132122066e-03
8.487370977232077535e-03
2.574137683830340223e-04
-3.853126175305084371e-03
-1.521228930847349408e-03
-4.553185182872663585e-03
-9.005932164940682119e-03
-1.020460010581708890e-02
-6.675970454231441344e-03
4.157999952441318418e-03
1.258023652297968198e-02
1.221739295804964362e-02
7.894570752160684490e-03
2.896141167774838807e-03
-1.157940332065685810e-03
-3.003083953459681574e-03
-1.906704171121827163e-03
1.044599799600997398e-03
1.871051799720107722e-03
-5.917441275150417705e-04
-2.028949514970678891e-03
-2.090091831626184722e-04
7.069919908815625867e-04
-4.619462829834745151e-04
-1.226763568599363629e-03
-2.195655069859882551e-03
-7.503721825950218031e-05
7.067052586310237222e-03
1.244709461388993597e-02
1.265140203140567750e-02
8.708368212657840307e-03
1.647416078604150820e-03
-6.058912481884965590e-03
-9.229407317955165904e-03
-7.788044030240546221e-03
-1.005185876777147692e-02
-5.933793483562489236e-03
8.983523361658555736e-03
7.466697285757338369e-03
-2.708659081277077496e-03
1.998416884916684455e-03
5.361269207034879795e-03
4.648077846927578007e-03
7.394911034563204401e-03
7.960214396501134188e-03
8.641762476099965756e-03
4.980338577093690496e-03
-3.521076146911576374e-03
-8.667056352548113338e-03
-9.929329941513870966e-03
-8.944482219131424938e-03
-1.080660510149260289e-02
-1.024198874847244596e-02
-7.826933304249515666e-03
-1.484367552858376939e-02
-1.572706063333474333e-02
-3.301430512963652187e-03
4.844395254886545502e-03
4.933901637876862527e-03
2.430445439642001017e-03
2.767658964420963760e-03
6.987264844734797711e-03
1.030413137167771054e-02
8.678569080661734797e-03
5.830294424539486653e-03
9.724627202742877619e-03
1.071094906337199081e-02
1.471000560961774513e-03
-6.131878888718595572e-03
-6.580909110110390661e-03
-2.133563555695304221e-03
2.325889568704123545e-03
4.019004861196216402e-03
6.904011921740013137e-03
8.912012580842954002e-03
7.574614046376351023e-03
1.191921406594943084e-02
1.710622898978682652e-02
1.236643662472340990e-02
8.195297526977325317e-03
-1.141885852375839651e-03
-1.458780636136745336e-02
-1.724113811552690709e-02
-2.624970235979344133e-02
-3.324850887228921609e-02
-3.679106081830595815e-02
-5.835475078069891908e-02
-7.263264608811181855e-02
-6.616769599115686351e-02
-3.271187167778254190e-02
7.946327876953141606e-03
2.618171529656571767e-02
5.558767749423249721e-02
6.123802601825348996e-02
3.459722663746975235e-02
4.524647734105986807e-02
5.567367653771469055e-02
5.152092032792179865e-02
4.709442117181685677e-02
1.503823274657902810e-02
-3.312737693404151779e-02
-7.261334965084553783e-02
-4.724232732675554686e-02
-1.253445806866398601e-02
-3.337770040649018499e-02
3.155736887288579373e-02
1.402491913221288189e-01
9.846820362868882737e-02
-5.780724867845904620e-03
1.294242139719500168e-02
8.675113038777843011e-02
4.772320218725947111e-02
-4.669419493017912259e-02
-1.162598900737459306e-01
-1.731896480811152828e-01
-1.832158644133202730e-01
-1.703855222504623290e-01
-6.665260763647087860e-02
1.233819745129793033e-01
1.381329567489425481e-01
-1.791134576963043313e-03
-7.424066064668470577e-02
-5.416344292306983499e-02
2.029772870153971013e-03
1.060949865685572313e-01
2.772532935470490290e-01
2.916982991916420298e-01
5.195203511405684094e-02
-1.441359315516577977e-01
-2.047135172553508076e-01
-1.657137102167026421e-01
3.350351556296209121e-02
1.632105606999350866e-01
4.559909900798184840e-02
-8.764754004521844999e-02
-1.242974919623222596e-01
-1.108226769283747470e-01
4.298431785916036890e-02
1.865122147072754144e-01
1.061931593371797655e-01
-1.142449569992399876e-03
-5.135949240115605940e-02
-1.548690253687632357e-01
-2.109915086644513216e-01
-1.337881615890661735e-01
3.541274501207022918e-02
1.524434693727953760e-01
6.028680501439794004e-02
-1.166355750793039714e-01
-1.529525377005334641e-01
-6.069410632519479237e-02
5.735310213922975575e-02
1.759481169300604053e-01
2.276367767364047001e-01
2.129289867862180496e-01
2.332462141008199430e-01
1.958754035628516021e-01
5.638282436506029255e-02
-5.671060710188396969e-02
-1.654355409881048400e-01
-2.272702298922844866e-01
-1.456336132045059628e-01
-6.460240231825457868e-02
-6.660068850463680967e-02
-8.065201087923978829e-02
-1.098338865956343668e-01
-6.366992309624804058e-02
1.529251938997208682e-01
2.784091761632813133e-01
1.278628985168260013e-01
-1.142396453091775593e-01
-3.144103373398892676e-01
-2.968055331468933966e-01
7.656828787919059062e-03
2.147351903440306020e-01
1.650556407571033835e-01
7.917577936287230334e-02
1.306612197453032968e-02
-1.441774478153081199e-02
1.916450299872226107e-02
-1.337288795139985166e-03
-5.810881608469828374e-02
-3.732115574211830600e-02
1.193876800576254907e-02
7.118040261991402662e-02
1.263481979869044147e-01
4.871211475934090346e-02
-7.209311228977993702e-02
-7.802969874962620289e-02
-3.707242679279322377e-03
6.832414240814625728e-02
1.531201926088197190e-02
-7.526971224812509242e-02
-3.532645104625038723e-02
-9.838306300329974219e-03
-4.768341701368585678e-02
-4.968431011966133182e-02
-3.677782230881446873e-02
1.534600409581701221e-02
7.915389833788100127e-02
6.248163199987637889e-02
1.514326625868316588e-02
3.114719712532682330e-03
-8.440100188821568483e-03
-6.786971781370358323e-03
4.901665290968316296e-02
5.619532268513449669e-02
-8.465959362202095037e-03
-2.313408046983859295e-02
-9.691651731371042633e-03
-3.960318024663444028e-03
1.481013002622266241e-02
4.956399129901104851e-03
-1.768759050669889768e-02
-1.901221588552215111e-02
-2.133657618431966316e-02
-2.633609013922170658e-02
-1.550670143563187553e-02
4.217020182512394230e-03
1.308472705497346240e-02
2.152914070444484490e-02
2.706445788745753464e-02
1.936738597567666878e-02
6.441756040985065039e-03
-7.762101536699434444e-03
-6.077484915402588768e-04
-2.063993500795412595e-03
-3.977435529393238967e-02
-5.891333536349252498e-02
-5.423753271656519409e-02
-1.757693139303835930e-02
4.234923976959489855e-02
3.566231650418356935e-02
-3.812508573215546686e-03
-1.125829147010798913e-02
-2.328768148319309769e-02
-2.546924331814321568e-02
-6.146270842990310054e-03
-2.638925924893795530e-03
-1.643613058289821686e-05
2.926089809453772880e-02
6.172503318268772465e-02
5.736453567790177066e-02
2.628717165585426133e-02
7.578436277215448540e-03
-8.014085317011133492e-04
-1.091206347701022955e-02
-1.468021322442290139e-02
-9.391403687762180097e-03
-8.493045865160410825e-04
1.604155805094075078e-03
6.781056331493880889e-04
3.955349319560172959e-03
5.283356018274267853e-03
-2.794046712525236412e-03
-2.034132333918480320e-02
-2.448870905580212767e-02
2.628292773725492051e-03
2.318588860846865912e-02
7.021461370154005212e-03
-1.378517476187796943e-02
-1.623262525075087198e-02
-1.448871343323996502e-02
-1.253360431516220390e-02
-7.985832336778455817e-03
-7.861285453876785956e-03
-8.780139309856641386e-03
-4.670832759845176992e-03
-2.170343433983698295e-03
-1.034946659341577993e-03
5.259676147432415690e-03
1.091710856609864194e-02
9.757359734283989686e-03
5.702285011766151934e-03
2.422094891786625952e-03
-2.975016530683682794e-03
-7.970749660729331554e-03
-4.967393278160804788e-03
2.559012284166455389e-03
4.614851088303330469e-03
-1.830564119922345294e-03
-5.626664657655550648e-03
-2.246714042933315239e-03
-5.840308824229726789e-03
-6.798485831509786317e-03
6.370909140379402667e-03
1.344991628174587242e-02
1.631282818011398072e-02
2.356662693527343533e-02
2.680321856721520207e-02
3.049262099202839152e-02
2.975279737441715103e-02
2.666446075794473222e-02
2.849902390937067431e-02
1.123400433834222459e-02
-2.077750479745412576e-02
-3.626208508780025958e-02
-2.904251653685445064e-02
-1.308814719167859797e-02
-1.273644866947483759e-02
-1.928511140507869343e-02
-1.645387371702211957e-02
-1.739746989572945809e-02
-1.394622904437139814e-02
-6.460153148750530719e-03
-4.191809506478621529e-03
3.001418094069051648e-03
1.214957177301467361e-03
-4.808173145798040962e-03
-2.034333603913089390e-03
-7.096581067475377091e-03
-5.195208600418424819e-03
7.382457867037017091e-03
9.813344986452313817e-03
1.123093013209668437e-02
1.243841026735778219e-02
1.101563917707304961e-02
1.471338607929259523e-02
1.744090903016448646e-02
1.425977791480740817e-02
1.054759849796637478e-02
1.389649279466399420e-02
1.333656562185452955e-02
1.437410778245378157e-03
-5.010367908868042404e-03
-8.058910227499192086e-03
-1.867328117856198802e-02
-2.821648927177550573e-02
-1.915025246062746628e-02
5.741663547208284259e-04
-5.412044277579588190e-03
-2.104523731955674354e-02
-1.040561472258907764e-02
3.621847054736288939e-03
4.897133061587029441e-03
3.307992954846182641e-03
2.542630816578309895e-03
5.360213540781075259e-03
1.136916742087085500e-02
1.783554238571283604e-02
1.402622226961905590e-02
3.178925853185741220e-03
-4.776995779826162438e-05
-1.155834191050362060e-03
1.279510132187771342e-03
8.765727333370132782e-03
1.105834881838610277e-02
4.807016162613312465e-03
-9.953990130323595031e-03
-1.645385291861128571e-02
-1.020624759138317669e-02
-5.025932375649303646e-03
3.700517697186201087e-03
5.718812599484588040e-03
-5.850978604398450293e-03
-1.310896925302290975e-02
-1.066977148349603291e-02
6.137180089158723699e-03
2.287672207668904265e-02
1.879154285223394102e-02
1.020246776078613526e-02
-2.260584760872980884e-03
-1.918630967419313396e-02
-1.412438515942339781e-02
-4.779929198622885969e-03
-1.498100984489441137e-02
-1.421746025762430157e-02
4.970276337311538110e-03
1.516823923090744770e-02
1.507029217746006823e-02
6.972948063037842821e-03
-6.685846537048397570e-03
-6.056044695978057314e-03
5.566835861839300459e-03
1.106928566145798550e-02
8.812406167829410150e-03
1.512172260458036644e-03
4.769284126869853318e-04
7.465762530772758129e-03
7.026686375615646095e-03
3.516318141003957473e-04
-5.017048168803852487e-03
-9.488272575626226224e-03
-7.779223719895970134e-03
-2.028619703490326057e-05
1.929621135779636303e-03
-6.147956986326238993e-03
-1.132983739969340570e-02
-3.796507931589861422e-03
3.576301727903061223e-03
2.964366458446461312e-03
6.590860877470724154e-03
1.038797062594870417e-02
5.369250444405927747e-03
2.878608402319998011e-03
1.170816955128931545e-04
-8.036546919164312686e-03
-8.270425779205402977e-03
-5.265492806870431669e-03
-8.318584958640797347e-03
-1.355399855651574607e-02
-2.003731438369530174e-02
-1.776686124031136640e-02
-1.521825647749501260e-03
1.727219293380948678e-02
2.901842424290193567e-02
2.376569840247876736e-02
8.382056809608070397e-03
1.275084003616016237e-03
-1.123582445342081928e-03
-1.599202347738429069e-03
1.731298584066716254e-03
5.070445819925498620e-04
1.422831572323504613e-03
1.005482344483288326e-02
1.032404413530216628e-02
3.420787333327418838e-03
5.119193526632648261e-03
7.733784097434946020e-03
2.210699353623547976e-03
-1.321643050124969446e-03
-2.042977614708067942e-03
-5.214896036706163397e-03
-5.945517912282673872e-03
-6.307293255385626983e-03
-6.870388798096247786e-03
-3.838321313894103859e-03
-6.962414010980363423e-03
-1.098893690855346807e-02
-2.146775893837524467e-03
5.217408683979185557e-03
3.538298379503848103e-03
-8.808229240056520120e-05
-6.285122538803512848e-03
-9.650745415228442411e-03
-1.132669676738654561e-02
-1.223179076759956657e-02
-2.501042310725387890e-03
7.263796852472522575e-03
6.514505590699493087e-03
2.211611861872683944e-03
-1.655524160955509569e-03
-1.833538034465630011e-03
-2.355232431502186051e-03
-5.334035273332232707e-03
-3.061010815886621578e-03
-1.115522321017167794e-03
-1.162055606838591259e-03
7.307469214663132352e-03
1.556037968784797915e-02
1.633582082812191569e-02
2.080993751209359380e-02
1.941883361108003372e-02
4.574841826851271109e-03
-4.060269939251790090e-03
-1.297429150156466371e-02
-2.681031788452260117e-02
-2.103891760284198539e-02
-4.189486057294121782e-03
9.751740448283367085e-03
2.136977998214411451e-02
1.845493869767718398e-02
8.563186854727787220e-03
1.436975450110924719e-03
-6.385415521808824636e-03
-1.452298708165571280e-02
-2.463018303532801129e-02
-2.276563830511275921e-02
-1.348147230511155710e-02
-1.715814903284437754e-02
-1.127584121757937465e-02
1.371090845258524440e-02
2.891484535920607266e-02
2.588845775775924091e-02
2.063423340762120251e-02
1.984926970291817083e-02
1.241947736930033505e-02
8.414237003876489165e-04
-5.740136498771737303e-03
-9.417070748763446686e-03
-4.501636010346049370e-03
7.698995813115747187e-04
-7.607287556413050086e-03
-1.598962229125827639e-02
-1.582298924699759857e-02
-1.402626461062210853e-02
-1.291234302253195521e-02
-1.290310493583664113e-02
-1.181604258482511945e-02
-4.519524284579023131e-03
4.180646838337655040e-03
1.057921386385046649e-03
-9.242399685314910823e-03
-5.225880198309818675e-03
1.268300737965681428e-02
1.798440639154929438e-02
8.321400911684567747e-03
7.258553114794705913e-03
9.757701464714609377e-03
3.225170298617200705e-03
-1.033970272227234186e-03
2.457382819494075173e-06
2.283513912618973483e-03
6.277566250875541744e-03
1.227966711206883617e-02
1.852598887162455743e-02
1.783248594122849306e-02
1.031038216988809653e-02
1.142158390707986903e-03
-7.619739877674316410e-03
-1.371611679808991575e-02
-1.038475939865463743e-02
8.051964807771936575e-04
-2.891040899940215767e-03
-1.695763739157253591e-02
-2.123688866811227274e-02
-1.869958227842076146e-02
-3.753993167172404999e-03
6.723329477449538349e-03
6.089465765391845024e-03
1.538111522254588352e-02
1.240178611433678628e-03
-2.483754287349224099e-02
-1.395124858352722423e-02
-1.352235713748824826e-03
-2.541424926047059808e-03
-1.068166463534241323e-03
-2.235191142809054166e-03
2.523164198083309787e-03
6.355854766859074696e-03
3.059333895113609120e-03
3.295461676607012134e-03
5.679483629201515470e-03
6.963935925602838389e-03
4.116849542117987336e-03
5.538627123249444464e-03
1.356423956741969680e-02
1.466941548044549577e-02
1.240897792533352147e-02
8.026099971278325210e-03
-1.238762129439391086e-03
-7.203243277416892208e-03
-7.537736384418626014e-03
-3.682205302129847209e-03
-2.444504503575470507e-03
-7.881027129480605575e-03
-9.885129588597458411e-03
-4.038937110092358229e-03
9.602136677160173685e-04
-1.143597682089774956e-03
-4.463458421917645795e-03
-2.752213689549364972e-03
-2.145748930200521050e-03
-5.230996432110876504e-03
-8.879142571937742633e-04
4.891594611733510178e-03
-3.771136115145296962e-03
-8.024271539277365306e-03
2.183416109135565691e-03
2.922816457406225699e-03
-4.838801286674822982e-03
-6.206306438302073430e-03
-1.417765619880073137e-03
4.101861945868408819e-03
1.272652697220732522e-03
-4.883285470292521302e-03
-1.985003882647090340e-03
3.085202168729074979e-03
8.362978889774766531e-04
6.067788572025168510e-04
8.340382613146776758e-03
1.221821876715761639e-02
1.072502197689465149e-02
7.202672287665908696e-03
7.289634385417351594e-04
-4.439513250060534203e-04
1.656369254274759001e-03
2.851187022656289424e-03
3.937114865831690437e-03
1.709570350452065471e-05
-4.446310108400833641e-03
-8.672981226992535625e-03
-1.087168610215161896e-02
-5.922439651204428751e-03
-2.908331077551228570e-03
-5.656751060713104476e-04
2.508645584343580353e-03
1.888848583776342417e-03
-1.512392436273558448e-04
-9.636575333304569363e-03
-1.529086834236175266e-02
-2.634042727780786224e-03
9.822098274062990644e-03
9.937857170955671088e-03
5.038775436635283163e-03
3.904137489433079692e-04
-1.110263078808640391e-03
3.465732709874102657e-03
8.981364130489541409e-03
7.704457181212982612e-03
5.787053977327445871e-03
2.067923873974729116e-03
-8.264373105074340059e-03
-1.397366295689182400e-02
-1.403798794863801366e-02
-1.133466941780350221e-02
-6.892312720289787281e-03
-7.120702642229318792e-03
-6.042855979321455281e-03
-2.995344335150381125e-04
4.733169712404987177e-03
6.889752842291596568e-03
6.256907908951302166e-03
5.545749220619534785e-03
2.933141052618507428e-03
-5.950502693260871110e-04
-2.073159693790926385e-03
-6.844291049227109978e-04
6.327995491958999900e-03
1.125931827222982975e-02
9.189178986194559279e-03
1.050611673998348575e-03
-9.358987737907850310e-03
-9.763968007432349480e-03
-6.372922528647797895e-03
-2.201149646110228154e-03
1.017475505036477199e-02
1.520279421026151344e-02
8.843151561918592002e-03
-3.726452762548246875e-04
-8.419131972151886606e-03
-6.292991249435522967e-03
-5.268600302261877005e-03
-1.386389489765109569e-02
-1.542018088547193570e-02
-6.738978523438706077e-03
-1.229581278230813595e-03
-2.066811133017413702e-05
5.192911934271907809e-03
8.820811138184767031e-03
7.448943939698545944e-03
4.939548175437276020e-03
-3.501759180047371231e-03
-9.952603260152771691e-03
-8.746752944138234606e-03
-5.481260729668801894e-03
3.055536238174497241e-03
6.722330215265518404e-03
-1.239673592649107904e-03
-6.073485065742782740e-03
-1.278144039726141152e-04
9.414060931187621939e-03
1.078030711501520508e-02
5.535547376304169286e-03
-1.889032118746042854e-03
-8.403580005033344305e-03
-5.132441221292960258e-03
1.553980788525670593e-04
4.693379621708544149e-03
8.979970351640846962e-03
1.398966991859578813e-03
-3.579317288100563633e-03
2.525174731573469160e-05
-4.535609702125272327e-03
-8.299373595339019916e-03
-4.806502272992054133e-03
-4.416992637378070255e-03
-5.679345083137402918e-03
-3.455047544092666040e-03
-1.230773943657541107e-03
-2.488945436511237315e-04
3.510375484116390679e-03
5.997418639863073136e-03
4.224054736371981277e-03
3.171503494662171029e-03
4.844085549625840210e-03
5.888461023660392438e-03
1.678396401310237396e-03
1.466874845242624546e-05
5.277517077834210230e-03
7.052248640061559853e-03
4.550398853446513750e-03
-7.590210979734551095e-04
-7.190357165321696088e-03
-1.056422728981688819e-02
-1.216416063055226864e-02
-8.299830975915929027e-03
-4.140008768902486529e-03
-4.481276083661713157e-03
-2.433427173145034060e-03
-8.356379741536563641e-04
2.984610813917536621e-03
9.146202888926880867e-03
7.773603575530356469e-03
6.115093944030969113e-03
5.664527231717612910e-03
-2.954734012392976061e-03
-1.413752557104428105e-02
-1.445009903523767313e-02
-2.296100146175344969e-03
5.242056116166368337e-03
3.642258956336382261e-03
2.598390358647333954e-03
3.713142795531957805e-04
4.601556706560238404e-04
3.123658804539400889e-03
2.213862311088931993e-03
2.350826075174247774e-03
5.597498972970222850e-04
-3.033948509835681338e-03
8.408300076794266321e-04
6.176230696987789967e-03
4.278501062742237279e-03
7.376756199247766878e-04
3.178038630891432629e-03
2.357120527944720802e-03
-6.493688510822045318e-03
-8.085679904642022880e-03
-1.921032395712520078e-03
3.989055983665629884e-03
3.899750705962070491e-03
-6.069440499469036174e-03
-8.891960748587184396e-03
-2.766988895113242815e-03
6.467105787039268945e-04
4.932636752535344594e-03
2.859633663047575925e-03
-2.871867906449633839e-03
-4.969372576824509710e-03
-1.068892454841968882e-02
-1.046372182599402019e-02
-4.821224829337996537e-03
-2.295483685684532663e-03
4.049827430802305922e-03
8.904051148763386658e-03
9.356376756176551512e-03
8.550721169844854169e-03
4.074474710003678050e-03
-3.374345201302301816e-04
-8.258466494449626322e-04
7.707446980747136023e-03
1.705632263661358700e-02
9.148091193983069747e-03
-3.535905673813263643e-03
-2.148250217971071300e-03
-1.606069475768628387e-03
-1.849949381972141108e-02
-3.014681302067348870e-02
-1.724759771021716626e-02
-3.626649953079852037e-03
7.145003957150656074e-04
1.011091145980263888e-02
1.874400954844155504e-02
1.544913410107700245e-02
6.164696095264259046e-03
3.353401913855841038e-03
2.226527319824716904e-03
-3.851069442193342206e-03
-4.422673351020854973e-03
-1.966354854144769689e-03
2.290337129333045287e-04
4.656624763272816311e-03
2.216096114980351493e-04
-7.434939244802677913e-03
-7.462808940447319440e-03
-5.764003612754629337e-03
-5.060397447378088900e-03
-7.697486722338379127e-03
-1.003039176082455575e-02
-8.517274379098011688e-03
-6.848305385321433458e-03
-5.292693712630234344e-04
7.012514674289977226e-03
9.129162912496362886e-03
1.064342959470932978e-02
1.293364940923429594e-02
1.355963873282947825e-02
7.165488603601137194e-03
-4.185869901070648699e-03
-8.695063772366029911e-03
-3.693578663464716205e-03
4.291262530750212557e-03
5.802110418755567628e-03
1.876204513666468541e-03
-1.120332279158848740e-03
-2.767973092734492355e-03
7.206763838237798979e-04
1.740163987408849429e-03
-3.361376199636216099e-03
-3.073177063360924433e-03
-1.440629748192362360e-03
6.630081712112427528e-07
2.665145171994749880e-03
4.998137365412650378e-03
8.203817232402384196e-03
-6.826089517598617207e-03
-2.575512957162009661e-02
-1.251400167524020952e-02
4.451058232800416889e-03
3.546293953446303087e-03
4.174539619537097519e-03
6.310309609153020617e-03
4.915156551540986012e-03
1.564474600445258995e-04
-2.903866937545522726e-03
-2.595463894666945022e-04
-1.123707524217658262e-04
-3.819729598791688874e-05
-2.270781337555044716e-04
-5.025622808561946986e-03
-3.337044073050476640e-03
4.183194650908201792e-03
8.171202183315871836e-03
7.649292417105152744e-03
4.293150085692146005e-03
1.276079232920069792e-03
-4.983383354511006572e-03
-1.135321355353227819e-02
-8.285811419252952365e-03
-3.822906699789257838e-03
-4.725231932004136937e-03
-6.876472508397065558e-03
-8.853500273976119828e-03
-4.647030370928632338e-03
8.222197011949525236e-03
1.558268537917989124e-02
7.602682530653740063e-03
-3.886832075748353123e-03
-7.108354504380033287e-03
-6.373375284396176448e-03
-2.466072325844394578e-03
6.523679574155571287e-03
1.221779698891224501e-02
1.034810102345112316e-02
4.110644952708199761e-03
-5.140241534318864148e-04
-7.033048715440623705e-05
1.221610341996998356e-03
5.685022186314311714e-03
1.098441020367565968e-02
6.367763091061293297e-03
-3.003275667470976839e-04
-1.016463607384378038e-03
-1.438867458373165736e-03
-3.252412510388892272e-03
-5.766763531139565760e-03
-6.900329016603459244e-03
-9.118506694752288866e-03
-1.559349153538132533e-02
-1.503975944441749736e-02
-3.994931164795992133e-03
2.565489552300762640e-03
2.833331489208602144e-03
8.210523756834068460e-03
1.290235207404450725e-02
8.258346283738214957e-03
1.775797485368456980e-03
-1.733674225683236574e-03
5.290470676855235730e-04
6.221745457743208668e-03
6.895009707195315883e-03
4.662848218518663053e-03
-3.216871093215362132e-03
-1.263001434028800975e-02
-1.083102700035231021e-02
-7.310994323025052366e-03
-7.096264293406663246e-03
-5.861730482011722095e-03
-5.384800603216285432e-03
-3.058529114781321969e-03
-1.900139086173422255e-03
-1.016065364317723149e-03
5.924310707776296245e-03
1.152163362945655967e-02
7.548123514129276811e-03
2.679823989725639132e-04
-3.732287040578022210e-03
-1.060921454656283888e-02
-1.297346164491998931e-02
-3.620149148624128219e-03
2.980277998534517584e-03
1.098074332344186992e-02
1.767392384829166024e-02
1.343586266287326997e-02
1.597653202357043542e-02
1.899859985846870380e-02
1.168849903118798425e-02
-8.253017577438022390e-04
-1.690747841080778371e-02
-1.532872347253972679e-02
-1.940840098558178429e-03
-9.829338701668440328e-04
-3.007896457211941838e-03
-3.907703946264046505e-03
-3.919041026789220859e-03
-7.943488483465026978e-04
6.069846709325825776e-04
-3.170837676693006452e-04
-2.797378512575855562e-03
1.760071877487094476e-03
8.784146160384347785e-03
1.282701601744247336e-03
-1.316956072253077509e-02
-1.830449361640024836e-02
-1.305312274782594907e-02
-6.813611552626681195e-03
-2.953126061068915044e-03
-2.628452449998665806e-03
-4.809930465223448762e-03
-9.648788811110588573e-04
4.015902098567168655e-04
1.963093400765937753e-03
1.459497051254262691e-02
1.823255392266552588e-02
1.167218328870974105e-02
9.149411723171581301e-03
7.443366579469471410e-03
3.911896931692174575e-03
-8.439444420951248407e-04
1.019736324729879524e-03
3.706949757927594132e-03
3.155770896461992546e-04
1.337683340122764256e-03
2.107741390986863760e-03
-6.723830107818685922e-05
-5.103585302988168301e-03
-1.053680508978325006e-02
-5.623516511626202620e-03
-9.935011808119256944e-04
8.559914471078112347e-04
5.337265964213566303e-04
-2.733535772622939196e-03
1.963780855482360338e-03
-6.356639591755534197e-03
-1.946314007551459488e-02
-7.725455790547225768e-03
-1.281260411051851188e-03
-6.512438732910810768e-03
-3.306970342360165613e-03
3.241448875978624345e-03
1.146714553542536701e-02
1.038785230139863992e-02
8.593940471478277209e-04
-3.079631980377948303e-03
-6.177214765558624622e-03
-5.375825633838031414e-03
3.393672874327189888e-04
2.836965866793755581e-03
2.019224864393927548e-03
-3.843978250191195083e-03
-6.260728006442873271e-03
1.865219994365673994e-03
7.161347358959179420e-03
7.462993334066211557e-03
1.003175362053697339e-02
1.151777703871445166e-02
1.042359075885471512e-02
4.478871688531011440e-03
-7.850701587601462139e-04
4.652177908587747102e-03
8.741420583175828554e-03
6.331716799208860803e-03
1.801428103078069618e-03
-7.667052944911992990e-03
-8.660429819362464032e-03
-2.368159194941574057e-03
-2.877526266430062950e-03
-1.758216265406069680e-03
-2.498165636600921825e-03
-9.786567545301966264e-03
-9.314619962033029305e-03
-8.612704858257918400e-04
3.571947744053349111e-03
4.337759417505052291e-04
-3.283197881642346654e-03
-3.480464897213308376e-03
-2.065775690666539315e-03
-2.852773002834157242e-03
-5.565351743386058939e-03
-1.242982041519643307e-03
3.481085318719696117e-03
1.625608661753878432e-03
-6.794310917171250859e-03
-2.697297607379681508e-02
-2.660163437055650462e-02
2.679717380266890322e-03
1.462479865197341584e-02
1.352257522403013668e-02
1.407067043735756896e-02
4.837033308390344642e-03
-1.189552425393545880e-03
-1.825157895891393184e-03
1.658715920129439280e-04
7.926360525850167579e-03
1.052565172547702613e-02
1.234347558724740827e-02
1.301628627984933138e-02
2.588319932814803648e-03
-4.480146680214593807e-03
-2.077348376223149117e-03
-1.078687653015789278e-03
9.343910630251620400e-04
3.354844481943299993e-03
-1.235472961422967760e-03
-5.356454585790908912e-03
-5.195970219848821715e-03
-6.285523673375667184e-03
-5.063571176622388807e-03
-3.570076356220206696e-03
-5.279922205393457711e-03
-3.828397704384099102e-03
3.486509970016442653e-04
4.319535582429420879e-03
7.632286227287725378e-03
9.486932382106320547e-03
7.130920169966112158e-03
-2.180711558799877572e-04
-2.318844894123399045e-03
-8.766595948644129470e-04
-2.067332056725933696e-03
4.299103546709823545e-03
9.974520226800833930e-03
2.561625475801137738e-03
-3.939031687053768001e-03
-3.832248401551483809e-03
-5.117307155522369047e-03
-6.465309201160587133e-03
-6.204158158362041778e-03
-8.891811268356310596e-03
-1.142124477621965159e-02
-9.040276907370723564e-03
-4.853982174066591611e-03
-3.550720081108112896e-04
2.330746278909616616e-04
-3.172648641474761465e-03
-3.332213936235070041e-03
5.715663308324714668e-04
7.060409045085335768e-03
5.636851007062956137e-03
-1.000539984095132800e-03
4.115475090382878648e-03
6.592427167309876553e-03
5.037454791060337264e-03
1.343873620782370590e-02
1.472252560525506328e-02
8.163145129952672011e-03
-1.307270745739066769e-03
-1.514394473559225844e-02
-1.298119822442691217e-02
-2.009963974905222116e-03
-9.277417934379660926e-04
-5.170287513227060866e-04
3.299261017483360627e-03
7.816421282312498511e-03
9.484561512896810820e-03
7.369402909729227437e-03
3.442289667175885571e-03
-4.273760076411465408e-03
-1.021667811288716303e-02
-1.003539402172584812e-02
-1.916043473977635872e-03
7.316471710713039374e-03
1.798110006680143751e-03
-6.138916520681868619e-03
-2.776558762577112285e-03
4.250178464857752190e-04
-3.350800138826736264e-04
-1.726001728184159032e-03
-1.077080834030467093e-03
1.143115413141796268e-03
3.332197280886172244e-04
-1.149974591642903294e-03
1.441458518643339926e-04
4.594095127198905351e-03
6.350187254061244457e-03
2.997250030625044949e-03
2.533726747803700940e-03
-6.450245369470776306e-04
-9.968003159122221929e-03
-1.145996143666149977e-02
-1.524160083921280179e-03
9.793308470888356654e-03
1.400967977156805828e-02
1.061847428805738278e-02
7.795797777155031878e-04
-9.185673138238521426e-03
-1.235906933251213619e-02
-1.680899412248595265e-02
-1.695657318307998429e-02
-5.634152684564783242e-03
-1.783122133924305939e-03
-4.531246904105239517e-03
2.902052828892524730e-04
6.380208451500498507e-03
5.678240612840598778e-03
-1.173714506496158130e-03
-4.747736441803198856e-03
-4.071067492671393527e-03
-5.777037758229066830e-03
-4.465621451989929339e-03
1.312447990712830572e-03
5.369927347158845107e-03
5.266549108514242440e-03
2.404622310309556185e-03
2.774013484910392742e-03
6.401805671877212715e-03
8.391800699575705999e-03
1.267907695765801285e-02
1.897029015930052839e-02
1.722930724393973573e-02
1.157760796627268704e-02
1.122895108101074589e-02
1.171650035487487376e-02
9.674440603321912691e-03
2.885410546762215943e-03
-8.597375371062903476e-03
-1.854698985563884434e-02
-2.655863375565375301e-02
-2.937167382563231344e-02
-2.184978449471176171e-02
-9.349625879359276664e-03
-2.201711254520972300e-03
2.956069220978886202e-04
9.070370463467054140e-03
1.789609045463986733e-02
2.086658939724284761e-02
2.384412078806101218e-02
2.584267313506922667e-02
3.143861831128444417e-02
3.114062891709678746e-02
1.911415618968145477e-02
8.795490093714717836e-03
-1.438499376199204628e-02
-4.057193425762475186e-02
-4.075540515783011158e-02
-4.062255278963078364e-02
-5.412037100422190106e-02
-6.063347738946611720e-02
-5.709263010339279271e-02
-4.991669959965091413e-02
-3.521680158370241870e-02
-1.102092364011111013e-02
7.342779453280590812e-03
1.547858458628294416e-02
2.629201784248758403e-02
4.388979340501917431e-02
5.623289183832339000e-02
5.348727384181108102e-02
4.676343665297077318e-02
3.245487908745447320e-02
1.443621351867336103e-02
2.384387683504634800e-03
-2.752088205421989245e-02
-2.948870690280311346e-02
