-7.314460428555404764e-03
-1.120849555796691634e-02
-6.837336717693504734e-03
-9.548807023366998742e-03
-2.546994605562815078e-03
4.129843630376483880e-03
3.513080393847453804e-03
6.581279008781767623e-03
6.880091179938164700e-03
8.087848546552929563e-03
1.266090636150841303e-02
1.178857981185994080e-02
7.209296544876739668e-03
1.132308136512074920e-03
-1.060855620566127002e-03
2.204505278659220531e-03
-1.468273458419258257e-04
-6.657445567602592214e-03
-7.029551095361484536e-03
-4.511316277789695350e-03
-4.587694746398748163e-03
-3.380510851021102312e-03
2.543260341348421738e-04
6.605434115590599247e-04
-4.644273174437199038e-03
-8.834185468793265966e-03
-6.895005525502232065e-03
-4.376913983351868320e-03
-5.778768910863550483e-04
5.820355137267368625e-03
7.590075829556704526e-03
6.654672081471459284e-03
5.260867493474411308e-03
3.459526210797669778e-03
4.424471301732014507e-03
5.053158700034838559e-03
4.434322661031762404e-03
9.312529844892291058e-05
-5.801884868914775409e-03
-4.275130560380691752e-03
-2.848248639703322271e-03
-3.404145341378114493e-03
-8.933466289662985805e-04
-1.757468757898721957e-03
-2.864178256113953172e-03
-1.937379127150254225e-03
-2.592506810754613249e-03
-1.410790834010552334e-03
2.042887530781221667e-04
3.650441176549577404e-04
7.980345195794395687e-04
5.422791505687260018e-04
-4.275256386158987122e-04
6.620744101067438294e-04
2.042373897531083848e-03
5.728912049907106726e-04
3.467875589100823715e-03
6.397684412331606195e-03
-1.186778958546407274e-03
-7.156244635540643523e-03
-6.240992125316314511e-03
-3.917243256917510644e-03
7.756920518762486574e-04
3.757363908131358850e-03
4.171342891806421004e-03
2.391008536644228643e-03
4.875853983328723982e-04
4.134037847300872821e-03
6.618161850930031308e-03
4.635473029492817240e-03
1.011826931242582137e-03
-3.830016602133713005e-03
-4.396593169664231304e-03
-2.836000678290141915e-03
-3.189719315711716900e-03
-2.327524969266379917e-04
4.669419254915474320e-03
3.591885435539835490e-03
-1.563828426815194045e-03
-3.194220250180527989e-03
-3.919387039137912400e-03
-3.622163403070995276e-03
1.107338043551683339e-03
1.375055844909810763e-03
-1.160981186612876142e-03
2.028906779305583632e-03
3.795075190730707888e-03
1.308210071473542985e-03
-2.652590205332371683e-04
-1.159637790416720611e-03
-1.702768165246934745e-03
-1.684863413603889188e-03
-2.647068409637283112e-03
-2.687590118125466991e-03
-2.398876078028456670e-04
1.425313264418257356e-03
2.634431030704749953e-03
2.665274755504010509e-03
-5.826749660969372975e-04
-1.543045798206258302e-03
-5.078834321954025025e-04
-1.934057729617185556e-03
-2.951450415046201394e-03
-1.738669845713590933e-03
5.756132877146614415e-04
1.559365263389741931e-03
1.025238144475146621e-03
1.439165162422543142e-03
2.929972839985111287e-03
4.054734322831970300e-03
2.911339304405252508e-03
1.988985097916548105e-03
-1.022251066174062332e-04
-5.211748047970032015e-03
-3.879240633720898185e-03
9.246195705732460990e-04
2.910712165420104892e-03
5.720841482494709064e-03
2.910420824739452014e-03
-3.154146383366315289e-03
-3.043714223069924826e-03
7.061394866504759355e-04
4.962606975631255954e-03
6.305011055858758713e-03
3.237471950419160052e-03
-8.382548526943150655e-03
-2.051161104721228173e-02
-1.064794312010393026e-02
5.058638027387576432e-03
3.969250200198258700e-03
-4.590259033040482097e-06
-2.471507949101122521e-04
1.334054389426832677e-03
2.188345857462486825e-03
-1.377597757928945317e-05
2.211277820901503231e-03
3.557674327273497618e-03
6.211691154103916130e-04
-3.633133272373377412e-04
-2.016331706818983230e-03
-2.249120188214226608e-03
-2.321604510788539185e-03
-1.344977535177165409e-03
6.174669940511609383e-03
7.790691518495220479e-03
3.705612276528217047e-03
3.528541223059445536e-03
1.496940841054121953e-03
-2.934374460701190098e-04
-2.047660599994422881e-04
-1.376891091944105637e-03
-3.502439568658251116e-03
-7.325497494227824723e-03
-7.290656007551373982e-03
-5.730625416262651560e-03
-6.194474995472006203e-03
-1.952764893919675757e-03
2.728431522437218398e-03
5.699626979747589653e-03
7.606015066376779765e-03
2.713387888222183568e-03
-1.052164230913959792e-03
3.265490188742024846e-03
7.440046909065282758e-03
3.619864763219030491e-03
-2.821219680306569135e-03
-2.138513054154042668e-03
-1.198422413203334164e-03
-3.866784614667290437e-03
-2.089964998508621850e-03
9.932158775042170592e-04
1.435236761255263361e-03
9.195547545424486487e-04
-7.944348367718066881e-04
-2.658526304440100765e-03
-2.516550312824611477e-03
8.431897405527344173e-04
2.033745861746683557e-03
-1.637019275007329166e-03
-3.002998869073539908e-03
-1.200477259864222296e-03
-5.241587052068894578e-04
6.064035837239769655e-04
3.597799852918816352e-03
1.682893027166426636e-03
-5.320947157033423941e-03
-4.555461214186071889e-03
3.530032431302458163e-04
9.657408076208172073e-04
4.481852896347972987e-03
6.023198953172074696e-03
2.056933136567456067e-03
1.041188513267173738e-03
-9.700124588643556063e-04
-2.350297523424554891e-03
2.256066263600471026e-03
4.073641290653282933e-03
3.253516467600266367e-03
4.078405667584907718e-03
6.952010469600394815e-04
-3.929619756396118997e-03
-2.823412709834391757e-03
-1.347163296431531845e-03
-3.050574626213699292e-03
-3.421239860581178332e-03
-2.613864720929461125e-03
-2.444045087674394379e-03
-2.338489854766262997e-03
-4.832429301710905456e-03
-6.799058991081730757e-03
-2.063073800993243858e-03
4.125689993418006803e-03
5.324895119644672270e-03
9.559085684312741606e-04
-3.482101851843077880e-03
-1.215479239471918202e-03
9.876667306418028102e-04
1.357243181877210614e-04
1.318756626427395988e-03
8.588941362489102864e-04
1.977675322623008089e-03
6.792470750278035117e-03
8.056816702625637858e-03
7.197813122045836932e-03
5.078526411899532585e-03
2.306823719431090602e-03
1.556024013966856136e-03
1.618962522716718916e-04
-2.397837028239085001e-03
-4.536303727286464769e-03
-1.340421750297344930e-03
2.153371374986781054e-03
-3.259781921375273610e-03
-4.377778337666860323e-03
-4.758201521667724089e-04
-2.553332348902443132e-03
-2.059984827178196545e-03
-9.517735454277477221e-04
-3.751320484634839900e-03
-6.249443642130148024e-03
-1.064224642150223173e-02
-7.333141963406871258e-03
4.688019846900725630e-03
7.204500858504943317e-03
1.253511988841898243e-03
-9.985416775278954746e-04
1.160361016285110358e-03
4.911679538731464345e-03
8.118610585397575963e-03
5.562463137344540384e-03
-1.197249205496221224e-03
-2.513350213740251759e-03
-2.175489560776386875e-04
-4.328052622244885701e-04
-1.318804551965052033e-03
-2.008098351030514813e-03
-2.220396849465068947e-04
4.374734096089094061e-03
6.817218763099311060e-03
5.283750649438792926e-03
-4.923113462380212689e-04
-6.429413796917720324e-03
-4.397774590888904774e-03
1.379658035952210579e-03
1.827132876208090433e-04
-2.480344541204168932e-03
-1.214228212050362651e-03
-2.763884609685446098e-03
-1.869860318001860620e-03
2.423061878866265579e-03
1.079644533181288229e-03
9.144237264710756074e-04
8.037189278569561220e-04
-2.965461020369663386e-03
2.323215148426475052e-04
2.777870227450240925e-03
-3.018780409179919210e-04
2.417901134032722065e-03
5.399798218148353472e-03
3.143983465846441217e-03
-2.192654054671217467e-06
-3.126677106505585616e-03
-3.338012550334689289e-03
-6.404157189952085043e-04
2.486813031038380244e-03
3.407421640399418711e-03
-1.017675178979716684e-03
-4.440920636304333119e-03
-2.564443767045713422e-03
-7.310569625667566636e-04
1.073423549458480016e-03
2.074680046711195863e-03
-2.336464999874179015e-03
-5.149015964153431414e-03
-2.106833447688275136e-03
-5.534826222081855795e-04
1.164960022537470195e-03
1.865378101260432766e-03
-2.042736389433493990e-03
-1.821568211129578148e-04
1.403493232544792031e-03
-3.804704273754019352e-03
-1.037179690289919461e-03
2.981909538550536233e-03
2.589064577709708059e-04
1.024686009668961941e-03
1.353849676597234037e-03
-9.096373008267703191e-04
-5.930024540324231206e-04
1.341989339152422321e-03
3.393546559788642846e-03
3.847719531452081006e-03
4.057589200921606944e-03
2.284402899165181161e-03
-1.910350594384909893e-03
-1.669130550446432364e-03
5.357275884731698811e-04
7.906589017983465736e-04
1.102014119765861030e-04
-1.334047473431244826e-03
-2.062948012167637336e-03
-2.831639789106278095e-03
-3.781897961347612728e-04
3.330477617195915993e-03
1.154375101926619291e-03
9.233412770322624134e-04
5.364871939092533126e-03
6.961385831846252960e-03
5.560836621761038913e-03
4.711422615648486016e-03
-2.823472109744424642e-04
-1.693987261752795404e-02
-2.300487355819527333e-02
-7.596105579563629424e-03
-6.408848499001565304e-04
3.482161254381549681e-04
5.765599770438413312e-03
2.388261426688347445e-03
2.264031995734184675e-04
2.205037491128789950e-03
7.174881738715318223e-04
1.852697556810207471e-04
6.577616721308637490e-04
5.422234658568319404e-03
6.852622060791632198e-03
1.143139397710750665e-03
8.002745228812814743e-04
-2.087210077441297557e-04
-2.443423423606085228e-03
-7.800144248030580624e-04
-8.038081099913279345e-04
1.496441702213393492e-04
-1.171008011706145243e-03
-3.517034415243998520e-03
-9.285241740511026480e-04
1.658603450957948314e-03
4.221569039913873091e-03
5.542115990141310324e-03
7.886793425657054324e-03
6.877622490204866185e-03
-2.139098230868126133e-03
-1.920399539413163376e-03
2.097379613077519759e-04
-5.604606005674660218e-04
1.860074637571799147e-03
-1.443385413621680116e-02
-2.297546803474012286e-02
-1.481219607404153432e-03
5.790832654800289608e-03
9.301648098226231653e-04
4.762942891821837776e-03
4.112208059846434241e-03
8.331385298120019735e-04
-2.930817900381596161e-04
2.755878875807672278e-03
6.301876932782174943e-03
3.125915981038850360e-03
2.254205254992285544e-03
9.597517903264894809e-04
-4.840687402867927154e-03
-5.564312443228014264e-03
-3.749565427214651518e-03
-1.073344256933351712e-03
2.620522437251218868e-03
2.542631897635002844e-03
2.052569798056510814e-03
1.775603000351410037e-03
2.111316472123254354e-04
-2.952441780091901867e-04
-1.597078380749237083e-03
-2.090542433143592529e-03
-1.966232022031456840e-04
-1.517484707894455227e-03
-5.030081236349405807e-03
-5.327652809522266490e-03
-3.252040493933286078e-03
1.854489248385747318e-04
4.536118700509526695e-03
5.232588005873911423e-03
1.473409149854645146e-03
-2.144377751107425108e-04
2.717377427837039221e-03
5.390173596912079500e-03
4.452070976991798039e-03
2.234494857312990627e-03
1.562576880198216812e-03
1.948755143573619938e-03
2.504649038874384032e-03
1.626322240185142315e-03
1.755071452151232771e-04
1.008191184441321886e-03
-4.831447328797835203e-04
-2.315293170655380837e-03
4.547205477193323286e-04
2.773230805671420430e-04
2.469612490015320790e-03
3.412339479954221676e-03
-1.448854128461009652e-02
-2.460174607230209559e-02
-9.032356520959013840e-03
2.071705846047780953e-03
9.680511052062559709e-04
2.893644736539611215e-04
2.585777785309883135e-03
5.053417486158753164e-03
3.218289711613090982e-03
6.969417584573324963e-04
7.652673562623395383e-04
3.750554358521667776e-03
7.361755672079339438e-03
6.298561563487352528e-03
4.003630356778012725e-03
-4.759756336828957165e-04
-5.167050346961184031e-03
-2.142952094889279645e-03
5.450692083874956496e-04
4.642081121899883358e-04
2.066283034505624408e-03
1.095029011674442630e-03
-7.746994492927613109e-04
-1.268493166055210475e-03
-1.039761479675047886e-03
4.640502199529069390e-04
4.357310814217671890e-04
-5.937448558123898127e-04
-8.318903722785395442e-04
-1.742169765801328393e-03
-1.439690895260832028e-03
2.105610850644798254e-04
-3.018062800367933996e-04
-4.171566439667720666e-04
-1.996590220184573500e-04
-3.793080663060423297e-03
-6.539102499145545838e-03
-6.424111955743723457e-03
-3.292978999962101628e-03
6.896462279182482592e-03
1.703688035278598523e-02
1.904418186118132447e-02
1.356128085303512885e-02
4.887410536368072371e-03
-2.458679959665348129e-03
-8.673598729070803107e-03
-9.653739887212541004e-03
-7.058011066366724935e-03
-7.935804501411186304e-03
-5.315043497856855766e-03
4.081753959143008428e-04
2.564280203305731570e-03
6.987295162655985607e-04
-4.369606269335192007e-03
-2.090340932134646806e-03
2.656874112327004076e-03
-2.601538513832981400e-03
-5.131455017443462517e-03
-1.598981501326207514e-03
-1.372723169081013685e-03
1.032697345508884479e-05
4.318248786186256946e-03
4.893297141850378243e-03
1.938294462401827893e-03
-2.162101103650155664e-04
-2.533623227662851283e-03
-2.115777041524579891e-03
1.200636378935813651e-03
1.317016005681953886e-03
2.495959309126716697e-03
3.792735935920665824e-03
3.512104328268337260e-03
5.380913396244133180e-03
1.360252079782070652e-03
-7.279256883693156852e-04
4.421010308100118726e-03
6.073868004370557364e-04
-4.178716293330387611e-03
-2.609883138223165026e-03
-1.930490415775605985e-03
1.010384675858532356e-03
7.178486181604355342e-05
-3.303476207335584967e-03
-8.705544182377770394e-04
-8.052567141379059993e-04
5.567104065151571224e-04
5.563458445864115885e-03
4.032304314676059959e-03
-5.701403681565593963e-04
-4.887069333635946089e-03
-6.142398443228344086e-03
-1.147246842454000644e-03
6.073630595254957305e-04
-1.936079922251263260e-04
1.455543110071240865e-03
2.179121392553691819e-04
-1.707137077316989897e-03
-3.128828704811893908e-03
-4.349063403179352118e-03
-2.729563219941500730e-03
-2.129427628388166731e-03
-3.959682268651929871e-04
2.645006996410393958e-03
1.677780150718623589e-03
9.131213404742453965e-04
2.332444315662597981e-03
5.029934000792097085e-03
7.149171997056921572e-03
5.813368328371440463e-03
3.893410159966357361e-03
1.920146553057269648e-03
2.593430515666717093e-04
-2.814194587847242135e-03
-5.073334614136915457e-03
1.731420206653543244e-03
6.132294668297364436e-03
1.026636944394934041e-03
-3.282661514706793331e-03
-7.545669465575482321e-03
-9.721067205688551163e-03
-3.433522209642048562e-03
3.405351736352430457e-03
1.937789755429675286e-03
1.031916591129898087e-04
2.835899822188430851e-03
2.220946052381496394e-03
3.426634837090099944e-03
4.771208035165512736e-03
2.701777747553168497e-03
3.508993519493347826e-03
-9.715808559412453249e-03
-2.110924692533422062e-02
-6.011353235409415581e-03
2.186554210852617326e-03
1.428497800147478149e-03
4.778508764832086440e-03
-1.110150749730146199e-04
2.571479098338205576e-05
4.567308280267013548e-03
3.929317719552441815e-03
4.692224191322930636e-03
3.273416378177552554e-03
1.154478807887285730e-03
-1.720885648319059151e-03
-3.915480293634060471e-03
-3.943116236137522170e-04
1.339282319088967992e-04
-7.437975752821701344e-04
1.705052877553428449e-03
3.348700685668492064e-03
2.865100089543379854e-03
1.273574207520362196e-03
2.801912659535864009e-03
4.901011780661943332e-03
5.742263262809466952e-03
4.650551050130309789e-03
-2.161210272691474650e-03
-5.545142362377525856e-03
-3.923968526178163441e-03
-3.051991959606078619e-03
-8.020129240079541940e-04
-9.679453649206893728e-04
-3.954783567315491369e-03
-8.228394551457745773e-03
-1.101939318320840563e-02
-4.883152015873176884e-03
2.545941770920960232e-03
3.244588621034520757e-03
2.436570405531900910e-03
2.748603955213965722e-03
4.411009641554342227e-03
5.768650472911886901e-03
1.900115430828096036e-03
-2.952338456650968005e-03
-7.659077964586351794e-04
7.176571967841156039e-04
-4.051783686104392691e-03
-4.289404960244873333e-03
2.051332296409263782e-03
5.482805788852189617e-03
5.064274722203346291e-03
6.652690264888230440e-03
4.012893404470969753e-03
-3.722685625525286399e-03
-2.624723947726816543e-03
-7.286348854630751801e-04
-1.697405563850519798e-03
4.131583752299431388e-03
2.811152144639723297e-03
-2.015341974056526764e-03
-4.208307895228816504e-05
-2.578010105343832986e-03
-3.096323879617066902e-03
-3.914353264937732967e-04
-8.785641069474214859e-04
2.482934949870437740e-04
-1.950421503656991472e-03
-3.739557822902743901e-03
-4.672239520236740962e-04
5.027849647094688196e-04
1.638275539397049396e-03
3.089599645569272249e-03
2.467481815104101504e-03
2.068157237979791844e-03
-7.582088134499382834e-05
-1.811724076844310445e-03
6.181482180325228136e-04
2.835729730790039101e-03
8.028432377972166212e-04
-2.837452641973545360e-03
-5.733611227021745589e-03
-6.024378883105224736e-03
-3.634927444366151117e-03
-4.593519370255077366e-03
-5.322186751771463241e-03
1.516999931375518913e-04
4.276470788578282632e-03
4.209832303693064777e-03
4.247703088556592857e-03
5.860105256816694648e-03
6.560864845797751733e-03
3.778238732807340586e-03
2.963468103667263711e-04
-3.560897681094466350e-03
-4.434651495690673795e-03
1.188126302657271710e-03
5.283254137136612211e-03
5.035891892939777480e-03
2.516836294515358875e-03
2.089256200712277448e-05
1.739435471804724742e-03
3.220058089596757565e-03
2.294505339028294656e-03
1.237238837975730135e-03
4.535702480200190555e-04
-1.049865026277391157e-03
-6.602391007378073835e-03
-7.157515962386127098e-03
-2.487490493134363826e-03
-5.963942980989637467e-03
-6.765356330763133176e-03
-1.167845943086592581e-03
-5.651617518408562878e-04
5.352851753241044458e-04
-3.273045254280501854e-04
-3.844021462185492986e-03
7.209218317170370573e-04
5.441534127476517664e-03
3.662808406462034205e-03
9.896885640102446105e-04
-1.831579161093969011e-04
7.742673995443123810e-05
-1.118859965444906788e-03
-9.288868326428347227e-05
5.329401524693519639e-03
5.464745539678351506e-03
1.125616812588828113e-03
-5.772676846916790057e-05
2.669859972129187600e-04
-2.342710642358402599e-04
-6.069463170078194351e-04
9.211384676572981428e-04
2.408077861768935513e-03
-3.391194475383821436e-04
-4.221305957161520898e-03
-3.141413207598045976e-03
1.633154422913742814e-03
3.053289250092082290e-03
-3.454858373668579039e-04
-1.870327376891251251e-03
-6.992683368690435792e-04
-2.432597377420304095e-03
-3.670806731213470831e-03
4.297576504971517618e-04
2.972474986428981589e-03
1.864087349126052669e-03
7.438241713710912802e-04
-3.742127111498293277e-03
-4.756091325736114782e-03
2.053293685544323004e-03
3.420909409827871048e-03
1.367581578129765073e-03
2.464181977636485839e-03
1.725210524412475925e-03
2.875561440053010960e-03
3.248436920727104747e-03
-8.557122476109076982e-04
3.165959240964332454e-04
2.820151890082983788e-03
-1.477689703014096068e-03
-4.082122266458486880e-03
-1.219835129384658429e-03
-1.070677452981757269e-03
-2.735742494995945049e-03
3.442486778374914463e-04
1.825612560316125640e-03
-2.578569108824945322e-03
-6.092309278570174486e-03
-5.191729798976710275e-03
3.250307811369587967e-04
3.986001464508569063e-03
2.762645011807961497e-03
5.495178744757133436e-03
7.122818888962989536e-03
9.459455159850209969e-04
-2.234862225368491884e-03
-3.322445782609652473e-04
1.345879185680514930e-03
2.646616838554636825e-03
2.619122781731090654e-03
1.495853371494861028e-03
-1.043605307289405910e-03
-1.774077975937389702e-03
8.955565637155066087e-04
-8.476587218080347238e-04
-3.101231715495214591e-03
-6.719380069554847616e-04
-3.729598833094263915e-03
-9.111269427387387598e-03
-5.721876117725384868e-03
-6.532804309363633146e-04
-3.533339034149253878e-04
-1.622878004753961455e-03
-7.926480231783807062e-03
-1.393880259601213735e-02
-6.600751235068681722e-03
2.877935052375220348e-03
7.239126826592186432e-03
1.345197724263952864e-02
1.227944372538944048e-02
6.958736468018685527e-03
6.630518936547964357e-03
4.923673873512874818e-03
3.689456647025591771e-03
1.976573879422606917e-03
2.484561310339714578e-03
6.494677595137338631e-03
2.350720237102631952e-03
-6.691059422340781123e-04
1.237923347983253038e-03
2.936773759581508964e-03
7.148055016406027092e-03
2.459401799408970392e-03
-2.774531372409606410e-03
-1.479307034422921129e-03
-3.360500967861394534e-03
-1.827458049003418414e-03
-1.161642041825524524e-02
-2.506206114691475820e-02
-1.266788404882553988e-02
-1.288469466578379867e-03
-2.082285096139066018e-03
-1.038835227733039346e-03
-3.891855951967020891e-03
-3.739158540418814972e-03
-1.743497939833218080e-03
-2.109878788412448969e-03
1.049394254799492420e-03
2.998120910712559137e-03
4.671993398617717112e-03
7.745553732354588938e-03
9.506560602604048962e-03
8.859682511661557541e-03
7.371510421180934268e-03
8.470061493648603848e-03
4.632861445739889714e-03
-6.423437508333764562e-04
-6.339320092804280713e-05
-2.458160734012419996e-04
3.065973298998886463e-03
4.674695127376303494e-03
-2.537908049713637898e-03
-4.902433051290965710e-03
-4.079999960158362492e-03
-5.792416555481023910e-03
-5.133567510123874904e-03
-5.155411813835841101e-03
-5.052108325269238226e-03
-2.057630950348803955e-03
-2.302049977559422864e-04
7.581389039166882963e-05
2.936968396556352513e-04
-1.898099494215045938e-03
-4.488370377231900438e-03
-3.555144986639730085e-03
-3.304255411617075793e-03
-2.019429652504908280e-03
6.394853553930129018e-03
1.256279104923650226e-02
9.707586134439727399e-03
6.772870574803489807e-03
5.632718841773457462e-03
3.322986612827364804e-03
5.570076987701568297e-03
6.530255450952746066e-03
1.721803085490661474e-03
3.512202685211359299e-03
2.314152195073380502e-03
-6.274398419124790037e-03
-6.533499011612836464e-03
-9.456653695266645232e-03
-1.089825885591151969e-02
-1.003160811913464314e-03
-2.275302156217398706e-03
-7.637743455511655094e-03
-6.173191800343156947e-03
-4.853039338595560408e-03
3.783454257700432505e-03
5.134885577846389285e-03
-4.592486038064139305e-03
-3.968270899109763508e-03
-1.489570204140093891e-03
-2.265953511685343640e-03
9.920618573704938561e-04
2.058375973742186150e-03
-2.236574220128546375e-05
-3.969311406440191071e-03
-7.922025951394080778e-03
-4.754097820151222641e-03
5.506504854620674315e-03
1.388897558388249576e-02
1.427836683488101395e-02
1.127491151026973476e-02
9.766262975283322365e-03
8.321710905468951078e-03
3.125946631823842050e-03
-2.976910339768996504e-03
-2.746684693347084278e-03
-1.418672153445390020e-03
-8.673211985886669943e-04
7.747584679217715993e-04
-4.064274080467616609e-03
-8.306266542517266871e-03
-5.315135046881763574e-03
-2.019482989786603334e-03
2.169389641695120517e-03
3.798719651021220754e-03
9.131198011104670227e-04
-8.727990633290900763e-04
-1.490652108394860875e-03
5.187399653528339608e-04
2.669699551818411915e-03
2.226743385121131812e-03
2.599113078763764292e-03
7.183805261023365170e-04
-3.671696055208539464e-03
-6.563597996811362627e-03
-7.399814110616545655e-03
-4.330267496251701681e-03
-4.746374548697735504e-04
-5.679428209109397885e-05
1.033274214120419353e-03
5.403563277753567658e-03
6.364349725257903261e-03
1.539970627672687794e-03
1.140205543393447464e-03
3.886256646227323214e-03
-1.323163929581726295e-03
-6.261373460092011997e-03
-3.102383188784748908e-03
-8.259725512385865821e-04
-2.088840535968803855e-03
-4.174818866056017111e-03
-5.895252702714264513e-03
-2.978891876892737246e-03
4.628649018712987194e-03
1.184080719433782541e-02
1.414834337476319343e-02
1.252729936282916991e-02
1.085964186405480661e-02
7.601654890564171242e-03
4.788329515532131764e-03
5.948245414928000387e-03
6.533960356963682686e-03
5.600064237963272434e-03
4.629189388897960410e-03
3.465271249249073874e-03
3.733723147863013923e-03
4.563333124619551803e-03
5.409028578738171722e-03
4.705319301588108995e-03
8.207175369907963348e-04
-2.593265240368075250e-03
-4.005490329589121191e-03
-3.917846737821203441e-03
-4.487240182399732449e-03
-5.378447394852787361e-03
-4.268013741974703221e-03
-6.105250741069590675e-03
-7.827533334483096836e-03
-3.535642809051279395e-03
-7.966746044651027911e-04
-1.377812929750605675e-03
9.848577753455718242e-04
4.776855196446286311e-03
2.707788494979817152e-03
-2.389123809757469352e-03
-3.749821833923445459e-03
-6.120601504265879740e-03
-9.843220848650170718e-03
-1.259636353886452696e-02
-1.410472869813992995e-02
-1.248724594067903391e-02
-1.392895516318950165e-02
-1.414100925191082332e-02
-1.081010135494965899e-02
-1.438937104017620067e-02
-1.462985434221621486e-02
-9.209481769074264607e-03
-5.389720840282591525e-03
6.146271101242745116e-03
1.790813469318246892e-02
2.007175189720768541e-02
1.899265819846865377e-02
1.572679598425405847e-02
8.909413337716073564e-03
4.847432667824437828e-04
6.218358587218374514e-05
1.095345883250038212e-02
2.207213503375713912e-02
2.444501848117740933e-02
1.821637162679327557e-02
1.610259717322748071e-02
1.247873224895153926e-02
-6.848714554901966928e-03
-2.057055984446505559e-02
-2.125387982570940346e-02
-2.701548533144841613e-02
-3.683478737316310536e-02
-4.329895342957747195e-02
-3.223532316993416719e-02
6.199855929284563139e-03
4.614166711968648721e-02
3.363663951466566715e-02
-3.911664449573279412e-02
-7.451761975202328414e-02
-4.081107743124542248e-02
-2.141165901258594920e-02
1.851868423634220676e-02
1.195619992311590662e-01
1.736796926696851928e-01
1.291665368722973439e-01
5.288939822720602896e-02
3.295824542555945286e-02
4.154354154744756972e-02
-2.477842826593344358e-02
-1.092309717552984866e-01
-1.265589352346384311e-01
-7.903061712067094291e-02
2.721940353377070090e-02
1.069157092606463633e-01
1.039957343777245663e-01
4.359818046505419681e-02
-5.774125812890790882e-02
-1.310170781103747462e-01
-1.527095607769035079e-01
-1.472100453423731137e-01
-1.046167347632588063e-01
-6.579300810285429457e-02
-2.482770716637755157e-02
3.940550689701106252e-02
5.205499473463552629e-02
4.111046522990388641e-02
8.264720930192452630e-02
8.942154023919438033e-02
-2.686962488432557625e-03
-8.542256579393148197e-02
-8.216852355653359030e-02
-2.596258543738992966e-02
8.114515463170469955e-02
2.139490780955854987e-01
2.530473092087499043e-01
1.478036458380587725e-01
6.882028356855460216e-03
-4.996410601860686723e-02
-6.167016819939744737e-02
-1.250999848323930685e-01
-1.641064360356405405e-01
-8.406112561635860347e-02
-3.932216204398159692e-02
-1.182459156619575236e-01
-1.389457421586202668e-01
-2.693142165370682878e-02
1.155866734610232621e-01
1.254709282831297512e-01
3.597533427030904368e-02
1.323779348509311893e-01
1.847980300680035770e-01
-6.936267770994100634e-02
-1.844119646898818299e-01
-9.248889774682444997e-02
-1.017342390157301331e-02
1.498899281551439588e-01
1.885828326424015267e-01
7.145875482563883441e-02
4.370837571266765476e-02
4.279751017277951680e-02
2.366247101628666041e-02
-5.536918038139216659e-03
-7.341744039484290885e-02
-1.044425424069515551e-01
-3.325791907066995290e-02
4.922474484108639581e-02
-5.688703480778608407e-02
-2.067829078406348831e-01
-1.502351946047240094e-01
-1.797144979005328713e-02
9.312723025801167287e-02
1.413299969036233561e-01
7.694331909905198497e-02
8.275660523003556049e-03
-4.043356222661245031e-02
-6.913524496633753624e-02
-6.331041691425551288e-02
-3.658909100001857956e-02
4.277048970154209706e-02
8.626859936538908147e-02
2.559817584995162029e-02
-6.074806590536588335e-02
-5.532525066720095364e-02
1.010965887789065376e-01
2.173828172997657182e-01
1.450845172773349567e-01
2.231600088165880055e-02
-3.148562658301855971e-02
-3.962768597468484949e-02
-8.979667316137333877e-02
-1.374165030830359902e-01
-1.139960597585248092e-01
-1.854049602555378207e-01
-2.922848783631401548e-01
-1.446958529980442165e-01
1.043002230619365783e-01
1.703728731208008496e-01
9.995292629510735272e-02
3.352136440295488788e-03
3.636956157781826710e-02
2.050268890385050780e-01
1.933083760946733565e-01
3.175091689691469932e-02
8.283410669780588362e-03
3.262680284570118605e-02
3.828420254635094173e-03
-1.768298214322239215e-02
-3.046984222506968557e-02
1.814354231645489693e-03
5.715011537597097097e-02
6.826856287753638175e-02
5.331453062756535272e-02
2.745507365590907703e-02
-2.456652615832032212e-03
-2.288396782190455295e-02
-2.389767471620852721e-02
-1.687038357408014375e-02
-3.351979954436536124e-02
-5.309061141341980122e-02
-5.758164371721908453e-02
-6.273406090616211184e-02
-6.103312812861064196e-02
-5.183995249019606594e-02
-4.159224363091948429e-02
-3.051247789591665996e-02
-1.884172273967624212e-02
-5.114847694763158953e-03
1.727273267457842204e-03
5.803792519668692952e-03
1.921432970112771713e-02
3.320390506318030704e-02
3.501406991926408335e-02
2.801783927485159559e-02
2.373212575152292697e-02
2.212584819575874953e-02
2.372497967902496840e-02
2.517798363440295825e-02
1.427681256484458414e-02
-3.792461770184466559e-03
-2.588172029452361772e-02
-4.483571304350686404e-02
-4.221053220542173023e-02
-2.794007479542716735e-02
-1.638019510427311115e-02
-8.164089069016798594e-03
-3.666136539419347258e-03
4.046176255751992787e-03
1.269353697128944303e-02
1.347393453195197544e-02
1.098830375138211760e-02
9.101786131938391367e-03
5.131131248841830535e-03
1.072311833275855272e-03
-1.337461872497941592e-03
-5.369191572316863760e-03
-7.474672188217345269e-03
1.325762558491343961e-03
1.451536103373726738e-02
2.198156641696161553e-02
2.606549175507980390e-02
2.643797228224686879e-02
2.888457427486346499e-02
3.779254074315446105e-02
4.153734361696284627e-02
3.898652943354886241e-02
2.065110390064841053e-02
-1.153342478796427761e-02
-2.483866737898417221e-02
-2.886111325141447331e-02
-3.470668311104981030e-02
-1.959389624659188880e-02
-1.719077351428629748e-03
-1.033266499809772695e-03
-3.530951573307082852e-03
-6.043105530770689557e-03
-1.189986507384826163e-02
-1.955791692616680455e-02
-2.040617082129806206e-02
-1.110307574156031360e-02
-4.603213584359356139e-03
-6.726479761556066091e-03
-1.394383090704453404e-02
-1.687020383313690350e-02
-8.111641355801585407e-03
3.316201790411716938e-03
1.023215261036126283e-02
1.111659729392908483e-02
8.778684019731959262e-03
1.029892142642614694e-02
1.410700708735770741e-02
2.288050281215952414e-02
2.872339626635263266e-02
1.468684602780023427e-02
-7.102160226689329791e-04
-4.704349985008619839e-03
-7.840517658826101285e-03
-6.972281033397453517e-03
-1.381325812173305780e-02
-2.584799236985551793e-02
-1.428813093491702359e-02
1.619783869406423013e-04
-1.575714125705443211e-03
2.675013672281850805e-03
7.703733168521453671e-03
5.503698031977924225e-03
5.687162320021975880e-03
6.035188172659694192e-03
1.019773300347653032e-02
1.871353497041838843e-02
2.173424327416267204e-02
1.723544492088656399e-02
1.060338162286761018e-02
1.073144567350741742e-02
8.336851338440746939e-03
-5.871976420271142645e-03
-1.187882324633165836e-02
-3.603676755439886963e-03
2.175173311132467743e-03
4.011279073522992897e-04
-1.572616895698770783e-03
-9.734130654577428628e-04
-1.469934812578176401e-03
3.327952755765218977e-03
5.188879999550490528e-03
-1.150920750165307371e-02
-2.063858035578946398e-02
-1.136713914581277685e-02
-7.106801634450243474e-03
-7.030914536127523540e-03
-9.172472979121732567e-03
-9.637356301832034761e-03
2.719066129438244429e-03
9.257102749878330997e-03
3.978593581709256172e-03
6.799012483174659248e-03
1.149088787092839362e-02
7.271567011556193984e-03
7.565796318114955017e-03
1.739257956573187630e-02
2.181417466710235814e-02
1.441814563142435404e-02
3.452724813305644083e-03
-7.293710343063237664e-03
-1.963222279569992040e-02
-2.564672583174222933e-02
-1.666509825826823291e-02
-7.851309132107070834e-03
-1.219077704163161642e-02
-1.186196355308895452e-02
1.690324371951056103e-03
1.468234981921274183e-02
2.416865745303710053e-02
2.773319702757346197e-02
1.954850726701989200e-02
1.137795215144417511e-02
8.044532788966390555e-03
2.227078529271270431e-03
-2.537814139718029462e-03
-7.169698546291617368e-03
-9.941078215212341765e-03
-7.737999684667533351e-03
-9.539274305599592871e-03
-4.362682124059069112e-03
8.444186168337940168e-03
7.368601070531052150e-03
2.733361481138896210e-03
4.265978395019628250e-03
7.261671532885263618e-03
9.818773534146686341e-03
1.798400646269726665e-03
-7.119512654644007121e-03
-9.425437240014506585e-03
-1.475002787698569823e-02
-1.431381610086183802e-02
-6.929072624811802653e-03
-5.543316485455985695e-03
-1.082566854409135540e-02
-1.228385699426727540e-02
-5.382252041348884082e-03
2.192928856587831286e-03
8.186542838867025967e-03
5.051764793033886210e-03
-5.594867741138116919e-03
-6.409293893730287628e-03
-4.978616212557079521e-03
-2.325301886045199554e-03
3.919598774322386424e-03
-2.650112389284579113e-04
-3.790323610442803900e-03
-5.690117638590752071e-03
-1.408493862481236675e-02
-1.436505107296966177e-02
-6.802226985681706153e-03
3.072386640821597042e-03
8.681661567996507706e-03
9.067111624276985235e-03
2.261464905474800530e-02
3.907542039520735949e-02
4.078905766078647077e-02
2.904620693133181525e-02
-2.709350718398974549e-04
-2.838194754461039263e-02
-3.392551186445282030e-02
-2.604843287888827102e-02
-1.339812248556104465e-02
-2.336592044809126644e-03
8.498386795231039140e-03
2.360722663233652194e-02
2.469320561994522642e-02
8.673243300633119712e-03
-2.246193572210461800e-03
-4.685943542383542298e-03
-8.660676610554612909e-03
-1.618346378800108315e-02
-2.149907797385780875e-02
-2.326552202150188042e-02
-2.388595646812913947e-02
-1.740637459745243698e-02
-8.852913217733402937e-03
-4.398099498998055482e-03
4.934417753125612191e-03
1.080982584143244316e-02
6.279954510746757305e-03
5.741296817120015647e-03
1.173849092138821645e-02
1.469963046724706568e-02
9.320009155310102211e-03
1.058667220152357830e-03
-2.736003309070306547e-03
-3.446894212670193348e-03
-4.420971385411867453e-03
-6.998939851624593790e-03
-6.025336002371859713e-03
-6.266085355377119456e-03
-1.267396980846471378e-02
-9.735182800040563522e-03
-3.162904355084459251e-04
7.935419214902586157e-03
1.847598337991112130e-02
1.898436937165685900e-02
1.004056481958095527e-02
1.150424336860531808e-03
-1.925277930201840012e-03
4.206576627582598801e-03
4.915572662694983955e-03
4.711078041766804045e-03
1.016361852666143074e-02
6.978246102853240262e-03
1.121090593067917409e-03
-2.543535412106283106e-03
-3.909022400184860788e-03
3.107162380027552514e-04
2.051709598027631840e-03
-6.374975975031099218e-04
-1.025140112653834257e-02
-1.783529334246396550e-02
-1.393417634131884769e-02
-1.343592465468990312e-02
-1.334493702994974870e-02
-8.626099156845099328e-03
-7.712080856276523275e-03
-7.214277930462745757e-03
-7.645782847605932762e-03
-6.998238565859205354e-03
-4.341953384648239433e-03
-3.762904477588015217e-03
-9.083590399107570670e-04
5.341445643988213671e-04
8.687730185755405043e-05
5.370872604275685538e-03
1.471528359741126023e-02
2.022245285322260208e-02
1.612522560390776058e-02
1.149695584669356042e-02
1.228239021107782429e-02
1.169728072221298647e-02
8.936688473182177392e-03
3.125556992211005018e-03
-1.107001091273192815e-03
2.111458335985027211e-03
1.968137972585189913e-03
-4.669249507613460262e-03
-4.418529165237722843e-03
1.630921385010473609e-03
3.601373981464067731e-03
6.343556465790612872e-03
4.071397835598637195e-03
-9.508695653695355826e-03
-1.595887654387740523e-02
-1.397465495807135444e-02
-8.136791420618924228e-03
3.586118373577617743e-03
4.796384712844249665e-03
-2.159144516935339146e-03
-3.175517890821488720e-03
2.446727101177618904e-03
9.404510532941025985e-03
2.797990925759280198e-03
-8.783050578256431165e-03
-9.818675802090479771e-03
-5.832405347373746662e-03
1.457547884025043932e-03
2.601635933666141074e-03
-3.611878436003503924e-03
-1.346598900089299817e-03
6.720595966236884988e-03
2.062922572569540845e-03
-1.980630185858697073e-02
-2.736125103844762319e-02
-1.097875395101367835e-02
-2.378978789616368293e-03
3.425060486235444440e-04
6.460200965485222296e-03
7.407100634866607865e-03
7.572134226395815619e-03
6.103614588050781074e-03
3.067980046906439769e-03
1.378097672789871343e-03
-1.196186531455593850e-04
3.264017568777486181e-03
6.103975534147782628e-03
2.096447711326704117e-03
-3.504713603979781131e-03
-3.919988739250469117e-03
1.510006978148046436e-03
5.701629244725092346e-03
7.945565939487227516e-03
6.924312467945828962e-03
1.930113118707721181e-03
2.048177480014876410e-04
-9.503212224928575362e-04
1.242319537598416280e-03
9.163741112089698188e-03
6.808732070992937722e-03
-1.853537713871205792e-03
-3.817855487515629202e-03
-7.331244355403402670e-03
-1.119950609295444766e-02
-1.008129195949229034e-02
-1.122851833169039200e-02
-1.008618206264582685e-02
-5.485096773198681365e-03
-5.255818325545995318e-03
-6.685894916288990814e-04
5.629822520342812713e-03
4.937047481624954291e-03
5.177433179435724474e-03
2.257789277627551654e-03
-1.831458897069922036e-03
-1.048212791437149512e-03
-3.874167458460814426e-03
-2.414249101928089489e-03
2.702840087448926763e-03
4.484862106610468767e-04
-3.571042381002595759e-03
-1.006510761395890477e-02
-1.557118211680050789e-02
-1.456240596476432274e-02
-1.022508015100088465e-02
-4.927679146273686653e-03
-4.870835076911930392e-03
-2.735850183286446958e-03
5.439707252368044870e-04
-5.100272764361047859e-03
-3.263679489702899558e-03
5.350097394872053297e-03
7.214412755224602382e-03
5.463996661649420626e-03
3.058015079944992982e-04
-2.639528437861760665e-03
-4.390150983505042813e-03
-6.006690226259477593e-03
-5.270153224116081890e-04
1.876293095877487821e-03
7.703960876304200792e-04
1.755126582528680756e-03
1.137327167206658718e-03
4.531927109059297881e-03
7.967268445893179590e-03
6.779025236536246474e-03
5.444450261798146513e-03
2.660148570133473618e-03
1.152556313945103531e-03
1.740714741323140871e-03
8.411848803333852112e-04
-5.136506857774583885e-03
-1.236976028140066713e-02
-1.175145369999151639e-02
-1.060229364245802303e-02
-1.099180492317653780e-02
-7.886891420935338709e-03
-3.575493609910875177e-03
2.876763869356813164e-03
2.479046239164625111e-03
-1.913325961815556895e-03
3.878504808280843472e-05
4.324352301556087124e-04
3.870596946204909582e-03
7.624994209719165167e-03
3.622946539367399420e-03
-1.592988327808055266e-03
-1.050591745627792520e-02
-1.018186384371390710e-02
6.128846103793448685e-05
-1.251641724671379496e-03
-3.633288400696933675e-03
-2.710515466897620972e-03
-1.879815759140307432e-03
4.107170670632286948e-03
4.447310288655130506e-03
2.669652401662915824e-03
3.119681230726026409e-03
8.212231095287614345e-04
2.984323745165218256e-03
3.228518599218035100e-03
-2.238466141174335396e-03
-3.362850611357961345e-03
-1.809327304750279596e-03
-2.890746237901678419e-03
-4.472163520822574657e-03
-2.141045911288174536e-03
-2.755428972558508424e-03
-8.302578967954563419e-03
-8.367874865883109109e-03
-6.658725292659771304e-03
-3.560713055390993080e-03
4.497084761980307127e-03
6.185718717400290854e-03
1.519600745446883765e-03
-1.070183030589591782e-03
-3.270646011530659990e-03
-3.353427143097868161e-03
4.406208022509092680e-03
1.028624328419512797e-02
3.120598245949911947e-03
-3.066329406090042252e-03
-1.228875390989938058e-03
-2.191616587309478358e-03
-3.624944075394083941e-03
-3.199846721838577740e-03
-1.227134690759155121e-03
2.005751791462997199e-03
7.200017254248652042e-04
3.229813820133444879e-03
8.909764908189395788e-03
4.729701010268464248e-03
-1.125658764731582396e-03
-3.926014931615292095e-03
-5.834722214139073312e-03
-2.355372927487112827e-03
1.226071993926429677e-03
2.887212349962277151e-03
3.319632913340414028e-03
-7.342108789133142046e-04
-2.262661005196734548e-03
-2.055312542926484264e-03
-6.797725921772302705e-03
-8.454425458492464268e-03
-3.714904833385167943e-03
9.081803147786613297e-04
3.334742421262967133e-03
3.649765086687716594e-03
1.769576436506466741e-03
-1.013477393620537247e-03
-2.255711430524372316e-03
-6.468470171062714593e-04
1.850419957109456209e-03
7.184172802597223878e-04
-3.528286579026379197e-03
-4.869135864125971429e-03
-3.246692808534424549e-03
-6.746752061683043125e-05
4.019926699633134468e-03
3.781520226513818139e-03
-1.233654780856469535e-04
-3.342118757186956189e-03
-4.882016244005492334e-03
-3.749248227891589444e-03
-1.818870099838387983e-03
-6.316994987888538589e-04
4.519361861595084942e-04
-1.442638429449986633e-03
-4.803838201804740832e-03
-2.332326109464430159e-03
3.248160283051021360e-03
5.096736926148661383e-03
4.091930948015164334e-03
6.768801456240602660e-04
-1.075952261011570892e-03
-5.578793839630070083e-05
-2.057439901120065601e-03
-1.069711297683690948e-04
4.374553857069062197e-03
1.857142403880308315e-03
1.596412220775731642e-03
4.214706483227908564e-03
2.952181469880528920e-03
1.015239244871886685e-03
-1.378292721329511458e-03
-3.021427978043053370e-03
-2.596633764274913422e-03
9.680621178034224013e-07
-1.313738608536656454e-05
-5.676180831668242374e-03
-4.884162710417391633e-03
-7.020089861220267600e-04
-9.171631113724725785e-04
1.893318958839120252e-03
1.323096428842413354e-03
-2.037834964682443822e-03
7.952841343842492229e-04
5.623958357787864955e-04
-2.177073248439233017e-03
-7.847980181318016868e-04
-1.615851880220915433e-03
-2.865526979427071748e-03
-4.973014179902572217e-04
-7.422329625115585243e-04
-1.451884455214699126e-03
2.876473435055926665e-03
6.443033350105912063e-03
3.612108186036782926e-03
-3.338039453740666677e-03
-5.280348640238469692e-03
-4.328826754714150578e-03
-5.257180631621281505e-03
2.344582614813131832e-03
7.534977815042714737e-03
6.003018556398567566e-03
7.868969044747962244e-03
-9.589944536975604159e-03
-2.482145710251594181e-02
-4.209620347498963487e-03
9.935281268609343769e-03
5.526270422672605043e-03
5.623830106267398328e-03
5.488759639149764537e-03
4.949733722752680184e-03
2.503742412623130315e-03
-1.796314886774033951e-04
-1.547853548194532000e-04
-3.571711396952941420e-03
-3.843282086352673224e-03
-3.854532188896873652e-04
-2.983475974214517949e-04
-8.948989014915308213e-04
-8.295285117099913865e-04
-3.803933689334531958e-03
-7.763308408121925158e-03
-6.315620484367346667e-03
-4.181681756853886447e-03
2.832232794258329853e-04
7.234405918744369821e-03
4.055769514187811987e-03
2.123376486096935009e-03
4.864859780419909276e-03
7.349051207404410811e-04
-8.509400958751065815e-04
-1.496250839541115197e-03
-3.674755166391366432e-03
-1.635287004592215956e-03
-5.965201247224167624e-04
-2.918702412700524486e-04
-2.460275666251378768e-03
-3.402247569974371257e-03
5.171335641775955290e-03
1.287902249743410645e-02
1.260616597814814138e-02
8.292903112896073473e-03
2.176811663591643291e-03
-5.627099713953190828e-03
-1.021967318540886391e-02
-6.315996471997605000e-03
-1.952135917216714931e-03
-1.002128402175588755e-03
-2.635813303013908107e-03
-7.128338600625399799e-03
-6.555735459707858620e-03
-3.650779154573913395e-03
-2.850864977567298640e-03
1.218863547233103818e-03
4.469111726354904612e-03
-6.985525126578663157e-04
-8.651367790384513132e-03
-5.452783921348834141e-03
2.647745251913264080e-03
4.031286009594748851e-03
4.427513259199068567e-03
3.559828847131834857e-04
-4.211735297092668480e-03
-8.536976862206729997e-04
-2.808556107931291755e-04
8.081323068450817129e-04
5.854685572147254151e-03
6.368370166948100243e-03
3.561374839131800467e-03
-5.671108210543799851e-04
-8.668340530700946803e-04
1.099908905368205889e-03
-1.571533416806276300e-03
-2.421032714516931344e-03
-1.310680105662772850e-03
-2.695514451810483107e-03
-3.527452332676208561e-03
-2.005209297854343171e-03
6.236252300892711426e-04
2.532430806750011424e-03
4.688211380460053507e-03
3.173760937370713464e-03
-2.274589759164216771e-03
-1.629175380335171628e-03
1.445047992488071847e-03
-5.069102756448441455e-04
-1.314307504690977613e-03
3.589896811411280152e-03
7.110549474836099122e-03
1.884871400008407243e-03
-3.466184900346255642e-03
-1.266930996159792121e-03
1.503887855149934998e-03
-3.989431284589857094e-04
-4.779704538630739040e-03
-5.475645366884805861e-03
-3.474146392970014607e-03
-2.954285358434667434e-03
4.404913685635950026e-04
3.044505892124866903e-03
2.116074685718676626e-04
-1.532549951116007805e-03
-1.413788905446617446e-03
-7.155052676163514572e-04
7.885742788899458618e-04
7.264925067110723214e-04
2.272208499089458083e-03
3.770942014885293302e-03
5.692263933748643000e-04
3.588062503850097430e-04
1.331221937783878817e-03
-4.188882327025642352e-03
-5.733927312068692710e-03
-1.774251325947869516e-03
-2.719962708724686391e-03
-7.303353380286575942e-03
-8.494333050412456940e-03
-1.159957479312740628e-03
5.780919882309438866e-03
6.424876651568264124e-03
8.262425608111021932e-03
3.679460295019334332e-03
-4.456558681929964107e-03
-3.924282636584439966e-03
-3.102657535496097969e-03
-1.313900258157171862e-03
2.132758736183649421e-03
2.118175604384224444e-03
4.258788614577137775e-03
4.430956245562800780e-03
3.026330960673643319e-03
4.666696571454452894e-03
3.578083697524096340e-03
3.447235791997011693e-03
4.215501739897279700e-03
9.514681488454738338e-04
-2.841285280486006959e-04
1.570063707360018447e-03
2.232226251474417160e-03
-9.860755573508077527e-04
-5.498111555221601304e-03
-3.724300063145980898e-03
-1.008953746297557756e-03
-3.889975115523162594e-03
-4.194901111800201920e-03
-1.451862174098487957e-03
-1.165088781588314139e-03
-1.579428503529208688e-03
-4.700894725950146083e-03
-6.928977552139187895e-03
-3.421480683318337858e-03
-1.877689361705710182e-03
5.584656813523822434e-04
4.908625987416115680e-03
9.499051291170363103e-04
-3.664259049826203065e-03
-4.864551652294582008e-03
-7.282303744327881835e-03
-5.193017269488832584e-03
-2.830889180804889351e-03
-1.424955645495463172e-03
3.229048930703309981e-03
2.272622907069973136e-03
9.791142703030912206e-04
5.227024247027840277e-03
6.527630406053604346e-03
8.893676017540964873e-03
8.401428726182047502e-03
1.470165215353455611e-03
2.715928957831042177e-03
5.217971511792194629e-03
1.836891561050605715e-03
2.639524023893112178e-03
2.998428978895396196e-03
1.155627153402239045e-03
-1.197548276183336285e-03
-4.215485500732105671e-03
-4.235816748551753997e-04
3.246296061414937015e-03
3.284794764770412098e-03
5.189966953133696818e-03
1.075082611064957522e-03
-4.116138806594379050e-03
-1.020336992884611927e-03
1.021568370216080707e-03
-9.453853630367394260e-04
1.324607073795215813e-03
-5.595344319114785737e-04
-1.874270040550703176e-02
-2.621541817622626003e-02
-8.541615365836320237e-03
7.610409557175181914e-04
-3.842065970530194924e-04
2.612778335578045882e-03
-6.040172639126826018e-04
-3.562515178604519234e-03
-7.914964275489427955e-04
-2.388333894770431818e-04
1.885348932300104753e-03
6.246595985112950167e-03
7.930074390952635346e-03
4.862198592104350660e-03
-6.950202553761189840e-04
-3.274935070168721613e-03
-1.796409865618140648e-03
2.979091785183720243e-03
5.355877358405090535e-03
3.090847015137798866e-03
4.955251764879808722e-03
6.940379917377923619e-03
2.699074923008698210e-03
1.567805341735995211e-03
3.182780031841990487e-03
1.003065581345787081e-03
-2.197129311804513988e-03
-5.404427555994773501e-03
-5.543233251683903594e-03
-6.783688430111970303e-04
2.683714789139454542e-03
3.593675318034370274e-03
2.981454995036556324e-03
-1.843468633311265859e-03
-6.712874997897790193e-03
-8.619830958528706261e-03
-8.165125543585425444e-03
-7.128450104852700241e-04
5.886571509860562788e-03
-6.083544398304944773e-04
-5.883001922596236069e-03
-1.365408444966951769e-03
6.711311234823338912e-04
1.537787622819415494e-03
4.425874595289471143e-03
8.055229116894309024e-03
9.985256515675096020e-03
3.990223373433375575e-03
1.612976861163068496e-03
3.345446340809120258e-03
-1.793290367371052751e-03
-5.205651535020736423e-04
1.743140704440430478e-03
-5.018354725579971150e-03
-5.137303847758980385e-03
-2.094102544481318134e-03
-1.890839857454821400e-03
1.301286862819429750e-04
-9.862354324520928184e-04
-3.561847376890346552e-03
-4.389707668946738785e-03
-3.990289875118407589e-03
-3.983232143915803498e-03
-7.609347009300529777e-03
-8.404756119528927760e-03
-6.382654457881356720e-03
-8.480026206647006681e-03
-9.038842248644738536e-03
-4.981827452308876421e-03
-3.817690837034823067e-04
4.019171014051667150e-03
7.224289007662835702e-03
8.980828281007723762e-03
9.204854767051321926e-03
7.269445879886429589e-03
6.600507605678008864e-03
9.002720516653460112e-03
1.363073299498683555e-02
1.701555082505588207e-02
1.382603635150183967e-02
9.196123343363451011e-03
5.303322603861161666e-03
-4.963150282664536249e-04
-2.098581467832164472e-03
-5.931211725973331399e-03
-1.276918459062831995e-02
-9.815869098015829464e-03
-7.069028711425728861e-03
-7.875046389094076532e-03
-3.998759933478993056e-03
-3.209899941481357717e-03
-5.090929298980911323e-03
-5.852641660257368317e-03
-6.632096034004598267e-03
-4.863437940421850604e-03
-5.397914712219053883e-03
-7.862901770576006047e-03
-5.883305290457099476e-03
-2.974807094012558908e-03
-1.402409897904100325e-04
5.461251981528823796e-03
1.005276022536753799e-02
1.068104284565176906e-02
8.640568293110231779e-03
4.897698867775703534e-03
2.928298044624674367e-03
3.067529777128984690e-03
4.736067596100493999e-04
-2.323430637494734111e-03
-2.012129166031881473e-03
-4.800115289903871614e-04
1.396396842499550645e-03
2.948272584351763204e-03
4.223212222108001755e-03
1.661748079633188283e-03
-4.101019570256851307e-03
-5.586226429586609900e-03
-5.792259029257994588e-03
-6.021891423725922975e-03
-3.317644295955632632e-03
-2.699101907658168001e-03
-2.528722920406798694e-03
5.731679531964118529e-04
2.993470513694185091e-03
4.374657004052826328e-03
6.489365710554475045e-03
7.377947365941076203e-03
2.312514010871525791e-03
-3.846540163895094400e-03
-2.795088809756068014e-03
8.287089566299656127e-04
1.381313339796535209e-03
-2.363211809393026333e-04
3.824422283686896087e-04
3.436569395698922842e-03
-1.175547868125780422e-04
-7.601175954496105364e-03
-6.657770259751106395e-03
-6.212466011385981768e-05
2.719554273432153117e-03
1.931050152400382589e-03
1.946821223285787484e-03
1.677340593878199693e-03
1.319849379558696322e-04
-7.071947685212615683e-04
-1.269130564058046622e-03
4.596527510049929041e-05
1.313773098932461412e-04
-5.452686783044871990e-03
-5.180912508178919275e-03
2.589636812575561720e-03
5.124019305358853277e-03
5.872525902518183419e-03
5.516601954112222705e-03
1.570068905300773350e-03
2.558168520953561526e-03
1.756222739266926746e-03
-2.527721527584811043e-03
-3.802115251443577773e-04
-1.551779540451382524e-03
-5.106396367919588918e-03
-3.128816134118165334e-03
-3.913742113860951485e-03
-3.094663061136209477e-03
-1.160235754701361810e-04
-2.186416009882370583e-03
-1.053493645956388603e-03
6.980181938893502240e-04
-2.913500365725821880e-03
-3.184159977318238265e-03
-4.781508577122956048e-04
1.423379187049869090e-03
3.190862917567659478e-03
1.178916247537660847e-03
-2.225127456161599734e-03
-2.533698689998641149e-03
-3.703946749043430641e-03
-2.878485385104516056e-03
4.552648264382896069e-03
6.625176734848988933e-03
1.617696984776346254e-03
2.427768712167428181e-03
3.915199792308756213e-03
2.026474658229820806e-03
2.518259091012904800e-03
1.215966215105213988e-03
-4.387194390462895708e-04
-9.796559132745478495e-04
-3.850650640325362344e-03
-1.661053010510338702e-03
3.410083559909229175e-03
3.438860757842732326e-03
1.281201484894634252e-03
-2.789839628546864850e-03
-3.192926730671212781e-03
9.964629197547693502e-04
-3.992012215155761341e-04
5.399255119909378373e-04
4.776739906281421769e-03
-7.687772555018059124e-04
-5.506153632645339503e-03
-4.250164043565324810e-03
-3.497397120100333504e-03
8.438074354168187234e-04
-5.210011904978068681e-05
-4.402892740357912393e-03
4.161673680616989265e-03
1.280617186751508048e-02
1.169088445219986470e-02
1.058789527203176858e-02
9.843317512639936442e-03
6.197445412221873166e-03
-1.103281485002348839e-03
-7.077631893368880635e-03
-8.953715491837892573e-03
-1.148152533028597155e-02
-1.157223832339211028e-02
-1.015794936238836009e-02
-1.041392828194531543e-02
-7.971758640395938331e-03
-1.024082908013621701e-02
-2.192967161179601790e-02
-2.484151703264285763e-02
-7.220219967692009799e-03
1.049977677390034371e-02
1.461701832952242569e-02
2.015496332132553359e-02
2.090298157514451638e-02
1.162976396906899475e-02
1.122891663278441712e-02
5.905827669123727558e-03
