-1.641095395850710251e-02
-2.437513677487428490e-02
-1.545672531034088769e-02
-1.577612104927702055e-02
-5.823313465658779865e-03
2.392923468600348120e-03
4.070412778717954518e-03
1.069803913108517170e-02
1.681221463704685865e-02
1.767341792943637885e-02
1.449887005036001354e-02
1.466622192246129497e-02
1.565477530343853396e-02
9.524251376472874647e-03
3.031568402853396368e-04
-3.513380427929198562e-03
-2.849985540215771614e-03
-6.803804911126780028e-03
-8.696943806276467848e-03
-7.288737185594203194e-03
-1.031919756121806205e-02
-1.106457600050943409e-02
-1.257774974487021850e-02
-1.006627175460121648e-02
-1.971161947720787618e-03
-4.291143749340622406e-03
-2.495681419637171827e-03
5.415480248122480321e-03
5.783231523030570032e-03
9.321457504902805336e-03
9.371269696707958466e-03
4.674721153130758679e-03
6.601045738034860486e-03
5.655375616107828629e-03
7.145813444166072620e-04
-1.930255729478178462e-03
-1.822381699338880296e-03
-9.412205577160810991e-04
-1.405021519251300165e-03
-1.121407182874639089e-03
-2.940699379891101393e-03
-4.545702342095144302e-03
-3.974198812870657904e-03
-4.324779534589703184e-03
-5.447444417649665682e-05
2.839768809420232989e-03
-5.429666391053614930e-05
-1.034723426248559649e-04
1.080802618258692137e-03
3.821274397186194462e-03
5.610236302736456779e-03
1.034926260943250112e-03
-2.116384383552893239e-03
-3.177908299925816943e-03
-4.507192077605097838e-03
-2.543605703862551141e-03
1.222352821254418754e-04
1.503474761840082208e-03
1.416607192623715438e-03
1.258186726461130514e-03
2.195937042226540209e-03
1.724768791842341972e-04
-2.791278856473555607e-03
-3.145768967052160314e-03
-2.701315910934279970e-03
-5.197419477869171829e-05
2.436227198624918606e-03
2.248908911344544952e-03
2.686878482650863469e-03
1.519451951286090487e-03
-9.550641901043567788e-04
-5.062507993688190487e-04
-2.567107804447155269e-04
-9.120953978453545620e-04
-4.750634757359881079e-04
2.725862043290634435e-04
2.891697107619573340e-03
4.572372792612715807e-03
4.009794764268227382e-03
5.114713089029643799e-03
2.693960886331626600e-03
-3.407131957590063109e-03
-4.019013862489125358e-03
1.057710941596827915e-04
2.852894767014096684e-03
1.722522189599588402e-03
1.517236916607418154e-03
4.074685060247613087e-03
3.005344950287374035e-03
3.860562259212368692e-04
-2.374314595821846487e-03
-5.898029204035890559e-03
-4.155212469125251808e-03
-2.708787513295930326e-03
-6.255124142140886662e-03
-7.076912892261577430e-03
-5.859912849790966001e-03
-6.649322880901901815e-03
-5.503106640958391194e-03
-1.709700812452099932e-03
-1.578979590735574926e-03
-3.459340238108074041e-03
-2.994667597134146285e-03
-3.919337393560339000e-03
-1.402584476771132462e-03
7.215095192728115947e-03
1.104214899688958466e-02
8.137509844721972294e-03
4.662890405915774347e-03
4.926391767320514002e-03
6.433599646972459028e-03
4.156829665666835795e-03
3.087197773706014912e-03
3.873973961512675642e-03
1.656186028064870770e-03
-1.987406411042657965e-04
1.227616033831442806e-03
4.201047737466640127e-03
6.342853572272178289e-03
5.485382593497642109e-03
9.527169382342850134e-04
-9.183860912196918332e-04
2.149607649682967140e-03
1.706874604977460640e-03
1.197893502480536351e-03
2.293336297712489195e-03
-1.294121353783416048e-03
-6.037779808083522035e-03
-1.846913775371691879e-02
-2.783041542330843068e-02
-1.396911980659476353e-02
-2.212809210156014596e-03
-1.394823680591229320e-03
3.236814222003908063e-03
1.989227608487564684e-03
3.697752840039605156e-05
2.564192949685738330e-03
2.504999345533033550e-03
5.149475665186024030e-03
5.893581387282016519e-03
2.998271271408458477e-03
2.272461214496947473e-03
1.290285188253187734e-03
1.637711676603430429e-03
2.432701182829076860e-04
-3.319136277788111832e-03
-9.150917235345601029e-04
3.568188341521041831e-03
4.183562663812949965e-03
2.870260615857372823e-03
2.139162902717606837e-03
2.295789818270428748e-03
1.033033993851931349e-03
-2.497589614589393412e-03
-4.243945737934824193e-03
-1.996788282357176043e-03
-9.607315243096733017e-05
2.020952108256667424e-03
4.836604227308408631e-03
3.675861839385634669e-03
1.478921597262916436e-03
-1.122176635875897846e-03
-4.211244295678243446e-03
-3.780594063744033024e-03
-2.248578590737270507e-03
-1.721201997794445594e-04
6.476980369236387796e-04
1.325184566709120687e-03
3.583401609902317833e-03
1.313458909827907662e-03
1.649327264670779995e-03
1.460941976167905729e-03
-4.907909437860296861e-03
-2.003730276367612397e-03
3.630174507075109016e-04
-2.992964086045049425e-03
1.042307645821780027e-04
4.023731560272181089e-03
7.782311468680998615e-03
-2.652416238270580671e-03
-1.908760604373774955e-02
-7.315013216557165847e-03
5.307637621002265702e-03
1.235806192819722312e-03
2.356949357561725997e-03
2.619736094233686505e-03
2.896864769488049531e-03
4.403532644535143939e-03
1.150564079495887491e-03
1.564635495692642733e-03
1.249934086732779450e-03
-2.926537566363126425e-03
-4.800128512029520206e-03
-3.949566744749149344e-03
-3.242404603359953525e-03
-4.907065445566031504e-03
-8.773418338323986506e-04
5.092377857753009607e-03
4.581662418691035202e-03
6.123340232979853845e-03
5.878383622431888195e-03
6.016820475414437399e-04
-9.459823131612364686e-04
-7.193160604349880778e-04
7.086364448973662446e-04
2.748115862702629145e-03
1.138735116386504261e-03
1.362245544965496442e-04
-2.048367829795250464e-03
-8.704143303117379410e-03
-7.338465760041413231e-03
2.233033029455664623e-03
5.194381662314471147e-03
2.846243680555798818e-03
-1.438904202383068601e-03
-4.869441857896240552e-03
-1.679456256617210949e-03
2.913714861589119143e-04
1.932075803354493500e-03
4.852351961375640094e-03
1.131855710197221098e-03
-1.017896234371948837e-03
-9.079419654222344515e-04
-1.783087049562354478e-03
1.601197936331344874e-03
3.106055866787102524e-03
2.414761818718031815e-03
1.553276715181192127e-04
-1.257033296337920630e-03
2.930310726421898534e-03
6.441981476611955684e-05
-3.429054394603297910e-03
7.092831842953472177e-04
2.710799626086479817e-04
6.347837063289926739e-04
-6.658121535963999228e-04
-5.114135749861083505e-03
-5.125055600469475246e-04
2.082260353210901339e-03
6.897951956190858085e-04
1.582265870707965597e-03
-1.329046226190099380e-03
-3.350359355033074790e-03
-3.538394561572704832e-03
-2.243243724512692695e-03
1.271008265310295988e-03
3.685634706635892944e-04
7.538148943740097512e-04
2.777302776201486054e-03
3.551086544871740131e-04
-8.827756743791484754e-04
-1.498917286353858107e-04
6.307251689957383591e-04
-8.898989320242545100e-04
-4.136155600378339792e-03
-1.891715019195579781e-03
2.633911503125045597e-03
4.532903269858627217e-03
4.460917432994634946e-03
2.852626507620296525e-03
9.120864221486872040e-04
-2.008298463424632811e-03
-2.052501134633762884e-03
7.328669203724170458e-04
1.014411364896398255e-03
1.972971383121074375e-03
2.163336522473469515e-03
9.818151975096273913e-04
2.908981067670834801e-03
1.745670586150865422e-03
-1.736727214650667008e-03
-1.671647394004654053e-03
-4.003206249312868566e-03
-7.410688344531675235e-03
-5.255999858931614116e-03
-1.016517025466217661e-03
2.273040984013029522e-03
4.895105400954127828e-03
5.615611606881810818e-03
4.009552635861967675e-03
6.032215536731972728e-04
-1.515502161226640497e-03
-1.873983458035386384e-03
-3.651444272815405900e-03
-3.025986719479104806e-03
-4.015171418170311525e-04
-4.764921583226690120e-04
1.731504076956882519e-03
3.142238016598910937e-03
-9.124461909014067954e-04
-1.584081512424401509e-03
9.566949870360396107e-04
6.332037082236000340e-04
-1.150309626989035310e-03
-2.687126776470087630e-03
-2.321951701155759371e-03
2.558179205466849749e-04
2.935416097723064603e-03
4.133921511150389846e-03
4.987305790590269503e-03
4.150914942491016994e-03
-6.172955399766343878e-04
-3.437140108370283654e-03
-4.709318653623886450e-03
-5.974853246237353012e-03
-9.775400585175946823e-04
1.856586531867571383e-03
-1.514873605897483141e-03
-8.191340336746872871e-04
3.863423731581273586e-04
-2.340941705499359048e-03
-3.551899814569829845e-03
-1.043750726068010592e-03
7.221980908487016758e-04
-1.050130047856304887e-03
-4.335245661078271384e-05
3.700637980673719858e-03
4.220845712561993764e-03
4.310128507911896445e-03
6.443499452206489370e-03
7.196193820542630404e-03
4.152578291471418701e-03
1.137076111397778474e-03
1.235359403990737457e-04
-9.299452407591317620e-04
-9.291865797301616936e-04
-7.677210105968539783e-04
9.422500775822888457e-04
3.666050714673099037e-03
3.139125287627052806e-03
3.167140574404949532e-03
3.035423415368716186e-03
-5.784562300792775490e-04
-1.045992162629918835e-02
-2.309024765080290587e-02
-1.889683187394184186e-02
-6.259166441183663422e-03
-4.284374019812198404e-03
3.577814308197666297e-04
7.472989550909264582e-03
7.060584858951101175e-03
5.009955437647524087e-03
2.395248786275830464e-03
8.051436204525690143e-04
2.304806129449931632e-03
4.510226823326972563e-03
5.013363985669888438e-03
2.869645776718565428e-03
3.276026038533659361e-03
4.948634774165710203e-03
3.112124681814512801e-03
2.481925841634171812e-05
-3.542002348393836174e-03
-3.723845361854166789e-03
-4.861451873059417680e-05
-2.080694685832619711e-04
-1.343860928712408732e-03
9.385299501545343826e-04
1.968389861413015647e-03
2.234457396334846909e-03
1.545867940156519507e-03
-2.976816744902712614e-03
-6.633713036014544928e-03
-1.048106022564456417e-02
-1.360489006917315301e-02
-5.739372918742396794e-03
5.334110648602800354e-03
9.124399203411950529e-03
9.151575510020602475e-03
4.704357784359805561e-03
-1.951136696563309978e-04
-1.346493467164360186e-03
-3.527892297655029451e-03
-1.856945207600568717e-03
6.240833294831557923e-03
7.656765382864711561e-03
2.110409054409705196e-03
1.623479425245800099e-03
1.847971849810294302e-03
2.987820170397292602e-03
8.424559046440740009e-03
5.200042215081111113e-03
2.282868778119596931e-03
9.600297160650029941e-05
-1.771418559481801464e-02
-1.849168472483803463e-02
3.195050926486045929e-04
-6.568584667306835798e-04
-4.103058128039512725e-03
6.211191901567207196e-04
-1.002461909238371290e-03
4.715648495089792749e-06
1.609576904234067980e-04
-1.239264742046361327e-03
1.424416542045000645e-03
-1.059023739345145735e-03
-2.993001731790120596e-03
3.005347335619329647e-04
1.953417077700139552e-03
4.384579664422723864e-03
5.130528628080296624e-03
1.179304831707376740e-03
-9.283337530160192669e-05
1.760614127501774004e-05
-2.155726547051194444e-03
3.658565123429133900e-04
4.483037352053140592e-03
3.375553917814531728e-03
2.670000225006366901e-03
4.495680723287588838e-04
-4.095485807493874121e-03
-3.024459207094241237e-03
-5.412664901816362662e-04
-6.490202506638535415e-04
-1.056230170208253974e-03
-2.730487699364573823e-03
-3.950140141822650400e-03
-2.626226279710798528e-03
9.085239216822413267e-04
4.289419849548393483e-03
5.140293822789276587e-03
4.145007932052554959e-03
2.526253020597529330e-03
1.366918509291499551e-03
-1.901391123622154285e-04
-5.909176690085134306e-05
3.127773941865787544e-03
3.804079079930236182e-03
2.145076980141874447e-03
-1.169035493654302892e-03
-4.522948439233579788e-03
-3.069052775055518961e-03
-3.494655282962174682e-03
-3.570155549205941345e-03
2.540688945521090546e-06
-3.785320753681377295e-03
-5.729374070467471020e-03
-1.107783066823126881e-03
-1.706669846341873822e-03
5.932898081837001836e-04
5.450524607623788952e-03
3.912784348708234911e-03
2.302837186994940218e-03
-9.714378291169120791e-04
-4.259488361691058690e-03
-6.816005543106396858e-04
1.722467113922375101e-03
1.008355185151404033e-03
1.356414805088449697e-03
3.204111723729363920e-04
2.371467796418472119e-04
1.708327521102838767e-03
1.055180250255448977e-04
-2.044675916281470541e-03
-9.415551976142826377e-04
-7.744319565833235244e-04
-3.703456621652519327e-03
-3.179962502851884417e-03
1.681304003246790425e-03
4.724012515931245298e-03
5.639529385777629356e-03
3.638621369932925308e-03
-1.261412226460726098e-04
-1.022900071636467356e-03
-3.888416305608265264e-03
-5.363392766234200901e-03
1.013685271646466235e-03
3.117281097238455961e-03
1.265452355892765154e-03
3.898590442888817589e-03
3.850769552120472151e-03
1.414141757073248112e-03
8.902762822598453375e-04
1.046200960177616620e-03
6.823850510040678106e-04
-3.554706719024267568e-03
-5.870675039848009119e-03
-2.017798937408597695e-03
1.299819598485133215e-03
3.446696206256324047e-03
4.738160170756008233e-03
3.665379422603372728e-03
1.375585959293882093e-03
-2.728810871336341103e-03
-5.155270393737718636e-03
-2.201139409810559146e-03
3.937644829771684649e-04
-1.515838807671659842e-03
-4.322495218530160964e-03
-5.292887332903976547e-03
-3.505299458519590700e-03
-2.785433615412249834e-04
4.265449432944687955e-04
5.454711939111079916e-05
1.149032009408962026e-03
7.288862611772060430e-04
-1.176110479491915316e-03
-5.947614052925803869e-04
1.856895553191015465e-03
2.670759728709714512e-03
2.765096069883579699e-03
2.090051302173592460e-03
-1.507430592163140496e-03
-2.999797084236295684e-03
-5.008902815699613946e-04
1.681414635937524210e-03
3.830660969008885339e-03
3.651084194147416213e-03
-3.102191260141542225e-04
-2.131917920821275233e-03
-9.898833122317263634e-04
-4.483443928605378723e-04
-2.842100856996796843e-04
-7.736798545162774975e-04
-2.289633289906509508e-03
-1.568966967202162308e-03
2.140683196165224956e-04
-3.265651827405897109e-05
7.430895285357292344e-04
2.810517968067474063e-03
5.149965804463573285e-03
6.265457437666255985e-03
2.006156910815191322e-03
-1.979436690638153654e-03
-1.158038152154284954e-03
-2.646140085651088386e-04
8.158229082905190874e-04
1.561005705779609093e-03
-6.819140952114801290e-04
-1.638878780415550839e-03
4.120138463429528879e-04
2.937048185437363644e-04
-4.580085150994049528e-04
1.404116880660279468e-03
1.378340894869921904e-03
6.288281543588662963e-04
1.485053812073144474e-03
2.639617551481382614e-03
1.388307152656465242e-03
-1.048817637500691971e-02
-1.824101212973587918e-02
-5.809306390746064169e-03
4.491502796425014994e-03
3.164159972685057221e-03
6.445426111755666546e-04
-1.117573913699918854e-03
2.204781655830966632e-03
3.724833595606233914e-03
-6.260076049939875638e-04
-1.023519119407202086e-03
-3.494157399616107038e-04
-1.826425441283937787e-03
-2.852305177550494997e-03
-3.465314188670108771e-03
-3.055121848692782336e-03
-2.004353144049708744e-03
1.155299265228121189e-03
3.488268875742580113e-03
2.737917968612926713e-03
4.362318457677496174e-03
6.779544713299666056e-03
6.233529806173605109e-03
4.402929730243442842e-03
2.972479902907431640e-03
1.614138884198006467e-03
-4.053475060646966792e-04
-3.675063508410102977e-04
-2.429558532633825240e-04
-2.579926874724973191e-03
-2.845759332913022892e-03
-1.786943557131835713e-03
-1.157270427645391711e-03
3.966154719375338759e-05
-5.509543080114112548e-05
-1.212140833863259697e-03
-2.179269629845253815e-03
-2.275617415593793064e-03
-1.827543507651783724e-03
-2.794745842260156973e-04
2.702372049784019549e-03
2.416606107896392304e-03
2.889942450832521325e-04
-1.932324068140246558e-04
-1.369772881056947889e-03
-8.387147194755576428e-04
1.643873974266307075e-03
2.970438780507183782e-03
3.228794156245485408e-03
2.534921942598976179e-03
2.267577535111641850e-03
1.018959868152388573e-03
-4.802457490216986355e-04
-3.151624408261927742e-03
-1.115138029982494679e-02
-1.073773230278913388e-02
-7.144000297837478598e-04
4.164497841216069970e-04
-1.052662394299959218e-04
3.374561975513546992e-03
1.190272910317901169e-03
-1.232109488683194934e-03
-9.049485013917873922e-04
-1.580713452464895278e-03
-2.407663544117180990e-03
-3.165864125866344261e-03
-1.680351042551999101e-03
1.932175056060496474e-03
4.117989681395798143e-03
3.993253369165409607e-03
4.307085888018257445e-03
4.567131687631911796e-03
1.673155123016731955e-03
4.524455782080647566e-04
1.576669733674070442e-03
1.117952873923943160e-03
-1.308788252101791773e-04
-3.023171218556231551e-03
-1.621242340470543638e-03
4.341045602315072791e-03
5.607925275259353221e-03
4.779697563421668113e-03
2.149742198926086600e-03
-1.738655036956673157e-03
-2.672721177717928345e-03
-5.293286655429828812e-03
-5.027926648118271995e-03
1.326014229109754314e-05
5.082801394420133887e-05
-2.160890179399970520e-03
-2.092525385772998209e-03
-2.794630871927660919e-03
-3.401693700149724560e-03
-4.850233136553112044e-04
3.001597333338000377e-03
1.877834774517876584e-03
-9.026836138406357010e-04
-3.308772055066231711e-03
-4.646506206996064287e-03
-1.404397641328943664e-03
3.900536297270132575e-03
6.998932732187370873e-03
5.116372769132846929e-03
7.127853259802300733e-04
-7.785031659206585568e-04
-1.524343307946737390e-03
-1.081876676291114968e-03
1.036414167451590179e-03
1.384321301786405750e-03
1.908957622848003830e-03
1.522093153389700651e-03
-7.180873170291397680e-04
-1.836980620091767640e-03
-2.098571517978969642e-03
-1.252678104466827241e-03
-3.683540986551115228e-04
-4.499240943738251988e-04
-1.920662533282454067e-03
-4.056780175390600762e-03
-1.525157822355146077e-03
2.229510055658595006e-03
1.706416239527169245e-03
1.122017093052678303e-03
6.722620909219657794e-04
-6.147658374429377766e-04
1.109140582665318062e-04
1.361249767948582686e-03
5.017169365304867661e-04
4.139203968890395042e-05
1.083943029730194624e-03
-2.546847058075628160e-04
-1.646110934582678282e-03
-8.244925502219521132e-05
9.451242755126600895e-04
6.790905461815572620e-04
-1.243255206732762170e-03
-2.219599763337385106e-03
-9.440300427739398799e-05
5.151972503235209251e-04
4.356024488324279241e-04
8.082511643823954558e-04
2.615909566673727937e-03
6.406439187499552226e-03
4.423373560994064112e-03
8.959681020520708118e-04
1.076286725539880862e-03
-1.173246278095896756e-03
-2.190061733955150219e-03
-1.647630411003965642e-03
-2.206375726310703857e-03
-1.277520927657161244e-03
-2.039009100995863629e-03
-8.214996684366836655e-04
2.989292929632575944e-03
6.950520540876473780e-04
-3.177492947960615897e-03
-4.216390795854099184e-03
-4.507117325258129178e-03
-2.868790322311041106e-03
-2.590394263251991156e-03
-2.177864163573470149e-03
2.312812587490694575e-03
3.699067274439476680e-03
2.349321499954055720e-03
2.711383468691811426e-03
7.214481730017573103e-05
-8.201621740424422814e-04
2.073798239626679137e-03
1.377115081730677284e-03
1.704183202817192034e-03
1.917514965437038844e-03
-2.500758617715345949e-03
-3.429247636841225438e-03
-1.976414092207157396e-03
-2.081463440212294545e-03
-1.571517292786320285e-03
-1.648586326187684564e-03
-1.123500893901607399e-03
-6.747964880514975127e-04
6.317740342358448306e-04
4.828898105240083012e-03
4.511638965022502119e-03
2.209290400067773490e-04
-3.991850476012928422e-04
8.427952300489290408e-04
1.731200052444388255e-03
2.677000447525798663e-03
3.600298700212211604e-03
4.040877121708567714e-03
2.437218190947722588e-03
1.305152829700636282e-03
2.102421273115263195e-03
1.414987634236959321e-03
-1.431669020144475711e-03
-4.719838187812728549e-03
-3.651033288910964306e-03
-2.873052804371528440e-04
-4.113989059944966713e-03
-5.679710153938888686e-03
6.958322007736617628e-04
4.207818448446702837e-03
8.824462404971120805e-03
8.961788758600751706e-03
2.543185870179821969e-04
-4.125611152017065117e-03
-1.583299056021696127e-02
-2.632659390623225126e-02
-1.166796326743465770e-02
3.046978332641699441e-03
4.767410850192175045e-03
5.006402820982331671e-03
3.026632705096438287e-03
2.556715320297583798e-03
2.083311977225759531e-03
1.973895519432249633e-03
4.288558886883305984e-03
2.945718400167736135e-03
7.179895930615077127e-04
-2.260618981152272538e-03
-2.235246769457703911e-03
4.414032418666626566e-03
6.198185778587942535e-03
4.742528097859741339e-03
2.293580425842305787e-03
-3.053139825780283416e-03
-6.145427240256741983e-04
4.248298253549901739e-03
2.840250025345085732e-03
2.423299027219227159e-03
1.006504376809118709e-03
-2.551932875626803515e-03
-1.213787038922439082e-03
-2.132522296620663338e-03
-9.071720717184332886e-03
-8.450225875913810678e-03
-2.883212200534792562e-04
3.058488260357703544e-03
3.368861878392642164e-04
-1.661248893261481861e-03
1.259965061979417518e-03
3.893270272239381102e-03
4.582313544861019335e-03
5.921228631840785156e-03
3.573284547328569108e-03
-6.389960406315506607e-05
-4.329991960514821374e-03
-9.243415944879731366e-03
-3.663199363918004034e-03
4.988929797158857607e-03
4.425669800861701739e-03
3.754440812318772091e-03
4.655663074785085231e-03
1.646897122585512085e-03
-7.283622418825873952e-04
-2.341052503872040596e-03
-6.164491892437027297e-03
-7.552520992192578164e-03
-7.522928759857983733e-03
-8.169625366620811638e-03
-5.383057462061450853e-03
-3.466662243750713752e-03
-6.339269358466256051e-04
5.419386257233690073e-03
3.253768880985688679e-03
-9.585494285006232766e-06
2.947355064253239475e-03
2.921492793315547294e-03
3.835414080753271355e-03
5.907524356039065352e-03
4.974212826786731517e-03
4.662245438622336993e-03
2.344922255041598669e-03
-4.002154854914057470e-04
-5.995038337264199700e-04
-1.639221433844070862e-03
-2.378801400189961297e-03
-3.209545564532628823e-03
-5.433156197934311052e-03
-4.746899691408169170e-03
-5.621485933927886265e-04
2.437793690820158621e-03
5.199229171115000298e-03
8.442393513145622641e-03
4.712682543026465963e-03
-1.930220104494827357e-03
-1.994298488351165313e-03
-2.498028735587043327e-03
-5.120362404452480885e-03
-3.227417357917227326e-03
-1.410455043611151277e-03
-1.681795466729317772e-03
5.074344294805148664e-05
2.693711986470063297e-03
4.306795242290182256e-03
3.651780569716909369e-03
1.425145290662596046e-03
1.346056290299069277e-04
-6.085639595839411773e-04
5.133378331599437001e-04
2.761657057463864223e-03
1.851774140214543793e-03
1.943612240907158098e-03
3.257685419560115564e-03
-1.380439111500344346e-03
-5.571828226065335746e-03
-3.973297231350925163e-03
-4.763525321107769939e-03
-7.007275209162620692e-03
-6.157009092927547347e-03
-6.816142604859345630e-03
-4.758454039497512535e-03
2.525014494309890667e-03
3.411593761814823555e-03
9.725531019980824220e-04
1.202518064538464927e-03
-1.154347938627196812e-03
1.309131848706554741e-03
5.848499584688731517e-03
2.707906212999927099e-03
3.220812394580726146e-03
5.593335445765842268e-03
2.382494939734321367e-03
1.540874342940002587e-03
1.441498994203347294e-03
1.163762103028229654e-03
2.012550384630397947e-03
9.728772807163414238e-05
4.108907215906696135e-04
2.937236404334294965e-03
2.851464646092975730e-03
2.530522091864352823e-03
1.700747085719087493e-03
6.737156398161453464e-04
9.422598824243505825e-04
-1.944133034420864503e-05
-2.424722509777783169e-03
-4.575297573988045333e-03
-6.543171228992575306e-03
-7.348139150816232826e-03
-3.598190125579537896e-03
2.712366737329623915e-03
4.697850036990541649e-03
2.437636867599460994e-03
-5.875786421791351225e-04
-2.605025775579016770e-03
-1.721309190268504154e-03
1.298174955906509793e-03
4.693689692970600194e-03
4.654984694911317757e-03
1.938366607286955438e-04
-7.053126188134850854e-04
1.818115731388121863e-03
1.096042445210870103e-03
6.566714684107764766e-04
1.926537588516475004e-03
2.330177328211415193e-03
4.782275985799319673e-03
6.948811713328621048e-03
4.250415351152767029e-03
2.384337806629679112e-03
4.781525302965195477e-03
5.792172015116624044e-03
5.299337351812219432e-03
4.435692257900690147e-03
-1.523379929908652303e-03
-8.366978161678735246e-03
-1.102943929833277194e-02
-1.281452970723041644e-02
-1.208104573531076746e-02
-8.785788189773682116e-03
-5.082665968286049531e-03
1.018283095767718660e-04
3.104497955546012440e-03
3.670731012600977547e-03
4.192438564587087739e-03
5.519800203759341051e-03
9.723990410940311357e-03
1.161529557697691187e-02
1.130612176033229943e-02
1.415014102548192536e-02
1.537227611894410352e-02
1.366688450778208962e-02
1.013932999021900476e-02
2.432272411108098165e-03
-4.749188452761307286e-03
-8.507941801103587748e-03
-1.392712721439741223e-02
-2.046340184757483582e-02
-2.332490216318487686e-02
-2.356981421209082897e-02
-2.094608348836239642e-02
-1.794708056604353216e-02
-1.673577893983201059e-02
-9.639143136732589850e-03
1.028861412420509474e-03
9.914500665665182400e-03
1.578326709984779336e-02
1.273726036342104871e-02
8.505432542426494616e-03
4.366599398175624938e-03
-8.213624043869776833e-03
-1.755521525889566781e-02
-2.144030673275661852e-02
-2.536384713942072336e-02
-2.185758797425175343e-02
-1.782642887549374180e-02
-1.381295037562161113e-02
3.922354773928477152e-03
2.796210538899096890e-02
3.867865603646741118e-02
2.500439066412250139e-02
5.593657944504392375e-03
3.938594113575294257e-03
3.791436196309979148e-03
-1.456755767145260410e-03
6.480040805086852498e-03
3.427231459027738070e-02
6.736020424638732018e-02
6.599480758964601512e-02
4.146060936068927949e-02
2.867713102635975966e-02
-5.598856538351783436e-03
-4.773647580762319792e-02
-4.644549485000944861e-02
-3.764645670130316313e-02
-6.523686213121354660e-02
-8.012596024558717167e-02
-1.134684256150363807e-02
7.855506725844493832e-02
1.051631184896576060e-01
9.112414981852971774e-02
4.839799072499570420e-02
-2.210077805289447066e-03
-3.569150931665509424e-02
-4.004895627653419499e-02
-2.349283813853253466e-02
-8.156912187580871165e-02
-1.470570960190360488e-01
-5.002789109792032257e-02
1.008255002056072658e-01
1.061505475671623844e-01
6.268170335365643667e-04
-5.505153506622400411e-02
-7.538660269738331476e-02
-1.142160971624865823e-01
-1.045801496532713648e-01
-9.926365527043458370e-02
-6.311582648779547056e-02
1.091941315224187192e-01
2.162447469068833061e-01
1.528462843797910031e-01
9.325278145735962920e-02
5.280527742397165408e-02
-7.561232490878685986e-02
-2.034718645220944810e-01
-2.523311181540138781e-01
-2.640818785264346658e-01
-1.395999955887978761e-01
-2.259314109467360637e-03
-8.793637621622549423e-04
1.593913137769104316e-01
3.857355682818307541e-01
3.918865840850769833e-01
3.081019323047924918e-01
1.147862054566197304e-01
-7.795515256134084858e-02
-2.100369511520123675e-02
3.967400726290611773e-02
-4.243296012207435630e-02
3.447766781081049777e-03
1.229294058180076671e-01
1.849047725033063291e-02
-1.199077878199626968e-01
-9.408958960034913277e-02
-6.654446720653361957e-02
-1.109373834246649496e-02
2.264870934439724981e-02
-1.064779657195282225e-01
-3.053049832931931662e-01
-3.504752814702004615e-01
2.397894841479898329e-02
3.804402335345299369e-01
1.560636374244825653e-01
-1.757238153251625967e-01
-2.279048497171200782e-01
-2.051858323196233680e-01
-2.256038654779548847e-01
-1.686764002832655263e-01
6.968052733484234040e-02
1.718420618295746771e-01
7.347163810533513528e-02
7.303171624380280780e-02
9.494506688648295112e-02
1.036864607846203906e-01
1.244534723080040761e-01
1.186024014001808152e-01
1.464512844774302214e-01
1.073124071532009643e-01
4.302020672693017411e-02
6.081538867549248634e-02
4.379755460167682884e-02
-1.968238565512097152e-02
-7.659487864113506683e-02
-7.824493836134596703e-02
-4.169661880231528145e-02
-3.910549140356833070e-02
-1.814457215909025603e-02
5.648333690308317626e-03
-4.526756512292957023e-03
-1.810806368769263611e-02
-3.886758713349312139e-02
-4.260232061831113054e-02
-3.688867579778698502e-02
-2.570696059631761426e-02
-2.113671032465054642e-03
4.515742059700375175e-04
8.945029625001501465e-04
7.437689103518464349e-04
-5.681534625763047519e-03
-1.886933311005365051e-03
-1.324777790514220345e-03
6.391507479489815305e-03
1.386276971950330811e-02
9.343637647719860509e-03
7.983469177072132980e-03
3.383379407086460622e-03
1.941049068892088895e-03
4.726582245358892063e-03
3.273565215418361516e-03
7.397755836670730310e-04
-2.209158357365598613e-03
-1.539724677344220445e-04
-7.853063025538827100e-04
-2.962278951377440850e-03
8.111523528508614734e-04
2.982895518259114391e-05
-2.678369531538408229e-03
-1.212215203291234318e-03
4.297493951307297146e-03
7.946919015174185030e-03
6.005035198551453637e-03
7.352757697583339747e-03
9.540492154875951716e-03
8.611019011402596887e-03
6.944236821277973912e-03
5.094354403927131916e-03
2.727809256259795812e-03
-5.270739615706802579e-04
-1.097977018013064762e-03
-1.366696931014825924e-03
-2.382162974219604896e-03
-2.756774204157435779e-03
-6.250752441925493640e-03
-5.683228763957916263e-03
-5.893806208903066418e-04
-1.132927107292760116e-03
-2.766078531238927787e-03
-2.215877593121331340e-03
-3.240096586984201731e-03
-4.600330670569993327e-03
-4.539533535975624236e-03
-4.597238087035561936e-03
-5.937039101122217229e-03
-4.806005556805979274e-03
-2.460897917041453276e-03
-3.324743881960621518e-03
-5.773444593162905918e-03
-8.910182204484681789e-03
-7.750842137184897965e-03
-1.578236681204962018e-03
-6.695387258104089660e-04
-5.598856494884630816e-03
-9.727763433751866404e-03
-8.097415458944681038e-03
-9.553224894387243437e-04
4.695336320314817680e-03
7.229797479473156971e-03
5.325903102612064566e-03
-1.266461798084005108e-03
-3.231968660294590266e-03
4.229454869938540154e-03
1.355772875297626447e-02
1.528801692036837155e-02
1.252209509327760137e-02
8.744316032597601943e-03
1.863751996010004858e-04
-4.583686083255230845e-03
-3.950734666989712610e-03
-5.773091391306024202e-03
-1.434320533310378927e-03
7.224298427448953494e-03
9.551330391427640537e-03
1.025327289608786788e-02
1.036358189162281396e-02
1.079807728728440254e-02
1.085321684667319743e-02
7.422837249556044938e-04
-9.527597118147003094e-03
-9.316284919823333149e-03
-1.017097862980650622e-02
-9.857871450187492141e-03
-2.277571997291694041e-03
2.740015749837960111e-03
4.363120689770056022e-03
2.264471895792246042e-03
-3.547728344569672700e-03
-2.920197033633455775e-05
6.409013248454795662e-03
2.313962882347894972e-03
-1.424243762540756400e-03
-2.803572798750830070e-03
-7.055504992931772162e-03
-4.895641470388478224e-03
-1.864317716689520765e-03
-8.828716958156641176e-03
-1.655013616645907917e-02
-1.975959839717517097e-02
-1.954797972464257516e-02
-1.543909221247766542e-02
-1.048544280119728493e-02
-4.921251557901629159e-03
-1.911688380572655133e-03
5.633936784776988056e-05
5.559673082557168786e-03
7.068866820805167796e-03
9.297698873410260856e-03
1.474424134784168942e-02
1.104230966505272658e-02
6.432305950918909727e-03
7.741718690799809580e-03
1.079615240247749214e-02
1.621260764635943513e-02
1.454363991391690800e-02
5.212408811555016737e-03
-1.247358851913844867e-03
-1.763889512719431837e-03
2.400876430608336453e-03
2.863828470968744593e-03
2.426622859006748786e-03
1.208716419183612605e-02
2.009525063797605246e-02
1.043770275188910315e-02
-3.899354684926196763e-03
-4.449278486429826193e-03
-5.142912377455152555e-03
-1.571915573703233995e-02
-2.174771706432481258e-02
-1.856534568294097506e-02
-6.324437681593526872e-03
1.623985073256077952e-03
-2.295198194334788742e-03
3.651063369595778860e-03
1.447686497759122053e-02
1.289964555529960963e-02
1.119641632424299557e-03
-1.516778949360898104e-02
-1.851416822255936775e-02
-1.069906487258551891e-02
-5.297551779348730686e-03
1.019948109556471439e-03
2.333237440170539499e-03
-1.205302689187114171e-03
-1.728731561055692634e-04
8.246683958598288733e-03
1.813001765439992141e-02
1.556444388511628828e-02
6.278667349661864495e-03
-2.207654830860699552e-03
-5.862518086393504052e-03
9.072565222413785622e-04
-2.185992824088921985e-03
-1.158794257308530876e-02
-9.289502426706222268e-03
-1.028605595917515825e-02
-1.438839387736189253e-02
-1.508284520076560824e-02
-9.385013507217387224e-03
9.060634778351532234e-03
1.539157357769024501e-02
1.820140267707409448e-03
-3.032307367093028862e-03
3.055348178682918987e-03
4.200514076640702275e-03
2.791343764349669878e-03
2.015169319005780807e-03
-4.784548234423871386e-03
-6.823581797246439443e-03
2.661745731233421987e-03
5.945128118031337353e-03
3.358138779086816423e-03
3.368367604822255362e-03
7.051216928984505548e-03
1.513020749321490263e-02
1.134258701304272608e-02
-1.222559314653886512e-03
-2.501414099293567707e-03
8.603074586287370266e-04
5.607872820261572064e-03
9.981491119347402075e-03
4.106098114219876478e-03
-8.479695799151601215e-04
5.946498435484596449e-04
-1.164300235800737500e-03
-3.576683680996957816e-03
-5.137220404057940386e-03
-7.918098841239213856e-03
-9.287671387457523478e-03
-1.099377699735974018e-02
-1.200605007006812740e-02
-8.725447246191979020e-03
-3.496941597634923692e-03
2.236631410395267458e-03
3.247900217609058122e-03
-2.618747728544262073e-03
-5.198445709805656414e-03
-4.053817177031139238e-03
-2.848016933623923053e-03
5.829958898696918201e-04
5.907341081432607166e-04
-1.207395496931505056e-04
3.188266308263132398e-03
1.507489682713518842e-03
-2.402094674773308427e-05
4.952665547724549068e-03
4.942341097847608757e-03
1.278905021245388364e-03
1.124848538113963235e-03
9.843983604081135534e-04
3.614565440715186706e-03
8.703666927210406204e-03
8.757525849261076772e-03
6.602099311772536769e-03
5.190038231758639306e-03
4.087180434485754819e-03
5.482950543163942966e-03
4.005194119012382530e-03
-6.363413000339443156e-04
-9.798546228189412236e-04
-3.826286168742389342e-03
-9.882290963415129095e-03
-6.657693476611331249e-03
-7.732444404856370860e-04
-3.342389293598950787e-04
1.344061341449552787e-03
8.646316542251675664e-04
-3.046545104820277787e-03
-3.990250698737810540e-03
-5.135519751996058153e-03
-4.190645283997853666e-03
-1.408015744621289849e-03
-4.299466456437320283e-03
-4.775849856028361456e-03
-2.499342755532492355e-03
-5.551430375250799611e-03
-5.688212356318458028e-03
-2.589765278235949420e-03
-3.497397283770518981e-03
-5.648834481528531605e-03
-4.746745697402967971e-03
1.205899321586441581e-03
6.359913567051162994e-03
6.720055678234903088e-03
6.287727091875838434e-03
5.751168820643031906e-03
8.139190847112245941e-03
1.187961253988983022e-02
8.785054775105126390e-03
3.129802370163395266e-03
1.803262680171311989e-03
1.377252323296178924e-03
-8.306393727637716596e-04
-1.835219076498661919e-03
-2.176548370961940791e-03
-3.638171185585931545e-03
-1.868784438937410143e-03
2.982228525025989009e-04
-6.446143400630991588e-04
1.958299406975937910e-03
2.453151144852448381e-03
-4.736993821288754992e-03
-7.795322195611719893e-03
-5.204164411165571914e-03
-2.913336726433578966e-03
3.729910397920761355e-04
8.179130143545357626e-04
-2.443252114290266844e-03
-3.672916663299354272e-03
-4.681796068184102683e-03
-4.606567512246339743e-03
-3.722021558238017497e-04
2.223917988833584193e-03
3.603892422194227528e-03
5.508777364592279402e-03
3.222378146424885372e-03
1.282561154121019537e-03
1.379532338973088034e-03
-4.165538008319281233e-04
-8.266396432530280980e-04
-2.390479824743860487e-03
-6.028109203077103989e-03
-4.696366014108665186e-03
-7.743642007636381778e-04
1.416482249383440705e-03
2.884822172683089610e-03
2.905987204223234310e-03
2.880630181930885630e-03
3.859303647582060584e-03
1.849923113655013631e-03
1.635488307397996643e-04
2.872837335681290537e-03
1.262125975636828063e-03
-1.324660504267181254e-03
6.151406021439008442e-04
-4.055620356864911118e-03
-5.134695931308774774e-03
3.378650996894970188e-03
2.603895603062203207e-03
9.507780986027053157e-05
1.928673853660318538e-03
-1.073115764449792666e-03
1.651782549540758733e-04
2.049904442095711564e-03
-1.432558330626154501e-03
-4.822212588785816201e-05
1.429202926663146467e-03
-1.015130622921402333e-03
-1.960781386863264496e-03
-3.117030943596862773e-03
-4.162602825973396072e-03
-2.950146253950053973e-03
-4.807851256074433498e-04
1.532357715585069748e-03
2.166719733744543099e-03
1.780180898044363396e-03
6.298046144019816867e-05
-8.546300088311224600e-04
3.676005086078448498e-04
8.766394929694414388e-05
-3.006804960604978014e-03
-6.330537201043778643e-03
-6.041943085532322684e-03
-8.767619596128707095e-04
4.195683813894944027e-03
6.339303721129670860e-03
6.292980876116675837e-03
2.562334734019986598e-03
-1.183422517367627852e-03
-9.021703669633805711e-04
-1.011936329610297995e-03
-1.512698483868221569e-03
1.996570290762010580e-04
5.083109029800508567e-04
-3.393824326740085980e-04
1.298455713258395172e-04
8.452711791525318718e-04
2.063186915746479354e-03
3.153485873834437677e-03
2.195970853871230880e-03
1.177036764345603233e-04
-1.273618748995074311e-03
-1.175083857461725698e-03
4.399421509330943346e-04
2.188910824175731643e-03
2.604878512839013151e-03
1.951042830619526556e-03
1.872765226721013901e-03
1.350779180861502943e-03
-2.055395017376799010e-03
-2.652992002422620114e-03
1.861990269486169056e-03
2.243818225569018613e-03
-5.299270710458956445e-04
-1.458735895984851266e-03
-4.261441824939183297e-03
-6.497882016061763862e-03
-6.676146013617060594e-03
-7.443826974406439825e-03
-6.480117064126361855e-03
-3.704914756651684141e-03
1.165014255322744443e-04
3.110816814343774460e-03
4.303883446990883210e-03
6.414753090869430505e-03
6.682678559795386317e-03
4.198141012566979427e-03
1.503491347593709053e-03
-2.196023865490201715e-04
5.546121796182217805e-04
-1.917878094732923630e-04
-1.065054786179549370e-03
1.072693021537526100e-03
-6.159688143896256641e-04
-3.076142566957946762e-03
-1.641321267044959986e-03
-1.899842730964555271e-03
-3.438787044630008463e-03
-5.396923010376425064e-03
-6.778931933441161364e-03
-4.383197756927748046e-03
-2.867079055908728843e-03
-2.292396190755186750e-03
2.092904688382462609e-03
6.899341335829205397e-03
9.560347782103986031e-03
1.008022081884308793e-02
7.514121108542643097e-03
3.157672272494358064e-03
-9.492389500227768444e-04
-5.678230022208624519e-04
2.977998991271052585e-03
2.622853264545883974e-03
2.423687971220520130e-03
4.566437335785948973e-03
3.817675073927784442e-03
3.467871246229874572e-03
2.442448942763520304e-03
-1.090619275426249002e-03
-3.249203360543242601e-04
1.103902978315048685e-03
-9.512681422307926954e-04
-1.182112747884955708e-03
-7.477797324827394586e-04
-5.903633492060487986e-03
-1.885599639023669005e-02
-2.804915471160890003e-02
-1.860440354750933500e-02
-2.664488847769848692e-03
1.521247653756541401e-03
1.993610516808319924e-03
5.432225292266205756e-03
3.822621203198420334e-03
2.779961648648719436e-05
-1.678265139566019297e-05
-4.328921743993114409e-04
3.198989551328654236e-04
4.667118986718371554e-03
6.838027615694200478e-03
5.930214890519794682e-03
4.582530727905917423e-03
2.773631709116196244e-03
1.968539533720360495e-03
2.346412916660689605e-03
2.919992903043803524e-03
4.709986276376814870e-03
6.772787483196979555e-03
6.039073365614463888e-03
2.908000092492478948e-03
4.721812789029829682e-04
-9.027128975739207462e-04
-3.050183992734845865e-03
-6.238275334003301302e-03
-6.060603665126542729e-03
-1.064341892887905872e-03
8.257652088113276098e-04
-7.381715145888038910e-04
-4.235962073541360193e-04
-7.583656767875780139e-04
-4.294440429947958917e-04
3.001545961389854114e-04
-1.748553785267055504e-03
-1.657883673307779726e-03
4.244759510474955351e-04
2.082427087114520434e-03
3.031600580157545449e-03
1.273052574837953491e-03
-2.647227787039681734e-04
-2.297546287337084384e-03
-6.454751919017931959e-03
-7.768780533806925181e-03
-1.613397419332359339e-03
7.729946502337430025e-03
8.439220216964228583e-03
6.269116189403195309e-03
5.007694327493449060e-03
-1.627242276998558087e-03
3.755956957594323246e-04
-9.543086146334210478e-04
-1.776879817906766232e-02
-1.754442125095564270e-02
-8.500083952551557021e-03
-8.446509831105708174e-03
5.596381353890725633e-04
7.285815294377578910e-03
6.431040263021983380e-03
9.235290317798579285e-03
6.831732851429159897e-03
1.449112107450810632e-03
-1.414765463085118332e-03
-1.856439286107908941e-03
1.710078800477649952e-03
3.035411654623044585e-03
1.755797118132156097e-03
1.811753649940765743e-04
-8.976103486996815086e-04
6.513945561023782487e-05
-2.432308090363378560e-05
1.553158280994950194e-03
3.899736945874820743e-03
1.999037219312253203e-03
4.197986945662415250e-04
-1.001033971140988721e-03
-2.927738441699847746e-03
-2.090964783015228780e-05
4.929843465661624437e-03
5.231307268911459217e-03
1.951830908739829581e-03
9.943211218043541966e-04
1.765207782218018576e-04
-2.961738987546124954e-03
-1.922239119678746362e-03
7.371634658642006125e-04
9.178768062997644554e-04
2.001981931502630138e-03
-8.890092639625286593e-04
-6.408204814803438940e-03
-4.822882696833145563e-03
-1.539232858401819648e-03
-2.605029408942966754e-03
-3.397609308273001096e-03
-4.254673881373080037e-03
-4.457698998985843222e-03
7.119119800536776116e-04
5.196798437769705771e-03
4.435471344871969382e-03
2.852663771995434232e-03
3.814825443028933838e-04
-1.970037395053807975e-04
1.354757731864836582e-03
-1.082890164248280539e-03
-2.883275876687443808e-03
-5.008438255942119534e-03
-7.914411759150204173e-03
2.666508169750308153e-04
7.323228153037596687e-03
1.632550665640148009e-03
-4.590930061078664273e-04
2.314456020427592235e-03
2.051131731198395976e-03
1.785480749535929296e-03
2.269616054904671971e-04
-2.029778280950086857e-03
-9.616707395763953239e-04
1.608566380742392984e-03
2.744523357996659675e-03
2.783060181673634430e-03
2.156958730996980447e-03
7.947679089263100195e-04
-3.446808274132531335e-04
-3.115224134218007139e-03
-3.542364923385634551e-03
1.889588627476334985e-03
2.067476229671492277e-03
-2.012194658006566036e-03
-1.688481408962470799e-03
-1.521413702849402482e-03
5.713187291055163257e-04
3.806366690101396430e-03
2.254138725496130334e-03
6.751421191049134267e-04
-1.680826614935146488e-03
-4.259533834428110184e-03
-2.258749297104896241e-03
6.935351072704224774e-04
3.648688510790102681e-03
4.802999114401592003e-03
2.643856654762993374e-03
1.089942374834635113e-03
-1.206012220295410832e-03
-3.664102437661947292e-03
-3.608454078131888201e-03
-1.336920661994943794e-03
2.138337280252145846e-03
2.016647800305951168e-03
-9.189552632735175156e-04
-2.642993657162160358e-03
-2.520622551387563786e-03
-1.804429440135446128e-04
-2.207304186002882144e-03
-7.253564359794017168e-03
-5.407984922878646995e-03
-1.473615141778708516e-03
6.019200161480528759e-04
2.720514965848750636e-03
2.840128234365867348e-03
4.083176926246437181e-03
4.258494199472153893e-03
4.068445542993701395e-04
-1.999664761254481391e-04
-3.928461650350020210e-04
-2.301510952112317040e-03
9.354221565518750772e-04
3.045177823283417174e-03
1.023819703269032667e-03
1.130435773147018576e-03
8.991595881100409877e-04
3.749018411407988526e-04
1.699789478559170100e-04
-1.524896831679029008e-04
2.563774530631058625e-03
8.179027705143311752e-04
-3.562817197138615569e-03
-4.299290953222817619e-04
8.180397962076148190e-04
-4.333903987466388667e-04
2.754834219052612262e-03
2.969484108753859750e-03
8.473544812288470599e-04
-5.445185976638351093e-04
-2.591386896239940979e-03
-1.946570298253622218e-03
-4.185681855164714556e-04
2.075724022524777978e-05
2.740223163572965467e-04
-7.752211769212309037e-04
-1.637739724737651004e-03
-7.078370869671933270e-04
3.792607211849301045e-04
-1.297796469260616625e-03
-3.599177436384060243e-03
-4.069676079168555762e-03
-5.881145804540344017e-03
-5.401853445610275105e-03
4.764320559077009896e-04
4.367370246741260863e-03
3.489219049253205682e-03
1.484006979626412712e-03
6.576853933001308283e-04
7.339702613228069484e-04
8.390649454175545070e-04
2.360892442802633388e-03
4.050594229512560242e-03
2.734289183759770411e-03
8.719515110975242615e-04
1.211430932301319797e-03
8.509514218914443788e-04
4.653596490837510905e-04
1.999797823614448550e-03
6.250175514113358180e-04
-2.150111585859904983e-03
-2.617364997260893719e-03
-3.694757448932691271e-03
-2.556921226067353399e-03
6.409470556898817437e-04
1.316806952562168910e-03
1.361608504770207666e-03
4.639109957763371418e-04
-5.010340739658371723e-04
1.716003574457050304e-07
2.132900773432316042e-04
1.204328343520499542e-03
1.009105471614907658e-03
7.841772925591354972e-04
1.664903239964844565e-03
-1.034934607624781811e-03
-1.614800827188800966e-03
-2.120277883351468851e-04
-3.570292909051472202e-03
-4.575164451249874760e-03
-3.040739038582894026e-03
-2.572056044947619059e-03
-3.731125715900386348e-04
-1.376105908099139368e-04
-8.151785532693992149e-04
1.645785190260908894e-03
4.894826398314875565e-03
5.507003210995932430e-03
2.089389465128968851e-03
-5.149241244564002010e-04
-2.589334589704167869e-03
-4.830839519978180271e-03
-5.250706785580787437e-04
3.684707219955082099e-03
2.106834344100822192e-03
1.755141562764033717e-03
3.034758877018760813e-03
3.803699521568806603e-03
2.469467680891759571e-03
-7.382948312770177234e-04
-1.766929980963261558e-03
-1.979603200429612495e-03
-2.724962870654508169e-03
-2.143092973284219365e-03
3.097801423659874939e-04
3.305927622168493112e-03
4.189735262569436666e-03
2.543472819564235668e-03
-1.161637157417965685e-03
-3.878343446258702976e-03
-3.807092203889757276e-03
-3.600072935008405937e-03
-1.329226688896631989e-03
5.762266726049168532e-04
-8.306149448315342182e-04
-3.951165175360366391e-04
-2.318596156702635702e-03
-5.937250154201296516e-03
-2.990513346740432572e-03
-4.855553350710661441e-04
-2.511951478447307711e-04
1.127034818663698963e-03
-1.131210446652027978e-03
-2.387239142396604692e-03
1.030861867149254578e-04
1.176364228845654071e-03
2.844976483110111740e-03
4.091497025768255080e-03
2.289739761666997973e-03
8.450375464935020158e-04
6.417798394352186922e-04
2.491045924449859870e-03
5.872361665503489543e-03
5.525426464593001172e-03
2.517756703128214407e-03
1.636312093243469596e-03
1.780945446140580783e-03
2.628116882773491678e-03
3.007825388188192089e-03
-1.114860814895522224e-03
-3.738451699160393916e-03
-2.105619589323563020e-03
-3.888615242508086309e-03
-3.797340632220536083e-03
1.596700375075382154e-03
2.617017985641737626e-03
3.901610030056411804e-04
6.872976757067094603e-04
2.573762391350757628e-03
2.029625115875293914e-03
2.627410941444482430e-04
2.891102718860347654e-04
-1.040058187208551393e-02
-2.418451284677072127e-02
-1.523705594412094570e-02
3.194186717415343829e-04
3.515115538935685222e-03
5.080498044860707295e-03
6.196904986366135945e-03
3.622017299020911275e-03
2.243060884181904838e-04
-1.374114507103915998e-03
-1.270710293394255921e-03
-1.307297946547669688e-03
1.098897885197714979e-03
2.888779458361274456e-03
2.717502873896295718e-03
4.658486536007517761e-03
4.124560120301587474e-03
1.455251721988412702e-03
6.007430327370519383e-04
7.358068063679848447e-04
1.898046525602384337e-03
2.307396850131952868e-03
2.632803117957001771e-03
2.243622213861533755e-03
5.828533625236568573e-04
9.536406348051502425e-04
8.120542966051593663e-04
-8.871975791414281158e-04
-2.765165917700159771e-03
-3.272870364524922172e-03
-2.114180776880686743e-03
-3.785325125690150536e-03
-2.307536064556228641e-03
3.225313317369105873e-03
4.252280622518287562e-03
4.502198403093639854e-03
2.456066073165736295e-03
-5.929111648899868664e-04
1.265364889301353202e-03
-2.264524616142580497e-03
-7.618168268996848048e-03
-4.593104060505908207e-03
-7.477888007950321634e-04
1.478609817700906421e-03
1.663058180883367557e-03
-2.035653430042563253e-04
1.336018553079230215e-03
4.729582080296262881e-04
-4.102577539176912799e-03
-3.473311217958929310e-03
-4.006675484056864377e-03
-6.288795998311738633e-03
-8.736638031550187289e-04
-3.283681595863407760e-04
-4.396835197955202557e-03
2.795609282115626981e-03
7.083932411108937073e-03
2.748086959546223573e-03
6.513913269446819105e-04
-2.348454573825528580e-03
-1.363890131422470543e-03
2.845794121219634171e-03
2.186765880689325956e-03
2.457873708737214925e-03
2.698980419390433101e-03
1.376936232569538759e-03
7.036551432783710175e-04
-7.101076976537756477e-04
4.779966432195203530e-04
8.304518924108659703e-04
-1.530235726314265474e-03
-1.226316431084202921e-03
-1.759824183429015360e-04
1.400195163717423644e-04
5.880608850078922244e-04
2.792618443969050943e-03
4.595890618604716107e-03
1.390923336243153619e-03
-7.416052814279976580e-04
-7.506483001006641811e-04
-1.701809578407887432e-03
6.702060168791031634e-04
2.615571981538662542e-03
9.757190488422225845e-04
-8.517959154762253437e-04
-1.983821343330362166e-03
-1.452155743140122685e-03
-2.025160045917628014e-03
-4.436710588695853309e-03
-5.187345104965160152e-03
-6.218771184869222902e-03
-6.269846566464963404e-03
-1.402768185981186381e-03
3.757800162037739939e-03
5.890827680567593989e-03
6.929795945388322193e-03
5.094160184132637444e-03
4.614170275850010055e-04
-2.827418244397029903e-03
-2.715087559366588781e-03
-9.191832348919969781e-05
1.931022843420157186e-03
2.974646487581943197e-03
1.184301584631083145e-03
-2.455383917530960716e-03
-8.949328944348006686e-05
4.577585553851861409e-04
-3.761019842923493586e-03
1.031462188999112285e-03
5.701159902843229779e-03
1.284269539222658704e-03
-2.153706500825749385e-03
-2.519738909328498883e-03
-1.673757805106200459e-04
2.199450308180576040e-03
2.198411960678553143e-03
1.238324037106495242e-03
-2.634555573587803786e-03
-4.537448128469065596e-03
-3.228401640565493544e-03
-1.210719373001342778e-03
2.088974930606184079e-03
2.169562392800452688e-04
-1.906576582328416928e-03
1.530861583377219259e-04
-1.057380766210999504e-03
-1.558000783615798583e-04
2.581954819078007262e-03
1.199930160141143278e-03
-4.498224088042666467e-04
-3.628569082804565613e-03
-5.654332942816121810e-03
-2.800781299729920588e-03
8.475868966884036494e-04
4.939430771629249942e-03
7.252604556629656599e-03
5.208164813148862850e-03
1.670210838744670386e-03
-1.333519896896110789e-03
-2.930176236323832513e-03
-2.105845645269720321e-03
1.109778381329989787e-03
3.690565774817295645e-03
3.588136387700169294e-03
1.964472235321433873e-03
6.837492763357953807e-04
1.066340546039208897e-03
3.971610228793154545e-04
-8.383540570720786475e-04
2.019863161699565356e-04
-5.886488831885589544e-04
-2.922641001314384927e-03
-2.364455659237404798e-03
-1.997468494979631249e-04
1.957260063320705179e-03
2.665153810665804850e-03
5.519734273011295744e-04
-2.294321535879753106e-03
-3.370757346188692129e-03
-2.695463675683113999e-03
-1.571944664123181177e-03
-1.905299177260780111e-03
-2.959836067391294779e-03
-1.358427382700505776e-03
-2.126519723766707266e-04
-7.744906318706513623e-04
-2.006773324827110575e-04
-3.890197646262584432e-03
-6.212773193819174679e-03
-1.555360807507991778e-04
6.513933841245750323e-04
-2.321972386833991760e-03
1.294068013747374439e-04
8.991163985519847520e-04
1.428855960554668934e-03
2.893124607027982957e-03
1.979549027434522688e-03
9.558655603963753244e-04
-3.513990363180014530e-03
-6.936172399967114113e-03
-3.713126752383181118e-03
-4.642619296388614887e-04
4.362282007111625837e-03
8.839306692296922813e-03
6.780967049051961869e-03
5.532421629800096663e-03
4.746492964219113132e-03
2.225840154429283794e-03
4.612573363845202251e-03
6.881572848427656985e-03
5.249327293874892116e-03
3.254014382531884159e-03
7.419437715321630352e-04
4.459848385019522972e-06
-5.142538812001850842e-04
-3.057079733294037777e-03
-5.176936990111464208e-03
-5.714245130886491490e-03
-5.784434590965528873e-03
-1.051667666380678989e-02
-1.082031491911700921e-02
2.930994695841291839e-04
6.829587856337126887e-03
8.519795795041796432e-03
7.714328970393648580e-03
1.206592490276053951e-03
-1.512644885088176849e-03
-8.194554547688985904e-03
-1.098605681752596805e-02
7.315242830034355062e-03
1.795963488281983322e-02
9.282555760558523772e-03
1.821336303122483716e-03
-8.884773150608957053e-04
-3.207487568889312579e-03
-7.670990231221783834e-03
-1.148889745401824626e-02
-1.485983017460778925e-02
-1.927026299667845138e-02
-2.060451102029167009e-02
-1.818643402796300823e-02
-9.805052812055993494e-03
-2.541248957608452895e-03
1.925346646636314895e-03
8.550710192682019206e-03
8.854926845394102755e-03
1.495317890114666870e-02
2.331089934820816667e-02
1.761174973850979791e-02
1.862128884309969395e-02
1.099276529057471863e-02
