-1.468028364892749391e-02
-1.792186480673249940e-02
-9.638560662223936287e-03
-2.878521727369292606e-03
8.766148612106864843e-03
1.487753401045851902e-02
1.755159774614187262e-02
1.719797259334424414e-02
1.616775036931140941e-02
1.472262485229747231e-02
7.681875166316060217e-03
6.788126423370399731e-03
6.767953977340748425e-03
2.201055098578279592e-03
9.696623018408931415e-04
-4.608581183943856290e-03
-1.274939809545578076e-02
-1.638744340537302835e-02
-1.603149413019650665e-02
-1.433060237088641491e-02
-1.172665901576632787e-02
-3.647697797526404384e-03
-1.485507924834858062e-03
-4.101095630233015862e-03
1.164037573250627667e-03
3.980846167198696418e-03
5.927085775079182599e-03
7.186780900735734515e-03
3.439659267499977106e-04
-4.721298931268666857e-04
4.782635169214406734e-03
5.879929767410518697e-03
3.895789981458525324e-03
3.414439269433545152e-04
-1.272737380660176471e-03
-1.197433632009502376e-03
-5.404004490167226915e-05
-2.936272817542433895e-04
-3.072770518565079607e-03
-4.032827797632914692e-03
-7.286473642568871284e-03
-3.218765852232747648e-03
5.859768824542161553e-03
-8.179871301905913480e-03
-2.132506619097230410e-02
-7.452982890378486575e-03
2.289161462190699402e-03
2.872524135284808960e-03
9.219640099114211063e-03
1.141388247426468328e-02
6.863071540704391085e-03
2.069904793018237463e-03
9.189102496436337775e-04
3.745961877217450064e-03
5.058572515592945837e-03
3.308278384261575684e-03
1.500285086697875948e-03
2.916034917988410621e-03
3.623418460106227635e-03
1.325991544869201729e-04
2.332507085620404586e-03
6.531485051630581823e-03
2.555098612596037270e-03
8.138107450747100345e-04
1.153941973640908256e-03
-1.813484251217437450e-03
-1.565179454482100918e-03
-2.607119516224424942e-03
-3.947274583771102387e-03
-1.812417111916527239e-03
-4.913529639109910641e-03
-8.309371980032211058e-03
-7.346953097510851641e-03
-5.365923770332924926e-03
-2.739417014525106445e-04
9.609828908207901626e-04
-5.908835578943441667e-04
9.670167772923550596e-04
-1.841885374409226199e-03
-3.388771121496372916e-03
-1.310893022496034807e-03
-5.195238037962089661e-03
-6.227145169485844532e-03
-8.162957614731557740e-04
4.983666914815562373e-04
2.527701944212046477e-03
1.014791164542326596e-02
1.076557553663129267e-02
6.884043376511142856e-03
8.598651334781005559e-03
2.490131984707490490e-03
-2.647332202139126255e-03
4.658220500850293773e-03
-4.740914528688694972e-03
-1.896580914992339328e-02
-8.729706969858357091e-03
3.420178022649851893e-03
5.983183223329445639e-03
3.372844881000390104e-03
-2.022545556920524179e-03
1.015070860747196199e-04
3.429254768009720560e-03
3.730792363895850654e-03
4.323408258652543766e-03
3.037679100172815515e-03
1.802106125133385141e-03
-8.173743702700499159e-04
-7.272280521282451990e-04
1.454152241645644689e-03
-2.484193124552933497e-03
-3.876599037637941045e-03
-3.267685537037414746e-03
-4.740807259969167381e-03
-5.816041343015219945e-05
3.561135257959125843e-03
2.860050555513791917e-03
2.928712646853503902e-03
-3.209623472616255366e-04
-4.144224428217071349e-03
-5.164937507535611282e-03
-3.049501741127659277e-03
2.875929160122232879e-05
-3.547306484278182730e-03
-7.394527370653141557e-03
-5.944791811484577068e-03
-3.720903620766570323e-03
3.092518153877161710e-03
8.528830711728295488e-03
4.570985248721797997e-03
3.061091770963199690e-04
-2.481098887179396511e-03
-4.896325230198836538e-03
-9.907741627604757084e-04
5.269830273853983414e-03
5.393828053158474835e-03
8.639091177962427565e-04
1.795370329094849587e-03
6.901564189577837592e-03
4.920929622592305937e-03
2.557131514731737949e-03
4.701283168913532144e-03
2.735619877557645806e-03
1.544071664940453335e-03
2.225284334931506691e-03
-3.017476352455603604e-03
-9.175938911444641785e-03
-1.083060529150349158e-02
-6.622078209092054427e-03
4.429922673690177845e-04
1.911427920681281045e-03
-6.291177113846917147e-04
-4.424849878267504526e-03
-7.970551111202000064e-03
-1.265934652336421886e-03
8.779381835927340533e-03
6.100370028857873481e-03
5.729154544092794231e-04
1.213972791927035244e-03
-3.870805805307687888e-04
-6.696547540036073762e-04
2.827057651846341235e-03
2.209598927937693816e-03
1.777896217327540026e-03
2.682387721181201615e-03
-6.469687817937088076e-04
-1.367112496714186463e-03
2.126922111931221510e-03
2.750840921644851205e-03
1.573432884183158806e-03
3.881403943362228895e-04
-8.765928314530977089e-04
-1.180872290901674405e-03
-2.494983575797365613e-03
-5.572475942244088654e-03
-6.400403078965998492e-03
-3.861887375997849654e-03
-2.743744693729600892e-03
-2.589010021537386120e-03
-3.940586454136013345e-04
1.441933396599413744e-03
2.019429830501531797e-03
5.680558591314260842e-04
5.993946117340615736e-04
1.918869406880370672e-03
-3.013031685544531948e-03
-3.239204284958022324e-03
4.406300927996252906e-03
5.401270611988692912e-03
2.596907833971299866e-03
-1.821539871407669821e-03
-6.721915917864230983e-03
-5.690086236169542705e-03
-1.400588414084111537e-03
5.411517679741921841e-03
7.745726885902712820e-03
4.424949287257595384e-03
5.142929838728536353e-03
3.331616398760415231e-03
-1.778031471401973025e-03
-2.932284436853500268e-03
-9.590111379914182700e-04
2.705208209126743878e-03
2.535815469687108508e-03
-1.069813685318197561e-03
-3.166656079646577426e-03
-2.264354844404595831e-03
1.322216769771118565e-03
1.404719031991622912e-03
-1.847564297006509121e-03
-4.014000545833878303e-03
-4.008482972808426539e-03
-1.645283413408019611e-03
1.634882007098038999e-03
5.656724517085615772e-03
5.882838347991958643e-03
4.193718964288153592e-03
3.040044785498972717e-03
-2.393480776187320060e-03
-3.237628018420626343e-03
-6.753838322839459665e-04
-3.020889919466252611e-04
3.917897089429331174e-03
3.610542166077547119e-03
-2.489634003884246124e-04
-2.499694298111732570e-03
-7.721804776625327930e-03
-8.557682620839505289e-03
-6.399903532258093691e-03
-6.033502426999892525e-03
-3.932970330025014304e-03
1.447134144406040605e-03
7.200217289203475479e-03
5.987302535860539003e-03
5.148611857238805318e-04
-1.313435979943538071e-02
-2.457628192563259678e-02
-8.110716774599121409e-03
8.919964494686861631e-03
6.749145658196592512e-03
4.298228817716014984e-03
3.219365483791581956e-03
8.613151875740888974e-03
1.320673771528705666e-02
7.529197054955259587e-03
4.725212085515073657e-03
2.852662882095226456e-03
3.286992569716165602e-03
5.066375273584008444e-03
4.926692615215117442e-04
-2.599147714072329914e-04
-1.613880659692350705e-03
-6.071633044221432830e-03
-3.656789247235372933e-03
-1.275890218314022686e-03
-2.287302134290312441e-04
3.568538486374860964e-03
4.281994197371529615e-03
3.728704892809781186e-04
-2.094597386251655351e-03
-2.459551753898033336e-03
-3.802008357483212687e-03
-1.346340902155642848e-03
-3.943481145290690486e-04
-5.577493444756979717e-03
-4.475531669091241220e-03
-1.573797540167400219e-04
1.319379051057653195e-03
3.361528581432642829e-03
2.608207649045744207e-03
2.174389906573297431e-03
1.979750780273561647e-03
-1.219396591026395554e-03
-3.973936942103256480e-03
-6.447609771792285442e-03
-1.585530186353118409e-03
7.312986197923174864e-03
3.667550237985389098e-03
-4.130606204144646708e-03
-4.574786240504395002e-03
-4.200132149265682797e-03
-5.829560728535922685e-03
-5.136495425018347376e-03
-9.911310057971439279e-04
8.221635781304612511e-04
1.393037347927568882e-03
2.783045147525233833e-03
-1.089977056635414352e-04
-1.363856048946535289e-03
-6.606742625749895126e-04
-2.167377321820457715e-03
-3.974436207121903966e-04
-2.366411945993682382e-03
-4.334390977910288802e-03
3.474368509082135636e-03
9.131925628851835994e-03
1.159540092018953444e-02
9.167628798368359852e-03
7.514172769124666902e-04
7.679865085573605189e-04
1.324307217397515616e-03
-1.013360612983504059e-03
1.512205092547173023e-03
5.060587582428677841e-04
-1.824860778220668660e-04
1.650128132014753784e-03
5.671510517144313533e-04
1.205361299628638207e-04
-7.882244665531120287e-04
3.853370511716372676e-04
1.794646756478393383e-03
-1.361586061715625148e-03
-3.633673854888450853e-03
-6.363991095004430804e-03
-5.432896172791241811e-03
1.453513067869606663e-03
2.503828717467878988e-03
6.523008818071240368e-04
6.905624308233811268e-04
-1.441674277458045031e-03
-1.966990686666913492e-03
3.775238454715692713e-04
9.994596934725043149e-04
-1.037178988953273151e-03
-4.154533025566791056e-03
-5.435797011276172729e-03
-2.045442463004174677e-03
9.670625511794458127e-04
-1.795253247219854740e-03
-4.019562756615551423e-03
-2.658637422610769449e-03
-2.441662116305052654e-03
-4.747991193425791893e-03
-5.613350203045988467e-03
-5.988680318448424229e-04
5.158008781712921341e-03
8.131383766673808480e-03
7.479329295781129462e-03
3.810243565672008850e-04
-1.657375849975655175e-03
1.128791825599345509e-04
-3.938631356909630052e-03
1.954565828092699135e-04
7.682880737700151404e-03
5.287554576101822362e-03
4.836911849495108967e-03
5.536536940210792790e-03
2.309272751102639520e-03
1.944404456015140633e-03
3.123516832790056760e-03
9.268574462184223529e-04
-4.002291218816157736e-03
-4.204972024614835741e-03
-2.515973444179006634e-04
-1.110233739577487543e-03
-3.112710837123709631e-03
-1.822780835554679239e-03
6.640614404940326041e-04
2.622574326167602821e-03
1.868919855414494149e-03
3.445363947771184349e-04
-1.827278886134497482e-03
-3.518033556101309803e-03
-8.880581360611849431e-04
7.769893464300596173e-04
-1.147837690158893869e-03
-2.355049005351964649e-03
-1.562535104093645691e-03
2.880464407551709943e-04
7.456679439546739629e-04
2.151906941263679609e-04
-1.606642116714684715e-03
-5.935825480119464627e-03
-6.713194357565736153e-03
-1.111297105749821032e-03
3.589207501393067764e-03
1.761705739999334507e-03
7.796794686404425606e-04
4.107421795892691151e-03
-2.519975091212113961e-04
-7.565796634501385093e-03
-6.512430400291106293e-03
-3.892921518530345539e-03
-1.119574478229704885e-03
6.903766943513790517e-04
7.967790638905565374e-04
5.164877677955526797e-03
5.779843009426455930e-03
1.626338477431650380e-03
1.733613891803968948e-03
2.782850956742028391e-03
2.612738336545965875e-03
1.696212154095363533e-03
2.146099678492366727e-03
3.165499207588433426e-03
2.032593538952461292e-04
1.139529262386090088e-03
4.662408914913526714e-03
3.349438326479747038e-03
2.285744451832334278e-03
-4.564317071523894148e-04
-1.871181069785943707e-03
1.418395055935619447e-03
2.405982419301580522e-03
3.157998183675170094e-03
8.287256478688767017e-04
-3.859277477977544196e-03
-3.721862780880910975e-03
-4.387987395065752125e-03
-3.237852671449329128e-03
-2.031792312370458639e-03
-6.065283662163774639e-03
-5.605035087346292057e-03
-6.251478053678042462e-03
-9.353824901082342588e-03
-4.023878079655343783e-03
9.433700373066800050e-04
-3.399607391657576182e-04
-2.731122258443075858e-03
-1.877359918134853187e-03
1.441397358478799240e-03
3.110966103141949574e-03
8.426791388301059157e-03
1.272222115076143169e-02
8.106726678761238050e-03
3.830692505736536975e-03
6.860541328525470665e-04
-4.457733197850006525e-03
-6.171382261055184844e-03
-4.840871630885556533e-03
-2.289334004568728282e-03
3.113656626964235972e-03
7.172023229574405086e-03
3.407826244013037291e-03
-1.077372830416237779e-03
1.596968962289200839e-03
6.481185618263367136e-03
8.650445338440346590e-03
5.123531352337715172e-03
7.968264465221168522e-04
-4.691992305252935640e-03
-1.813177480915669978e-02
-1.837158326927475910e-02
-2.534788789381256166e-03
6.279327750507322434e-04
-1.723204113728689542e-03
2.157672747127783921e-03
3.901768225888195205e-03
5.946468396036947920e-03
5.848938149086411326e-03
2.774729447424201505e-03
1.230344710383115365e-03
-3.959594687206221056e-03
-8.273597473574659245e-03
-6.277906473460671474e-03
-2.462409970516043437e-03
3.723938393471759936e-03
6.555774017425517082e-03
2.500226359657106972e-03
1.052713274466122399e-03
1.852250211508547656e-04
-4.308474965275422165e-04
3.231977681837790248e-03
1.171551833480850152e-03
-1.798201014931121420e-04
2.708494645976184962e-03
-4.817953248558604074e-03
-7.133706223767083063e-03
4.225873941851895736e-04
-1.181559679708429076e-03
-1.059544028950139966e-03
1.372530910019644336e-03
-2.076714863941904899e-03
-8.237887314998547155e-04
-4.282651928554859146e-04
5.124121325498948469e-04
7.289881774720988541e-03
5.350717826992013558e-03
1.319460518213405945e-03
2.895837783469390556e-03
-1.531859616461309624e-04
-1.199592082477471660e-03
2.423272905298156504e-03
2.703942067816181467e-03
3.739078832530061229e-03
3.283807421279661028e-03
-2.041275724734895741e-03
-2.582812316400343727e-03
-8.831663529281404959e-04
-3.897688329918209352e-03
-4.196615953565421830e-03
-2.318576321393649251e-03
-3.492775995493252548e-03
-5.152505424252751785e-03
-6.945593343998379167e-03
-3.667504792524759610e-03
2.783869834044341851e-03
7.950333227386876655e-04
-2.480826293889473299e-03
-2.745359392238799767e-03
-5.360997995178812779e-03
-2.442467110038414393e-03
3.467842976899991950e-03
3.846848142145979817e-03
2.971039457141021189e-03
1.735843697065583358e-03
8.425272395963630733e-04
1.201469050922706087e-03
8.588307425708625355e-04
1.430206058403817862e-03
1.984020015303705753e-03
2.942636021581310733e-03
3.171559647872791449e-03
-4.496015963643994261e-04
9.176230711341453470e-04
6.939671220675049101e-03
4.603808753094506927e-03
-3.514995769875563290e-04
2.602147697816344714e-04
-1.942559533203144567e-03
-5.899972296920677137e-03
-2.819875738415494881e-03
1.731975351595616301e-03
2.712579129265023717e-03
3.766799563320559398e-03
4.460126220522738980e-03
2.616697362796127201e-03
-7.035275206626642568e-04
-2.843706832623135901e-03
-5.186078777659314763e-03
-6.319609334749904349e-03
-2.029764397596873701e-03
-2.178810290377372096e-03
-5.975182496958283442e-03
-2.062551784674689949e-03
-2.533005007861357898e-04
-3.473067739357512318e-04
4.566124297569736611e-03
4.284739740775547756e-03
1.180793868590594817e-04
-4.554860895994453096e-03
-8.824645223909627703e-03
-4.205858714230284977e-03
2.139828584421806391e-03
2.026351835317389063e-03
2.082828053504200150e-04
-2.219654244918288066e-03
-2.525274573160490952e-03
2.737758074712947493e-03
6.934611248177037328e-03
4.782562665787868164e-03
1.152296953617853439e-03
-1.685665628737622983e-03
-3.934149201227192527e-03
-1.803109378234556527e-03
2.775583536468543503e-03
4.960783030793213325e-03
4.137962916436241367e-03
2.832796222587293921e-03
4.060239726599908054e-03
4.338813985773194368e-03
5.282192564949892213e-04
-2.415535940342998684e-03
-3.462927375976619280e-04
1.650819792708754959e-03
-8.521936269108705509e-04
-2.079463922979122529e-03
-1.415177831758121898e-03
-1.902984746866409138e-03
-1.241022557185802316e-03
-1.268492188447733083e-04
4.896875412830584574e-04
-2.327879519942942146e-03
-6.818397576239618868e-03
-8.800410653689919732e-03
-1.089695278038206941e-02
-4.001484228128537358e-03
7.260971402723945083e-03
6.229226049367456337e-03
3.527483228100371584e-03
1.928361945176061730e-03
-1.871983522175861819e-03
1.824864947284515521e-04
2.728774051330774483e-03
3.140508034403199662e-03
4.086080615869010051e-03
4.484307853277983737e-03
1.938365342461170152e-03
-2.633372397981776584e-03
2.827569107731370312e-04
3.353149937712870607e-03
1.042821308186270106e-03
-1.591016650753917659e-05
-5.224373890717720972e-03
-5.235574457095289354e-03
1.581020084538912801e-03
2.178088364181111382e-03
3.804007666678708207e-03
2.269570492116137171e-03
-2.258754010723390028e-03
-5.555922125147279723e-04
-3.003253874891175131e-03
-3.887394587240914495e-03
9.116335427359497333e-04
-1.203965855243224585e-04
-4.096399430742604479e-03
-6.682205640050601150e-03
-4.410013063538764481e-03
-6.304835957038264780e-04
4.575264960813250361e-04
6.041982566709219044e-03
6.951965389808504973e-03
-1.678158396036257081e-03
-4.707744197809627003e-03
-1.696269229329638861e-03
-2.033563894997077106e-04
2.233761022030441071e-04
1.212474873975706536e-03
5.464129201616026469e-04
-1.478314984201930778e-03
-5.594381847613209271e-04
2.601966075095885501e-03
8.033745748812921514e-03
1.042805071296413685e-02
5.182110433028621829e-03
3.006779998490360928e-03
8.058772937513577475e-04
-4.222385536367135976e-03
-1.854539602236315822e-03
-1.808405252883888001e-03
-4.436867982365819488e-03
-1.989142801651497955e-03
-2.560355821257189694e-03
-2.568621141494909204e-03
-1.803417501385223354e-03
-1.274810630862432308e-03
4.804170322763621354e-03
7.422123271260342402e-03
4.864570259512495179e-03
-1.251385374961277346e-03
-9.233134637070709166e-03
-1.117173033136411968e-02
-9.859274172003133427e-03
-2.836710088904462017e-03
2.006540866645679932e-03
-1.493283050400009667e-03
2.395292652481780232e-03
4.394440352714687643e-03
2.063525535960655279e-03
1.218776491791825336e-03
-7.271781954880752324e-03
-5.687445554768172547e-03
1.190920973944164726e-03
-3.056700520507451245e-03
3.030682192290845719e-04
8.719244015322326000e-03
1.189104141565421220e-02
8.338686629952457921e-03
4.251235371860491853e-05
-4.809534989237604884e-04
8.399629700851492329e-04
5.493553981723222224e-04
1.569905285064969588e-03
1.546647728411606375e-03
4.382364014448515872e-03
3.997272627746908773e-03
7.525992354565111224e-04
-1.909076296937598644e-03
-3.827693800355080021e-03
-1.729968833956473453e-04
-2.334407746091526057e-04
-8.631688711660935685e-06
2.129994998543925568e-03
-9.428325535670036527e-04
2.158797180921371260e-03
-4.964169338464462233e-03
-1.994421074134565888e-02
-1.201633929188373855e-02
-7.757711175443988798e-04
1.808278855416607742e-03
2.748475715726797063e-03
-2.078825988489622478e-03
-9.559517062379191887e-04
2.722385674143360402e-03
7.948709794317943868e-04
1.383278032343365337e-03
8.548352570280485542e-04
-1.042906007141096436e-03
6.657936950234524462e-04
6.100416522997099836e-04
-5.339657640775312408e-04
2.530690398848585605e-03
2.643681033339906079e-03
-7.382637524596794877e-04
9.166302631580945832e-04
4.361839941702075102e-04
-5.660102589335103043e-04
3.646152933736145421e-03
2.382067123757648525e-03
1.043986481252697201e-03
3.405949865820661823e-03
1.172576230481412645e-03
-6.843070878280279375e-04
-6.156798381528496948e-04
8.128584493767404247e-04
2.484440731124942358e-03
-1.623151950254010547e-04
-2.147591821889449637e-03
-1.270812373869090704e-03
9.743923906870759297e-04
3.160254992974642976e-03
2.020395260918139008e-03
-3.383795068172573044e-04
-2.097736177486470184e-03
-3.549676172661281413e-03
-3.291330947893910362e-03
5.442140976367850543e-04
2.134038156177616406e-03
-1.464203101144245832e-03
-6.948446833035373587e-04
-1.985612028495762921e-03
-6.905209103456993666e-03
-1.972473245113922410e-03
2.592254581844030854e-03
2.851169808633944279e-03
2.712892612241626922e-03
-1.644416855027909909e-03
-1.114490431239036983e-03
-1.219824643922443139e-03
-3.467167782140556480e-03
1.714984355662360366e-03
3.239787232875909469e-04
-3.846706364441095875e-03
-3.329214140203070119e-03
-6.838341688531626196e-03
-2.776889810019332692e-03
5.652987402213840301e-03
5.632903887421275221e-03
5.408242268870947812e-03
5.068147124369748284e-03
2.546175949155461606e-03
5.655999208744349376e-04
-4.676648175324195421e-04
2.402090190400980960e-03
4.732629757783326889e-03
1.446935096562735343e-03
-2.643776659407836953e-03
-1.680390952328278224e-03
1.171160363929622849e-03
-2.405097465247962147e-04
-2.759993294574560573e-03
-4.201280241451278187e-03
-5.496363938111305421e-03
-5.912736908084848669e-03
-4.618629854112368469e-03
1.124715778433970368e-03
4.872653750791993907e-03
3.140404354871598538e-03
2.680483212162918742e-03
2.830575108314887980e-03
4.120902888961657830e-03
3.448646305780729386e-03
-9.534932984473094278e-04
-5.881166540638026489e-04
-1.485266864254654122e-04
-5.608526148618328110e-04
1.476489291514234943e-03
-1.039922427808700502e-04
2.765490381483652832e-04
1.095259521235496074e-03
-5.810851593852242678e-04
5.498935652160452745e-04
-2.517168186747944549e-03
-3.620738217457270588e-03
-5.164799624991554903e-04
-4.162125933505288720e-03
-4.029894241347455053e-03
1.415015418925382818e-03
3.583187197507081267e-03
2.355973090822619312e-03
-2.461146579719044464e-03
-1.947894870415131392e-03
9.026346318695476021e-04
-2.085625682193976136e-04
1.179392695352782976e-03
-1.907609238540608054e-03
-5.417291883164312809e-03
5.608364751855813082e-04
2.328130057345087316e-03
-1.291665530439589605e-03
-8.296393842359309038e-04
-9.886179402168069827e-04
-3.279321496510893569e-03
-2.495069994712768250e-03
2.238145625507444538e-04
3.146805221248466077e-03
8.952119066365907263e-03
1.042545003150079433e-02
3.710656441721481985e-03
-1.800636909037018176e-05
-1.700327673606823490e-03
-5.893108507605665167e-03
-6.005045469313272793e-03
-2.139788490970985328e-03
1.802594270452729033e-03
4.588419279082983984e-03
4.238944395761205623e-03
2.018835925435763252e-03
1.845207027938224184e-03
2.561844006158104162e-03
1.664905802380930956e-03
2.386276531076935575e-03
2.162839283886880317e-03
-1.818163255402800932e-03
-3.841560475437811456e-03
-4.021076621174578085e-03
-2.658845485548256508e-03
-1.131058080086652044e-03
-3.354728752904577622e-03
-3.298437808020883693e-03
-2.740943085941876037e-03
-5.815334675670007052e-03
-3.891843765518971862e-03
8.729109201179854546e-04
5.252934019365413688e-04
-1.674476900277602730e-03
-2.162561455655678030e-03
-3.012671711956214655e-03
-2.692219316434818488e-03
2.517164015318960196e-03
6.276309077349146066e-03
5.337799706048331622e-03
3.573672586886470805e-03
1.241804098766909146e-03
2.114011910535854456e-03
2.232644995726313242e-03
-1.835669954299597954e-03
6.777687489143200241e-04
4.833741039751650662e-03
2.415825391303044571e-03
-1.165327501386268297e-03
-5.077052590457506974e-03
-1.905959653714511381e-03
8.697256346683958014e-03
1.019307932886748952e-02
4.426019924512100343e-03
2.341268315035766219e-03
2.598646255031799093e-03
1.900136518075021003e-03
-1.107634523868670584e-03
-5.682283819441988869e-03
-8.663343461101346774e-03
-6.535285307934293568e-03
-3.407513565772235520e-03
-3.977730302740688922e-03
-8.838896826380944417e-05
6.772198636485170231e-03
7.215331286898066243e-03
5.281665942421966478e-03
1.722322248224604588e-03
-3.105374189290142743e-03
-2.648218126157175344e-03
9.863399455576353676e-04
2.834155667478935933e-03
3.498466178823952596e-03
7.628731248554142252e-03
1.237106494423587111e-02
1.158676153555425990e-02
1.085322489755656365e-02
1.043322186415633103e-02
6.206829213181507682e-03
4.779111646271191460e-05
-4.018040639254407721e-03
-4.287203459937962780e-05
-3.626793221009516361e-03
-2.167427691182900046e-02
-2.277113658340691044e-02
-7.426806783094904232e-03
-1.869276262044649445e-03
3.607233572300648332e-04
6.289936322775309396e-03
8.791547742967656398e-03
9.578654865579258257e-03
1.283902965267398437e-02
1.403392932892643698e-02
1.065640502891181639e-02
9.671382379844845750e-03
8.881750595755893291e-03
4.114808759131889475e-03
2.765338008506635498e-03
8.677757725069526040e-04
-7.433753016441193434e-03
-1.421313234645007334e-02
-2.008144779870617985e-02
-2.710172270314169934e-02
-2.712886414643382940e-02
-2.291359466171286746e-02
-2.045531329105206020e-02
-1.349167116181228254e-02
-2.038418228311863947e-03
6.116810688396676771e-03
1.017664433455752263e-02
8.639595990883488022e-03
5.239626111417898177e-03
5.048278062631545576e-03
-1.289408183334623658e-03
-1.203054042691265209e-02
-1.776824841286343132e-02
-2.041469517127805083e-02
-2.464164818631176673e-02
-3.676084228325240955e-02
-4.502633268988957826e-02
-4.212143348689813965e-02
-4.165875215593697195e-02
-3.641438238230837454e-02
-1.788820674879772893e-02
4.587226116766584920e-03
2.519799361876080487e-02
4.761875977521976694e-02
7.723228892466314777e-02
9.948855330433085953e-02
1.092681873484587091e-01
1.121205968963128463e-01
8.995142307629296063e-02
4.423740841902888687e-02
4.185744618256819795e-03
-1.377117494665597471e-02
-2.800771214349630570e-02
-4.810361137600524528e-02
-1.729172155198902688e-02
6.553492734539098641e-02
7.789039206649182867e-02
-2.142115547426713326e-02
-9.728376372082098156e-02
-6.012119187902364992e-02
2.774584691708075965e-02
9.503055756752203098e-02
9.804076184074130007e-02
5.375138266429297512e-02
2.468814301498178584e-02
-2.102479164384794472e-02
-1.013257100262092564e-01
-1.612336473312883656e-01
-1.493724984054543570e-01
-6.642831756348159533e-02
-7.882739669204044328e-03
4.006536708396409019e-02
6.345188653840884430e-02
-4.994235421210390519e-02
-1.683823089053921862e-01
-2.441789445625559274e-01
-2.447950654920151570e-01
2.103708416401172537e-02
2.408061672565890710e-01
1.246723730749125097e-01
-2.415605725174543514e-02
-9.715060603575974979e-03
6.956272582971805007e-02
3.734566990394570102e-02
-1.298419902325968212e-01
-2.627685990971179719e-01
-2.183433684198179958e-01
1.214756081618415147e-02
1.249113493316852119e-01
6.813597543696281456e-02
1.891504387464416626e-01
3.495776327527254090e-01
2.950467553192958614e-01
1.258949511326274140e-01
-2.095820835562901396e-03
1.903615076330679445e-02
3.987690773036817876e-02
5.399606505072586382e-02
2.302121362562113416e-01
3.463670563617085030e-01
2.828570275520154165e-01
1.643074192979685766e-01
2.465442092214431211e-02
-7.920285546817763811e-02
-1.812642861235833069e-01
-3.293775744683526963e-01
-4.493033722758625892e-01
-4.408319600187836640e-01
-2.776059565501223236e-01
-1.060509388312763090e-01
-4.927258288770462735e-02
-1.277271809208068709e-01
-2.072441671703891819e-01
-6.318047998127934717e-02
1.638447999263734911e-01
2.029128569210378596e-01
8.348979448542885595e-02
-2.814200459300251252e-03
1.038323334161237593e-03
-8.676040218174851937e-02
-1.755321108557492127e-01
-4.844528256474915640e-02
9.230148721457824557e-02
1.217636364177713398e-01
7.441359182816678630e-02
3.676913686361447942e-02
2.391646881521704016e-01
4.595008157156336703e-01
3.654977832608050092e-01
1.799888458877957897e-01
1.013588833936549943e-01
5.641516156940236393e-02
5.377489295717160882e-03
-5.592921610422745687e-02
-1.602477596710880081e-01
-2.703915395234117724e-01
-2.550897166800107918e-01
-1.897925876230196485e-01
-2.692515272879046906e-01
-3.188582693014224145e-01
-9.554194614149674747e-02
1.026220150599314873e-01
3.801234002343542150e-03
-6.056145940997191557e-02
3.163037785917025002e-02
7.356915615507601813e-02
1.525408463294435080e-01
2.124641111810578187e-01
1.152845196478804735e-01
4.922264037008666077e-03
-7.803796535101795162e-02
-8.114192033832774709e-02
4.784860233426399545e-02
1.596642511889647675e-01
1.736946895235927935e-01
1.242911836109101276e-01
9.762016745265494899e-02
8.423073144012727109e-02
4.382833559273723034e-02
-2.114726432109640536e-02
-1.872888789220126804e-01
-1.958656573993849404e-01
7.867139283409453621e-02
1.500433895898951042e-01
3.027032264777488810e-03
-4.222579332852751527e-02
-5.897798829880378235e-02
-6.898755710634346672e-02
-4.511099408089003227e-02
-3.539678395109143588e-02
-5.544512333421156014e-02
-1.374075743406317773e-01
-1.979460081801788784e-01
-1.417824953957660672e-01
-1.940494855791868520e-02
4.113320767307471204e-02
2.678236739663452520e-03
1.995853856398599468e-02
1.248105462350503486e-01
1.574481889843562243e-01
1.013214215202964674e-01
5.144114536646827301e-02
2.999241268344281924e-02
1.445930496885950226e-02
-1.303728636089710596e-02
-4.813788939076191209e-02
-4.920064375397771583e-02
-3.447740210161016200e-02
-4.681453948762957784e-02
-4.176854120013209076e-02
-2.650032475021627670e-02
-2.794958657953763251e-03
6.165892223156246160e-02
8.337550851115739514e-02
5.693914743628061825e-02
3.978665215074074502e-02
3.091992505603542371e-02
5.374971923744992913e-02
5.470124490411141377e-02
3.732361983479287821e-04
-5.619662123200598602e-02
-8.017611733207970215e-02
-2.745902806214018180e-02
2.702259908680203215e-02
-1.065682180257256605e-02
-6.204233755773067016e-02
-3.593687758579900554e-02
5.561240804808643967e-02
9.642074248172093076e-02
5.500736591286457811e-02
3.106811599313997682e-02
2.191493849892680451e-02
-8.542115618688027323e-03
-5.035910218826963186e-02
-8.200860727311649889e-02
-8.448866553185681305e-02
-8.934099772873450862e-02
-7.538249315312696430e-02
-3.994484926952849430e-02
-1.871643750690469080e-02
4.616570018409797693e-02
1.003566353672132733e-01
5.677698476869042638e-02
7.687983468637392577e-03
-5.058525337252765992e-03
-9.656833708481504450e-03
6.495569528046537785e-04
6.930606705023005000e-03
8.204891344133028244e-03
1.473744206650199826e-02
1.320975037250654571e-02
1.222211119248143435e-02
1.991886818180372068e-02
2.242585030938655521e-02
1.767627865659735995e-02
1.387472508550055550e-02
1.070596495414372074e-02
6.929909174203050144e-03
1.179734723895993920e-03
-5.705462300628311861e-03
-7.277879134329288263e-03
-4.304673073537664853e-03
1.122798413419404118e-04
1.099286856347313473e-03
-6.296262813657398788e-03
-1.272087985441199172e-02
-1.033181809704948780e-02
-6.230740947588020440e-03
-1.000155818783563834e-02
-1.497596106768044749e-02
-7.478888000193912970e-03
4.808115671800196160e-03
1.059068126994839459e-02
8.995619342338570523e-03
1.033380896124265263e-03
-2.903354906355230369e-03
3.658249747466202784e-04
3.438341440877809661e-03
6.395377871732259127e-03
4.341322231184763930e-03
-2.689555532430353002e-03
-6.114883601727776541e-04
7.473853910747603121e-03
9.985901119243066962e-03
9.384180635941378329e-03
7.204334605536127055e-03
2.402873254834859192e-03
-4.928565577221334301e-03
-8.752287289197269518e-03
3.824970539815649665e-03
1.929872922135272145e-02
1.678557314192560129e-02
5.876949489320551327e-03
-5.323476922557803317e-03
-8.412998982397812062e-03
4.288549134662500775e-03
9.693513065056525227e-03
-9.154298297944997616e-04
-1.230838888451933968e-02
-1.873772950495241132e-02
-1.522518530351010119e-02
-1.067047134558156592e-02
-1.053011443535240357e-02
-1.610567363013285045e-03
8.736189515395504160e-03
1.323261802414646068e-02
1.540767458610391334e-02
1.099972487387009326e-02
6.772169480792258195e-03
5.006482016826913593e-03
2.007046062731850707e-03
3.043637083418135325e-03
1.590866953269462307e-03
-4.579141147336059266e-03
-5.569839992648108716e-03
-1.801513242661797586e-03
3.010009407939761520e-03
5.443303550888212682e-03
5.018796471696166349e-03
6.086347520090084479e-03
7.643338767169202685e-03
7.420632789706985491e-03
4.064500643151601825e-03
9.144581108788744873e-05
5.738196869285106449e-04
-2.739059272439922687e-04
-4.889513801364665443e-03
-5.727910106447050946e-03
-4.428412940897454193e-03
-4.046347686862938539e-03
-2.437442407007319508e-03
-2.844664622588191508e-04
2.386370430893297243e-03
3.005564785222705499e-03
2.986943504269750672e-03
6.142515871690119693e-03
5.098193696451413896e-03
3.174300778737558937e-03
4.135896149412078213e-03
-2.281638075582665998e-04
3.548815972997629059e-04
5.192742632009947172e-03
2.130765207488595058e-03
1.149600456367277706e-03
1.799015939454436607e-04
-2.753564552514232294e-03
-2.228760285223083202e-03
-6.091033744835214377e-03
-5.288631385214757029e-03
1.815185485839457833e-03
2.967271584590955129e-03
2.592772731173564101e-03
1.285523511255195301e-03
3.283641345558964159e-03
7.525326642072414918e-03
4.228962997125705961e-03
4.872991279952704809e-04
-1.553148178535464262e-03
1.798744586952310881e-03
6.131690955554435461e-03
-4.894078614539466680e-03
-1.737459794907712796e-02
-2.146807308075044524e-02
-1.609098590530363970e-02
-1.043802005128336048e-04
9.088684798230687797e-03
1.917147971318907199e-02
2.981517640421233600e-02
2.483367165139274690e-02
2.176756321570703229e-02
1.455157300832598567e-02
-6.959831487072228560e-03
-2.184834027816420429e-02
-2.588408327741579390e-02
-1.716289133759312316e-02
-5.581058564375102060e-03
-6.562128860296968617e-03
-8.683685937909231198e-03
-1.076380356273801304e-02
-1.084589812704227219e-02
-1.326498147165188846e-03
3.796590521282504436e-03
6.329203840984432960e-04
-2.376325484696399648e-03
-4.129664153017438034e-03
-9.006315928344969454e-03
-2.013047333959089302e-02
-2.310477857176452404e-02
-8.075408550092023213e-03
6.204114340304729865e-03
6.501883551280496915e-03
3.426548383487406941e-03
1.418360332175051157e-03
-2.260880068994135760e-03
-3.494365559169667745e-03
-4.777097933402266183e-03
-5.254394443672934234e-03
-1.488139122919709652e-03
1.918006637542981827e-03
6.335222969446364059e-03
4.001314980196080291e-03
-1.482808901236356766e-03
7.911291354266165865e-03
1.419234003181039407e-02
9.053753795407674942e-03
7.046723085582068738e-03
4.780150256108019712e-03
-9.984821992779758203e-04
-1.431364863829401139e-02
-1.691411247866899531e-02
4.261828714026281301e-03
1.233854118682146603e-02
5.631171640957866563e-03
4.206167208738186697e-03
2.569860292935258715e-03
6.999791116941880657e-03
6.438694895108047593e-03
-1.369085373757059944e-03
4.656670705476657034e-05
-3.444658469630793203e-03
-7.629796163191596842e-03
-4.152434552164479056e-03
-5.286800561888502226e-03
-2.454934190256247584e-03
5.204040583020274040e-04
-5.144541263193493780e-03
-1.019941459315332200e-02
-1.742500298954137439e-02
-2.175780468376752042e-02
-1.469352498178322017e-02
-6.687854117714512638e-03
-3.840327749981671968e-03
-3.767974835499671507e-03
-2.084439279725330569e-03
4.767919659779329064e-03
1.229618498965132957e-02
1.255394146585229152e-02
7.488508741501802290e-03
7.111342623961969429e-03
5.587730384711594132e-03
-4.008362437041290000e-03
-8.697848729030436057e-03
-8.091382368889350751e-03
-1.130670338055478862e-02
-1.319437937673178379e-02
-1.222994944547462458e-02
-1.132050802958303910e-02
-8.615148059381070797e-03
1.351393991484169501e-04
1.382771066744766485e-02
1.940520314945445510e-02
1.486268554954192460e-02
1.151762618245356050e-02
8.468591526278629322e-03
1.492311884991157252e-04
-9.367708821081665096e-03
-1.297528920537635230e-02
-1.120021410098900189e-02
-5.337391697944971272e-03
2.144753725870107621e-03
7.127698978150380591e-04
1.182119232363746655e-03
1.551440462899270241e-02
2.231372681539319641e-02
1.607825585724147882e-02
8.781812607106106658e-03
5.242622303919267090e-03
1.114190174931632867e-02
1.322512567494545793e-02
7.395995809854284155e-03
7.066959756034933704e-03
1.996939031798860946e-03
-8.250708747589737338e-03
-1.091144428340537313e-02
-9.704574311439957690e-03
-6.798396189091614715e-03
-5.467563315520025842e-03
-7.122058321499290419e-03
-9.095775326537018299e-03
-1.236177902089958570e-02
-7.773789725210455623e-03
-5.967972228710744995e-04
-2.369036308698101514e-03
8.554004061494839203e-04
2.895274472700386844e-03
-8.824543525544211245e-03
-1.598319651651072468e-02
-1.531442946523627231e-02
-1.307611885576260777e-02
-8.991613021736533443e-03
-7.413571063039844054e-03
-6.616369025189453804e-04
6.545790772515653125e-03
6.935297066679441472e-03
1.291815791835720234e-02
1.307053639814789552e-02
2.725997626809390385e-03
3.243573922659180424e-04
2.377721543159118552e-03
5.290873140402196570e-03
6.290554377398865048e-03
2.085988688375989882e-03
2.173462121206800376e-03
4.294399843934786597e-03
1.021408745461473665e-02
1.496095071689105237e-02
2.994781478921216232e-03
-6.115059086549778575e-03
-4.691746480564472550e-04
6.910481091164340402e-03
1.169987743339084320e-02
6.023364976011552629e-03
-3.093056830631446714e-03
-4.682274263465641823e-03
-8.511047769169530902e-03
-1.147111113483903315e-02
-9.460377040887309880e-03
-9.683300365404106866e-03
-8.272871864642936460e-03
-5.194851471553249035e-03
-4.854111897722540765e-03
-1.888433506483675004e-03
4.204127913791210445e-03
7.834659965344296581e-03
7.805873256343597889e-03
2.661367627719017810e-03
-2.705406609316433290e-03
-6.544612801136901175e-04
-1.334838498495735876e-03
-7.633328287192246535e-03
-3.801018776691750169e-03
4.530198047419806834e-03
4.718836579882094290e-03
3.679613148054544734e-03
4.173053200494459061e-03
2.615480576943536670e-03
-1.439345592765483260e-03
-6.645153420689466767e-03
-7.760363120679667805e-03
-4.622997083308526961e-03
-3.184842255650108516e-03
-6.027414272357313821e-03
-9.032772877607430848e-03
-6.887844292670892467e-03
-2.336215830997886815e-03
-1.184492755233750418e-03
-4.470833516090910904e-03
-6.292188798566352576e-03
-3.557627353469266281e-03
-3.861705344023779081e-03
-3.758414176989161026e-03
2.697220881689541428e-03
4.473543996845433419e-03
3.429146493930270811e-04
-2.671010945260354503e-03
-4.366791927517516859e-03
-4.245788523059736488e-03
-4.523106438861659515e-03
-5.769998068937135655e-03
-7.386013153499873703e-03
-6.466347831482676008e-03
-2.992586346737090633e-03
-5.887692080482035892e-03
-5.201127611975351304e-03
3.024365793386472618e-03
3.508770521592953322e-03
3.123780025467946808e-03
-9.791862490666713124e-04
-1.171837329359312271e-02
-8.439427994986294090e-03
-1.413656919182056972e-03
-1.771205606839922368e-03
-1.736359700073562742e-03
-5.092902617257999767e-03
-3.550972883837718620e-03
3.579549202258623924e-03
4.352724011537497176e-03
2.773545692921514962e-03
7.639391882242715015e-04
-1.238526806806342648e-03
-3.173189287448317623e-03
-4.028967115751770633e-03
7.830932891039075940e-04
2.939275422178112655e-03
2.229696725989111471e-03
2.556091690467535930e-03
-1.820625554800186889e-03
-5.501817899863997545e-03
-6.543277602556829206e-03
-6.067749446796761800e-03
-1.321719571204301802e-03
9.004470659986854326e-04
-8.504896264035192869e-04
-3.023307293309789902e-03
-3.912587553030231341e-03
-2.653059154906428109e-03
-1.851726857902500278e-03
1.132755404144741320e-04
-6.390687416379898589e-05
-4.318229893732687501e-03
-5.696988520892377027e-03
-5.824695359415279182e-03
-3.498969133803769924e-03
3.092817305182800347e-03
7.032710032953695505e-03
5.792002925296899953e-03
-8.336563581582774520e-04
-4.553947447101717658e-03
-2.253801184849095821e-03
-2.592746332975159971e-03
1.294830046839015375e-03
3.231204515503998103e-03
-9.114841721477102282e-03
-1.258586198008006946e-02
-1.895059143768184143e-03
2.746110935726563899e-03
3.613672657818868018e-03
4.560243696460976846e-03
3.065222885359661711e-03
-5.923676201824884828e-05
-3.973471739413543535e-03
-2.910652246592754146e-03
9.201882587436406146e-04
3.648770102158248839e-03
5.548106560722088250e-03
9.184934380346063522e-04
-2.046890113441113702e-03
1.810303193765595235e-03
7.991208456294268941e-04
-3.436160981081169382e-04
2.719703667375439598e-03
2.451511392996396678e-03
4.825109260830205585e-04
1.016797629391404936e-03
2.676697027775017113e-03
4.319143271860949882e-04
1.325895688244999298e-03
4.916469334760520220e-03
-9.899602899616798124e-03
-2.459438865797874268e-02
-1.257136938755205359e-02
7.220575275048995859e-04
2.142486695950113380e-03
3.956385312789908321e-03
4.400764362267982691e-03
2.108925697573885150e-03
5.277296923972323245e-04
3.014766235922451817e-04
-5.518276369353889398e-04
-6.608546471855052725e-04
3.108808294381543245e-03
4.371858188230002065e-03
5.748691047469568641e-04
-2.252116578900144155e-03
-1.878634952805716173e-03
1.142204164060596884e-03
3.094420616165664568e-03
1.671960021805036622e-03
9.363006552248034952e-04
4.785498623353227660e-04
-2.511481889464043087e-03
-2.888644318404351170e-03
3.983601427995013642e-05
3.136423627441660747e-04
-1.316228934704029036e-03
-3.950847781473774967e-03
-4.949210388292738134e-03
-1.039741678966311835e-03
1.422939045716747680e-03
7.771230649743750621e-04
-1.259523432990209031e-03
-2.846003809885596682e-03
8.596903420333543069e-04
2.782714627505644602e-03
1.810501514094037148e-04
3.587330779115027388e-04
2.405936455571625575e-03
4.627468017726662185e-03
4.285924494769302769e-03
-1.117548687937081325e-03
-7.702001918397839535e-03
-9.157613070284764331e-03
-2.455610631675444588e-03
3.905065356975349119e-03
4.771856598533802916e-03
4.130784879065766552e-03
2.780332891745550608e-03
1.090714572874868860e-03
-1.807295623820276355e-04
8.048541759459808774e-05
-3.835426176985967835e-03
-9.345247503198324257e-03
-8.731404774829930370e-05
9.505804013066788613e-03
3.258559979811027733e-03
-2.252888011470674436e-03
-1.547307269281559660e-03
1.005721230001975150e-03
5.902747049478219120e-04
-6.120292874479033723e-03
-6.730442388445737924e-03
-1.006935706749856807e-03
6.056550757924574618e-04
8.413801742573362875e-04
3.773295507741063464e-03
3.876888463640292600e-03
-1.097394242957905114e-03
1.561894438968745716e-04
3.246060560707341065e-03
-1.334038591123377308e-03
9.759875930176775173e-05
4.178194241032236363e-03
1.205266022588237680e-03
3.430593661173434155e-04
-1.690354486302959305e-03
-4.424962213811200681e-03
-6.663517191594221485e-04
1.023842467312153018e-03
-1.473718318717056382e-03
-4.027261786175941050e-03
-6.422778760493737076e-03
-5.108324800867956178e-03
-9.769537711752289497e-04
2.211890247369786757e-03
5.772226584626373447e-03
7.302783791715240433e-03
2.045264973451788124e-03
-3.325988514597587840e-03
-2.179076678197020521e-03
5.351170756291582023e-04
1.991037625986267351e-03
2.211444330867377676e-03
1.110141183622805365e-03
-1.117932936371077981e-03
-4.644698176085156928e-03
-3.621742023736585457e-03
-2.277004921480051559e-03
-6.097873491066741272e-03
-5.501215720852297613e-04
9.543700987769269603e-03
6.574635405476546984e-03
8.040010649145117429e-04
9.607042756187808867e-04
1.876625933100579263e-03
1.488485867140518139e-03
-7.161390351392736206e-04
-1.201944552056877355e-03
1.481279622957712384e-04
-2.998084198432440870e-03
-6.298769320632085188e-03
-1.467423809194537800e-03
4.024801234767832504e-03
3.965082005930486986e-03
3.579406739345921979e-03
9.526416698032656423e-04
-1.996519435388427986e-03
1.057846287417192675e-05
9.389054462353648182e-04
1.620123415758925991e-03
1.059186690834594546e-03
-3.978634206920118183e-03
-3.865720966578198130e-03
-1.829363743036975997e-03
-2.927840902360827682e-03
-6.090895740974101771e-04
8.157334991784326566e-04
4.016979154033127348e-05
5.305313363331338626e-04
-6.356830557720015516e-04
1.170129677587745086e-04
3.963965834987085400e-03
2.877301342498920361e-03
-1.561030012070207824e-03
-6.032363629771947920e-04
8.321131025788458015e-04
-1.124880218657130790e-03
4.016156845254048070e-04
-2.781199666113057115e-04
-2.692356948242072886e-03
1.684038190349623548e-03
1.320352669185828826e-03
-3.422369154790696078e-03
-1.770430050140975710e-03
-1.319962928278749703e-03
-1.197725257759503373e-03
2.604449336275408127e-03
2.581536430462665239e-03
-7.870700962973617518e-04
-4.807824370504038512e-03
-5.467125273505673601e-03
2.052528615721417073e-03
5.745944852879406213e-03
3.989549492392825843e-04
-1.682839645920917006e-03
-1.470754079229047049e-03
-2.044098757578976817e-03
8.041220741685090045e-04
1.722412435466046674e-03
5.705547866147218450e-04
1.252689723308728856e-03
4.373239533966180419e-04
-2.765650744970384132e-04
-1.340387509797237586e-03
-3.569053544559732793e-03
4.105472757190330385e-04
7.357219061167344538e-03
7.280494301931950997e-03
2.944335783635687771e-03
1.585013218145087197e-03
4.079624598588118753e-03
6.342764770459542387e-03
4.866169867640076155e-03
1.614351566188396711e-03
-1.420965226135476175e-03
-3.855542407574634629e-03
-4.137760254393149650e-03
-2.478645626476036219e-03
1.836043729051118831e-03
2.020759788035640658e-03
-2.789234009153728801e-03
2.980437726941505532e-03
-6.315926012491732177e-04
-2.347165182555130750e-02
-1.836566146737005426e-02
5.609985925864463714e-03
7.741124683158327920e-03
2.731334046166468410e-03
-2.196676775806104091e-03
-6.627612623745784796e-03
-3.673904758113466073e-03
-1.666417338488063215e-03
-2.544503173101815259e-04
-2.545035056475243064e-03
-3.256410479421198868e-03
4.493553601546993598e-03
3.907632217316808071e-03
4.841927430409669920e-03
1.274610918947483365e-02
7.584846563584319093e-03
1.948792812554063069e-03
1.212948121260089144e-03
-5.161396589453315538e-03
-6.026053706523773479e-03
-1.457813923223992992e-03
5.747340164115466313e-04
1.984474457171796474e-03
1.824067493564684094e-03
1.648890440814960350e-03
1.467491400139521581e-03
-1.468492121929096004e-03
-7.347828587843907274e-04
4.712369185056116370e-03
4.083198843161839516e-03
-1.909093292121819951e-03
-2.150433183208601273e-03
2.856088730657796969e-03
4.068161050278141719e-03
2.659558250174248739e-03
3.141430063056613060e-03
-3.966965632519238189e-04
-5.226138214697411723e-03
-3.260433492811777578e-03
-7.564311713489095708e-04
-2.028482427222061510e-04
-4.988883557047931600e-04
-1.227879543419773452e-03
2.921873650553201765e-03
4.455959352349861749e-03
-1.392495059498094490e-03
-3.869128469231920137e-03
-1.952331124177215244e-03
-2.702242247035152958e-04
7.061169591960826013e-04
-2.512369261375083877e-03
-8.615751489001843844e-03
-8.228083472439119694e-03
-4.719659234946742797e-03
-8.050677857685182431e-03
-9.949954328343864687e-03
-5.232864380453225613e-03
6.457109550362980606e-04
4.588626708970776347e-03
2.338818834171784485e-03
3.484714425800455959e-03
1.113571553450793360e-02
1.197521335012631007e-02
9.682711963578770689e-03
4.675369246458780000e-03
-3.123729136678419019e-03
-6.885053765865444550e-04
3.481713227832691510e-03
1.316344684086847715e-04
-9.165397287518526606e-04
1.521543125252843021e-03
1.793527653373980842e-03
1.618520465046885360e-03
2.795531959302446912e-03
3.241640477939095044e-06
-2.776270632906020948e-03
6.147019581621169723e-04
-5.251601774557537522e-04
-6.080783227996126514e-03
-5.155640645705088752e-03
-2.425581294254368706e-03
-1.923337946451927688e-03
1.520703537299257155e-03
5.918924451058849880e-03
3.924227998066815576e-03
-9.297053712839348748e-04
-1.018754935580790544e-03
8.353721120943411035e-04
1.181329964907943536e-03
1.212433476867872187e-03
1.094108204207662385e-03
3.336788111490515858e-04
-7.949191395008047304e-04
-2.323812121657498932e-03
-3.450074381562236257e-03
-2.031204357663974388e-03
-1.909038845468765799e-03
-3.665962177083587417e-03
-4.397440363785553837e-04
3.566441348455877056e-03
2.499706469724175331e-03
-1.253196901820532137e-03
-4.915602559383508083e-03
-6.046773400468801428e-03
-6.826883756534577775e-03
-7.088213533358435001e-03
-4.580698724400280447e-03
-8.604032730932635337e-04
3.280689990447056663e-03
4.240243797909111489e-03
6.268798730709106842e-03
1.040932968172530657e-02
5.870341034887384055e-03
2.284811230778774002e-03
3.854983857158888767e-03
-1.916284631837936766e-05
1.264287041660220419e-03
5.039966858691278563e-03
-1.562495423262459052e-03
-6.340940985686964113e-03
-2.636972422075424538e-03
4.283007017517422542e-03
6.204019906826049001e-03
2.446389890041165971e-04
-3.800162168159939256e-04
6.759756736626312042e-04
-3.205259321090951803e-03
-1.026423572562679555e-04
3.518890924861181341e-03
2.843613024447363882e-03
2.833972358267212912e-03
-3.098124982605112571e-03
-5.364838749442955856e-03
-1.621237023934543999e-04
7.305309177648602165e-05
-1.761754255498734290e-04
-1.088704886660137039e-03
-5.102404277425938613e-03
-5.972290779601462270e-03
-4.494877551761549198e-03
-1.606849628320692171e-03
-9.993703788127342950e-04
-1.474943514527071384e-03
1.372286483383044001e-03
3.165940396969061689e-03
3.906704025763180210e-03
2.241618615768048656e-04
-4.319919337320672452e-03
-1.862313614267921674e-03
-1.616527459950790977e-03
-2.569786058609299824e-03
-2.404290786736912496e-03
-2.745703318867363015e-03
2.394734275693041672e-03
3.482641953829808835e-03
1.823036336154741080e-03
4.778764266414039716e-03
1.189795206834894916e-03
-2.382213412209065705e-03
1.364142930309748770e-03
4.395440087945593106e-03
7.215385167318028731e-03
9.340786445491877990e-03
7.644402936708165688e-03
3.580720240666350907e-03
3.911002435865189222e-04
-1.917926070645120749e-03
-4.071675936748470753e-03
-2.241950764766600240e-03
5.434636098351699899e-04
3.336451955795212551e-04
-5.276700194202739230e-04
-2.106937021996995504e-03
-4.402163773707164912e-03
-7.259988338417688175e-03
-7.415329437867814941e-03
-4.210145514456051750e-03
-4.901534844357996641e-03
-6.301359379825962649e-03
-6.050560891122434923e-04
5.837734404623189793e-03
5.295588534797673538e-03
3.996114570331615531e-03
6.166075788668553236e-03
4.661375663529590367e-03
1.396141727128998446e-04
-2.618898808330495567e-03
-3.416135686730363812e-03
-2.802575133790582203e-03
-3.413072318355476597e-03
-2.564778954579284738e-03
3.606471295033098412e-04
4.364382961318280171e-03
1.112281429866599641e-02
1.098196590842594016e-02
4.605666217124870614e-03
4.174315213418127411e-03
4.816146030081250307e-03
5.263825969518494321e-04
-4.902817507820367640e-03
-1.158428998045640118e-02
-2.164854409198218796e-02
-2.230067324406873747e-02
-6.733961915337809134e-03
3.382743851402874972e-03
5.736297703709691657e-03
1.097256974583647737e-02
8.616241902706356023e-03
4.189574844636078689e-03
5.098872028022986662e-03
3.754537350040063840e-03
3.136980390442068150e-03
2.068620962518294849e-03
-1.549983236755101204e-03
-3.596145124080305303e-03
-4.841904379537659286e-03
-4.812192840853777957e-03
-4.876910163187675971e-03
-3.932964101662978981e-03
1.612924459868817298e-04
2.734040660035848974e-03
5.783183304847493503e-03
1.006388883161996560e-02
8.285788616427990777e-03
3.778548037857291583e-03
2.378171592665173553e-03
-1.323713675383577639e-03
-4.090880635630347699e-03
5.906481379518888856e-04
1.144723340342491871e-03
-3.491774935120385646e-03
-3.887175760595274789e-03
-5.746804093503565455e-03
-6.555352775739109635e-03
-5.076289592482120978e-04
5.295808637992473894e-03
6.641591599827292511e-03
2.659052308872048888e-03
-2.577258099763102533e-03
-4.836472013140247217e-03
-4.028689224829716704e-03
-2.894126730970657279e-04
1.925250570554811391e-05
-3.239910585947938532e-03
-4.240047738457913135e-03
-3.600783084886252736e-03
-3.291917664712158687e-03
-2.384207063388478227e-03
3.986289165324825509e-03
7.124027578298186905e-03
1.227810065477947523e-04
-5.461414554588724817e-05
5.506613642354879837e-03
4.357526294303908955e-03
3.316043541734023381e-03
4.303524847714229953e-03
2.705940322041953863e-03
-3.733751394961221277e-04
-1.523283304446574346e-03
-3.803085163804046601e-03
-7.939470250013690861e-03
-3.629794194901147294e-03
3.661555913962481583e-03
5.013409436241186325e-03
3.913688500168675810e-03
-1.207245078875384542e-03
-5.440873741012463780e-03
-5.943308726796527053e-03
-4.555598979856503340e-03
-2.503816862415649707e-04
-3.794856806176475934e-03
-8.805087458770429268e-03
-1.917201948777581561e-03
3.528978395122363970e-03
2.457818801250799719e-03
2.348717733026638686e-03
3.770006363979643092e-03
4.551915235567400783e-03
3.311354831000096720e-03
2.506312644617517474e-03
3.495640977405813782e-03
6.821166778596316795e-03
7.363586612377424900e-03
2.771822360754704929e-03
1.572387623947984602e-03
-1.802952217945146549e-03
-7.373900063084372000e-03
-3.986055086263487306e-03
-1.202445639068378197e-03
-1.081176884455226170e-03
1.317246212469047346e-03
-1.364407330881935556e-03
-2.793949630140023059e-03
2.068062902602163002e-03
3.697890927380933883e-03
2.755266892373834688e-03
5.116512627877725650e-03
7.612278563841941119e-03
6.104693929748841730e-03
1.747971029478541860e-03
-1.494243093425981928e-03
5.603195860527686919e-04
2.487941866389549103e-03
-1.717810180247621252e-03
-5.237735768622052597e-03
-9.706816378087004468e-03
-1.761626631511030092e-02
-1.824247506398940163e-02
-1.463800878320447967e-02
-1.475069976458802390e-02
-1.430003048130304433e-02
-1.078421225249600289e-02
-3.915676930037228533e-03
5.618479898802376284e-03
1.308369965776840817e-02
1.368652725413669127e-02
1.070177741361667302e-02
1.022478906173689486e-02
8.830247951414715510e-03
7.029422630808209067e-03
8.590652981189253815e-03
6.826101435349486712e-03
1.340861393449169344e-03
