5.497677473578403348e-03
8.581048558853759251e-03
6.891873892801207713e-03
6.998345395896508718e-03
2.216762371931112804e-03
-2.359645586168510056e-03
-3.248716433888222243e-03
-3.620210520010067132e-03
-4.108865875475354278e-03
-5.352416220950345291e-03
-4.355538644857695832e-03
1.210896918143533792e-03
4.230743987239013112e-03
2.259625162199530198e-03
4.547607122498877746e-03
7.059314642739480256e-03
3.690820028457823376e-03
3.081523017176806926e-03
3.866901570574287749e-03
2.354605781822298374e-03
7.388818284744594345e-04
-1.361923960875419939e-03
-2.702749097630948415e-03
-5.569845063985226323e-03
-7.531613425196177249e-03
-8.575200468779443919e-03
-1.059243483837393925e-02
-4.655434067914175113e-03
1.997612146529366070e-03
3.636260355615865848e-03
6.269532459071528591e-03
5.256960819311464785e-03
5.762257907707029995e-03
3.961592154474120886e-03
-4.578908969759933403e-03
-1.130291645319393690e-03
6.473847161479006837e-03
4.028703674527542994e-03
-8.262545858540674146e-04
-4.414579412229229990e-03
-1.565371433225744638e-03
2.528592309291323101e-03
1.348127073612899159e-03
3.555955223477056271e-03
4.830742470276437432e-03
-4.306593674698644446e-04
-3.204826822983678630e-03
-2.954335164791272849e-03
-7.287395974253204484e-03
-9.985281333414785729e-03
-4.741691970764789869e-03
-2.664993491916398290e-03
-1.338557780817265863e-03
3.523544590973112442e-03
-2.743412541457964976e-05
-5.482821431327979111e-04
6.413112051511926127e-03
3.094561022700466086e-03
-7.442725661021784046e-04
1.550553023232107298e-03
-9.951644007567821311e-04
-2.488929773273674227e-03
3.367756012886087991e-03
8.998146236959294469e-03
5.545566078828810704e-03
-3.683187964417362036e-04
2.202394865649546282e-03
2.293442363807536750e-03
-3.702151872954515845e-03
-3.621921642808678416e-03
-1.282263643905428175e-03
-8.663854192196669083e-04
-4.119602175809279989e-04
-1.945974754818401630e-03
-5.730756342514353729e-04
2.956101392711426353e-03
-2.192608113265659734e-04
-5.257478103196246144e-03
-3.224696444335307683e-03
4.603143389526748717e-04
-1.995889168166774166e-03
-5.120402647156104339e-03
-1.748126342776918632e-03
4.590102454223357262e-03
7.153318581298899297e-03
3.745202102486688833e-03
-2.138949369788875534e-03
-3.930857801746450754e-03
-7.544351592552536474e-04
6.149893961640631734e-04
2.355877884462250545e-03
6.212902089975910584e-03
2.608943685650637681e-03
1.054673540297283805e-03
5.592228468906077464e-03
-7.395561100241030740e-05
-4.334917647882961453e-03
-2.296771575279822012e-03
-4.262189341027343079e-03
-7.002125075702545680e-04
-3.031621897995244105e-03
-1.281977220547188441e-02
-5.784164335317392401e-03
3.615455450582815474e-03
3.249060431213647918e-03
2.936864441615648965e-03
-1.896025851073714942e-03
-5.834006310836782616e-03
-3.761107817359114064e-03
-1.169827293829725110e-03
1.784221025766575186e-03
1.199949071880152289e-03
1.743484895814529983e-03
5.462408157299667409e-03
2.525436110379936788e-03
8.422896229915980597e-04
5.487601516989119854e-03
6.777480398309468530e-03
3.281809227865461857e-03
-5.683262209760798480e-04
1.320691934167762815e-03
2.966756089543014577e-03
8.717426447880581542e-05
2.139188652955439050e-03
2.971748316805396771e-03
4.224918149130056644e-03
7.937519978165210807e-03
-1.731803991360369305e-03
-6.910714699927055643e-03
2.103329184201421613e-03
5.029375838960848701e-03
2.143532055573042772e-03
-9.678520040275086569e-03
-1.815272678326081482e-02
-8.519575727863689177e-03
-8.518505551894943809e-03
-1.556756042645011766e-02
-7.693448039938432202e-03
2.316995059873984755e-03
5.450199738667642867e-03
1.412657282477710816e-03
-2.873423929042652654e-03
1.660784543369267334e-03
6.699555875367643222e-03
5.484057721409358113e-03
5.947369373016990436e-04
-1.261975615726300274e-03
-4.356946894729536984e-04
-3.721423258341215136e-04
5.973400751800990623e-03
1.233837110431399049e-02
9.506121352714036118e-03
4.336337410082112369e-03
-1.159114112985904421e-03
-2.940647759682194981e-03
2.940780359929889756e-03
5.270551033458791348e-03
4.813394147605185806e-05
-2.064852214451849775e-03
-9.700193205500775000e-04
-3.548798360088014671e-03
-4.173417355464696318e-03
-1.729485787726355072e-03
-1.296179049198528882e-03
-1.416829173321470983e-03
-4.429329950808437270e-03
-6.318794182480394483e-03
-5.938636678245724082e-03
-1.020651728404166868e-02
-6.971231979873915123e-03
3.975784445335179759e-03
7.395421490848068033e-03
7.903406738921174221e-03
4.756477370610964935e-03
-6.366105588831795547e-04
4.585520859597216371e-03
8.071985164087500803e-03
2.361351130095240385e-03
2.885471622971311819e-03
4.426733322580067229e-03
-2.001508632519726199e-03
-4.518818388041663872e-03
-2.202327083667441482e-03
-2.650889665166706894e-03
9.458148647006668717e-04
8.434417689776910546e-03
3.945228543736700039e-03
-1.410178766106995503e-02
-2.113795808077587393e-02
-5.149768471665141720e-03
7.552231855451909358e-03
4.303547535671964699e-03
3.742360323846178304e-03
4.453642110314640946e-03
-1.601807446943651157e-03
-4.454636905327782892e-03
-4.111410204550825301e-03
-4.642014396538577878e-03
-2.033746057020687555e-03
2.332164831419406264e-03
5.480852128930390268e-03
5.148144710956798105e-03
1.561495039727805664e-03
1.867518763591432792e-03
3.687305454220735773e-03
8.867294328335944328e-04
-6.532515346957137685e-05
1.839055845341389149e-04
-4.359757085446481183e-03
-6.149938808961625744e-03
1.067333495953909486e-04
6.481879978872875404e-03
4.138538321743768546e-03
-4.027152681725241351e-03
-8.305095246761927050e-03
-6.592980720945716341e-03
-1.626000685126183926e-03
1.161778456997363375e-03
1.987400222704361740e-03
5.274195395653354448e-03
2.301252357337428035e-03
-1.345081243955852839e-03
4.773019288566353845e-03
4.411171192876184831e-03
1.949545121493305444e-03
6.766254650053576264e-03
4.111856177082449937e-03
9.396970523568667520e-04
5.569401641790233670e-04
-3.649764914591941897e-03
-1.065089931811822981e-03
3.587988667338776107e-03
4.494494371796107710e-03
9.863003885204554583e-04
-9.212577896653683165e-03
-8.812186176329674450e-03
-2.016047176306599506e-03
-3.169170582606958136e-03
-1.342988848915840873e-04
2.373067049557394076e-04
-9.300877080644648007e-03
-1.053317353105807756e-02
-3.887068756946649058e-03
-2.968149928560967488e-03
-5.358077002126602865e-03
-3.165116471267850201e-03
1.807040532433964314e-03
5.143719844514079050e-03
6.290142390093433553e-03
5.291415934379184102e-03
4.425010086027757021e-03
4.175471836808671011e-03
5.037791958071025956e-03
5.981170255299752755e-03
1.590663523910465765e-03
-2.287772479786313092e-03
-1.472128544211409942e-03
-2.431027267029562517e-04
4.374167027728614529e-03
7.644498295808997528e-03
4.824890785786358806e-03
1.144877775015374450e-03
-2.016371887545075504e-03
-3.983637672262858062e-04
1.827129201872984077e-03
-2.918750021233265050e-03
-4.470552166578997157e-03
-1.599289717988027588e-03
-2.208989301153156410e-03
-2.946327815894990345e-03
-9.723522492867930347e-04
9.773135734296948401e-04
-7.459393817473190195e-04
-2.625871859794526482e-03
-2.197275782315617505e-03
-5.220829292791799234e-03
-5.630667588694813173e-03
-8.697105413477561114e-04
2.307013920812061702e-03
8.001117058237482843e-03
8.617616435139582171e-03
-4.865079599600529185e-04
-3.897672564335105585e-03
-4.882253153338803921e-03
-6.466104407371618505e-03
-1.972037469412631701e-04
3.374919946009602781e-03
9.527372391890756055e-04
-7.128756249013195679e-04
-4.856988955286997527e-03
-5.228825613999146978e-03
1.734796794442200647e-03
5.996749491406237753e-03
4.808673214468380842e-03
6.173405794048906787e-04
-1.013955197755079434e-03
2.420396544636939287e-03
2.550991129097759241e-03
1.470654322578507150e-03
3.107148887995659324e-03
-1.268800789427822857e-03
-4.445062223843092991e-03
6.176850086511650496e-04
1.541768704951265766e-03
2.255879817883511048e-03
7.412335953834397681e-03
4.852901323717340870e-03
-1.991146367777099201e-03
-3.177482322412630584e-03
2.543527964692455709e-05
4.723788785069004412e-04
-3.528736941685849289e-03
-1.306428159723634162e-03
2.774932978883857572e-03
-1.901841561613529154e-03
-6.054525337793229857e-03
-5.463514033017841977e-03
-2.231552005656857723e-03
1.879729833800834055e-03
5.912245839684843575e-04
-4.683130307418510545e-03
-8.728057349717833688e-03
-5.152411414924357863e-03
2.856519955854182769e-03
3.540814337567598207e-03
3.113129959850399319e-03
6.070968600143994767e-03
5.240828289534739393e-03
1.237685897738169047e-03
-6.995458500830758564e-04
2.781381808320145498e-03
4.043225425551494334e-03
8.734352940002905723e-04
1.217279558761084858e-03
1.853360898458959434e-03
1.777310785673981430e-03
-1.130739807857498091e-03
-6.371866682905214484e-03
-3.100732870901214567e-03
3.448384327139950413e-04
-2.163671133299354885e-03
-2.735534400108782880e-03
-1.232126619768470106e-03
1.257171462449585423e-03
1.104824976914654767e-03
1.762921019537131220e-03
3.355357713508457830e-03
-7.979709584148625065e-04
-1.893456016968532874e-03
-1.985252486816035250e-03
-8.214572591771581887e-04
7.933604805841178859e-03
7.663004783877020755e-03
-4.399110107817360421e-04
-4.168205615786959098e-03
-4.129313489010625303e-03
-1.440553765383413998e-03
-2.379050293263531689e-03
-2.733387784546245560e-03
-9.354528624707801523e-04
3.038033176474554467e-03
9.169964299322673484e-03
8.785452850890298560e-04
-5.742048365497266597e-03
2.796956208004530340e-04
-1.481982576524799107e-04
5.670208370258206189e-04
-6.432989448148552190e-03
-1.770212400379461704e-02
-7.640175433866062786e-03
-1.131946046045271431e-04
2.421678002447067097e-04
6.490028305903152751e-03
6.763150233496057449e-03
5.587427603177961416e-03
1.028571047183212458e-03
-4.126529695832228083e-03
1.088406800520639890e-03
4.567672899782381467e-03
4.190327109114748254e-03
2.978675491330246092e-03
5.876808536950372261e-04
5.563295201093916911e-04
2.049114769641317412e-04
6.858135355256859316e-04
8.681868391628284843e-04
5.506132035253747574e-04
1.300500413212680225e-03
6.602240183996938233e-04
1.118655488491699648e-03
6.610753065999359869e-04
2.317968913045530353e-03
2.636453724584049418e-03
-3.527764052864644159e-03
8.822858297876952751e-04
2.408495120347192361e-03
-6.721222086785156972e-03
-1.699547637415794012e-03
2.619338192829967406e-03
-3.789880239655437667e-04
-2.633255991977163750e-03
-1.010095553910698649e-02
-5.500976537166530310e-03
1.417506702782648067e-03
-2.555738237698269161e-03
2.094644459642679818e-04
-4.534535430472248470e-04
-2.328515898620266492e-03
2.961251720776573223e-03
7.916645510614281258e-04
-1.993818753061639155e-04
2.268116235665612601e-03
2.187761115021367303e-03
3.689859989202887332e-03
-1.660312945552148240e-03
-9.070914753523708074e-03
-8.927732984787184814e-03
-5.100774763317993642e-03
1.582177788587558033e-03
7.143065974228213384e-03
9.005118208295024781e-03
6.952806987981153229e-03
2.167254041840736140e-03
8.208544340106009888e-04
3.889589917685445149e-03
4.588077770114440401e-03
-3.081206532150255247e-03
-6.094324516314292457e-03
-6.046797960257646208e-04
-1.607575692633053102e-03
2.269907828034014446e-03
8.491056996652446634e-03
2.812380276680116059e-03
1.592101870158290321e-03
-1.040334837547289299e-03
-7.565664535192554926e-03
-2.920129067597859208e-03
-1.307251694910460281e-03
-3.140471314649233032e-03
-1.044215690978204806e-03
-2.876530511775193377e-03
-5.237183297783960106e-03
-2.542806340465193250e-03
5.997899145751831723e-03
7.091844387427496260e-03
-2.522598161705248178e-03
-2.664803126602879532e-03
3.505154291634419647e-03
4.166057313795477370e-03
-1.155214575376721205e-03
-8.517466512988404806e-03
-5.606604501639917380e-03
2.776552253733901784e-03
2.907539746802864991e-03
-6.269433198324163336e-04
6.790259900788795430e-04
6.785730378663947220e-04
-3.018244841063113474e-03
2.388575464112981540e-03
6.800983344294180000e-03
1.213095298356783695e-03
1.158588173992596048e-03
1.700725096831481138e-03
-6.304741217540373076e-04
-1.879490937976005180e-03
-5.551409823953639029e-03
-2.774558832488871560e-03
2.145382484239806171e-03
2.219280551564613117e-03
4.425058028595040775e-04
-3.895844496053252597e-03
-2.116943051795136359e-03
1.597457960906435194e-03
2.316314195456173688e-03
4.302654936285435841e-03
-8.819020812343902546e-04
-5.433170876772887986e-03
-3.032908600683192381e-03
6.623933850586082072e-04
5.534337806990778305e-03
9.944965784681025073e-04
-4.075172615712142031e-03
4.130487850301834980e-04
4.460399582052283957e-04
9.718460855214233361e-04
6.685864960210096894e-03
8.910223308841877521e-03
2.993108717016440979e-03
-6.670348755790233772e-03
-6.416195418421635419e-03
-3.134225834899487251e-03
-7.946554606062301461e-04
7.543663647287972285e-03
6.507270756647421696e-03
-2.220340183407977074e-03
-5.722962021610406014e-03
-5.891220333828026817e-03
-2.494844496759807736e-03
-3.540781227096376216e-03
-2.843786047884207940e-03
4.990869080787538326e-03
1.527844339280003605e-03
-4.359380845329783975e-03
-2.883428699824522497e-03
-2.878160661474632714e-03
5.176758449018931249e-04
3.161183143954901086e-03
7.670978445528103947e-04
-1.355763289143193610e-03
-2.217659125995201982e-03
-6.777936948572138619e-04
-1.040831931694016083e-03
1.096346084846970808e-03
7.390715611864542497e-03
6.292895892111559711e-03
4.266393590392116540e-03
3.951817122538098422e-03
-1.726194418959003463e-03
-4.670959954042123649e-03
-3.096482916915558898e-03
-3.038651722649970965e-03
-3.181372814996692115e-03
-1.555155933054263966e-03
2.242134912294997749e-04
3.463463690977610591e-03
7.504115463338558931e-03
5.346085805871475874e-03
1.177807483531704159e-03
-2.685325026952531044e-03
-6.304189977447292349e-03
-4.042864389825447167e-04
5.621929723641433570e-03
7.150588673252199039e-03
8.267814180707018859e-03
-1.379679205646904374e-04
-6.819960172240594962e-03
-7.038938686800512087e-03
-6.282577718618677712e-03
1.673257769798661056e-03
2.131090345145185850e-03
-3.888390492172294488e-03
-4.471425659825792320e-03
-8.231288846903706685e-03
-6.419687741799431219e-03
-5.047945574882988298e-04
-2.879252679072433923e-04
1.917170451788224612e-03
2.394124534667222033e-03
4.891708024051381366e-04
-1.688802832611097354e-03
-3.297149833142669090e-03
2.704985712168797921e-03
7.997371215319721768e-03
6.353690105634734846e-03
1.728230570101574977e-03
-3.386404935447464258e-03
-5.553487126213280459e-03
-3.943986903231447988e-03
3.315597878076622686e-03
7.032526957211459283e-03
2.039612886192530058e-03
1.140884530139194258e-03
3.886096753602924763e-03
8.678366620455948630e-03
1.241218018475978742e-02
1.023065396362118559e-03
-1.611891710904358316e-02
-1.820955590525791257e-02
-5.557558124872978914e-03
1.088699560382077594e-03
-3.753842345413422547e-03
-7.279246169838402307e-04
6.497999045620843003e-03
6.460857715884940275e-03
2.821153864464575299e-03
-3.952083347723981017e-03
-6.018126057513823943e-03
-4.246132739931533263e-03
-1.960463593041540751e-03
6.508475696818402136e-03
6.799709300863219889e-03
-8.781670320888297588e-04
-8.643194326609420159e-04
4.608298895335428014e-04
2.017660620698631928e-03
4.572151513416837683e-03
2.851380958145293722e-03
8.129365670127334208e-04
-6.676967925163798450e-04
-4.232600097741325766e-04
3.323719419713100365e-03
4.503551580238391791e-03
1.345998548648532581e-03
-2.356124115945464840e-04
6.116884644767159752e-04
-2.673541712621930848e-03
-7.011251389022538603e-03
-7.282414300511639953e-03
-5.986860306148346356e-03
-4.061299820102012652e-04
2.721777476673183441e-03
-1.879428307726536138e-03
-1.921036948708095037e-03
2.603593969302860490e-04
-1.383157161336319397e-03
-2.487444745941180899e-04
6.050231293494812103e-04
-3.123063928644574574e-03
-6.484718095791239950e-03
-7.879378198238945474e-03
-9.064591617765484916e-03
-3.808657881986682921e-03
8.026027315361556128e-03
1.142631815454458154e-02
6.664902617706859080e-03
2.772981030338789090e-03
1.422231876000317244e-04
7.893135253090113879e-04
-1.589302761312568011e-03
-4.712025187850917007e-03
2.421124489078125414e-03
9.168970642980332417e-03
8.872185013762993663e-03
5.760775517386190411e-03
8.694723887447777279e-04
-4.109216802067901090e-04
3.294727525802870760e-03
4.809355711825734174e-03
-2.976659511176270572e-03
-7.874758355273304630e-03
-1.074478215491152721e-03
9.549616062244031085e-05
-1.015948514867181032e-03
3.947336232969400789e-03
4.344230973020010191e-03
1.151164644691028086e-03
-5.892889167571851473e-03
-7.571077077737400560e-03
5.480498788116134300e-04
-2.692278233182990917e-03
-7.129821971552196928e-03
-4.204738927289538089e-03
-8.594426805580116999e-03
-6.918602967675166818e-03
-1.455184711816639911e-03
-4.707082589515696261e-03
3.636783501211041298e-04
8.613070055701652072e-03
5.115021763681996958e-03
3.339019544513236078e-03
4.079481299088516359e-03
-2.034941971149434488e-03
-1.097165881385053689e-03
7.422809284545922245e-03
6.070563932471690315e-03
-3.608472199108491568e-04
-5.594253013776502928e-03
-6.058826918607132864e-03
2.818484380492664726e-03
3.956631013008286672e-03
-6.012427214910781321e-04
4.196789710805658505e-03
2.623755119121433388e-03
-4.949651411906266264e-03
-1.784905441120591919e-03
3.338141658640650031e-03
1.369186424807409186e-03
3.614115508008281918e-04
3.740135323992901852e-03
7.249622821618330716e-04
-6.217574047766241500e-03
-1.759991940473216694e-03
4.574568106273933440e-03
1.658755231868362439e-03
-1.749280080034416570e-03
-5.666243970004983081e-03
-8.896921079766402160e-03
-3.483775806354730536e-03
2.513797486423545446e-03
2.622901040356106876e-03
4.097623950738897222e-03
5.252984047596286760e-03
1.099944844992855686e-03
9.414773359869074839e-04
5.843503325234426088e-03
3.123035863460708449e-03
-1.184834148866654308e-03
-7.384933756031753036e-04
-5.572709249992657127e-03
-7.226223408140397715e-03
-6.740753870560128912e-04
7.251710699958822861e-04
1.585191354213263872e-03
3.774953036288363969e-03
-3.092624256239764739e-04
-4.949856514972906206e-03
-5.097482923787902478e-03
6.346476871852088663e-06
2.707773091940883850e-03
-4.986513977484391315e-04
6.350866765763489661e-04
-1.715168945142124708e-03
-1.049965703082263516e-02
-9.585539848701073520e-03
-4.418907136010538032e-04
6.507608839094217515e-03
6.790860412024713952e-03
4.670464619157821407e-03
4.931666449281510781e-03
3.435376466404433272e-03
2.781960298092933572e-03
2.737067309807180923e-03
1.743950102414227460e-03
2.749005311929236459e-03
-1.304016239206492577e-03
-4.203146150690568149e-03
5.608122260918189288e-04
8.005027809614619766e-04
9.440514869341504493e-04
3.816559920497360377e-03
3.429722450723601736e-04
-3.526574062867879941e-03
-6.460307281914112916e-03
-7.755757251912420887e-03
-1.723742728112487299e-03
4.341751044817677161e-04
-2.371293516777180522e-03
-1.645842466010689247e-03
-2.778164815985652378e-03
-1.051363543700506095e-03
3.332797659754140832e-03
3.771944542235005759e-04
3.980963062956392745e-05
4.243670806490037681e-03
4.728676271379694991e-03
3.351807811640926393e-03
-1.095200505288052885e-03
-3.878683577682773102e-03
-3.848252322427299734e-04
5.223924788965880056e-03
1.033165058344063213e-02
6.739832228418318402e-03
-2.018480015890569256e-03
-1.654456831790410967e-03
1.563395999550898623e-03
5.959874861730433092e-04
1.915765696742989738e-03
2.172608983521859792e-03
-3.743675837649094312e-03
-1.034251988123265076e-02
-1.426537344944179588e-02
-9.886653195211208764e-03
4.203459416940810321e-04
7.491632692425057418e-04
-6.996256545949087113e-04
4.147498914295683764e-03
3.972451812242949656e-04
-5.028107147367145806e-03
-3.264802810986507358e-03
-1.614263076943513089e-03
1.594261851753494587e-03
2.517043609936399622e-03
-1.176694789666391921e-04
2.756961441757287048e-03
5.489991268000712389e-03
2.626069641009196216e-03
3.300909452229485938e-03
6.398794045766017027e-03
2.254212072733841315e-03
-1.987264956919520924e-03
-1.264852060497126092e-03
-1.516876580012677328e-03
1.453761775671397801e-03
5.037637658532243684e-03
4.122770445774854957e-03
3.228193703023900674e-03
-1.124206125891215845e-04
-1.089050627332726609e-03
5.546958965731531906e-05
-5.288149675497941238e-03
-4.167726171368154979e-03
1.043852747186093440e-03
-2.052430757927040626e-03
-1.149534801215069350e-03
6.526866749629258607e-05
-5.264969035642506727e-03
-4.650880176106905566e-03
-1.425986530929244109e-03
-5.364659983407473864e-04
2.038084966261869031e-03
2.869208957600357345e-03
2.065870857709878414e-03
1.216691282538154111e-03
-9.624472506998208842e-04
-3.455115411898231157e-03
-2.224182709103697097e-03
3.586313451524560190e-03
3.418237189645696901e-03
-4.141852910413170970e-04
1.845023499002621881e-03
5.626052359307593970e-04
-3.667495329379342594e-03
-2.728903247223919692e-03
-8.625688614988364332e-04
1.526642869368015224e-03
-7.069160380821745996e-04
-5.447652978910844622e-03
1.650511281789709310e-03
1.001727666830514070e-02
3.887604474145299645e-03
-5.199606873496400057e-03
-4.233347020297901532e-03
-3.346810022670296389e-04
-2.347762650454820522e-04
7.889397710622564732e-04
1.048480625190193957e-03
-1.962601292325104677e-03
-4.905432129250980947e-03
-7.999730749897874735e-03
-6.712166343127151137e-03
2.355191891269425419e-03
6.876683519079633197e-03
3.049742414449297615e-03
3.469322062497367902e-03
3.029572273461085281e-03
-2.956954502016875905e-03
6.988328489970540083e-04
5.476999927021173990e-03
-3.628893033992169382e-05
-2.712163931683849935e-03
4.879772519919007689e-04
5.584206853608534964e-03
6.639687427872622769e-03
5.632871288375055838e-03
9.246349327511187502e-03
3.539546549160367539e-03
-6.412710342653198635e-03
-4.955307556926371280e-03
-9.673092813689045935e-04
1.544209076276657354e-04
-3.147427035274709753e-03
-4.946745362234265808e-03
-5.422335337456476523e-04
4.532863212136314414e-04
-3.961265344671460915e-03
-9.887358059397017424e-03
-4.966451860105245038e-03
4.206200572609257102e-03
-2.892359144299837866e-03
-8.378393508619789987e-03
-2.560107949671838398e-03
3.899163361744108821e-03
6.613315087775645945e-03
9.020295771732726557e-04
7.412076719653752904e-05
2.467387658385597048e-03
-6.883861752555801546e-04
2.732256587843713558e-03
4.781551116262104315e-03
7.779891861804420295e-04
-2.139872705165437889e-03
-3.672884023996839196e-03
-3.630321415761901462e-05
1.627143167886869503e-03
6.529371454686281641e-04
2.620343316955015423e-03
4.961942472165503312e-03
5.743415380980234318e-03
1.131688879091692938e-03
-1.252751604182580133e-03
-4.649424712310932552e-03
-1.177878651990324835e-02
-3.677949835780316284e-03
4.668871177064983120e-03
5.963880527012441896e-04
-7.843508215655568610e-04
-3.883416023414035245e-03
-5.033731678017900127e-03
2.157730872571173800e-03
6.601308183746502564e-03
5.519873623453838696e-03
3.460688598564851722e-03
2.711648434073237520e-03
1.929112966884921924e-03
3.076965147902743520e-03
3.967253499597242494e-03
2.540284121892443913e-03
5.795026826008176785e-03
4.715275199087721678e-03
-2.187753181614436777e-03
-4.283226132952671662e-03
-5.781578005514698831e-03
-3.009087117957935653e-03
2.306826041896464265e-03
3.618220075265153601e-03
4.632526588477189379e-03
5.266137680925485565e-05
-5.979018784046804050e-03
-7.828192589734567913e-03
-5.962442827547503703e-03
1.618883980432273993e-03
1.461958466507200889e-03
-2.785446187472308526e-03
6.168719185806222213e-04
2.737876088384990931e-03
5.345679540767178314e-03
6.413586889157371629e-03
2.408983294111216242e-03
9.010944021830863838e-05
-5.016180839747649313e-03
-7.639034154685196351e-03
-4.571404536029751234e-03
-6.481883772247473349e-03
-4.550956460066313269e-03
4.345345911030046998e-03
2.350761148898609845e-03
-7.658040933392907743e-03
-7.286476118105955635e-03
-5.937168604873588763e-04
3.208321488008217259e-03
8.911746468801400381e-03
1.078352638919427044e-02
7.894399704584184260e-03
9.513809170746199972e-03
6.877094532378133160e-03
2.303685207412463701e-03
7.559859602775628393e-03
9.889064102368852471e-03
2.891002165149219542e-03
-1.911593834204298363e-03
-3.297618288421056126e-03
-5.958914377330104713e-03
-3.335194122606614624e-03
4.663953038564750547e-03
3.837134316969386359e-03
-3.065385837273582829e-03
-8.464222700384108761e-03
-1.326181962283156518e-02
-8.159265911215487360e-03
1.523752372904756298e-03
5.454535374964843836e-03
8.359001238591371938e-03
3.611609484931302579e-03
-5.685576251071308186e-03
-8.157430034947109679e-03
-1.007879624009930426e-02
-8.568094484474750305e-03
-3.439973695343351724e-03
-4.621556748618619107e-03
-3.190080786460298447e-03
4.635186017675800400e-03
9.758925366879552671e-03
1.172586159355116717e-02
2.945739846995164713e-03
-1.516654245648195801e-02
-1.672694133496727478e-02
5.913720330611603113e-04
1.835979214220635411e-02
3.022113807081530656e-02
2.766965204426873742e-02
1.110402489985307974e-02
-5.413674763491601802e-03
-2.073245513747061855e-02
-4.146662817171018617e-02
-5.485630149693750124e-02
-3.497165789674278741e-02
8.151373744338623675e-03
3.540480995970546330e-02
2.921430042006235503e-02
5.028447060210118266e-03
-6.763646207186457121e-03
-7.192614370467772730e-03
-5.695617250247764392e-04
3.030768951316257717e-02
6.236120581853187017e-02
7.820388235084337059e-02
7.320461700910395331e-02
2.558413812089294775e-02
-2.931091723100173393e-02
-5.354146507881129419e-02
-6.417572090175421851e-02
-7.556742031789086267e-02
-7.240284205400696060e-02
-2.395696558003351448e-02
3.202648483212355845e-02
2.104482634671449998e-02
-1.939380509216910228e-02
-1.725794563221559608e-02
-7.210205679289266242e-03
-9.348571618168885836e-03
1.260446225760722926e-02
8.620042673344399404e-04
-6.338027316056968341e-02
-1.059056828642717524e-01
-1.394156458708169788e-01
-1.495310931778513486e-01
-1.039693819343301684e-01
-1.323906341673071300e-02
1.532321372297769935e-01
2.975160251082724083e-01
2.965272503107681534e-01
2.087360143847004357e-01
1.092108272251153395e-01
-6.823356383090239691e-04
-8.647178026007354412e-02
-3.531303796214044222e-02
6.231878653453475775e-02
4.433096313394632032e-02
2.047976129918185895e-02
-4.228321567433271540e-03
-6.454025634238531872e-02
-9.654002615854555269e-02
-1.429855626071362129e-01
-5.006571164347952546e-02
1.438432972931835974e-01
1.081665015636509436e-01
-2.627328398848800296e-03
4.029128192677027681e-02
6.959981845769598607e-02
-6.662605201337157279e-02
-2.315535753225086979e-01
-2.823077879133510382e-01
-3.427271888901959884e-01
-2.936251300487056071e-01
-3.505066890344348679e-02
8.170460407688606708e-02
1.246126785242584467e-01
2.664525056860926888e-01
2.045844792901324039e-01
4.065155126102686090e-02
5.466182105492971288e-02
3.970471648502251621e-02
-3.522902222223743551e-02
5.478785385063979219e-02
1.565117163687158031e-01
6.110067803348152166e-02
-9.713039950399098010e-02
-1.381655767260712986e-01
-6.252353552493028488e-02
-2.996111293015631810e-02
-3.361009187215128341e-02
6.937751864740443475e-02
1.704586919382862220e-01
1.603735070956965325e-01
5.497964893514499518e-02
-5.515694416026672986e-02
-7.489731262093343722e-02
-1.233630772821864147e-01
-1.023265644016086301e-01
7.319152585046355408e-02
1.093015522545637275e-01
6.623106777854831373e-02
7.819376516851343772e-02
2.360828233862483777e-02
-2.143205908336420773e-02
-4.670161247074205990e-02
-9.432252917213805599e-02
-1.041083986349252977e-01
-8.788625421411934424e-02
-1.491394010544793737e-02
8.725758181241027867e-02
1.128125657249554187e-01
7.536319420276098302e-02
3.037934721870443749e-02
-2.955543985882968031e-02
-1.076348775297825550e-01
-1.422815128855454414e-01
-1.175326476707766327e-01
-3.433690171169400535e-02
7.977868037906896137e-02
8.725086753392902184e-02
-1.401437980023113525e-02
-9.930627001077865779e-02
-8.415414721038952384e-02
3.199515136191981302e-02
9.145868345051015591e-02
6.008290877773611594e-02
5.239457140652655637e-02
4.682983147663032780e-02
2.586792743183250615e-02
5.876375517794098051e-03
-3.675250680677904364e-02
-3.062269758380594536e-02
6.213342028287239388e-02
9.861444967118188076e-02
4.078969889082990213e-02
6.459341092185431552e-03
-2.775931865041098706e-02
-6.624446339391512617e-02
-3.642108312995604585e-02
-1.861384124166367421e-02
-3.793049797303523624e-02
-3.451144937448592798e-02
-2.561270614648690838e-02
-2.824999618823189479e-02
-3.920998060772577093e-02
-5.271987146692399227e-03
5.562041275966320142e-02
4.928949638448639620e-02
2.391448649084838493e-02
1.959976083835701655e-02
1.434885951108822236e-02
2.420132580932483901e-02
2.064452928256581277e-02
4.741367595112315134e-03
6.155514994457984661e-03
1.026713809936562541e-02
1.523664013625899462e-02
1.766358142733577205e-02
1.350655754034160196e-02
1.900094504697863755e-03
-1.235773231721812825e-02
-9.926708108019937846e-03
-4.395881277255835398e-03
-1.966914046977249076e-03
5.031567426061617221e-03
-4.184364139688056573e-03
-2.020447678618702766e-02
-2.134651019982560308e-02
-1.806089121297200367e-02
-1.702172086383007751e-02
-2.099602792222805131e-02
-2.494253874974669202e-02
-1.769740676480328206e-02
-1.167517578109408469e-02
-1.267173189614302815e-02
-7.843878861473713854e-03
-3.297263807223265591e-03
-6.677756068293067351e-03
-5.657599162444714065e-03
6.198471224301274271e-03
1.850070002221075247e-02
2.084661477974252344e-02
1.858122773038434553e-02
1.914461941401076131e-02
1.738036163360783329e-02
9.054921141589830635e-03
-7.857080122824081428e-04
-5.639942957380490209e-03
-3.062473781277512755e-03
-3.781264573410707264e-04
-4.793329601615027580e-03
-5.427432437780771099e-03
-3.254521541110421898e-03
-6.743285285565606656e-03
1.088277132867186128e-03
1.375967191909015404e-02
1.837950421342517474e-02
2.660291930562877841e-02
2.382945789696609695e-02
9.127179691756573052e-03
-2.061144493386196912e-03
-1.633436968631361147e-02
-1.545232523605403856e-02
2.871496750100288597e-03
6.053226262832729632e-03
-1.515549601684275903e-03
-4.451052959114405565e-03
-5.813683655382654442e-03
-1.948342642002574626e-03
5.038089287358933459e-03
3.701261429759364341e-03
5.535433402907143172e-04
-1.972268323752292447e-03
-1.142083832684656457e-02
-1.150148125700709012e-02
-9.525780942267126489e-03
-1.757375419752934750e-02
-7.522642928604278065e-03
7.084313819286756561e-03
8.534541156955732788e-03
8.963707186375621111e-03
-2.815564537703030105e-03
-7.279555946461955737e-03
2.435699854718304750e-03
-9.900905281737778282e-04
-7.593687995724839176e-04
4.014154585290777462e-03
-1.024188331194213642e-03
7.281078848525427728e-05
1.091456572111901106e-02
1.799836558173616152e-02
9.113930124425309587e-03
-3.487749392602466220e-03
-7.562646713722454526e-03
-6.297932564555935864e-03
1.013469154306342358e-02
2.321031418826410148e-02
1.272519214830061113e-02
1.223774663911040466e-03
-2.914227630687947317e-03
-6.836651223171056301e-03
-7.557005529357999594e-03
3.633174961795427021e-03
1.364956779962039207e-02
-4.481162646948236641e-03
-2.124612256742704555e-02
-8.641132705354643770e-03
1.783765102269871481e-03
5.042865631288047552e-03
1.287036170274250685e-02
1.048457230396728293e-02
2.307176749195294103e-03
6.239687282206898312e-04
-1.946154416973970395e-03
-7.205958156597552788e-03
-6.893896801434798785e-03
1.969132742959739044e-03
1.000890113700590722e-02
4.725794846179112198e-03
-6.249475990662630917e-03
-8.782649958533715953e-03
-6.700790864381713646e-03
-3.656847073583731518e-03
2.167689552136766850e-03
6.068339325223868520e-03
4.188781165199410503e-03
-4.853867701125432388e-05
-1.675943375948554456e-03
-4.185256041455505741e-03
-6.021397977493828449e-03
-8.674448822149044124e-04
9.898060363174739605e-04
-3.652724958131727158e-03
-4.279878740621844216e-03
-1.330357153388494237e-04
1.625303088408382645e-03
-8.325332933384925948e-04
4.761684275019158023e-03
1.240757390439739365e-02
7.780948180343747952e-03
4.725072141250157703e-03
2.076634550204414092e-03
-2.846910521413635489e-04
9.836543985764605036e-03
1.309286933224219386e-02
9.061171581239625683e-03
8.440521706277400588e-03
1.936933011868139341e-03
1.049605837630307242e-03
4.393141767684731469e-03
1.136280300388326121e-03
-3.501644724731076304e-03
-1.857027338254991708e-02
-3.294240667221869784e-02
-2.339602539037353643e-02
-6.869225234062848601e-03
-3.000036591765082011e-03
-2.884554476618435368e-03
1.718739256081827345e-03
2.824014514411130571e-03
-5.256204601568384676e-05
2.466129011025414370e-04
1.062386811031742649e-03
2.563462053816239952e-03
5.983980271750705127e-03
7.426486456368335855e-03
5.907364943164853527e-03
6.511895039585558972e-03
1.119349405039075929e-02
8.551279953351604429e-03
5.085031605419415394e-03
1.202104363414465034e-02
1.162918865267981161e-02
4.320221194059174069e-03
1.876970694467880929e-03
1.238753792501423416e-03
3.401024290906654122e-03
1.773965299359949116e-03
-1.846952386324347091e-03
-4.369429292960411333e-03
-1.288440455328326677e-02
-1.546214167734866370e-02
-1.343954228507261012e-02
-1.623951899449310038e-02
-1.407864952823157170e-02
-1.144142974198648390e-02
-2.060145708677721399e-02
-3.234376504091972249e-02
-2.016656636456927790e-02
6.725712505505899302e-03
1.672579430665270886e-02
2.203864588877773104e-02
2.562117153586929152e-02
1.733675203262044495e-02
1.015881160430000957e-02
2.435495129882742776e-03
-1.289142871302122314e-03
5.640174572637257893e-04
-1.732900712480588308e-03
8.155696624837708957e-04
5.290191308928992274e-03
1.101776869555863222e-02
1.868035093781170164e-02
1.951131561429252786e-02
1.802366137281580238e-02
6.544051676943426175e-03
-5.059855650437881762e-03
-5.353625544257722101e-03
-1.325504527351172544e-02
-1.104524145081504927e-02
2.680296826238172045e-03
-1.213847748341542482e-03
-9.182255001254054430e-03
-1.366669606557403133e-02
-1.541000132355296176e-02
-8.976149748335661774e-03
-6.558951452709883834e-03
-6.489981681794962202e-03
-4.174355069895108183e-03
-4.304688913251351369e-03
-4.642549339182532910e-03
-4.359449907480459317e-03
5.853153352800314832e-04
7.102722356810011774e-03
6.001919298506385933e-03
1.837040307093837843e-03
-2.653797349862522040e-03
-8.231415542846899983e-03
-9.073055095941740672e-03
-5.726855788179855029e-03
-1.420400734277277918e-03
5.240461122703237405e-03
6.194557510868389967e-03
-1.881402752472141572e-03
-3.326822155471814463e-04
1.094817892582849311e-02
8.624307433510430138e-03
-9.461216056071787344e-04
5.829533846619100587e-04
4.312597601688714088e-03
2.994039755322768295e-03
1.565469813782904016e-03
-1.724406588208307741e-03
-4.178079584618373150e-03
-6.788552722798355237e-05
4.937595244111945419e-03
5.925703957309484335e-03
5.589311076482721651e-03
8.472114018063529178e-03
1.385096023246153336e-02
1.194803728927905200e-02
4.146789352466363071e-03
2.530543927577357053e-03
6.662019678679783090e-04
-7.931746043807391677e-03
-9.308089419185750640e-03
-2.346299696544382977e-03
4.106379174568572225e-04
-8.078722304009236608e-04
-3.895018468705043618e-03
-8.690802699895921676e-03
-1.063771084852029036e-02
-8.285422641983480885e-03
-4.735604698480653553e-03
-3.683535235867216318e-03
-2.800010615352198362e-03
-2.488259985966056239e-03
-6.158251698516091326e-03
-5.386843132774566181e-03
-5.984833065725862419e-04
7.491100336608555585e-06
-2.781206753644737914e-04
-1.088989755189338424e-03
-3.003215484546219172e-03
-7.666078567715145509e-03
-1.312626219875283155e-02
-6.950254480308695922e-03
6.252138464004865746e-03
1.656036661722910461e-02
1.922003967459085319e-02
8.884209477416034340e-03
2.691176372377560196e-03
6.882832558073907585e-03
5.368060254295761551e-03
6.989217378704046680e-04
-3.977326856319687680e-03
-9.139345605008071527e-03
-7.719660485414302220e-03
-4.566512036756864915e-03
-4.671324854103200627e-03
-2.337378379971046579e-03
1.287898413496074181e-03
9.173444775163917754e-05
-5.321064801544565445e-03
-7.042598354699421484e-03
3.964955784765798394e-03
1.712431760048051602e-02
1.533862152523527735e-02
9.159530661908861851e-03
4.879481714268015143e-03
-3.508395453729587846e-03
-6.953209109432391226e-03
-6.845049335205157653e-03
-9.727461983983463900e-03
-8.301252545259226942e-03
1.259315362379845099e-03
1.161948839035655164e-02
8.929867061515557591e-03
-1.170014166314489561e-03
-5.682933892517107351e-03
-5.472608393830834597e-03
3.900650009648073762e-04
9.810553070302235022e-04
-3.673477323099175098e-03
3.933856583646170029e-04
7.617056819041861113e-04
-1.093635296189656271e-03
3.753814435592118647e-03
2.097271183386600988e-03
-4.282309206527437281e-03
-8.723713502940795908e-03
-8.565214197224864726e-03
-5.368751114815408648e-03
-5.918681159658903575e-03
-1.581625848600168348e-03
1.749282231907027443e-03
-4.411266572548268837e-03
-3.202270826445074818e-03
3.401734814892830305e-03
7.813009589790090997e-03
1.286833586925152650e-02
1.026412159048624081e-02
3.854673722587624151e-03
-2.551791033244894986e-03
-1.350226979789368766e-02
-1.483304754814630984e-02
-7.736451331759990231e-03
-7.410291674235884411e-03
-9.830475659376204656e-03
-1.238885877816965631e-02
-5.051436849212242487e-03
1.294252751925283398e-02
1.778154158464843523e-02
1.579025626488818682e-02
1.428360221676666653e-02
5.346221935152850949e-03
1.031649581649477431e-03
-6.407714545999067257e-03
-1.583860278650343553e-02
-9.572643932463233835e-03
-7.446934982368025140e-03
-7.019852711790041007e-03
4.552899162738319357e-03
2.951752996489096295e-03
-9.034913945061690682e-03
-8.893397568383766202e-03
4.419611025411439168e-04
2.220605377960906991e-03
-1.677937399356193302e-03
6.759206791091139886e-03
1.215155562716943062e-02
4.592564414804338815e-03
5.471496092179759657e-03
7.235646165728058105e-03
-7.255243704544662173e-04
-8.599275858867112821e-03
-1.245328022564215140e-02
-8.887993055255507049e-03
-2.283439925606760030e-03
1.664452785229466377e-03
5.781324052000320728e-03
8.733973009687286473e-03
5.747667440588737076e-03
-2.762577633607188419e-03
-4.207761725016065379e-03
1.123125313947582522e-04
-4.464602810267857824e-03
-6.659001472019686688e-03
-5.093081136052983015e-05
2.326123350811126929e-03
6.826635214920177743e-04
-2.883456206119525481e-03
-5.766369961930476601e-03
-3.282255251882599829e-03
-2.101656464752789941e-04
9.233734287836397898e-04
-1.830773399011563973e-03
-4.776445870209288999e-03
-1.385305583128446224e-03
-1.267275183670869745e-03
-2.775652755254693835e-03
4.142598404843983798e-03
7.165203178482431288e-03
-3.110032712456940003e-04
-6.215046773033640684e-03
-4.007134397210028627e-03
-6.683298063575880731e-04
-2.415264958191433182e-03
-1.558520061942939364e-03
3.003584257768997234e-03
2.421250386548015176e-03
-1.102331115692072039e-03
-1.447245694194781301e-03
1.072780418934673801e-03
7.465907973549706705e-04
-1.463073636380678470e-03
-2.439621949224594216e-03
-5.995645237699501542e-03
-5.103364440906159663e-03
5.735931274557768984e-04
1.771095793658290654e-03
4.523976918810103387e-03
6.467858196334666347e-03
1.940667175784658834e-03
-2.083402174188040117e-03
-3.703458923044141305e-03
-2.379643153783774206e-03
3.621668066338382900e-03
1.010067600014732600e-02
6.465572430040461734e-03
-1.973968643355364198e-03
-2.301575097280091683e-03
-5.746308612666545419e-03
-5.735786736329783267e-03
4.310350951276003401e-03
-6.180777121549570468e-04
-6.593513928303773759e-03
1.499112510525871939e-03
8.665184359267454799e-04
-5.210484805588888602e-03
-4.700552029544217102e-03
3.785608671572426127e-04
6.491205241100592507e-03
6.747928588114483588e-03
-1.269064628711204061e-03
-1.093338093460578288e-02
-8.716958782966304983e-03
-3.591947980286720136e-03
-5.914176762567780778e-03
9.155020766615570437e-05
6.385151782661155004e-03
2.601633713316550255e-03
-1.120805564448877504e-03
-8.645711783904228356e-04
6.431098688481901374e-03
8.393871593452660942e-03
3.403663750915654658e-03
1.640539950587709128e-03
-5.286018585938110498e-03
-6.082450348022723149e-03
1.000398496016740484e-03
1.723797560570781637e-03
2.221926091147307519e-03
-2.940666863060163033e-03
-5.885272649643291838e-03
1.810528577974265070e-03
2.573887350069760035e-03
2.096477829396380804e-03
2.084141433823912416e-03
-1.428383134873674812e-03
-1.812458694564542680e-03
-9.085440676909152177e-03
-1.428704576430583212e-02
-7.828295657005726604e-03
-3.752645015919947417e-03
9.055174213067055029e-05
4.487215139740248146e-03
4.831589060569919589e-03
3.076589331675158492e-03
-9.658175336617407739e-04
-1.066390813641692175e-03
3.726192524769011798e-03
6.629715120902145500e-03
4.121330310865557560e-03
8.021377478806489790e-04
3.052983481366678287e-03
2.242535507543952540e-03
-4.386232228892818653e-04
1.346390801373448763e-03
-1.450349320192133307e-03
-7.062634197350869079e-04
5.391535748351230194e-03
9.648300416929607871e-04
-2.858497036379119543e-03
2.610830137790554756e-03
5.856147975868188256e-03
4.870152353747536460e-03
-4.480182289386798683e-04
-6.171419885196027626e-03
-4.167951674026725527e-03
-2.649332126222777792e-03
-5.177517436002714371e-03
-6.908893684863949124e-04
6.076860862690830999e-03
4.345832042774001348e-03
-1.613876738960002112e-03
-2.966281335875957988e-03
-6.138846618625841411e-04
-8.740012517347567692e-03
-1.943582955972298840e-02
-1.003169933724742599e-02
-1.447597164977922502e-04
-6.382836242656566086e-03
-6.996958511674146799e-03
2.471691235870676542e-03
9.044339338975641157e-03
7.633058523478910250e-03
3.950774426173016794e-03
4.378047801815190126e-03
1.914942622641126798e-03
-3.303862314666979397e-03
-5.865174257768786259e-03
-4.533554891116930649e-03
2.405223750037263804e-03
3.701935595815007522e-03
-2.061894383994308886e-03
-3.498262991592049603e-03
-2.050580207907441461e-03
4.212895055311129296e-03
1.138459961286228221e-02
1.021325584803448733e-02
9.196393684858817849e-03
1.062548944355273459e-02
1.116591992006774579e-02
1.460165982492952347e-02
1.101697921084484125e-02
-7.308309990520019984e-03
-2.021215547002080601e-02
-1.534270381279899224e-02
-1.085297100223824723e-02
-9.233743115644912902e-03
1.114366399345879163e-03
5.928913025329444336e-03
1.630719296737509223e-03
4.001996997290586770e-03
6.824528292154992751e-03
3.944366341394022792e-03
1.336679353325382529e-03
-7.240038573252564197e-03
-1.881726288176965856e-02
-1.529096418464701707e-02
-4.030143833299755507e-03
-2.057159177749214030e-03
-1.668860971973491151e-04
4.864376802185287930e-03
1.818517638097556094e-03
-3.396466940519577479e-03
-9.345366143394222410e-04
2.541507079003301438e-03
-4.041852578120968924e-03
-1.158750108103574067e-02
-4.644503296691224019e-03
4.134446781969516871e-03
5.224143190678321759e-03
7.572819893916747647e-03
6.178448502225970460e-03
1.890780853947787591e-03
4.939951101832212518e-03
8.996304740472145511e-03
6.541397458852156802e-03
1.434186939339640197e-03
9.591351128862710346e-04
-7.422867020448297012e-04
-7.829592001645331242e-03
-3.320373964065217575e-03
6.660099621846004431e-03
3.003215310134503199e-03
-1.525476653959354986e-03
1.866639936273582062e-04
1.630342516639742391e-03
4.360288212695417193e-03
6.142788451057031723e-03
6.537168801810996389e-03
4.515531120653928400e-03
-1.535340769767568319e-03
-6.381233096306841018e-03
-8.688209648624028308e-03
-6.899198306580327580e-03
-2.934886321886121755e-03
-1.254119240885373434e-03
-4.630439154490856822e-04
-3.508664018177552225e-03
-5.266546502162473484e-03
-3.564647145734000603e-03
-5.350361306987757790e-03
7.498995907005419174e-05
6.129168075890998289e-03
-1.340595006820061857e-03
-5.352069793404434263e-03
-5.652748994509701128e-03
-9.455784576400911440e-03
-6.075396919233146467e-03
-3.219462437806475076e-04
5.827552224325853306e-05
-2.019978199854500535e-03
-1.006252866469328376e-03
5.798489976999487809e-03
9.616360530129075199e-03
8.567121382907915902e-03
8.886121795923974595e-03
8.363663541817485322e-03
3.930783505835527304e-03
-1.768583977043701591e-03
-2.524428958311469677e-04
9.234334773701231847e-03
1.322827650811852357e-02
9.066434218658396896e-03
5.711767424325647075e-03
2.969513686460675209e-03
-9.621221528719170989e-04
-3.781495107322400268e-03
-7.665344103328122251e-03
-1.026543944709697176e-02
-6.755391354912478226e-03
-4.977197318017929743e-03
-8.875197667072965910e-03
-7.809740834896862494e-03
-1.019932093553471914e-03
-8.994247071679566932e-04
-4.844266421344630910e-03
-3.406085091001319429e-03
-5.702798428368000168e-03
-1.137779688816645436e-02
-5.714748470582751982e-03
2.908472533343941548e-03
3.090207106328553364e-03
2.991172213840891450e-03
4.641279071236618925e-03
2.404971603016271570e-03
2.194442628307912650e-03
6.101433389634065320e-03
2.834720805713449292e-03
-8.724481027778092186e-04
3.693460430363122281e-03
3.319129074912181582e-03
2.445255107598807813e-03
7.595106055413309264e-03
6.789314054768978701e-03
4.507672284294829759e-03
5.296166369393678561e-03
3.330464942385048463e-03
-1.037834971186299632e-03
-5.252498252893597966e-03
-4.110334874182975350e-03
-1.960771720026651191e-03
-3.658129186361968373e-03
-4.218155450174696473e-03
-4.479699414152739194e-03
5.046720175362197185e-04
7.281087134128205393e-03
9.029256483979416267e-04
-8.439355995700482949e-03
-9.504688990823680766e-03
-6.834142441710701517e-03
-6.626067054124600442e-04
3.550886217074354645e-03
2.461287123715374362e-04
-1.968619520627949183e-03
2.076431333000065566e-03
3.779797419440359720e-03
1.803732303046224890e-04
-1.475726792141210386e-03
1.565531327409820281e-04
2.406189446447833547e-03
2.611284369233307732e-03
8.553879217252506910e-04
2.632487122953504777e-03
5.022055981415981564e-03
1.174668622803722896e-03
-3.105501655142888819e-03
-4.834533044367020924e-04
2.929745461401512142e-03
2.784136852198370888e-03
4.584883251701028610e-03
3.328355608150139911e-03
-2.964794399366413834e-03
-3.098690000486990954e-03
-2.931526750692758226e-03
-6.189473666898566775e-03
-8.148267934423053960e-04
6.061888656774263098e-03
4.649655857168497573e-03
1.701621849433713205e-03
-1.730355437516150740e-03
-7.281172680024791503e-03
-1.316424313053302445e-02
-1.605393649595574304e-02
-9.426022835213850384e-03
1.628265222328319597e-04
5.208083663322450423e-03
1.166662217367172780e-02
1.142706903906537223e-02
2.935918242799767739e-03
3.809717396690363508e-03
6.030797739253055539e-03
-2.462643732882068221e-04
-4.813216384235234277e-03
-8.150683197288696377e-03
-7.163406509767518762e-03
1.224733966081017035e-03
5.825708600814702431e-03
6.886799417913412949e-03
6.189262386530160372e-03
2.526903555057619707e-03
3.486944942335040362e-03
3.539489638608608532e-03
-1.862900995627593623e-03
-1.690135421892608033e-03
-1.149744069307085992e-04
-2.847704500562465556e-03
-1.278323785894687915e-03
5.623199557247777819e-04
-4.824016643659802982e-05
1.562829319664108506e-03
-3.475838857435595373e-03
-8.209783961933022831e-03
-1.874034575353807682e-03
-3.815181382429530272e-03
-1.026136101557345234e-02
-3.785485382834834146e-04
7.082996156515614962e-03
1.049451722165691036e-03
-2.529459593637829393e-03
-2.107810384568270350e-03
3.927285771420345982e-03
1.393733833641776221e-02
1.158156376509557675e-02
1.961175293541858253e-03
-1.325336271949694193e-03
-3.428264595299533504e-03
-5.354696085397560486e-03
-2.897353820647206955e-03
1.341058075118133292e-03
2.618821638785612856e-03
-1.726968927669702506e-03
-4.036447199161106308e-03
-4.292608842518765206e-04
-2.433232604552978441e-03
-6.885139470836422124e-03
-2.481654523735591159e-03
2.188190388938845120e-03
2.954519583591976462e-03
7.604535983077453801e-04
-6.467537426688598282e-03
-4.321565105895684017e-03
5.405607242423627820e-03
5.539178884107698146e-03
3.406949472058091229e-03
8.457240946149175266e-04
-5.400416515155871851e-03
-6.921216612799688597e-03
-4.752368093208240475e-03
4.858169783008708942e-04
5.128373964325603183e-03
4.197819393663451866e-03
4.268267032148304052e-03
4.380306528773973002e-03
3.843106045478394701e-03
2.727398344490649350e-03
-2.934336585720246130e-04
2.445713890357631773e-03
4.878757549503782813e-03
5.001043189149224867e-04
-4.062042939994401844e-03
-5.926412260934452690e-03
-3.166686530714437828e-03
-1.316111760994672893e-03
-1.746866016370930350e-03
-8.756161718432728608e-04
-2.198918327793820092e-03
1.624505818243363086e-03
6.568699135944638251e-03
3.974240436477549827e-03
6.458591242991647274e-03
6.823754768734145368e-03
-3.060150312117344753e-03
-5.165490560915174563e-03
-2.253712646792260972e-03
-5.620955706480522916e-03
-5.475963892385143569e-03
-9.875989137383615717e-04
-1.701206903911175756e-03
-3.812531630795480166e-03
7.749566713176160105e-04
6.260129923692858873e-03
1.574735657829919077e-03
-3.350709026219813539e-03
9.478672823473899582e-04
-2.133532381894188198e-03
-8.454188763476115295e-03
-3.981409200842011414e-03
-3.872545615518468466e-03
-4.432087265433006656e-03
3.372629489944423825e-03
3.797127561500104626e-03
-3.731110400890567751e-04
6.372367906436048491e-04
2.245549633381962226e-03
1.996265060618727591e-03
5.135940230253747789e-03
1.311491026815543408e-02
9.485876961582137556e-03
-2.396731863529834913e-03
-3.679369464891890759e-04
2.846432702779617789e-03
-3.750956647801453273e-03
-2.563369542757219614e-03
4.537947609981933528e-03
2.048546507574408333e-03
-3.652191945775507768e-03
-3.263529727097596363e-03
-3.067715713032669305e-03
-3.701545504548937448e-03
-1.599875992998977701e-03
-1.108344427746214139e-03
-1.179082612404587678e-03
-1.433959592029679462e-03
-2.825745840746501664e-03
2.749020288900943122e-03
7.899521596981307764e-03
3.532118022235307994e-04
-4.168757279436552388e-03
-2.314871256260078725e-03
-6.552091101797391168e-03
-2.248804009718621388e-03
9.569734593382086402e-03
9.037452159570602897e-03
5.457849532934592150e-03
3.140142546429238075e-03
-1.524247840039099104e-03
1.751414927151333104e-04
2.535747018113791804e-03
-1.004666574395059924e-03
-4.183072649754752959e-03
-3.530890474203414019e-03
-2.732820470631094380e-03
-3.984532576979968842e-03
-2.506471322057514470e-03
-3.071048665581679882e-03
-5.746670136695576463e-03
-2.889044699896380769e-03
-1.413785900503261887e-03
-1.793911082597140095e-03
-3.438827075496107399e-03
-4.665145423133450035e-03
3.805505758129240201e-03
6.970590413416463856e-03
2.182523832148766576e-03
2.967418284939515438e-03
-8.480867703803490970e-04
-5.229000328182646998e-03
-5.937447403896184287e-04
4.544533928587993730e-03
7.560842664294653050e-03
6.741299723399416834e-03
5.810165190089731230e-03
1.010400679380610116e-02
1.041335239591443390e-02
2.391186353405206581e-03
-4.283198487852554574e-03
-2.748710950532698254e-03
-5.296066559857428961e-04
-3.421449133896946933e-03
-6.438189455068806834e-03
-8.196308001925896314e-03
-6.147895655871799155e-03
-1.575915134120388838e-03
-3.067729564549518621e-03
-6.435760605997173020e-03
-5.237451882727043109e-03
-2.188039886592260241e-03
-1.867606292338859237e-04
-2.425411204830681643e-04
2.025643753243806886e-03
5.675075631027555641e-03
3.381287842090591016e-03
-4.619782143594878838e-04
-8.398153355515125421e-05
3.230112608501827746e-03
5.678509668669017713e-03
1.775039723631775118e-03
-6.606203949094128971e-04
3.772657930643341911e-03
1.627173395455152119e-03
-4.321098262471576371e-03
-4.387187308989364334e-03
-3.259482111381446778e-03
2.921864057237599354e-03
7.875280449097975949e-03
-4.245701909053390993e-04
-7.467855373536999748e-03
-4.501951934555143905e-03
5.330048350300915436e-03
1.384160474307291437e-02
6.576807985227393211e-03
-4.634830934026066065e-04
1.656326903870412176e-03
-3.650272572147391075e-03
-3.659560767308162824e-03
-1.445339678869755678e-03
-1.335483201095852626e-02
-1.326182970456229494e-02
-1.530139934351171759e-03
-1.097751576352726721e-03
-3.584295205434018467e-04
3.885318770239740496e-03
5.922821257319049737e-03
8.165236910192977607e-03
5.428436492399433752e-03
