-1.114102267433384266e-02
-1.211831456611266525e-02
-1.252216327283880819e-02
-1.853815332055964993e-02
-2.095569460957346850e-02
-2.020493615953127334e-02
-1.306662153806944539e-02
1.525162863289571819e-05
1.132115598124882293e-02
2.149445585977856343e-02
1.523884947520231375e-02
-7.264283796831773592e-04
2.928094697873800858e-03
8.175167466421669193e-03
2.536460706478550504e-03
4.109128084475612355e-03
7.387835742722306982e-03
5.969694820697108578e-03
5.137857327521702482e-03
5.167092532173522129e-03
6.853668210005254766e-03
1.048558494725298530e-02
1.217471812640592323e-02
7.564798814802009899e-03
-2.928148728688481292e-04
-6.316431590678347335e-03
-6.368389123366502251e-03
-1.385371994168940139e-03
3.406626596205382645e-03
9.768107730226393073e-03
7.159024143985278504e-03
-6.062950876209092371e-03
-1.403989045130851418e-02
-2.141188865036360717e-02
-1.804968730362328799e-02
-4.093081530758551842e-03
-2.254018564526188376e-03
7.517561284841663138e-03
1.342526937807214486e-02
-7.484518776475209551e-03
-9.799361071913625584e-03
5.543245069711625825e-03
5.322973420996128524e-03
4.284459058081087693e-03
3.205536440318383900e-03
-3.532027111399313034e-03
-2.925757405216773514e-03
1.530996079994519435e-03
7.118068221153121822e-04
1.806936005560649903e-03
5.890640644912415944e-03
2.875603255782197519e-03
-1.044914717909789428e-03
-7.893811742785929913e-04
-2.618729861609184369e-03
-3.917031971823508457e-03
-3.060858086668937720e-03
-1.197174687484066488e-03
-3.820625999901544612e-03
-1.027927535290838398e-02
-6.205369193514284100e-03
1.683221903212726335e-03
3.896273499348395543e-03
5.066695366272360931e-03
-1.034804649520320837e-03
-1.037976361893319134e-02
-1.158621907096755305e-02
-8.432719965872291848e-03
-4.482981959183524739e-03
1.267943377605682724e-03
7.460664011260676083e-03
1.020120243036424720e-02
1.003389053818692575e-02
1.109243273642027475e-02
1.248483704098451649e-02
1.294656343411675417e-02
7.899687728559546748e-03
-5.199885271446547975e-03
-1.001304823132785800e-02
-7.556671129108590620e-04
1.681790330118096768e-03
-5.804690136322528940e-04
6.600401804955624389e-03
6.131539410873520189e-03
-3.817592310567086231e-03
-3.599194489216167147e-03
1.399550547855007510e-03
3.026740800123438411e-03
5.616824139491102992e-03
7.565070500704526579e-03
1.075485117160471205e-04
-1.382479872610335378e-02
-1.777774416784544051e-02
-1.326868111739054265e-02
-8.014572751632732805e-03
-1.101495766558335766e-03
3.658059522129744785e-03
7.020715613446419819e-03
5.886225367828885544e-03
-1.122299925188050300e-03
-7.193536932131871196e-03
-9.003639105410703516e-03
-1.369373625472738608e-03
-2.551144647749029742e-03
-1.770845108785061225e-02
-1.500986295530095174e-02
-4.450711552244955051e-03
-1.494268632106345333e-03
7.348036549617202075e-03
1.402990423729762702e-02
1.486300950972935415e-02
1.087381824570667413e-02
1.456179827386614237e-03
-6.201750832288222080e-04
2.127625773102337966e-03
3.898249916335480916e-03
5.024192442195503545e-03
4.285778591031566206e-03
3.678066576511497196e-03
-2.302782541876832647e-03
-7.944888211195093308e-03
-4.079099099352723190e-03
5.035719520262366741e-04
1.839111040131043281e-03
-7.968338810600064659e-04
-5.221390791663237801e-03
-4.796829066637973635e-03
-1.080115211039402948e-03
2.463787428891751376e-03
1.018048628065656470e-03
-3.626224566038924874e-03
-5.468752786533361346e-03
-7.783350146645263284e-03
-1.119089396249034127e-02
-1.500579040054556348e-02
-1.386215189811805006e-02
-2.310393016966482901e-03
4.951200747012196243e-03
3.497371392542438645e-03
5.121010533968534811e-03
7.231821654779838245e-03
7.133080084230743884e-03
9.574794080101900126e-03
1.090004962246205085e-02
3.101605270165658842e-03
-7.467063650553013715e-03
-6.823497870499799396e-03
-4.769769178831390110e-04
2.672395975194475238e-03
5.438066195769289748e-03
2.858708562258600091e-03
-5.037650540122309145e-03
-5.923155971583877848e-03
-1.469986186792254356e-03
-8.224795927597044771e-04
-1.432496101977006383e-03
-3.153294063712857535e-03
-8.451559446450509355e-03
-9.531125630038939089e-03
-9.955017410985370768e-03
-1.325189144346505116e-02
-2.067269789016745653e-03
1.606107677001259587e-02
1.795225667000245953e-02
9.136339864962213231e-03
1.147710300064890498e-04
-4.586144283445530399e-03
-4.014577458218552587e-03
-2.394117487886190943e-03
7.968624839369205541e-04
1.245735391695240680e-03
-2.210397732313606253e-03
-1.704582665045291032e-03
-1.500703422389495058e-04
-4.029765474761024154e-03
-3.654056402107339757e-03
7.576712267428121518e-03
9.727224253618049765e-03
3.024166158506756989e-07
1.987964590053180195e-04
3.594400015848933910e-03
1.548227782909209578e-03
2.207571366610268804e-03
3.053292434953766999e-03
1.805728602091204735e-03
-1.605081540851876045e-03
-4.719843427439707369e-03
-2.780175789204406868e-03
1.032894231369709762e-03
9.390712710105875421e-04
-3.300642280125302194e-03
-2.212189971222844158e-03
-9.205795810311764426e-04
-6.970119231085256280e-03
-5.483354677099913643e-03
1.261286695194359408e-04
6.032726194581874025e-04
1.077551950934043474e-03
-1.415465506527133254e-03
-6.243787896778148910e-03
-9.582341562225751494e-03
-4.543543483893361726e-03
4.611091882569744171e-03
3.661262836930924067e-03
2.336888641347204150e-03
8.009155487424898410e-04
-5.398630308307458305e-03
-6.140937753406910601e-03
-3.705878460548619763e-03
4.157048287618088193e-03
8.788983429119661892e-03
4.416669681629598054e-03
8.495098256212944496e-03
1.367545964392138935e-02
1.247915195403417367e-02
7.102564502178955116e-03
2.102625613642489363e-05
4.847844135701590614e-04
-5.021205966253679438e-03
-9.116317729745570045e-03
7.229163869800442430e-04
-1.135396497049870551e-03
-6.511852863870383479e-03
2.872057597579130185e-03
4.953650024589398640e-03
-1.343781108587306129e-02
-2.542398490291011143e-02
-7.435081319594002806e-03
8.617449982776444542e-03
5.954614372812796694e-03
7.770164461185940542e-03
5.030874380776155681e-03
-2.292737596727277387e-03
7.118792133986300442e-04
-6.787394900305652057e-04
-3.568306053301661517e-03
4.861297356094562358e-03
6.637859578943588676e-03
-1.563315852155345870e-03
-1.139289098183644301e-03
1.146342622450319514e-04
-2.384907053469574167e-03
2.382566492851197811e-03
3.148751699947003116e-03
-3.246015051966711089e-04
-1.245790734315962729e-03
-6.250229811231138195e-03
-4.971569099371455844e-03
-8.550427150704516125e-04
-1.028852901935182378e-03
7.232051973629980215e-03
1.002923409911778488e-02
-1.871652582724937872e-03
-9.325750495165006926e-03
-8.632802505676391569e-03
-6.046011077741600057e-03
-3.401703879751795563e-03
-3.078486595554832950e-03
-4.547132435953488323e-03
-3.393237097548115538e-04
1.368347788514359502e-02
2.769903934193021153e-02
3.114538888265980937e-02
1.667873160909139063e-02
-1.292815526398197364e-02
-3.062393022779722959e-02
-1.989842696388640503e-02
-1.202889316440268258e-03
5.371233304512326376e-03
6.785053084386966256e-03
1.031173231150234529e-02
6.231374909424524863e-03
-5.115655694371222181e-03
-1.022247224013468972e-02
-8.649422941700011733e-03
-5.882986938875841426e-03
-2.522905610477447005e-03
-2.610987415555942031e-03
-5.397421157209535657e-03
-3.453101005710980820e-03
4.140597047709849402e-04
9.856011514288900554e-04
2.656950139820591240e-03
5.044054896293882068e-03
2.294005825317437224e-03
-4.226883039212468197e-03
-7.899126370257194066e-03
-3.060533403672209204e-03
4.163915083531452392e-03
5.643218853778774434e-03
7.071363456938001973e-03
6.024847559456472310e-03
2.301583039854012509e-04
3.382181766446073546e-04
1.241879078999375604e-03
5.922726336792000657e-04
4.967780000805981783e-03
9.070181866104688045e-03
8.917194385112930943e-03
1.303490460963823133e-03
-1.537961087063606990e-03
6.056980310038152272e-03
6.596382056684585438e-03
9.396013598421343663e-03
8.320951934720353244e-03
-3.340652107887105010e-03
-3.588363954115411474e-04
-1.334656952563606329e-02
-3.834083065968302978e-02
-1.806335189307657282e-02
9.192254899203194940e-03
8.178427504344623622e-03
4.726797851558143908e-03
-3.047231940271013682e-04
-6.574508982891728685e-03
-8.654779413960918960e-03
-8.339106420296105854e-03
-7.066998344422197043e-03
-6.898018792800862838e-03
-7.817500028902019463e-03
-9.910226508564282111e-03
-1.059510122398291641e-03
9.602651232921722083e-03
5.167285506706578366e-03
6.376972942946307690e-03
1.099752344717558512e-02
8.233493979013758665e-03
1.071177627598210447e-02
1.115018786492325172e-02
8.529553721099959740e-03
8.033918676894220498e-03
5.119819427696751558e-03
2.524085745510790384e-03
-2.428639305340556023e-03
-4.988856417194515759e-03
-2.227456518061760211e-03
-5.306554066064422814e-03
-7.537038774657950010e-03
-2.798232217784168193e-03
-1.534313503892764143e-03
-4.828645854051280550e-03
-5.357675657440660183e-03
-1.049144734405169609e-03
5.014969365124733597e-03
5.875734394726692816e-03
-5.270695549153560887e-04
-2.927669296173308032e-03
2.742364422828562484e-04
2.703379339522739679e-04
3.046421480776819943e-03
9.531195563570547119e-03
8.586050136180724268e-03
5.617081926421430785e-04
-3.324186158065412563e-03
1.448852420120372991e-03
3.410676622610945511e-03
1.796031200692415827e-03
5.548508991119968821e-03
4.312616600488694378e-03
-1.462106251201611721e-03
-1.323702288875865671e-03
-5.423213912300281839e-03
-8.750340259413602259e-03
1.152032864886379763e-04
1.603009406304884343e-03
-9.328018759943204272e-03
-1.563222802074989634e-02
-1.704103250491881966e-02
-1.495785843436217739e-02
-9.979027595610702808e-03
-7.639485631055282361e-03
-5.959966718153817365e-03
-2.866031880415401828e-03
5.020036766021270143e-03
1.310283367316365452e-02
1.014586347621999375e-02
4.671810375164522910e-03
5.916718458033235102e-03
9.939939089941937644e-03
8.933704076211600176e-03
-3.614456779016511612e-04
-7.590298847205928338e-04
1.145954177200725517e-02
1.449636115860702436e-02
8.374904949857712305e-03
5.713925384796599873e-03
4.345339678702381768e-03
2.167459222324133981e-03
1.441412567569243328e-03
5.832705227362436047e-04
9.322469984003615897e-04
2.402095415297053616e-03
-1.528259418187430559e-03
-7.547542799613487369e-03
-1.132446415902381605e-02
-1.247276655268270487e-02
-4.502487202501589611e-03
4.363267509133662847e-03
3.740213748560083755e-03
9.118207792304133027e-04
-2.707818525560963963e-03
-6.094283054083920320e-03
-2.903182385837188399e-03
2.761413305713310458e-03
4.994878638655549791e-03
4.233346611293249337e-03
2.205554504880248047e-04
-4.219037051183874114e-03
-3.184683562787032365e-04
4.656284065493389475e-03
4.193839003183157826e-04
4.713568836501038587e-04
2.751470802938366187e-03
-6.022555293944248031e-03
-9.717192417128569029e-03
-4.362247422975073889e-03
-6.495732511378860853e-03
-8.148227289631573139e-03
-2.558120347033229509e-03
-3.662405503514049553e-03
-8.545792146677286608e-03
-8.259890294003247729e-03
-6.848085270254619314e-03
9.065339925106501119e-04
1.065465586570455390e-02
1.004139587397128407e-02
8.798909116837389313e-03
8.261991828784426284e-03
4.782866447498305973e-03
7.698666982556272298e-03
1.090836601800323179e-02
8.325731158698933612e-03
5.702290893363340385e-03
1.087718973643397782e-03
-3.251279092090241830e-03
4.831204626677226247e-04
6.285103742373684445e-03
6.430647585871963196e-03
5.626691339903142595e-03
2.966890212395276952e-03
-6.966994024487754280e-04
1.345925717944681122e-03
3.452732507009383719e-03
5.274050427260935578e-03
-2.457818147388633051e-03
-2.687823775731509532e-02
-3.082950857142739698e-02
-1.037296408277307326e-02
-8.957063932694185691e-04
1.963488531242084823e-03
5.304491349540685179e-03
5.148929454021282381e-03
2.899311209637060651e-03
-3.036582662844628053e-03
-3.202160138872834141e-03
6.607330662172622958e-04
1.550177223066204852e-03
4.518422258526835593e-03
3.968925906555221400e-03
9.327191734058136192e-04
-1.442668637866403500e-04
-5.088194163427416225e-04
4.980581072831459163e-03
6.698169954582512339e-03
-2.433558964441231466e-03
-1.152212478378721733e-02
-1.417753758724899296e-02
-9.427726357511070215e-03
-1.348082328524032427e-03
8.411678623028598020e-03
1.450149295534722445e-02
8.859415469155095674e-03
2.645646197303255526e-03
2.131928633554376661e-04
-2.973447218769319656e-03
-2.238289283467370314e-03
1.035505470262136889e-03
4.346886201336411411e-03
3.453041504884155326e-03
-3.282600478046243859e-04
4.124433052889425852e-04
-3.710097106940140536e-04
6.686266418443030397e-04
8.298750877920722802e-03
1.007413918435668028e-02
2.848865638907514038e-03
-3.730957129670258061e-03
-2.061861762686942150e-03
1.335526774324005813e-03
3.686146950091247817e-03
5.930296136132265881e-03
3.712240500289768061e-04
-8.786063613828560236e-04
-2.130215646076477013e-03
-9.568077250690669097e-03
-1.212806963678621794e-03
-6.235995218060555977e-03
-2.642619934725132236e-02
-1.326491551322462985e-02
3.441833647648568934e-03
7.099327455997982974e-04
3.886060423046443246e-04
9.677186287428032711e-04
6.146123181983940802e-03
6.550629067854953080e-03
-2.947364277807244717e-03
-4.315388897662878788e-03
-1.876120153405471487e-03
1.684997437736306981e-03
6.670383867076110779e-03
7.659953075902466331e-03
8.734261212937353622e-03
5.657299555378898434e-03
5.398070431806488391e-04
1.009403799018915998e-03
-2.463358891809780665e-04
-2.029214426670903574e-03
1.712832572343561286e-03
2.873996646244119171e-03
1.318311525440414664e-03
3.509704099641765534e-03
1.476934360579345955e-03
-1.176483677825723804e-03
4.351375447584482706e-03
3.458026256331378761e-03
-5.331144991275487376e-03
-8.012028556621196215e-03
-5.648441621469434647e-03
-5.960721671490019392e-03
-9.215227867209182383e-03
-4.668391154951733769e-03
3.883723867312819170e-03
3.458530186448062742e-03
1.498531091313245371e-03
2.355575142947389112e-03
2.163091289846132571e-03
1.158695064500767959e-03
9.127718429184573023e-04
2.911648160076163450e-03
2.503633729508032441e-03
3.454865961510171068e-04
-9.569233435750795595e-04
-1.632968689352133369e-04
4.322918288887897358e-03
2.466365510645944677e-03
-1.716572373116061895e-03
-4.336114539901177764e-04
-8.539333993807021999e-04
3.379217097569740921e-04
2.495534274705198249e-04
3.161490731238370076e-04
5.775783172145057369e-03
1.024238205907159610e-03
-6.616465157034167981e-03
-7.193578365785761874e-03
-9.539809049490035123e-03
-5.251278801357489763e-03
2.740754679060440017e-03
4.447106378704712704e-03
5.796638903910378629e-03
7.495325016654662623e-03
8.203769429209492245e-03
8.048328072020839372e-03
6.684541591700694091e-03
1.421728992017771889e-03
-6.557820191952347909e-03
-7.036312901270653022e-03
-5.015867771209862706e-03
-7.838407763284174073e-03
-6.656708563799446261e-03
-4.516013972874902203e-04
1.143459466659516250e-03
-3.793992356723493997e-03
-4.204079063913402671e-03
1.849167451932377674e-03
3.940750876395494179e-03
2.799067345900442538e-03
3.349430104432862994e-03
4.189230295187863252e-03
4.887644563284343881e-04
-5.236961136723532716e-03
-3.099563786068518494e-03
3.800849278411184539e-03
7.850813627744248832e-03
5.198752561463014163e-03
-1.813275884779176400e-03
-3.040262762910444626e-03
-4.079363279033291177e-03
-7.251322699826977768e-03
-2.313455048220917996e-03
5.463471519574850284e-03
8.276305621191467482e-03
1.853205317105856894e-03
-6.481419858012334341e-03
-5.060005393879555939e-03
-4.687883277711736747e-03
-3.507236213498317497e-03
3.856171758322216037e-03
4.923773077306240614e-03
5.342960131155918488e-03
4.870439238479785243e-03
-8.370782446564243489e-04
1.344539581396590657e-03
6.281754943598848867e-03
5.998848068223069756e-03
4.104730107028651577e-03
1.730803390525155559e-03
7.394779031452480356e-04
-2.459353201606766497e-03
-2.335432430060570188e-03
5.825734071351089047e-03
9.489974624589057536e-03
5.099089106412026118e-03
-2.491578085524621608e-03
-4.068026038231091664e-03
-2.464973439497693090e-04
-2.053531054826959312e-03
-2.541706982722251578e-03
-7.406598143254730475e-03
-1.763804141217423585e-02
-1.753117127134249872e-02
-2.132202957414305530e-02
-1.896213675160646553e-02
9.404602639704418097e-04
8.248356351564956057e-03
1.155779797309272605e-02
1.806985945070123389e-02
1.434468841119894596e-02
6.596205644248491311e-03
-1.312009608098780797e-02
-2.257163726899060960e-02
-1.367592643061632963e-03
1.219108995756596793e-02
1.048947848356393889e-02
7.799783461719462380e-03
3.827537830137471998e-03
5.112715321424963349e-03
7.042334474143554200e-03
6.530311295400979300e-03
5.321680987733295835e-03
4.064488052904741133e-03
3.576971895295524319e-03
-3.065219175173387319e-05
2.734533647458766217e-03
7.658299188240776621e-03
-4.489884394559353915e-04
-9.944841888989069262e-03
-1.225389474846745944e-02
-9.684758386978561950e-03
-5.225823796081142947e-03
-1.726235742466231300e-03
2.056346075709868625e-03
3.161744636423206205e-04
-3.690611299375986133e-03
-3.177854580095829801e-03
-3.173766181944073696e-03
-3.394193711159336057e-03
-2.916646396954170224e-03
-5.047161302173847237e-04
2.279071747848243536e-03
1.419955362291891671e-03
3.481057151841886795e-03
5.963232317556472172e-03
5.883024824406563567e-03
1.009216618973592279e-02
1.067749080865511811e-02
3.707381637419740299e-03
-1.053690325818888501e-03
-3.505328113915504896e-03
-3.033419990301975278e-03
2.844078069050990504e-03
4.641677431497935775e-03
1.016093415846615203e-03
-1.766386366555796131e-03
-6.042448922162439034e-03
-7.104310345584861908e-03
-4.315279793333901166e-03
-3.877589275798746116e-03
-3.055735472015040297e-03
-6.616709885736219744e-03
-1.150633989013385289e-02
-8.636776843029894679e-03
-4.899215450772598235e-03
-8.702246823644636071e-04
8.324820984996117359e-04
-2.541272386393160325e-03
-4.095811482812396383e-03
-3.931116904578860725e-03
3.176071893527398701e-03
9.628480880097637154e-03
6.452480970630734662e-03
1.159113502740230679e-02
1.531992061793077328e-02
3.808445315063713546e-03
3.295423596937807793e-04
6.107035067656160429e-03
4.008629920866630877e-03
1.073980455971596621e-03
5.666513122433069517e-03
7.189133881470034446e-03
1.851291923326858248e-03
-2.901853457710209063e-04
-8.207104224659185791e-04
-1.557680747294962979e-03
1.916769222821140253e-03
2.586084590057291868e-03
-2.798789867902764725e-03
-7.067019414935368088e-03
-6.526691868874604473e-03
-3.375165313109077577e-03
-1.283245225510239521e-03
-1.671622622118134130e-03
-3.019994642257249791e-03
-1.149141242058835223e-03
-2.417346625018376369e-03
-1.020989062057415554e-02
-9.159464989133758381e-03
-1.593718678657405491e-03
3.677407971621824822e-03
9.713638361308396529e-03
6.909051470896016879e-03
-2.903211461686717445e-04
1.516966479982041543e-03
4.034310746852799376e-03
7.669552643234619268e-04
-7.829188320477315638e-03
-1.344762740023574057e-02
-9.010755813080808044e-03
-3.732462673595484705e-03
4.583064182834633259e-04
3.993815721572770670e-03
4.107550838021072417e-03
5.651202102508321411e-03
6.289785296950968149e-03
2.177898160032228081e-03
-2.905577586087442800e-03
-2.829674546634919526e-03
3.204383945080585723e-03
5.950565390368547924e-03
3.792066636784026303e-03
1.293336974924485508e-03
5.433856718879957227e-04
3.555948925452686454e-03
5.151475754007686127e-03
3.168941022246522972e-03
1.176576489836672667e-03
2.450053725093180590e-04
-1.214814138314729069e-03
-4.732577106714873881e-03
-2.311145532097672473e-03
3.703481396292437888e-03
4.158264347970015706e-03
4.746848503782333251e-03
1.120993259090485861e-03
-6.848506270006048634e-03
-8.149075612419292777e-03
-8.021809900315994904e-03
-5.912684436793135163e-03
9.491756528636481442e-04
4.401919055645705722e-03
2.102161874143643715e-03
-2.683020529524445062e-03
-1.540092282144228837e-03
3.736064922799005057e-03
4.468449201770094761e-03
2.888235890842096986e-03
-1.327748293741875347e-03
-4.879499803231514103e-03
-3.731122983309252510e-03
3.988860811157415539e-04
6.760496095375823945e-03
5.870286486723007985e-03
2.569229650136219296e-03
5.990143965067441616e-03
2.337811380965500001e-03
-5.268008975275341628e-03
-7.193239322252713806e-03
-9.251013038158999169e-03
-6.421839245541543194e-03
-2.175899429419970738e-04
-7.400200556262520374e-05
-8.737753568456123061e-05
2.169710376880527262e-03
1.035109506780066248e-03
2.194240787843308466e-03
8.368434704354466361e-03
5.161694121117595645e-03
-5.055817970642503649e-03
-5.504284335580400186e-03
-1.434614130051840679e-03
6.190657953584566362e-04
2.238118476444737274e-03
1.371821173590930974e-03
1.938937913902744883e-03
2.334531364739141166e-03
-4.719324588270895973e-04
6.750887506154533771e-04
5.218755758687096055e-03
5.548661480142062265e-03
5.176477049074924971e-04
-9.980828576204605045e-04
6.165948685597311216e-04
-3.954967848574477383e-03
-4.631816342568437564e-03
1.278298208417915716e-03
1.010434187491224961e-03
-2.802947739025716135e-03
-5.125806369743376653e-03
-3.548148388955514165e-03
-7.843172072470191124e-04
-1.553255452187569637e-03
2.963699880535889623e-03
9.509582922930080381e-03
6.969177559259686315e-03
1.363769552893646800e-03
-4.847784901588501937e-04
1.581236318758312250e-03
4.827605225273709846e-03
4.434219339315991631e-03
-7.935551566663725164e-04
-9.519925946108032241e-04
5.289529759691910353e-03
1.447920393103723728e-03
-6.688900539375693642e-03
-4.858747846206022854e-03
4.645509568528988784e-04
2.152580880143790335e-04
-8.174966137161432042e-03
-1.190926144845583581e-02
-7.148503970117389694e-03
-1.284140761001191554e-03
6.655592650474505961e-03
3.072271836719893574e-03
-2.594176199664818220e-03
8.023276979051615146e-03
1.375769905681600326e-02
1.091525832731782795e-02
6.783612174426810297e-03
3.589257805592923744e-03
5.135895215093150452e-03
-3.122723926381986304e-03
-1.011266375984797884e-02
-3.197873622934018552e-03
7.749142356704668937e-04
-8.250532707368882202e-05
-1.414526976491263218e-03
7.163537925307010903e-04
2.177427758364377814e-03
-4.176104137557265852e-03
-1.053634446147773754e-02
-1.059923330794736857e-02
-7.162266182919848137e-04
-4.699123636523307515e-03
-2.678026516595999329e-02
-2.033621228778335205e-02
2.539753201805667292e-03
9.363144580714995516e-03
1.554995591317948241e-02
2.425561043445206844e-02
3.026737313389472536e-02
3.051163657762841208e-02
2.754220534257817432e-02
2.873467618086119821e-02
2.629709373724855789e-02
2.058160474618151228e-02
7.829215407803262125e-03
-1.496122276962696951e-02
-2.912455319744821844e-02
-3.279383910791681955e-02
-2.880200829070356586e-02
-1.776004032019139200e-02
-1.337095115733745974e-02
-1.168978385416452430e-02
-5.283314838939730945e-03
3.747566989021012466e-04
3.810706345109321838e-03
4.702309706237525061e-03
8.603755797967339164e-03
1.367104136092232858e-02
7.286776221252937863e-03
-3.461530065968884858e-03
-9.266227337624046920e-03
-9.998711007955426652e-03
-1.476799672729439206e-03
3.392801560359752500e-03
-4.499147099964106652e-03
-1.217000075263928449e-02
-2.091256453901243692e-02
-3.598438288330000484e-02
-4.325661108817246969e-02
-3.442592008334873638e-02
-2.392770601781895809e-02
-2.129040897043336239e-02
-1.278611208264714139e-02
3.926739664028074984e-03
1.800540665548771083e-02
2.877273163283633819e-02
3.751197249695845115e-02
4.137670821563207285e-02
2.630206734670120783e-02
4.744963214943701338e-03
-2.640244499364721048e-04
7.106055613057189226e-03
4.347188098390149941e-02
6.467162602271472882e-02
2.853204104773679126e-02
3.086919499807094791e-02
6.680002610001654906e-02
5.777748578804037249e-02
5.562033643733599320e-02
6.573972132918970424e-02
4.500327103667645795e-02
-8.857143643425106211e-03
-8.257985909189009821e-02
-1.115680023737695703e-01
-1.062668229110771134e-01
-1.394525420112555647e-01
-1.719756341253045051e-01
-1.348222551339440245e-01
-5.168579440909693012e-02
-1.192842141476199019e-02
-3.664588955726424263e-02
-7.166520981300082693e-02
-8.917139258971390481e-02
-3.030845655045907860e-02
9.488732736617463970e-02
1.529172699210419317e-01
1.521304434737869304e-01
1.637209565047470228e-01
1.383740722437340753e-01
7.963943801023314062e-02
4.691578297142631054e-02
4.180862560626626839e-02
4.668292579953930294e-02
3.930824746764249866e-02
3.434294809651274732e-02
5.637358368266724706e-02
7.495705456749145179e-02
9.801246769467442110e-02
9.378766989019902967e-02
1.691377000292223348e-02
-1.270052192312420662e-02
-5.635258522914881468e-02
-2.041925703278640869e-01
-1.717474637803101944e-01
-3.591279193558749583e-02
-1.266788627133049183e-01
-2.536769165393771841e-01
-2.551640394009438984e-01
-1.723062836317588720e-01
-4.978472400700189454e-02
-2.645408519706911668e-02
1.777708100573545044e-02
1.063562606814063283e-01
3.946416412586352396e-02
-9.176701431904629030e-03
3.528987661918262658e-02
2.691276899848139836e-02
3.261506168064126632e-02
2.794031517389197403e-02
-2.836149037806565479e-02
-2.527157130856542283e-02
3.578793795638537945e-02
6.201057710604001433e-02
4.161707108451138948e-02
1.093991845957516529e-01
2.779803791643002397e-01
3.021784863141344091e-01
1.243456835419229911e-01
-5.897089631589513131e-02
-1.228084955471422934e-01
-4.159111852506984508e-02
9.154426137854346224e-02
1.212040821559037251e-01
7.380244636694303917e-02
6.230761232781854841e-02
5.913812457379374887e-02
2.176778467169738010e-02
-9.573081371855526184e-03
-4.285053160283271156e-02
-1.161605891552496689e-01
-1.641270672944651898e-01
-1.315918514759954194e-01
-9.241970755607641086e-02
-5.370359745947849567e-02
2.839675906114036766e-02
3.190170534309599848e-02
-1.311089011754841827e-01
-2.670948543931669361e-01
-1.178063222152973682e-01
1.753773475174849605e-01
1.704299690539639034e-01
-1.267943916803337401e-01
-2.577926870002292259e-01
-9.073148779249257112e-02
3.548293839638840680e-02
-7.163473126894648324e-02
-2.038594832411821101e-01
-2.139812920057119205e-01
-9.168949309780563550e-02
1.767838219220650986e-01
3.640027497779246279e-01
3.172120454452839744e-01
2.112563618915885566e-01
1.443746779356285537e-01
8.841963962503579522e-02
3.738233049030416106e-03
-7.411654319247354405e-02
-5.567614854854595341e-02
-2.210625067392114895e-02
-4.256170342626694469e-02
-3.787324902855727926e-02
4.273050890089729464e-02
1.594321284060170596e-01
1.945783050207947062e-01
1.321399203345507423e-01
6.483188390779957844e-02
1.099324714575580439e-02
-3.387563789957361016e-02
-7.314123985472750777e-02
-1.060563031373651099e-01
-9.774421925561045665e-02
-3.841309122082146171e-02
1.093217578789507614e-02
-2.584442607620545534e-02
-9.670484349010201319e-02
-1.395942057816265125e-01
-1.612568606694085860e-01
-1.065519314693552655e-01
-1.658149603215858595e-02
2.082220626449669473e-02
5.424471756880914347e-02
7.784655872462060977e-02
3.128679895326472865e-02
-5.587891272914480290e-02
-8.450050699226745177e-02
-3.813753093455296561e-02
-8.980836975448420675e-03
3.991616146083001165e-02
1.126802324380307002e-01
8.070780975829500159e-02
1.725551984706636885e-02
1.312453887572648768e-02
5.853235499254165822e-03
-2.849237268013019020e-03
4.628152544830455017e-03
2.248363317511526890e-02
4.096724440046157351e-02
3.594318437354492024e-02
2.282395167455976079e-02
1.132103827970196326e-02
2.709618098629549415e-03
-1.740021284880015643e-03
-1.040441659851549724e-02
-7.888383389861161263e-03
-7.777648435922301581e-03
-2.263457565983027775e-02
-2.892729618211335729e-02
-2.377704746950159292e-02
-1.256533940207351339e-02
-1.015163056536027945e-02
-1.711207167060430426e-02
-1.627869118894226252e-02
-1.255313642124999442e-02
8.561481068452864596e-04
1.468207931539552459e-02
1.102880884393221336e-02
8.503827498103050386e-03
1.140143798649730610e-02
1.003862652527235354e-02
6.171961721742558193e-03
5.562897160499828512e-03
4.026736678391544706e-03
-6.141771969219699152e-03
-1.428215683814850444e-02
-1.956865571287312588e-02
-1.838795351490560628e-02
-4.155060263398690362e-03
8.125010159192801520e-03
1.906451378051677442e-02
2.468919894121374831e-02
1.966209449162526629e-02
1.365609606219904751e-02
3.822703156497879538e-03
2.653155961355260512e-03
6.304234994958840717e-03
-3.224373070906332885e-03
-8.894266127409004852e-03
-7.919548951077727203e-03
-6.355075035028200786e-03
-4.294908781991501126e-03
-3.072504462293006600e-03
4.720117080258873568e-03
5.691010298616514147e-03
-3.313915619001803984e-03
-7.346758226480656385e-03
-8.253106562803277577e-03
-3.144984283590193837e-03
2.427997711975423377e-03
1.382651252568708718e-03
1.063940280536888622e-03
-1.666633425488285927e-03
-4.657165012429175313e-03
-2.677746608428322860e-03
5.657628268226073238e-05
7.244915505996724764e-04
-1.555654498562755597e-03
-2.074852732007548620e-03
-1.642563545790813248e-03
-1.125570224178795969e-03
3.250907298225224826e-03
5.940817701852969118e-03
8.736956636060264070e-03
1.218473363721049238e-02
8.994867227952415764e-03
3.869122405970017164e-03
-2.335465518537062628e-04
-3.152252152387997105e-03
4.642114961577792679e-04
8.146017694952475963e-03
9.835341796327437200e-03
6.326926254705005429e-03
6.701227379111717418e-03
6.672005545495248748e-03
2.918859248882597901e-03
-1.324841869996814603e-03
-7.278292739044449344e-03
-7.562907971398252424e-03
-2.167149983690639953e-03
-1.456191977073342499e-03
-1.208390654006272040e-03
2.361887208210399023e-03
2.029501324242165630e-03
-5.854272774229772082e-03
-1.467221677361883227e-02
-1.538050936717589266e-02
-7.933505463637507277e-03
-1.648063622360155123e-03
-1.725617289903227112e-03
-1.917783839439850474e-03
-1.571082082120158017e-03
-1.069278958053329056e-03
1.476071836508158338e-03
-2.233533624922318540e-03
-3.582334624508328250e-03
1.945548501891268198e-03
-2.950602879943291929e-03
-3.835048539634948461e-03
8.423890555941219993e-03
7.859270653355003577e-03
-3.632063781620460674e-03
-1.589320972698582673e-03
1.961704048817409715e-02
3.970561314035695594e-02
3.888785419999229304e-02
2.396429471074431813e-02
6.036212678051491691e-03
-4.723017338613592388e-03
-2.703008351350419912e-03
-3.425568261752354963e-03
-1.093404941616676548e-02
-1.313529650981080238e-02
-1.385375008403067279e-02
-1.518490565411187952e-02
-6.827311596794524359e-03
5.134449931379161426e-03
5.286957975891517884e-03
-1.863463606135892011e-03
-3.699675684355220422e-03
1.923516384778282051e-03
8.242264946868218395e-03
3.582393769638149775e-03
-1.248214520265194735e-02
-2.823611818737592136e-02
-3.642395003651068691e-02
-3.232854720364825019e-02
-2.122462346449080495e-02
-1.373097784628139403e-02
-1.525734331092441168e-03
1.460422725339926252e-02
1.736124526389988543e-02
1.478960901137224039e-02
1.730909796235076750e-02
2.130152613132112877e-02
2.789820430647827962e-02
2.760249019637365381e-02
2.058690645118571930e-02
1.831858660538580527e-02
1.430431778499293566e-02
1.004045471591234577e-02
7.769432253972402731e-03
2.488118717291649788e-03
1.910873157026756180e-03
1.684457209241021309e-03
-7.638199310061126977e-03
-1.822688214112929903e-02
-1.799044165579709309e-02
-6.094922770435368294e-03
1.205074342005587901e-03
3.243468875289492472e-04
1.273846951051767640e-03
-1.105437623260690583e-03
-1.018727899718305414e-02
-1.766838429709745306e-02
-1.552094631033212532e-02
-8.344028042894408373e-03
-9.134024501259618151e-03
-1.337850487210726254e-02
-1.377674143208425239e-02
-1.447579499659318140e-02
-1.265067286520443063e-02
-7.828386022373007638e-03
-9.055379603071795746e-06
1.541250395937104022e-02
1.923553242924292209e-02
1.869774546472124108e-03
-3.974176509679253066e-03
1.107532643849962715e-02
2.456077239924019801e-02
2.737252672441527201e-02
1.771881294391499870e-02
7.747737922619291930e-03
5.506561281496581348e-03
-5.955799931429529110e-04
-5.038882311261877120e-03
-4.678672690659975431e-03
-7.772488247370910354e-03
-7.701457809137963323e-03
-4.274628568693857565e-03
-3.506012668359145129e-03
-1.999875860586372426e-04
1.100223741123159890e-02
2.464572867911367024e-02
2.871955840164278767e-02
1.764605822396310073e-02
1.290216539711272264e-03
-6.173916608231203029e-03
-1.212871469835939339e-02
-1.860262396841374025e-02
-1.247389659793889452e-02
-5.257038325063141671e-03
-1.336844128952306091e-03
2.865702911106403350e-03
4.004773017010535008e-03
8.810015323489189462e-03
-6.229132789274243256e-03
-3.578400214379925948e-02
-3.706813257428903663e-02
-2.891816397656565840e-02
-2.268701032069243839e-02
-1.074699043624737817e-02
-7.063969627678284152e-03
-1.148038879856181065e-04
8.150445574038623145e-03
1.098830412524014373e-02
1.613417431207634506e-02
1.414259145068210745e-02
9.301196267555208314e-03
3.715616948693811804e-04
-1.129968988991993106e-02
-7.575286314580033549e-03
-3.883596868162092139e-03
-7.670277620380496625e-03
-3.929316871757493855e-03
7.663397128240813545e-03
2.329292111911273472e-02
3.160475963570946734e-02
2.696254322334258949e-02
1.745566351030218219e-02
1.294381875533142170e-02
2.083845973282686531e-02
2.765861182062470322e-02
1.875655514095605353e-02
1.473193069004995106e-04
-2.278037287344694337e-02
-3.856559222081138577e-02
-3.093816791399037203e-02
-1.573474869673635937e-02
-9.330162018072067631e-03
1.051898609789986847e-03
7.198897249081195882e-03
2.153019695112270201e-03
4.130576189707692650e-04
-4.503893627511448318e-03
-8.132583046199853491e-03
-4.441863569006420862e-03
-5.338253962270181341e-03
-7.233103610059672325e-03
-1.374562798378415815e-02
-1.891098843833394216e-02
-1.122905227035391959e-02
-3.998075467882824738e-03
3.518911437575942061e-03
7.632705629564261011e-03
1.732518299191247030e-03
-4.304580523316644917e-03
-9.268759466366738309e-03
-6.992248416751898135e-03
-3.467373292189310664e-03
-1.195949892695421461e-03
1.047638017978264231e-02
1.441972320419459240e-02
1.393720012867631641e-02
1.744643278573177955e-02
1.254943610096444402e-02
1.290011474955948464e-02
1.569645651597525310e-02
6.290203401399755735e-03
-5.482669722421964174e-03
-1.248929044816994918e-02
-1.152480979588727840e-02
-8.414524897793295918e-03
-5.519163343806809084e-03
1.126691617216963280e-03
4.471706038960370291e-03
6.014362418949760827e-03
5.162779437417733264e-03
8.418294982971456179e-04
2.654745230563108557e-03
5.232181100104938906e-03
1.950276982739984361e-03
-3.577089582603142689e-03
-1.074163510789336896e-02
-1.445969166035225920e-02
-8.505648092280290382e-03
-1.148809207964669342e-03
-5.049996409326828030e-04
-1.211596929886753216e-03
-6.234809376633788404e-03
-1.123050355087218226e-02
-1.586834794055482683e-03
8.687924222159649698e-03
1.082545349086884261e-02
1.265172907783553534e-02
8.316361094767230067e-03
-8.440002548366025816e-05
-5.717943797415471832e-03
-7.188942100074544386e-03
-3.282170165598820299e-03
-5.079113727069554636e-04
-4.595496563532611330e-03
-9.234144749883575060e-03
-1.713708572863315797e-03
6.537623457995802960e-03
8.630389889495672026e-04
8.721872151796983220e-05
4.201852560353634865e-03
-1.932092119284661846e-03
-4.166335982830312971e-03
2.331398396600121384e-03
3.780735669893254061e-03
7.156867576698646653e-04
3.637492983712369357e-03
9.569517986765606332e-03
8.174906819273403472e-03
3.177821900616459392e-03
-7.321231621650621914e-04
-4.477011852171147374e-03
-4.340626501009314971e-03
2.869179161091432208e-04
1.526001106298233807e-03
-1.529900529883240854e-03
7.702489070111844362e-04
9.661725492173674993e-04
-3.962894767818463115e-03
2.449424120958863110e-03
8.353940520095127359e-03
5.867776149486570152e-04
-6.581816149009518148e-03
-8.479684422468086041e-03
-6.647180187692267907e-03
-3.903022614490278454e-03
-4.191888366522633809e-03
-3.283761189914885959e-03
-1.300413855798049009e-03
-1.868829292584847862e-03
-4.082386053387406823e-03
-3.645969061300381644e-03
-3.768530096537921073e-04
3.310483722388255032e-03
8.001293180108582162e-03
8.097849345271145721e-03
3.862205694589412527e-03
-4.672055706165919513e-04
-6.651747033053117056e-03
-6.223942825637824271e-03
1.995457646165571639e-04
5.206752617692772186e-03
1.102105205004630384e-02
7.762148526299437155e-03
4.945046609040576035e-04
5.452857720009762939e-03
8.872267510522054840e-03
5.371252062975619482e-03
2.145577164819614194e-03
-5.867583008460822321e-03
-1.242013314107224577e-02
-1.264565831018711790e-02
-1.309166624197803837e-02
-1.155332185908614084e-02
-5.491003573197058771e-03
-2.510156551982643445e-04
3.685756771305897725e-04
6.195346312031523028e-03
1.897486648127003767e-02
1.773043223328782045e-02
4.999288135942467522e-03
-4.431598251687814821e-03
-1.425567455648648479e-02
-1.593387121602584180e-02
-6.589901868639666711e-03
5.660252194731535749e-04
1.433279439509009242e-03
-2.401242069246324433e-03
-2.201574765217260629e-03
-8.812961409157355147e-04
-3.199704523689492208e-03
5.449355371933786198e-04
2.010262661719790581e-03
8.815680371164994356e-04
4.275652912668901837e-03
3.029542015082958622e-04
-2.903445695790289691e-03
-7.729625061830419641e-04
-3.631085416165463244e-03
-1.846206586316849431e-03
3.328787437702305108e-03
4.214903853780321711e-04
-5.677493706222058734e-03
-1.057406884712775059e-02
-1.307035665324484362e-02
-8.574637483456408124e-03
3.106203178756244705e-03
1.385160273476641023e-02
1.482801018816702968e-02
7.052134092243874698e-03
3.928473587231380690e-05
-2.685794459059245940e-03
-4.183269126480460530e-03
-4.021343398068341450e-03
-1.382612563226976420e-03
4.028288872269159340e-03
4.102179422198344062e-03
-6.367530226526227181e-03
-8.904450358327486992e-03
-5.339906449396518429e-04
3.089413864600994153e-03
2.683996175814035764e-03
-1.752578035648504626e-03
-7.946608144814116398e-03
-6.062489104692302469e-03
3.424003025629867268e-03
1.012422011400271674e-02
3.268156663730484128e-03
-5.598042829321709518e-03
-3.596368473822526748e-03
-2.796495900253117683e-03
-6.156277230190635580e-03
-5.991307876613148793e-03
-3.898991434680923723e-03
-2.628737321285060536e-03
-1.677405464437837232e-03
-4.456133627826790915e-05
3.013257905996130311e-04
-3.608184183869636379e-04
2.257401724915646200e-03
7.706799586776964112e-03
7.043319980496205203e-03
-1.213194807386897044e-03
-4.832571087062333820e-03
-3.978819395383858225e-03
-4.316695461700236804e-03
-3.730966048914778101e-03
-4.933191195856099533e-04
7.097191878124567942e-03
1.070032007526278660e-02
9.468206460328554633e-03
6.966183354801000135e-03
1.076361593745246616e-03
3.518460542027087874e-03
-3.562065477708035131e-03
-2.384008552641933218e-02
-1.507184564134645549e-02
2.536610288342316510e-03
5.167570975859548353e-03
9.961395573443920445e-03
5.850579405545287305e-03
1.155148317953749422e-03
-3.737425516386659401e-04
-1.329716222322870241e-02
-1.719926296112170294e-02
-1.129800900349848571e-02
-5.286680927932440287e-03
4.347832036013589072e-03
6.457311371919830303e-03
5.183771664380706044e-03
7.597457678986731591e-03
7.147032213002575858e-03
4.320869006971800493e-03
1.429580723413240943e-03
7.608440894983260630e-04
4.732809807512749741e-04
-1.505383648488583257e-03
-3.730907890018454222e-03
-5.174179690910549363e-03
-1.978119072086551109e-03
3.526261966166169357e-03
7.730105008589955272e-03
5.390744538810641334e-03
-5.133049730529385020e-03
-8.520662545083528688e-03
-4.264817248437545449e-03
-3.773854204216273546e-04
4.024505185731970872e-03
1.397605780761130125e-03
-3.763558922772789785e-03
-7.059971821178300661e-03
-1.005762726432615078e-02
-1.430835384712229614e-03
6.642135798203583491e-03
3.386374240793936594e-03
1.677600999548665419e-03
-7.790438003203640051e-04
-2.494432262850508272e-03
-1.328426410289663745e-03
-1.351744813021300666e-03
1.614654237202125652e-03
2.216986831792252480e-03
3.607925058685468051e-03
5.372393770872652650e-03
8.883109724286846788e-04
6.448764255821633901e-03
1.258617223274594715e-02
8.142584162359047667e-03
4.633405688641505094e-03
-8.314610766188218829e-03
-1.779782321651703775e-02
-1.287598112837872420e-02
-1.228975293900175757e-02
-6.177793657752799275e-03
2.691614256337920234e-03
2.752725670119910220e-03
3.958562857113122335e-03
1.836050441829074290e-03
6.423573035029203626e-04
3.773254888127717394e-03
4.035258168036385054e-03
6.545024889529783146e-03
3.699021887663338920e-03
-6.313631132118568794e-03
-8.626786446278480319e-03
-3.080996946871870749e-03
6.152490131616577488e-04
-2.714253578689880759e-04
1.401270127170000475e-03
2.096341796327549738e-03
-6.223673273187303604e-04
1.132219970242053864e-03
-1.345074912750361543e-03
-3.657339225051352456e-03
3.446021097765080820e-03
4.268402346922268824e-03
1.871003362470708168e-03
3.042934576704986894e-03
1.830675215394136262e-04
-6.930524820200732608e-04
-1.640544856119691922e-03
-7.755093019796840612e-03
-9.728391135615192115e-03
-7.869453587230986272e-03
-5.604553312333857527e-03
-1.420732136255067630e-03
1.443880923857337670e-03
6.196366950085464322e-03
1.299671342011279179e-02
1.097455817526651889e-02
5.047687878163923877e-03
2.238577009949772184e-03
-2.661652152522396217e-03
-3.673316678520304000e-03
1.069022097997293858e-03
3.254008637084276900e-03
2.122035474787641908e-03
-1.284192818268012348e-03
-1.778479481005193919e-03
1.982472497254467083e-03
5.057936562467808296e-03
6.589976521122375280e-03
2.825730650419714003e-03
-3.771366582890846222e-03
-7.667347851169524324e-03
-8.703050736608923532e-03
-5.401028285639962630e-03
-2.081531348255453301e-03
2.989791889286146673e-04
8.354999303581008528e-04
-4.152208441611531312e-03
-6.411022639394765160e-03
-7.815138769784369180e-03
-1.120753762894061319e-02
-5.822279068399514868e-03
1.360096459445035494e-03
5.298815477006925834e-04
-4.259114419394468523e-04
-1.478640348884058232e-04
-4.048550627289109263e-03
-3.843759391630476724e-03
6.042425079015428455e-03
1.224863857566081855e-02
1.147961412296139017e-02
8.923598798204224539e-03
4.492697533821418850e-03
5.621604076904173665e-03
8.480018779346502888e-03
5.785737419891434120e-03
4.833580821960557425e-03
3.502322434727773298e-03
1.828633745090880352e-04
-1.110240918112011515e-03
-3.433136543649945201e-03
-3.200406745072792783e-03
-6.126184348663460530e-05
-9.751005910517577873e-04
-1.563748956352594343e-03
-8.676023990822338177e-04
-2.561540965524909327e-03
1.006409959073085482e-03
6.460661983254799984e-03
1.955834958508420682e-03
-7.816171648027586683e-03
-1.704726016974794298e-02
-1.942547128806062715e-02
-1.156141452721783612e-02
-6.355020285250698349e-03
-4.076659069822401171e-03
-5.202745151877809313e-04
-2.637543430794829502e-03
-3.590648783934167251e-03
2.074205537988366935e-03
7.567154031456459380e-03
8.773379306039677528e-03
5.228250860579823807e-03
4.403705703966228789e-04
-1.410431852344879106e-03
2.618064075446099263e-03
6.724013362017204447e-03
8.070185330997185075e-03
1.195601910475320787e-02
6.619648243627563114e-03
-6.552194374288017147e-03
-1.112042011575124605e-02
-9.546329959268259543e-03
7.052360532771526904e-04
9.450243028269487977e-03
4.111915958019591449e-03
6.423379720154736953e-03
1.252354353990502329e-02
4.718240361919413123e-03
-2.045677311339781732e-03
-2.786912831154474460e-04
6.145868134715985406e-03
8.827242796614146944e-03
1.224331898767945428e-03
-5.338443618303649607e-03
-8.514421766204595746e-03
-6.819537052846065713e-03
2.108516312279643066e-03
2.787703964823157448e-03
-1.169584978109062916e-03
-2.586627016452320172e-03
-7.139321783225405227e-03
-5.231438307076306804e-03
-8.233985202557556103e-04
5.044916461444426924e-03
1.190176629463957254e-02
-1.195549250623847808e-02
-3.842248649903443752e-02
-2.199405189330848678e-02
-3.488134705989698065e-03
-3.636032976614948613e-03
-3.652401202919672383e-03
-5.833152644840250943e-03
-1.436335321686435474e-03
6.748960349646716990e-03
5.812398567248462482e-03
5.452462308449294685e-03
7.911599470089443129e-03
8.635719370613130497e-03
7.848074969801957512e-03
6.580426371865935944e-03
6.259344498339675100e-03
4.734518209984119562e-03
6.481653573511729841e-03
1.258287195278837318e-02
1.543609397752425220e-02
1.361873530352384655e-02
6.746442187040711108e-03
-1.688752571708692068e-03
-5.665859306500161709e-03
-4.272417395573105230e-03
1.738436841649461818e-04
-3.827428373904808931e-04
-3.504693905520655552e-03
-1.288935082443324253e-03
-9.451232187740707695e-04
-3.352070474310853577e-03
-2.923593605472900921e-03
-3.244876481170739808e-03
-4.693824524984999136e-03
-6.764746145629668347e-03
-9.995301940270111610e-03
-1.032728799927306457e-02
-7.844578952125263668e-03
-4.520799891698106671e-03
-5.873735018425196093e-05
1.276173959986534514e-03
-2.119953593593640762e-03
-2.888824174113335200e-03
-8.266358012068300912e-04
-2.753726110776814114e-03
-1.832913174780718578e-03
6.765134314091765522e-03
1.025745097059641703e-02
5.264837766212325000e-03
-6.179876731799155290e-04
-4.680150278412318482e-03
-4.295772535350444316e-03
-1.316880112131400826e-03
3.214654184891004691e-05
8.485518011068592494e-04
8.228777691073754048e-04
-1.198477335276882305e-03
-2.797298371970266366e-03
-6.702246989870277354e-04
3.783064912197429182e-03
6.834979208450845702e-03
7.633838727695252575e-03
5.734102086438835726e-03
5.254854124771194887e-03
8.772581519536479591e-03
8.829197037484229696e-03
2.345185846494398946e-03
-3.201479305108381832e-03
-2.029222289065884741e-03
-3.965518231083916233e-03
-1.112743327577019915e-02
-7.329073885855533210e-03
-1.255615284970640908e-04
-5.122737116379255011e-04
-9.034106504007009602e-04
-3.082738505043201502e-03
-3.341066507777950070e-03
-1.074687558870648929e-03
1.101168711141468410e-04
7.736150128159561754e-03
1.008803693931898705e-02
4.120907525651943022e-03
-7.829101984150648114e-04
-8.830357139422803647e-03
-7.134705150511922236e-03
2.637054067841715106e-03
5.010118276855064084e-03
6.595645478265791360e-03
4.295357085486574064e-03
-1.303627523591175535e-03
-3.462392353731536150e-03
-2.198351777828528447e-03
3.155978777669162395e-03
1.407039437565221480e-04
-3.284907028753839258e-03
8.544661795394645817e-04
-2.978066614934455052e-03
-1.524785460326358267e-03
3.829233205480791265e-03
-1.014905219404166467e-03
-8.672280565584149052e-04
-4.420971648626588306e-03
-1.459911900791105790e-02
-1.581938572406684299e-02
-1.674775139752846323e-02
-1.328213269163317986e-02
-1.723498895622277470e-03
4.161220246709977297e-03
5.721958394422054124e-03
4.695425994969177827e-03
3.630110287339648363e-03
8.838702388256172368e-03
1.299299422138436473e-02
1.274530507951034466e-02
1.042746991102346671e-02
3.781537078627432869e-03
6.646434897423865364e-04
5.467525261149637494e-03
6.750538483324775539e-03
5.412421364702870927e-03
6.049436925910895747e-03
1.257826060305211862e-03
-3.959768933013343463e-03
-4.524676183484920011e-03
-4.018786066351716542e-03
4.588432282500086402e-04
4.202440873587151397e-03
2.836972260473562529e-03
-5.455867921080885703e-04
-5.148571844803238005e-03
-5.294652023577828444e-03
-1.270556634277019087e-03
1.450336825641268448e-03
4.188343663199567716e-04
-5.004516058857921661e-03
-5.250851988975342548e-03
-2.332811972623917342e-03
-4.460775164492169174e-03
-2.635306579205559836e-03
1.932003027750425067e-03
1.899741688974454024e-03
-3.525327496607548786e-04
-3.208006268274665729e-03
-2.431815058664333305e-03
6.444639386486633115e-04
2.735510855928631815e-03
4.664633652235940231e-03
1.002718742630539844e-03
-2.998811235677051323e-03
-3.297244395390657237e-04
-1.176307065451970366e-03
-4.530380316851176023e-03
-2.510276751063020458e-03
-2.179416729084620793e-03
-5.806993152242455498e-03
-9.687774466252697600e-03
-1.396407949494782308e-02
-1.215399622789876434e-02
-1.962863714283161285e-03
8.644451732995196702e-03
1.277584641519912377e-02
6.420130090955782423e-03
8.506909916016206679e-04
6.843268307745797169e-03
1.151913784881510722e-02
1.021992007916511583e-02
9.711660981721685279e-03
6.811723124823994453e-03
1.054108503321588399e-03
-1.676654532531765508e-03
1.472175456840795491e-03
3.790294752158876023e-03
1.684545190713231198e-03
-1.209920027653512906e-03
-5.277678972109746056e-03
-4.241683533760048745e-03
-4.831040113508796967e-04
-5.081399955812934395e-05
3.479681366792922084e-03
2.051807389323201392e-03
-7.312644730773193132e-04
1.242522981884674723e-03
-2.949971640825442640e-03
5.502412634832890394e-04
4.902814021315799950e-03
-2.271166781130063653e-03
-4.664576751820630196e-03
-1.657112942544229292e-02
-2.248253501961626141e-02
-2.041309911554168677e-04
9.006182490998918336e-03
6.546869159368268881e-03
1.127340658090559417e-02
7.529474005336086150e-03
4.110086067466228558e-03
2.432797634789632315e-03
-1.161755667300813340e-03
1.073813525122807502e-03
-6.896374125855546941e-04
-2.950743609554066973e-03
1.272422270643533675e-03
-2.869986756905409052e-05
-6.454532800322241443e-03
-9.810489265182265398e-03
-1.066914402312423536e-02
-1.215252148238799186e-02
-1.392480476894973791e-02
-1.163260859860050511e-02
-4.243337589389757289e-03
3.586756039706055256e-03
5.965186521693557203e-03
3.036392638030341838e-03
3.832276597065126418e-03
8.734402866975500557e-03
6.961710912138612331e-03
2.002529844760371318e-03
1.909678456625759930e-03
3.315209067272101903e-03
6.437220659223769764e-03
1.101706859918333628e-02
1.219193119444730161e-02
6.772169512611681159e-03
-1.563887624492041979e-03
-1.638464164346270600e-03
3.172584708558498327e-03
4.272587058502283312e-03
3.911793634677297044e-03
2.194170937266824977e-03
1.258752452798757608e-03
-4.938063713950431458e-04
-2.464826552304269849e-03
1.684836828714888698e-03
4.608775315338825215e-03
3.503489155016066645e-03
-1.217424135817925203e-03
-9.226530959836118720e-03
-1.109614493112039482e-02
-8.020435112005334932e-03
-2.108270614990314512e-03
-3.051398768156738175e-03
-1.322856963160462529e-02
-8.943756172020499162e-03
-1.020479412791814536e-03
-2.162041665934217455e-03
2.320376566676228373e-03
4.288235865133493974e-03
5.856337185516412649e-03
8.798065171055519454e-03
1.053166229196529722e-03
-4.772286715373751272e-03
-5.477579946089753196e-03
-5.065691502006526396e-03
-1.679085473583311321e-03
-3.166586283281407760e-03
-5.712264417749058319e-03
-5.448944693629232880e-03
-3.754476517605855827e-03
1.672427321035896853e-03
4.571006356256734036e-03
4.265821200974930644e-03
6.768970729863608808e-03
8.261841944996165324e-03
2.890234277629191544e-03
-3.163413336767819777e-05
5.118322693158021235e-03
3.561111521759665038e-03
-5.760544705314499551e-04
3.495481567938970528e-03
4.750472937937002746e-03
2.552412100527462219e-03
6.591922814595745734e-04
1.177556734119269565e-04
3.276952782135122370e-03
2.680455012111154084e-03
6.388549877515563346e-04
-2.928782767349092904e-04
-4.926454185753693926e-03
-6.648075702112326429e-03
-3.781215665488529398e-03
9.216195555802271554e-04
4.738890461450746480e-03
2.293760360061913601e-03
-4.310132220639689943e-04
-1.101053873763160841e-03
-3.204731295597847140e-03
-1.982542391359296430e-03
6.439887843252593228e-04
-1.186650287535096025e-03
-3.455167397148965064e-03
-3.297008746066344264e-03
-4.888433969705407306e-03
-4.128073093951296728e-03
4.406724188051065923e-03
8.026079014274186199e-03
9.266396149653731559e-04
-6.305843452049381646e-03
-1.030406683003426069e-02
-8.531502328213900338e-03
-1.128076583986644191e-03
3.823273333791918881e-03
4.609118448961703474e-03
2.617193233959973220e-03
1.240357956724363886e-03
2.767058704373653779e-03
3.328657570762953016e-03
4.089132074742428923e-03
3.465947962167542293e-03
1.922501259316662290e-04
3.509180606216563691e-03
7.975244718117129386e-03
3.012924384075097838e-03
-2.077476101203189034e-03
-2.750705915437989726e-03
-4.163072951857517585e-03
-4.436195920954694866e-03
-3.100298880625761144e-03
-2.409069554238578437e-03
-2.747396584027536007e-03
-3.153699767226487895e-03
6.560484014801825454e-04
5.918133969750202783e-03
5.159861444347276817e-03
2.109893471685031149e-03
2.194843610504774263e-04
-3.193746914859336202e-03
