-5.791818227685503924e-03
-4.503490299881020807e-03
2.718872413061226064e-03
7.591647339887788032e-03
1.356835473712055679e-02
2.264155732756490888e-02
2.893468346087889678e-02
2.294452277846724397e-02
1.599629938051093034e-02
9.956289003566529128e-03
-2.501977048845484795e-03
-1.094242456987627038e-02
-1.692443879218497732e-02
-2.032745463867420208e-02
-1.854811880448585873e-02
-1.930096818903090025e-02
-2.344226392801704653e-02
-3.070922461725465041e-02
-2.483260152068633014e-02
-4.420392899974026277e-03
4.170764562822798331e-03
2.560907255933458741e-03
7.893631332948297750e-04
2.723365949876367393e-03
6.494197151391841068e-03
1.087909067432752189e-02
2.172852240188021325e-02
9.202245419628772224e-03
-1.529062951032406081e-02
-3.060532089459280184e-03
9.437404061372665562e-03
1.818393870064776482e-03
4.666422871896679786e-03
5.652273459550978194e-03
-3.902122901010910035e-03
-9.999967263300213460e-03
-6.405988155882027385e-03
-2.754088178320114122e-04
1.739395020756530743e-03
5.971898504873594110e-03
4.250609138122494156e-03
-2.166882179752074086e-03
-1.546563299168991594e-03
-1.835916062984841021e-03
3.609662666016219632e-04
6.184833074428764191e-03
9.110896789300685847e-03
1.199910426490146710e-02
9.144475790158526282e-03
2.345124496011810264e-03
-2.286704394814190969e-03
-4.449039637618280342e-03
-2.047113235505575689e-03
-7.893782050990331110e-04
-1.152028854812727800e-03
-2.536519385646953707e-03
-5.567376186483144647e-03
-3.276495387093068031e-03
1.014902364105960044e-03
4.518528346950979185e-03
3.970348671488149218e-03
-4.653688677658119298e-03
-7.907534121480909450e-03
-5.557668226924192961e-03
-5.823080072713465900e-03
-1.130566506659647997e-03
5.635123791639198333e-03
4.621833673952728365e-03
3.944460773531382558e-05
-6.963995582197051587e-04
-3.196167712969013881e-03
-7.733174444268266917e-03
-1.854218990110231792e-03
5.228477639906205753e-03
3.628924741039310595e-03
1.628147173327915750e-03
-2.865137425596511831e-03
-3.667946191341205087e-03
4.751487043822633441e-03
5.388875637906773847e-03
-1.233928372241399401e-03
-2.429397156984827721e-03
-2.131839131094690615e-03
-3.936153419624767620e-03
-4.505008232520847644e-03
-2.507398722332647347e-03
1.107879802272850782e-03
5.137041233220973092e-03
5.439982232060252415e-03
1.852539083217701011e-03
1.086978262971526445e-03
7.075954655595987838e-04
-1.364998861610390102e-03
8.537625023936716833e-05
1.518413954705688344e-03
1.250214716870463091e-03
1.588008638298876772e-03
1.750032999371740850e-03
4.167741785958389497e-03
6.480372123614221158e-03
4.601279454916852238e-03
1.014938617769479620e-03
-3.334256969848456171e-03
-8.499103667258969472e-03
-8.638946994542949509e-03
-1.359514129939964856e-03
2.621704175550152848e-03
1.267716011733901506e-03
1.947657155619479533e-03
-1.265037074810814984e-03
-6.679142501121382997e-03
-5.017778520415066591e-03
-3.847344281680297948e-03
-5.837389388542125676e-03
-2.547487262450687240e-03
2.866387607752912854e-03
2.889717667747058148e-03
2.028444444661604753e-03
5.108516937293610359e-03
7.613215520188777036e-03
9.179385639911868261e-03
7.780961021770149352e-03
-1.831449575154483686e-03
-8.925640957555483132e-03
-5.412660966583465738e-03
-4.444016971213337252e-04
3.474289813746382106e-03
8.606740158154525810e-03
6.960442243233463597e-03
-1.846845544075045387e-03
-5.367167207302801606e-03
-4.802235304073956303e-03
-5.293762577360054331e-03
-2.221472948074581892e-03
-3.355551844008026682e-03
-1.009549763867008919e-02
-8.706535782082117439e-03
-4.499086494297173736e-03
-2.278008902988275502e-03
6.311234865595491753e-03
1.328186678897821764e-02
9.203134355756294183e-03
3.168771408504054282e-03
6.380880286506530105e-04
-3.206974039505857809e-03
-3.982839916085958130e-03
6.676309797574200540e-05
-1.696931409305427923e-04
4.331261711327927645e-04
4.666972712794751309e-03
3.017755963273186046e-03
9.999417399819470961e-04
2.989588126717837233e-03
2.453729172676654639e-03
2.752363101470848726e-04
1.183893443103067682e-04
-8.908603109511773963e-04
-4.034067950045175030e-03
-1.004512437692116214e-03
4.100465002826987095e-03
2.327310577775489314e-03
2.043920304765851730e-03
-1.698027483883822724e-03
-1.179577714264156557e-02
-1.070271840734653840e-02
9.522501617955506700e-04
9.436549515200115881e-03
5.309568538946617122e-03
-3.198328749614402083e-03
-1.808183789438726511e-03
-2.314230609932890292e-04
-7.212134990553517935e-05
1.955865575217047379e-03
5.691721079949956007e-04
2.118238210116240965e-03
4.485040650722999823e-03
7.229342585464257516e-03
9.285786759188242520e-03
5.546775690991286208e-03
5.898052415748498978e-03
-6.814922811024256601e-03
-2.913309470877121360e-02
-2.237175375341109856e-02
-8.304868834146163573e-03
-4.730734381551579722e-03
3.349297244893202716e-03
5.581794077844343983e-03
5.803480544940116219e-03
7.656605809691941454e-03
5.823597223594717195e-03
5.725402982471951979e-03
9.374790538896701384e-04
-1.355887463310372120e-03
2.129489818600261829e-03
-5.145493840393448089e-04
7.063834493114284929e-05
1.002378813814342254e-03
-9.384233302569303884e-04
4.638475858201818181e-03
4.382272867522077169e-03
-2.443945145095772955e-04
4.605232157819946250e-03
3.596302275237898884e-03
-5.752254914526360938e-03
-6.701316599668945273e-03
-1.425842972959613024e-04
5.109751546510538263e-03
4.749602079961862990e-03
-2.854370790664857650e-04
-4.338858504371200311e-03
-6.918588410079800667e-03
-7.715291891969606672e-03
-3.266113359659213178e-03
2.400791785716927928e-03
5.080894739041813719e-03
3.042468488842264406e-03
-2.491386831416467738e-03
-1.114660236111731468e-03
5.839657573025748213e-03
6.913287803948286146e-03
4.294620102443212628e-03
2.202250935353858817e-03
-1.182864845226550259e-03
-5.939424174488385985e-03
-7.357389479835326623e-03
-3.568523695281195559e-03
-1.062748999800750081e-03
1.227463153513181152e-03
4.363642099226117815e-03
2.259981954532613857e-03
1.663395549559172604e-04
3.661293795714321508e-04
-2.441891637269608464e-03
-6.508553062306630596e-03
-8.135817571143257737e-03
-3.852044744243764054e-03
2.839023920949809883e-04
1.865464950204105774e-03
8.964549425756774062e-03
1.146770823074516783e-02
7.085919922100204771e-03
6.115213113584630836e-03
4.960521082479786960e-04
-6.728370471980726214e-03
-5.743095190403245398e-03
-2.182337021717900387e-03
-1.415779354584807519e-03
-5.733720579258025536e-03
-6.787926239647847255e-03
-5.502717503325205801e-04
3.660901628095068402e-03
2.327399717900777848e-03
-6.842059275873516901e-03
-1.172444209896241450e-02
-2.011368443757279544e-03
4.708599818307314215e-03
4.226854630512931303e-03
3.616647872167394039e-03
2.900980024466229008e-03
6.312316049286668604e-03
8.357767330017900481e-03
5.809884774608121104e-03
3.989234645092237797e-03
1.290833025582027727e-03
-2.799922898559415937e-03
-6.617293509007532958e-03
-5.585287873319799701e-03
6.305052702952650742e-05
2.988214521020054245e-03
5.192356290841045226e-03
6.654120411027624610e-03
2.855616292544500400e-03
-1.515640011469593677e-03
-2.070328821954568830e-03
-1.251409568275343217e-03
-5.684550106395747700e-04
-1.537386882118831066e-03
-7.302629901641839900e-03
-7.082762331505037222e-03
3.694232428386076596e-03
6.442786258039608603e-03
2.339185645198531456e-03
-1.352830608525270066e-03
-8.926518781993625709e-03
-8.507421551844989230e-03
-3.891454770802885849e-03
-2.881727356440578602e-03
4.940011544088682323e-03
7.981001706319733324e-03
2.130036522553984540e-03
-6.238063039774537468e-04
-2.930232315476059834e-03
-3.026620108064932702e-04
5.027036905925362856e-03
2.325067013398171567e-03
-8.137716107333753564e-04
-4.398197930176252386e-04
-1.533217259822321340e-03
-2.732940402722683002e-03
-4.502222841171517483e-04
1.154204680372771397e-03
-2.386229728883863116e-03
-2.999799042333433675e-03
-6.200601266224097918e-04
-2.013044270171053789e-03
-2.109719391867455069e-03
-9.298297358061001494e-04
-5.903811050962790756e-04
3.819439072608570192e-03
9.030324698637525599e-03
8.280510815834422195e-03
4.961194443578202315e-03
3.219130085541277355e-03
5.100381462126678256e-04
-1.111586121529999083e-03
-7.264659039310071174e-04
-3.026266728130194272e-03
-4.229322926561368198e-03
-1.318998625481896574e-03
4.135684489170400081e-03
9.331910164424190093e-03
8.554476848808233863e-03
5.757416866945001474e-03
3.181266726581170098e-03
-1.761580302529730220e-03
-5.234571614211233452e-03
-9.772288435769969223e-03
-1.492110280272850725e-02
-1.564942243985160616e-02
-1.236207892795803884e-02
-3.552370891147427125e-03
3.563216954017670978e-03
4.125787521844137898e-03
5.398288331801804132e-03
6.407837783817247647e-03
2.520610076136126435e-03
-3.255417808884056123e-03
-1.668130438396517746e-03
5.844848469580955427e-03
7.012128437861763625e-03
6.225017021600630363e-03
7.534154973917140882e-03
3.525912556428902056e-03
-3.500202809991605039e-03
-7.332611142985339010e-03
-3.472347563132279283e-03
4.004115644825964257e-03
4.449740543260974172e-03
1.157670356034303351e-03
-7.514996155036338826e-05
-2.011028572952702417e-03
-4.545861557969568985e-03
-6.045602406257227258e-03
-4.053102993937682426e-03
1.368919108916161155e-03
-8.710328745004406945e-06
-7.412891998101705897e-03
-6.024822061092624005e-03
-3.259201527419651771e-04
1.543043482573105843e-03
5.210428102158671734e-03
5.959012891990921740e-03
3.149243223125877504e-03
2.718337273939654304e-03
-1.040362396544753602e-03
-3.632294838893533086e-03
3.952769835322068534e-03
1.129049525205147106e-02
7.952729198092730115e-03
2.817914257529915718e-03
1.936706401615435197e-03
-8.572882123473941126e-04
-2.451066564784822217e-03
-2.107279264026141758e-03
-3.758092483048145090e-03
-3.880184026911140914e-03
-3.584452453546460061e-03
-8.514588186685169077e-05
4.778486122096037465e-03
1.927115032773777693e-03
-3.047552300371578118e-04
2.762370773888191914e-03
1.500661377243819438e-03
-6.334634634066083937e-03
-8.022054842883083459e-03
-6.049508665565662795e-03
-2.007588360414426856e-02
-2.404794947239363712e-02
-1.710693538033500457e-04
9.588227434855694370e-03
2.895740048077358880e-03
5.237197590548556964e-03
9.040310708080251736e-03
8.625216541581787882e-03
5.350532651980221405e-03
5.294902674817777814e-03
1.005018611555662245e-02
7.441638335983663186e-03
2.640797103112871823e-03
4.263060490963449523e-03
2.669851235407340317e-03
-1.392338223557278501e-03
1.332418290914704796e-03
3.075994073423913514e-03
-8.804992648796439083e-04
-3.044332307809443153e-03
-4.952258638870751621e-03
-3.811385487345462630e-03
1.770571543461494854e-03
-1.180238697137991796e-04
-5.011377704204541053e-03
-5.855519630886256433e-03
-7.320357304141861428e-03
-5.070865646783972655e-03
2.867597769543323970e-04
1.517350034359567917e-03
8.526067488821965999e-04
-1.904580093311294790e-03
-6.294252935048076474e-03
-3.595547117920220616e-03
2.221636129232218600e-03
1.892192216626076241e-03
-4.488306461365175514e-04
-3.189719907488312075e-03
-3.829418356917151881e-03
1.020349372259546361e-03
4.522031835892010264e-03
6.845086559880465132e-03
8.724353256472763829e-03
6.722765701164263273e-03
4.516813606265905265e-03
5.043820285908516554e-03
6.219993869701540869e-03
5.444269896563850349e-04
-5.118816357748369981e-03
-1.448464783408109652e-03
-1.884328473446896489e-03
-3.260078624813840444e-03
-2.752006542236700402e-03
-9.579837061792936120e-03
-4.625236619854638555e-03
7.520620166581646476e-03
4.351931013528128125e-03
-1.532444689903591064e-04
-1.891651411716685754e-03
-5.462357819051558497e-03
-1.592219921419225394e-03
3.292996794358737933e-03
9.439741372130326961e-04
5.815696636944176086e-05
2.728430504168273974e-03
-1.569542386817031473e-03
-7.768225248525124221e-03
-3.939671801784342536e-03
1.434457474609514543e-03
3.807940855410191466e-04
-1.478209307274074317e-03
2.946201255490467396e-04
4.470649139406929727e-03
7.750715052002176905e-03
8.841291988241791605e-03
7.049006370799587237e-03
5.354825888585179952e-03
3.605982483381330820e-03
-5.468566390557399147e-03
-1.398645115172392900e-02
-1.044052160525637055e-02
-2.880897577370311602e-03
3.842434766574808879e-04
6.531846120850660214e-04
-3.529144502783483151e-04
-4.396533550015077098e-04
4.145061384786953400e-04
-2.117408032489062966e-03
-4.977779028908182156e-03
-7.307974265139728382e-05
4.448384070853319411e-03
-8.381019037388675458e-04
-3.701420616963549230e-03
2.337981679565093694e-03
7.873906026022265900e-03
1.174479319662679981e-02
1.296567120901336717e-02
6.143738995535940293e-03
-2.669006226670878057e-03
-6.301054746996727872e-03
-5.199894695682424905e-03
-2.246268911391314464e-03
-4.746628079625247825e-04
4.752648397460629238e-04
-6.305368069038241484e-04
-2.460445610213685477e-03
-1.015761516967281057e-03
1.595101520504417589e-03
5.615701585566536952e-03
5.907236787326288971e-03
-2.387865214374103946e-04
-3.783050089679488703e-03
-7.809742786882306435e-03
-9.637556953039120092e-03
-3.751593826688299094e-03
-1.668987636127997531e-03
-1.247074591502441354e-03
-1.214859724254882837e-03
-7.063411646817982330e-03
-9.401751654134912761e-03
-7.037637469384496781e-03
-1.073604444019104391e-03
1.039003618791061075e-02
1.649396633216188013e-02
1.080295318770644469e-02
1.532422095914653254e-03
-3.036715158273624402e-03
-4.331857222118523816e-03
7.573512862357354922e-04
9.298564011112052732e-03
6.188699191822247085e-03
-1.995283672693827330e-03
-5.025170883182363858e-03
-1.250703508899738466e-03
8.037630429144628288e-03
1.028568161839973558e-02
8.858330199807451164e-03
2.175644049950963520e-03
-1.079761447570251262e-02
-8.035478651319902937e-03
-2.243562016289622589e-03
-2.752742916871312243e-03
2.738012039727213444e-03
1.463898230799957423e-03
-1.626218347819707302e-03
-2.214942090668858398e-03
-5.975251323580491394e-03
-2.430920493096688957e-03
9.574529195212371684e-04
2.441714492106217965e-03
2.723831057077348832e-03
-3.598544388359045838e-03
-3.271393276506013009e-03
5.073240462321538169e-04
3.088313428251619579e-03
5.921828682183059682e-03
1.131561015485501231e-03
-4.703411781613042741e-03
-1.040321465688583136e-02
-1.092200942640368828e-02
-1.054047513565835054e-03
3.539020006384534754e-03
5.643964245132298586e-03
6.063896281985775918e-03
5.889686969669607509e-04
1.078356542543944599e-03
7.314342618573250934e-04
-2.494124115554927513e-03
-6.129562389434557376e-04
-3.642877109491031136e-04
-1.285741227055312887e-03
-3.143626793434949312e-03
-3.768259846858697682e-03
3.963823077137790078e-03
9.474945294847058469e-03
7.888532666891445028e-03
5.638571005152068216e-03
-5.417347263105426209e-04
-7.149878419950704556e-03
-6.761386375861445572e-03
-3.185936841487051370e-03
1.555060679744579453e-03
4.717564683155751198e-03
4.061890629315776866e-03
4.708728648824308215e-03
2.719121550369602881e-03
-2.869085376674451130e-03
-2.464858854645163126e-03
1.199617856610399411e-03
2.154775209542787902e-03
1.289729420594313593e-03
-1.832445775381626347e-03
-4.889882047557431860e-03
-3.655770206971566648e-03
2.783242491693080031e-04
3.112396749464813907e-03
5.035431863571398353e-03
5.016108068996208945e-03
1.577558441354429087e-03
-3.872112281402813414e-03
-4.916464612778906340e-03
4.675976909339024309e-03
9.684507900359401802e-03
6.296973402873171435e-03
5.012943471901379691e-03
-1.433766666368921881e-02
-3.438415578656382754e-02
-1.999121762836599328e-02
-2.546814773650504880e-03
1.849748395448740177e-03
5.227981072143093183e-03
7.264376261010485267e-03
1.319526706961839969e-02
1.308083176082559806e-02
6.957604284657165072e-03
5.229880360804348323e-03
1.576811838727706873e-03
-1.270200847152310082e-03
-6.211518875474424800e-03
-1.207483610373533654e-02
-6.844446266706566244e-03
8.790680054481293001e-05
1.175052821701157580e-04
-5.799552286585390971e-04
4.045917635745336152e-03
5.639594547314863079e-03
-2.796615596587513890e-03
-6.056823666075211721e-03
5.520123084000458976e-04
7.557854726232947178e-03
6.465378321184474773e-03
-1.327197063204188423e-03
-5.308465288283034872e-04
3.413262695342673438e-03
3.064544195337443478e-03
6.859310730350742097e-03
8.939384646822225861e-03
2.683525762015422957e-03
-7.305177591606160266e-03
-1.055169563526930226e-02
-6.234389332664625784e-03
-3.377378003963669127e-03
5.118154640756158178e-04
4.100030229981853173e-03
6.250283102296414102e-03
7.760436082896692012e-03
2.991351200279704445e-03
-2.225990114430587575e-03
-2.866842736311704404e-03
1.439818273367094196e-03
3.376972948193800606e-03
-3.065132237379076391e-03
-5.124937882539240888e-03
-3.776550784612222461e-03
1.066249513768314800e-03
8.116991932149673905e-03
7.668327900719173681e-03
1.107794058695922568e-02
-6.774287012148104935e-03
-4.145758140562177951e-02
-2.781941865246482376e-02
1.155794968513054613e-03
4.659149012616803885e-03
1.039403883292140153e-02
7.736948475326671688e-03
1.553385053135403421e-03
5.962178662084625241e-03
3.130746771908645733e-03
1.921171378916447427e-03
5.035975576646518556e-03
1.669590312047453291e-03
-5.766418036321134619e-04
-9.345769826373780467e-04
-2.487671151139625447e-03
-2.038961160497644576e-04
6.846312730313250210e-03
9.381221188719200341e-03
5.963533886603701942e-03
1.504437949150700705e-03
-5.620493277182771370e-03
-8.941090255264183551e-03
-5.603383499720323256e-03
-1.254907387516106048e-04
3.339261693629319832e-03
4.009380979505400289e-04
2.756433545025896133e-04
4.323525496384524784e-04
-3.596638617799987041e-03
4.732458996804140574e-04
1.849517776703335070e-03
-3.020956745779265588e-03
-1.752878709314520563e-03
-1.449217084928127721e-03
8.947461086925027538e-05
6.690485347931519021e-03
8.552382988723544743e-03
6.657916813294103772e-03
7.203535748860361368e-03
4.007431710004177514e-03
-5.823914746488351515e-03
-7.457202255057639520e-03
-1.754748887405599292e-03
1.365142481105890331e-03
3.272023492767555698e-03
5.621919063916138619e-04
2.031640932054357227e-03
2.736495669050658872e-03
-5.783201541367759616e-03
-2.946447976778776828e-03
-1.997631336315693431e-04
3.737488898598147137e-04
1.532972181898588923e-03
-2.672398026715620475e-02
-3.463932891988295154e-02
1.128086955626964863e-03
1.209555789608976299e-02
9.927710553851977482e-03
1.228807120351473742e-02
-2.092620096139007296e-04
-2.212401762181801304e-03
5.933614659187342981e-04
-2.229658705191344802e-03
4.455805419704958470e-03
4.515098972205019989e-03
7.318602799355923691e-04
4.262979791269747715e-03
2.941607518748900335e-03
1.514851513059451696e-03
3.094119401254324681e-03
1.799630545243131440e-03
1.381065244636075400e-03
2.459091736359295642e-03
2.724400098891283702e-03
1.359559640664953365e-03
-7.513886734330443243e-04
-1.400954747723377183e-03
-3.738247769825057097e-04
1.869364822614585919e-03
5.690350514764505596e-04
-6.213286211098379384e-03
-8.763569480003275541e-03
-2.397289503853725599e-03
4.470723002958848676e-03
4.765219258038113671e-03
1.999178427803278806e-03
6.860358900300997376e-04
-2.307041681030551090e-03
-5.320668302090218911e-03
-3.585445365894773719e-03
-7.231254690293688640e-04
1.513156910656585606e-03
1.696968498889737768e-03
-6.649770226515315562e-04
1.309489845309998917e-03
5.126795245300025047e-03
5.052258172932875928e-03
4.196768841972803137e-03
3.884676110917558225e-03
2.792339358059814890e-03
-2.406149515664844380e-03
-7.874814475911463829e-03
-5.429652559652295950e-03
-4.166264059100501654e-03
-5.636017362966753118e-03
4.672512502897747618e-04
5.394355787968331626e-04
-8.772213988655080605e-03
-7.201716432629653823e-03
5.252959217251573039e-04
3.608429762715418838e-03
4.650583726601637165e-03
1.818530831743156396e-03
2.281415340671236192e-03
5.606476568815936187e-03
3.070191974347855329e-03
5.353581797543438894e-03
7.307734214130320871e-03
-7.450307965014702893e-04
-4.530248050562823633e-03
-6.844687030848686793e-03
-1.122150190925330464e-02
-8.400488695836962061e-03
-3.738393046579890563e-03
-1.409255877711049231e-04
2.110099953907536123e-03
3.240029009399316134e-03
5.166429509421666469e-03
7.615230057759687400e-04
-3.046918741811537349e-04
7.971318122087130142e-03
8.506873776365398918e-03
6.863629529557855463e-03
7.826127407967996621e-03
2.636192873924522902e-03
1.247198662833093460e-03
2.555616375402249788e-03
3.178074741082769286e-03
7.323593507961557135e-03
-1.717533703793737844e-04
-1.236190896937523938e-02
-9.684191059434328966e-03
-3.275175043146690175e-03
2.438242345506455772e-04
2.234271915041190736e-03
7.721963811121645635e-04
2.167246501975148357e-03
6.148471952839965754e-03
4.467414433594506067e-03
-2.759222996307716860e-03
-4.912814206073623166e-03
-8.720613814940839092e-03
-2.657007566325192069e-02
-2.913447620147201905e-02
-6.035248574935923524e-03
6.382540321762895756e-03
6.851331861381180360e-03
1.070208957893526401e-02
9.090895292783609735e-03
1.568143595164303615e-03
-1.557735853974103650e-03
1.147719132900060701e-03
2.440002544596153473e-03
3.488951661381623631e-03
6.073831466481915617e-03
4.970957268227689865e-03
5.377285550577232121e-03
4.413315596871141173e-03
-2.324594310764377912e-03
-3.359492159430009939e-03
-1.097610812530279011e-04
2.680178002879634973e-03
3.495729825517700142e-03
1.948927099078975531e-04
1.642164912157082065e-03
2.349341969663233838e-03
-1.052331210221701908e-03
3.075567542396914680e-03
4.451890252891417890e-03
-8.649458179034642423e-04
-2.358242261152624242e-03
-5.013172021392065837e-03
-5.696397980167940481e-03
1.097946260782259537e-03
3.780437885252332150e-03
8.647377132878523651e-04
4.206350886638190035e-04
-6.700461180608606633e-04
-3.278440401530478658e-03
-2.111604785007568930e-03
9.425804410948798511e-05
1.052204673688076188e-03
-1.227958058870789993e-04
-2.733517774226108983e-03
-7.931652408962026977e-04
2.656409541499121785e-03
8.216961426216164849e-03
1.109120012054296694e-02
1.320621806233626856e-03
1.452582310985958995e-03
-4.118979404277517756e-06
-2.747026980771577129e-02
-2.717574164896839617e-02
2.967098945110373254e-03
3.602860086553744904e-03
-4.910354750307855363e-03
-2.031795704663045122e-04
1.461215267765121791e-03
2.819807737635949413e-03
2.671391229051461348e-03
4.283270155441743290e-03
8.327632466696238689e-03
5.873041557921104133e-03
5.165430870607949816e-03
4.533848594941900477e-03
3.033964250095982224e-03
6.818201941268742065e-03
6.653797307328573538e-03
6.319858469324832716e-03
6.101628268568877640e-03
-7.974690277598496264e-04
-5.380798558287228084e-03
-7.894564029878954961e-03
-4.683221717919207154e-03
4.827748333448484731e-03
4.528591326436776261e-03
-2.470703300915249733e-04
-1.466792908186017458e-03
-2.315889177775250479e-03
4.455921005496748404e-04
3.133224768442680139e-03
4.516542212785845493e-04
-2.021926163098244390e-03
2.167933516187094730e-03
5.235637792733680365e-03
1.611637730309455237e-03
-2.764106080245569636e-04
-5.388994170767082582e-06
3.472514354964986553e-03
3.512343670111561962e-03
-9.167094122000823270e-03
-1.532222039863103888e-02
-9.117074223180492501e-03
-5.380543013888563044e-04
5.724257895500423771e-03
2.173490909194756952e-03
-1.056208277769164977e-03
-4.660127717295561509e-04
5.032532095879197745e-04
1.512634820448168285e-03
-2.866309317056848919e-04
9.179098586010321983e-03
1.187094014998507467e-02
2.803009224453339131e-03
6.686573556923238772e-03
-1.235165705114384463e-02
-3.148893181238298505e-02
-3.386999801876481361e-03
1.180240719370908263e-02
1.662451390502506102e-03
-3.105967566129338130e-03
-1.094346109161136761e-02
-1.240543712750864433e-02
-5.554585441626741157e-03
2.350915862284301983e-03
4.340071809192541999e-03
-9.909273410351675075e-04
-2.320614712022130849e-03
-5.692376326186246276e-03
-5.629959290228439724e-03
-1.940766126266483182e-03
-1.855855653366737237e-03
6.985206674382815964e-03
1.166321900450283632e-02
1.204851785385672655e-02
1.926910009796789849e-02
1.773130252304953164e-02
1.276514491670176395e-02
1.034428029297734981e-02
7.213713646871787108e-03
5.139604769831853520e-03
3.524717788947660368e-03
7.036007866154397709e-03
4.069037956762463701e-03
-4.439178120404721137e-03
-4.845003720702578849e-03
-8.065321459212406244e-03
-1.211000879704896005e-02
-1.262518453353816614e-02
-1.326772285607949638e-02
-6.513654946208518454e-03
3.702061383355509210e-03
1.035025643136351127e-02
1.127108698838449712e-02
8.608935793376617726e-03
1.040694451075826685e-02
1.144880354210976031e-02
6.418790002949613382e-03
-6.576985302814559488e-03
-3.239558710531092317e-02
-4.698689054225935191e-02
-3.032741622722684091e-02
-1.108995305489873101e-02
6.448394371519764259e-04
1.286381725276232978e-02
6.559144341510083492e-03
3.468726327958535430e-03
1.594474157388070176e-02
-1.053682637040312007e-03
-2.217561432377881947e-02
-2.183629272527922924e-02
-5.093176325539496702e-02
-8.723749466655740525e-02
-7.829680777241257439e-02
-5.289289297143696944e-02
-3.020191648336592941e-02
-1.268123294823115697e-03
2.300288660314334099e-02
5.365108352985163698e-02
9.409987889259209537e-02
1.058055329354959662e-01
9.224047697727083550e-02
7.923463593506210878e-02
4.997673931522281232e-02
1.513920238593654795e-03
-2.105741718396782550e-02
5.232305123151447836e-03
2.276383092126487220e-02
2.539020086733578818e-02
7.895531533714680861e-02
1.114542897259487575e-01
6.022375343370392486e-02
1.262373037392965081e-02
-2.604498982982633368e-02
-7.056834511829268575e-02
-6.647016149434541166e-02
-6.051754826427342693e-02
-7.468820727191378961e-02
-1.402038702918019346e-02
7.318464606270771999e-02
4.424116331157688931e-02
-4.176737527698923952e-02
-7.212182678876424835e-02
-9.323590652788121824e-02
-1.281919169948558257e-01
-1.181726071045496318e-01
-8.437754211131304194e-02
-8.376848443630371954e-02
-7.778323564334566065e-02
-2.584020562905467444e-02
2.378291574778079037e-02
4.888776242332534133e-02
7.283583397315414321e-02
9.422668766099877302e-02
8.158739419465964315e-02
2.612835952686666866e-02
1.855362434448353318e-03
1.179221584313780435e-02
-2.226884135851833410e-03
7.124403839864715607e-03
5.869956174572067698e-03
-4.688399393625923561e-02
-3.714730466052802715e-02
1.944043693430834788e-02
3.498987645129923718e-02
3.960269306085735519e-02
5.681498435800363261e-02
9.624651043582045651e-02
1.355808318729529449e-01
1.136777554326592332e-01
5.987054629300263969e-02
3.260346477627441841e-02
1.381023058366439432e-02
-5.004370478247087070e-03
-1.321717207053067777e-02
-3.029501077610489979e-02
-3.611511417110703503e-02
-2.554024650328642898e-02
-4.115104718842910181e-02
-4.732082784312217211e-02
-2.441406939808911380e-02
-3.111350395632354188e-02
-4.526581771594401921e-02
-2.151139879241471820e-02
-2.500832434858055522e-02
-6.090436796398104868e-02
-2.677204380436814385e-02
1.046149488564264429e-02
-3.550329634901469578e-02
-6.236900190075387457e-02
-7.630566337040811664e-02
-8.535936355332929271e-02
9.762159392011646522e-04
4.925982243029894403e-02
-2.354646890863582379e-02
-5.186209242667333408e-02
-1.763364426038155006e-02
-1.108660225037390312e-02
1.896297206191652207e-02
6.939967047845799208e-02
4.014677124436178551e-02
2.636869686971253166e-02
9.677267318955147524e-02
7.776787726554307278e-02
-1.293773927558132357e-02
-1.165757866210306339e-02
4.833752986755543435e-02
8.989158691046549021e-02
8.288574152871418244e-02
3.174938725794402422e-02
-2.926464723382722621e-02
-5.884992666194868022e-02
-1.670203407374001511e-02
1.323852454878474442e-03
-7.574871496047475006e-02
-9.807802069893473140e-02
-1.170219773131735315e-02
4.335943163269651707e-02
3.124795402720779991e-02
3.487775711048433230e-02
6.145238294686485025e-02
5.552992872797379853e-02
2.263353957213046566e-02
6.273478587366748856e-03
7.746123311180825623e-03
1.711431578695604000e-02
3.601113776841503161e-02
2.425200080295190561e-02
-2.588601511285849172e-02
-7.482907788928744308e-02
-1.274347114260966085e-01
-1.215758813198884597e-01
-4.843366896069032507e-02
-3.053166114822193980e-02
-1.346894946010275020e-02
3.578044651513066082e-02
3.088413267604159934e-02
5.381818513996234482e-02
8.713535093664362408e-02
2.358403417224966617e-02
-5.617693128634287242e-02
-8.393180846138079132e-02
-5.854366924466142263e-02
-2.766213263420038565e-02
-3.983498513592429596e-02
-3.941069316800897143e-02
-2.692109862071874818e-02
-7.682234282025220476e-03
4.333322327319840545e-02
5.152057280207182621e-02
2.814365320083532518e-02
3.035894010403517723e-02
1.164630803856749226e-02
1.530243274523329644e-02
9.102104227249510626e-02
1.247375310508843788e-01
7.041669248978688067e-02
3.061013332761856193e-02
3.141442104739813890e-02
1.417322784526049012e-02
-1.750732780346839906e-02
-4.117710339673712888e-02
-5.716500453771795887e-02
-5.190941490742696091e-02
-4.311521168831502354e-02
-4.099300407917352840e-02
-2.258054731692957229e-02
-9.903382984596725835e-03
6.009408121328492329e-03
4.455822310249420160e-02
4.048604424294989512e-02
1.262595347019004931e-03
-9.043627778689784791e-03
-8.262849316991041984e-03
-4.635645971540052271e-03
-1.359916018119262677e-05
-1.930820962793861756e-02
-4.519618611307985728e-02
-5.711490784111404595e-02
-4.968369365571448371e-02
-3.841790445808038884e-02
-4.405895099855901970e-02
-2.633919354318792899e-02
2.135453376100717240e-02
3.966028565363019509e-02
3.075930019625768702e-02
2.136170589548151005e-02
1.116704521512235440e-02
2.032528477857100876e-02
3.615209181906127445e-02
2.442032320699264250e-02
1.193765166051261907e-02
6.510825523915232844e-03
-4.029643363115469404e-03
8.374981718541158957e-03
1.710855857964355825e-02
3.251934321505993864e-03
1.137305450792159764e-02
1.716933889318054615e-02
9.123184788777074150e-04
-3.727695877684063502e-03
-9.038632060604128490e-04
9.969093313722143801e-03
2.347297404914790858e-02
1.752664455242293473e-02
6.632201362201124023e-03
4.944618496753590969e-03
6.648216228678105293e-03
-4.494988742520533882e-03
-2.428365673242495124e-02
-3.555845456169017677e-02
-5.242482703950158279e-02
-5.822208515059455053e-02
-3.407206236758689860e-02
-1.408660935900680165e-02
-4.014284110934550516e-03
4.042246413820937793e-03
7.132608324157626439e-03
1.396533400785093457e-02
1.939049638799728026e-02
1.568653434178158765e-02
-1.258864220982727506e-03
-1.192651498519471664e-02
3.604076664753733724e-03
1.490918286344302367e-02
2.396481872604548646e-02
4.020611797994694953e-02
2.571455289854359880e-02
1.700241235872839178e-03
-3.825289473281180685e-03
-1.540842346476509542e-02
-1.849325478108558921e-02
-3.589882235961273059e-03
4.045359509348962312e-04
-5.448187372322897508e-03
-4.892604096354609237e-03
2.655773585153761111e-03
5.853405245345177227e-03
-2.340318616108958208e-03
-1.025620225781829521e-02
-1.249672355223806382e-02
-1.340124594359448987e-02
-1.017248913043379901e-02
-3.829404975896768572e-03
1.663733723236639553e-03
1.643718078735793234e-03
-4.755261328086083684e-03
-6.770815542044943992e-03
-2.746834593376058873e-03
7.358420377844594219e-03
2.103780960384083257e-02
9.050928583723482496e-03
-1.797679096629421075e-02
-9.625750902223543029e-03
1.883218203902303073e-02
3.103573630408874851e-02
3.206889250914261164e-02
2.715154828196956333e-02
2.125445643016150160e-02
1.070186088796389566e-02
-9.300188372812207352e-03
-1.951097255339440464e-02
-2.940534394372291624e-02
-5.497164356642976479e-02
-5.667882558097809415e-02
-2.055645326654473304e-02
1.333706649286839612e-03
-3.037608841700264843e-03
2.487152832599601963e-03
1.435990232777534757e-02
2.522100122501482952e-02
3.933963410297160179e-02
2.695857338676067860e-02
-3.922122481368170259e-03
-1.575377633699173371e-02
-1.430758295126967339e-02
-4.092623044816746762e-03
7.402938508294670643e-03
9.972551013579954507e-03
1.507463125126541625e-02
1.129067037766816155e-02
-2.341052597066911253e-03
-5.677943871928195843e-03
-5.432025608830213723e-03
-4.326827472567523411e-03
1.255004409323743947e-04
1.311346499293509441e-03
-3.473791957987457102e-03
-1.143709997787705629e-02
-1.100563090366894238e-02
-5.849269250189109703e-03
-2.690050791033709275e-03
2.296039690000923304e-03
-1.300379540105567203e-03
-7.324378512958807687e-03
-2.488502568603946120e-03
3.964763406593937826e-03
9.183019579778449806e-03
1.084859106400438977e-02
9.708367770237152569e-03
8.255800207365731128e-03
-1.737099042580914684e-03
-8.765819544935042618e-03
-6.073368376848056228e-03
-4.185089620630681739e-03
-9.680631723865298736e-04
-9.939498196501785066e-04
-4.186004954200539009e-03
-9.778026384755637065e-04
1.379614127536143899e-03
-2.128831549078257553e-03
-5.202167994152904693e-03
-2.813799329906327591e-03
-1.795575648134204502e-03
-6.547979484262118031e-03
-4.413066095350364967e-03
-2.776500866907270684e-03
-1.023593426565583275e-02
-2.155303102169255601e-03
1.704090993189810721e-02
1.599138383507999611e-02
9.157013917036703823e-03
1.834888703412922498e-02
2.590488532962560014e-02
2.866620702907786075e-02
3.002269406623325060e-02
1.371578091274940417e-02
1.603117767966018075e-03
2.152907544788414378e-03
-2.071312802133961489e-02
-3.970064282753808793e-02
-2.422662371792120781e-02
-1.407882978869919553e-02
-1.793074935878816514e-02
-1.448398954731997673e-02
-9.192971042465448994e-03
-8.795915283865208753e-03
-9.643858006199912056e-03
-6.088097246400220319e-03
-5.028443633822705754e-04
-1.241600833169647245e-03
-1.167701268277551545e-02
-2.302472848273245248e-02
-1.992704072870532528e-02
-3.627514969449109616e-03
1.738510411760471608e-02
2.938067601314665184e-02
1.830810948595900170e-02
7.211743909019115682e-03
1.216138401371232199e-02
1.309816281327215275e-02
1.066889111734719078e-02
1.312962756344257693e-02
8.099755774588971238e-03
2.499177159041958960e-04
6.676862323867429824e-03
1.099712708587790785e-02
-7.438796811256632741e-04
-1.465551247307162862e-03
1.019820536971779990e-02
9.385492896261251466e-03
-7.436108657818163740e-05
-1.224211460640914524e-02
-2.094185296445400662e-02
-1.566286319396413204e-02
-4.779942720245488816e-03
1.754864717150400990e-03
5.420906630068142266e-04
-2.345156624965046878e-03
-1.273284861605542733e-03
-5.030398830255967436e-03
-7.056259502233028225e-03
-9.777764402492737476e-04
-9.910494814020422844e-04
-3.751560997864256206e-03
-1.457390849094799060e-03
-2.663277650501060054e-03
-3.088317077709732024e-03
2.447498476260862553e-03
4.152856933133115824e-03
3.731145598546186954e-03
4.447813768313678418e-03
9.802998786273848381e-04
-2.344504902768828301e-03
-5.272131736501105108e-03
-7.545462712551111173e-03
-2.521963977769633818e-03
1.169753852049699398e-03
-4.042688660135964457e-04
-2.690690893894936726e-03
-5.374535502925828316e-03
1.056999432788433002e-03
9.687206544430972815e-03
7.204597340428953341e-03
7.492938901607915266e-03
9.600452318148568892e-03
3.467505774201213187e-03
3.625972785559247735e-03
7.181306962531400218e-03
-1.900013246649521212e-04
-5.777934154072068666e-03
-5.548686520907893799e-03
-1.211432316292511933e-02
-1.870960259960293900e-02
-1.336476104757487737e-02
1.197831315438145985e-03
1.329138235129706525e-02
1.446944758046622356e-02
1.118179696835786691e-02
7.410225224941903964e-03
1.192203683082056816e-03
-2.603240123772773544e-04
1.249880288959000912e-03
-2.929675645114766368e-03
-5.866828982498754376e-03
-3.627010438297701908e-03
-4.246762571430758894e-03
-4.034018243786560709e-03
4.541651476921060651e-03
9.700227521578713014e-03
6.000539022315208755e-03
4.183418948813267917e-03
3.482161081723198198e-03
-1.138983610892156293e-04
-1.046072845987882152e-02
-1.869471018596225581e-02
-4.947460585113363021e-03
3.134687475991218379e-03
-9.878896426436254222e-03
-5.251803755179116490e-03
5.479974445852700549e-03
-1.365016248519366311e-04
9.605923307553221324e-04
3.676642893650834253e-03
-8.823944777909395118e-04
-1.652821788582317132e-03
-3.536444088131186075e-03
-3.898156559340826971e-03
4.147954715056983814e-03
9.373242702093874737e-03
6.657445168403928505e-03
2.935405805073749291e-03
-2.598582252771532760e-03
-7.491020572714642348e-03
-3.780912290399078036e-03
-3.677051310344597217e-04
-8.813830037771901637e-04
9.011199459904869298e-04
-6.789247868060864499e-04
-1.594305798979014531e-03
2.930672094164851315e-03
4.830694871715593766e-03
5.685637006681844643e-03
7.105562457373637390e-03
4.160730018785556948e-03
-1.701174056418947814e-03
-3.789557890112219430e-03
-4.833068143144464640e-04
4.191455126697270911e-03
9.007550555647586554e-03
8.666248110718522552e-03
2.007814943315370821e-03
-2.332870213065405072e-03
-3.965227457519842312e-03
-3.122570060769586705e-03
1.656473877476290733e-03
6.150079795193564777e-03
1.901141919382811274e-03
-1.727498414877362901e-02
-2.819605633209928963e-02
-1.122216228094910680e-02
6.144332704603979074e-03
5.599722468319605871e-03
3.829913168550402045e-04
-1.568168314196942761e-03
6.032377638604416534e-04
1.486024456804117605e-03
-1.355899863721456372e-03
9.741452562514052319e-04
4.636666929550011841e-03
6.365892534142586663e-04
-3.408966393825691495e-03
-3.225943312970218965e-03
-2.205570672987964848e-03
1.163961706092550780e-03
3.580707976023213453e-03
3.937191675449516239e-03
4.546102652529836370e-03
-2.354345489422662863e-03
-1.091001876247158289e-02
-8.357409019986328236e-03
-5.167077471049844918e-03
-5.029969820836156444e-03
1.168997132944296592e-03
7.631614866711337354e-03
7.721035889095919508e-03
4.155267835853980463e-03
3.356553167538492595e-03
8.791566453176951484e-03
1.138811950850192323e-02
6.608353603269641677e-03
4.102567434206080485e-03
6.317530686867307843e-03
4.824446542726163085e-03
4.010547722929035911e-04
7.296946309731855082e-04
4.717805915808866938e-04
-3.954180843451293031e-03
-7.108224389722029614e-03
-7.274541799535690946e-03
4.414906446688490142e-05
4.497142930946453586e-03
-2.457574572761725765e-03
-4.054588950691593620e-03
-3.247952211615862117e-03
-2.232720242467146291e-03
4.234843425090110969e-03
2.537940789439591636e-03
1.821511316512127105e-03
-9.806577450505456206e-03
-3.923367825061587627e-02
-3.034407583015382923e-02
-3.284209451342892487e-04
3.674194214300420275e-03
9.741850454485048369e-03
1.602190850195725491e-02
1.153990378255851518e-02
1.182255660361550276e-02
8.504934014714780194e-03
5.069977469922648354e-03
3.126312467081919164e-03
-5.556961008202958296e-03
-4.801835817740847216e-03
2.276298886883315869e-03
8.862791663087538942e-04
8.949275175493410627e-04
2.922414742891316086e-03
-4.870043225951720123e-04
-4.745555147102954209e-03
-6.221770721432691095e-03
-9.293282149688567246e-04
3.232757658136714129e-03
-5.884259056055352391e-03
-1.156427865175119543e-02
-4.898326124565760206e-03
2.711257809642787613e-03
5.853743437597089434e-03
2.016281577724271176e-03
2.812052303496963453e-03
4.782941027519685938e-03
-4.322144948915748915e-03
-5.480693442490252795e-03
-5.858906708507578007e-05
4.930187540856010523e-04
5.507470589524932764e-03
1.345990674175028164e-02
2.199895981272535425e-02
2.109387331271921073e-02
8.548695692629957113e-03
9.638327788852270100e-04
-7.116804894135530385e-03
-1.166585421001651267e-02
-5.114727712675341820e-03
-9.051091747410545604e-03
-1.622576146931632712e-02
-5.449951051378652822e-03
5.371545823509509855e-03
7.293121541102233832e-03
6.619864969601296431e-03
-7.401405001618832462e-03
-9.869661567703911717e-03
9.803508945965006688e-03
-5.302899473806068839e-03
-2.984474384912868747e-02
-1.027274575209350359e-02
1.849359108658129008e-03
-1.294363808455637052e-03
1.055750680587276905e-02
1.060221168255689322e-02
1.363521553839486559e-03
-3.816711830921061099e-03
-1.538684908420830284e-02
-2.039735625011434433e-02
-6.309750425271205658e-03
1.033710957235094499e-02
1.058405801637909982e-02
7.246368075252252773e-03
1.175786147301538347e-02
8.999535940896965722e-03
1.912305337779572102e-03
3.306356684367292749e-04
-2.332327907187100539e-03
-5.842830655908588106e-03
-3.690534262883259087e-03
5.187368260178132871e-03
9.046365355415624671e-03
2.311757041120234175e-03
1.849177558743814913e-03
1.137899361288268602e-02
1.790074903442720466e-02
1.819304848040044845e-02
9.978750530262476062e-03
-3.295728337108932721e-03
-1.032964018754204891e-02
-1.394857095129814137e-02
-1.359878804110861879e-02
-3.877995289737168685e-03
-7.323977097761981848e-04
-9.160695693199107439e-03
-1.096119803355426886e-02
-3.010518924820676425e-03
2.608335545979745609e-03
-2.088716923706465602e-04
-4.995274083611033096e-03
-6.847628656595420096e-03
-7.519188890469485909e-03
-5.394253830262304983e-03
-2.606540575840466094e-03
1.557792410567037950e-03
6.826480594209402390e-03
6.353399693516379766e-03
6.346097005431412461e-03
4.785997451779144644e-03
-1.108751721748560057e-03
-1.797024318553306927e-03
-5.421276575179298333e-03
-3.935888186264213488e-03
9.725109893635511954e-03
9.847935605019855765e-03
3.827740382212414545e-03
4.654089894256446813e-03
1.743262099534980498e-03
4.183666272379094053e-03
8.239941695335201502e-03
3.296409292460081037e-03
-8.443816534901412915e-04
-4.595096101533732713e-03
-7.544917211030468217e-03
-3.011490444499229438e-03
4.729458066578067464e-03
7.258210135193840680e-03
-2.633327939756227674e-03
-1.685022697454363963e-02
-2.027499780916519612e-02
-1.377301584296992780e-02
-1.567982031574068329e-03
8.451811163534406549e-03
4.634883487531925653e-03
-2.718574461780764746e-03
-9.530015837160910660e-04
-4.194088766967020172e-04
-4.565473971460587768e-03
-1.863407873849093864e-03
8.763574673485357430e-03
1.594653681073391477e-02
1.212923737386073508e-02
3.605695075256296761e-03
-2.032419857802995455e-03
-1.354580082999575939e-04
7.178426060989505017e-03
2.672600629774082512e-03
-6.868578278227997248e-03
-4.442334517820281485e-03
-6.434692450019431978e-03
-1.137197620712520826e-02
-2.288665829534212211e-03
9.107342896259076545e-03
1.159425825163629478e-02
8.778311022814707168e-03
7.455770211233667295e-03
5.172453354309751276e-03
2.075673157503030251e-03
-4.305912690901302596e-03
-3.135463009352235791e-02
-4.260808375558545330e-02
-1.146888801441754008e-02
4.702558571482039554e-03
4.658439005633847885e-03
1.660115232128432650e-02
1.611236621255872012e-02
1.365939294595039377e-02
1.658814027786030890e-02
1.073104921953071597e-02
1.321949878041886461e-02
1.569490191887411290e-02
-9.800708462467224227e-04
-2.203414163985295895e-02
-2.619223371723074928e-02
-8.718962967824270618e-03
3.555956599316804391e-03
-5.865018619426821738e-04
-1.251131000741688122e-03
-1.648998542356862589e-03
-5.074558037621790078e-03
-2.826368758115879211e-03
-1.882027931734002761e-03
-4.088378712747905985e-03
-2.598201486924134763e-03
3.868709361023224026e-03
6.784956728660881606e-03
-1.796638244237204712e-04
-4.132942648601843801e-03
-2.607571844955858687e-03
-3.354416808483377723e-03
-2.598280151543912522e-03
-1.955521145407178047e-03
1.491360051398558321e-03
6.933381967895446696e-03
5.865397552579904202e-03
6.309208839667987227e-03
4.925837606482794291e-03
-5.212180489904289513e-05
2.234871012715834281e-03
2.287081235200846916e-03
1.933852388931138174e-03
3.480499539452834145e-03
-2.077275639171295707e-03
-4.835247367532273153e-04
5.840126810514973885e-03
5.216716080335141031e-03
4.382995670688575630e-03
-1.464329416407505807e-03
-8.355784559752459442e-03
-8.495040693889380559e-03
-1.042518977950694301e-02
-1.437623222093453550e-02
-1.660665103278060467e-02
-1.119837690736123770e-02
4.376685371527353971e-03
1.458677131283468015e-02
1.336059252292117784e-02
1.097621773857774055e-02
9.911349587131473501e-03
7.656755343655339760e-03
1.680309995783463121e-03
-7.725630986740993425e-03
-9.118819595069020331e-03
-2.567364244435464422e-03
1.080287965458421630e-03
5.630550720166342150e-03
6.901604610397142972e-03
1.910893694107414003e-03
-2.198719803773774609e-04
-8.088519919791817975e-03
-1.819103611336219881e-02
-1.279846507005746870e-02
2.058371857086012651e-03
1.094820643956344493e-02
6.554589297925780822e-03
5.645339511891968217e-05
4.009990759931781408e-04
-1.426100498044805725e-03
-4.732884821114859836e-03
-7.287888816469738351e-03
-6.366429161263022739e-03
9.876374214616131988e-04
3.384120577496672454e-03
3.264326769118229294e-03
7.617943783253054713e-03
1.047277093223079360e-02
1.208226042733082789e-02
1.146162972544892585e-02
6.500880072646016486e-03
-8.883891365513557885e-04
-6.457233789123649828e-03
-5.897074825575132975e-03
-2.432393625638088787e-03
5.535338179344798451e-04
-3.258961839790657910e-03
-1.105683375284201818e-02
-8.689273812057515811e-03
-3.992695379078043359e-03
-4.852973733089477153e-03
-3.112711711385919566e-03
2.152237891156493204e-03
6.438178321990953128e-03
3.232499437188275388e-03
-1.172651664898838493e-03
2.366650586345284482e-03
2.906208506356628904e-03
-2.320842807498301342e-03
-6.240577672927155595e-03
-7.635668335180869140e-03
-6.583229494611767679e-03
-7.191335626509040915e-03
-6.472454375588904477e-03
1.367992496088765502e-03
1.221561599667754863e-02
2.104322118692437960e-02
2.433952527288011855e-02
1.886405289461870818e-02
2.082275157616799138e-03
-1.370674728448962459e-02
-1.360877623538085668e-02
-1.057524213951878227e-02
-1.129115963397788781e-02
-8.477116702402451992e-03
-4.325960403948962175e-03
4.220165336565375944e-03
9.496548575323764813e-03
5.038189838496869369e-03
5.172651236113923016e-03
8.056594962944294003e-03
6.032563739677304984e-03
-2.212081885869598454e-03
-1.063009548386142401e-02
-3.681415906531104038e-03
2.798254893311763122e-03
-5.139538605818036714e-04
2.543789332207125383e-03
-1.808052507545760941e-04
-7.073566358681692735e-03
-4.652073120910990914e-03
-3.946238239543333436e-03
-6.491861467814459942e-04
5.400496637020522558e-03
3.887014017219678642e-03
2.094422594824289839e-04
-2.289806286257782368e-03
2.908415878686896813e-03
1.080881054145840618e-02
6.504239765485794744e-03
8.073090159956965530e-05
-2.703523815630412813e-03
-6.540913558446517090e-03
-5.778119437789353344e-03
-2.896707805910318182e-03
-1.696781100988967042e-03
1.498560113837990105e-04
9.233090393226225836e-05
-3.525881771486162521e-03
-7.342117540642850368e-03
-6.256280091116834911e-03
-2.636846157273501062e-03
-1.556490901235127976e-03
5.931552955956317886e-04
2.853686913013450243e-03
1.664122540876109392e-03
3.740079663841871117e-03
9.529403721303430705e-03
1.056013686354737545e-02
8.029510212759488966e-03
4.187103469560606722e-03
-4.510977586775098344e-03
-1.173595356170317391e-02
-1.145340093512708414e-02
-6.421032604252297632e-03
4.605071872465812781e-04
1.756771475166760826e-03
4.122604890075808612e-04
2.128397037993196451e-03
-2.399888588609347655e-03
-5.555712913397885082e-03
5.697156210972647000e-04
5.100587330643372233e-03
7.339099107853437089e-03
4.497634621441068230e-03
-1.694447954100070184e-03
1.021370312514049538e-03
7.658947865289792226e-03
8.961525130866638406e-03
3.757220947378890966e-03
-1.395158042229464792e-03
-4.063568694054391257e-03
-8.122878420854262940e-03
-5.944219737814581718e-03
-7.879226318070846596e-04
3.844755082210070830e-03
1.416185459522068847e-02
2.007643950501087488e-02
1.650094239716420191e-02
4.928111359129381391e-03
-6.941888972524192479e-03
-1.037358125662964439e-02
-8.810537868441761442e-03
1.608006289019260388e-04
2.199103207095406357e-03
-4.529608290382566372e-04
-1.039569741099124730e-03
-2.009070517898852576e-02
-1.215677533835735763e-02
6.114307081409156575e-03
-3.675391263960568061e-02
-5.025182712776974508e-02
-7.778360808690557883e-03
3.135370378234009821e-03
2.604014952244624280e-03
6.356149093365783161e-03
8.413357487893277642e-03
1.745084718042442390e-02
1.054707387035629107e-02
2.349135997684469353e-03
3.540781778908617516e-03
3.169198508845247862e-03
6.668839748269483891e-03
4.463840033950117192e-03
2.579668360019699621e-03
6.614344644101930945e-03
1.078987499275867352e-02
1.819302463193758421e-02
1.469847922840922250e-02
6.478312956627775218e-03
7.780502058822152782e-03
4.614879614781065148e-03
-8.649097037274999615e-04
5.801093483182664674e-04
6.351373604305704003e-04
-4.544815697269034838e-03
-3.081021599650045524e-03
3.948294654263938795e-03
-3.555057863814299959e-03
-1.801000251383679321e-02
-1.952244407329967180e-02
-1.178341034274708876e-02
-4.770371559347748487e-03
-2.990249140543763638e-03
-2.300410413899088742e-03
-1.798086422728812413e-03
-3.349173154988269174e-03
1.333830072791609370e-03
8.980516259735234208e-03
8.459848834145253585e-03
2.191566934593990133e-03
-3.975936406283128895e-03
-7.342334239820774190e-03
-5.866095384475446262e-03
-7.478969837626180898e-04
1.664632315631749994e-03
-1.898787642760715183e-03
-4.108919937765326269e-03
4.279950978008057816e-04
2.718703932570317242e-03
-1.502576696140408598e-03
-5.544778059165143477e-04
2.104528729207092320e-03
-1.209961001155008880e-03
1.822980200024496835e-03
5.622327394047462075e-03
1.441728186894683083e-03
3.928181523967132042e-03
7.225900470032364971e-03
3.437608897855128770e-03
3.933752907749454159e-03
9.943466555900318162e-04
-6.788674400267282610e-03
-4.836805754306554295e-03
-4.466254519554900418e-04
1.268085676546033998e-03
3.383861787252709797e-03
2.475136557400827494e-03
4.505877242101184732e-03
5.203665081200484384e-03
-3.238357555249240117e-03
-6.147142698824554184e-03
-1.942973390128265162e-03
-2.555247232787167221e-03
-4.132697711769043290e-03
-1.999579121099149398e-03
2.500178320987544306e-03
5.449245848697536858e-03
3.577944448311617866e-03
3.374155572724631385e-03
6.126514273272899540e-03
3.701019066207703653e-03
-4.029994230019808173e-03
-1.070354600329641130e-02
-7.203369025526608002e-03
3.625352079166868028e-03
5.521917662073124074e-03
2.434413170576169797e-03
2.101691143734582545e-03
-1.354220889281875081e-03
-3.847224943584992476e-03
-4.480774870263971865e-03
-4.992096523599174988e-03
-1.910011747560935117e-03
-1.970697594824027152e-04
-2.345869397316205102e-03
-6.297808156804213069e-03
-4.204970010181210624e-03
3.050664689372571420e-03
1.849392315695963128e-03
2.188610135690437306e-03
4.247558826015063009e-03
-1.606206625433191561e-03
-1.048605749416171677e-03
-1.990248027165793070e-03
-6.701735159401817597e-03
-1.190848991704511906e-03
1.868694217993623541e-03
1.699973039072608886e-03
9.659841728319013780e-04
-2.082682306426555333e-03
2.335953811615400309e-03
7.003826043481743702e-03
6.247170455395419965e-03
3.041932331744450716e-03
2.893134714485641121e-03
5.938032516909729636e-03
7.267562892437536828e-04
-1.406108060839778842e-04
6.668913394131571618e-04
-8.919878066027292149e-03
-8.242647339068457854e-03
-5.991134268726906568e-03
-4.456620509862321312e-03
8.310730482208211409e-03
7.905927233230709145e-03
2.974759108048104315e-03
7.253432117432884359e-03
6.738582727040275111e-03
4.932667487967703525e-03
-1.171532883111559443e-03
-4.974594546818264865e-03
-1.551298054846584088e-03
-3.988288564225979729e-03
-4.775753545088245143e-03
-7.156985648754977947e-03
-1.022400719037320008e-02
-3.548527526543306457e-03
-2.899495656437564226e-03
-3.754482128415366840e-03
-1.742129037730659122e-04
-1.238402987398187294e-03
1.022923273891182105e-03
3.945188253260753161e-03
6.740451434044612486e-03
1.253026151542206874e-02
1.408346853525749981e-02
1.396463041036529254e-02
1.130460732899883115e-02
8.163865263900981981e-03
5.190176957101253624e-03
-2.901062509492311012e-03
-8.009161094488615601e-03
-1.370592169796071118e-02
-1.994355894340143695e-02
-2.029649265705954497e-02
-2.262738022673429356e-02
-1.981101876514505811e-02
-1.258957161111116767e-02
-7.596391325278811779e-03
-1.338920725694725186e-03
-1.060703276274136677e-03
1.505324322089025097e-03
7.280987535165364330e-03
8.819411335548697425e-03
1.701491212154973218e-02
2.221202590918581674e-02
2.082072180143831192e-02
1.659695551523985776e-02
5.080876785085793913e-03
-2.438279408036121178e-03
-1.317110991495793956e-02
-1.580201068341687345e-02
