1.958077358184429073e-02
4.583542232113181625e-02
3.795706849289478407e-02
4.583330215190505735e-02
3.379580992423076441e-02
2.271549275419011693e-02
1.780925628118262480e-02
-3.453064597623911776e-03
-1.477678752043116821e-02
-2.484005689833789290e-02
-4.411285127187569710e-02
-5.683753449028785404e-02
-6.295538285388768696e-02
-6.190587266213679746e-02
-5.560256653149388967e-02
-3.968311488257925124e-02
-1.625619658130909168e-02
-7.894956592581878381e-04
1.196033895744533747e-02
2.653528102303607736e-02
3.639360989616945846e-02
3.986501399890684388e-02
3.821452556462606731e-02
3.626211442833743998e-02
3.286652090639258922e-02
2.383446571273365941e-02
9.420564927980171199e-03
-3.151477291980614133e-04
1.870360524344680687e-03
-1.057828732432245303e-03
-1.022508415943590952e-02
-1.626563520390964315e-02
-3.364435120476067659e-02
-4.468046058862366193e-02
-2.848842196442442562e-02
-1.177125079343588863e-02
-2.164865378621871461e-03
5.752174880051404669e-03
3.717952002106946624e-03
1.616388343200834792e-03
6.532483476866053976e-03
1.326617510180824397e-02
1.936766739586331942e-02
2.205081990632516004e-02
2.006621604993293062e-02
1.036502066823522666e-02
-1.134654616694862408e-03
-4.785980690081161060e-03
-4.061690047763626132e-03
-2.356581644974083210e-03
-3.499583785906030479e-03
-6.956588446925003610e-03
-6.094109495327486824e-03
-3.788680955170414984e-03
-3.091407906894418295e-04
4.316628468317750336e-03
5.991066652834843229e-03
5.599485239064321690e-03
1.072840552384527260e-03
-3.409268838646608343e-03
-4.602480366768360413e-03
-8.178984883289655214e-03
-7.784063600756291855e-03
-3.169446511467700900e-03
-4.261779817175390117e-03
-5.272600682713945823e-03
4.706373690265470999e-04
5.020781739371480042e-03
4.806612162874966156e-03
5.807314918285473755e-03
7.304833566404115609e-03
6.113689736981120504e-03
4.199151471747195052e-03
2.211411812841376605e-03
1.106249065166967809e-04
-1.248212571003541388e-04
2.537106943377183572e-03
1.546978545080040851e-03
-2.925005113148488028e-03
-5.872196269529260338e-04
-1.460354417817745758e-03
-1.130013704319044777e-02
-1.096737749242136448e-02
2.282803933847936829e-03
8.318876408560821681e-03
-1.163869862782895663e-02
-3.542959137755979232e-02
-2.294425877806532260e-02
2.515841479600381542e-03
1.196788972640451705e-02
1.744359113669001135e-02
1.344932869383690284e-02
4.565000499124106242e-03
2.411972316740867116e-03
-4.506117333167990180e-03
-5.699115805929350423e-03
5.326086669605675436e-03
1.191637055230445816e-02
1.024812395096877556e-02
2.209333704643827619e-03
-1.412788105360437063e-03
2.366013127278803526e-03
6.891057033439645279e-04
-2.576941221036992656e-05
2.476435824436695483e-03
-4.053253374695382620e-04
-1.575487659470700252e-03
-2.961652093902797270e-04
-8.473299936028031885e-04
-2.057809240506527524e-04
-4.946320537233318305e-04
-4.548515385933442259e-04
1.974622579195239609e-03
-2.166825724924399416e-03
-1.137913462902927393e-02
-9.454292049251470514e-03
3.676238047562427162e-03
1.036513056788831814e-02
3.040057324386317809e-03
-5.397156344636924209e-03
-2.520474437519488933e-03
1.615668422911792183e-03
-2.754995566599324416e-03
-5.009299402548654176e-03
-2.402417964429128579e-03
-3.878785542703517587e-03
-5.055715066234584346e-03
-8.293533993836371774e-04
2.184822048567032667e-03
3.969064723376685387e-03
7.726306787613027374e-03
7.284601466441780956e-03
2.061789439023258355e-03
-1.223924218379838233e-03
-2.059579278797031218e-03
-2.694885874751491890e-03
-4.860353105655068552e-04
6.657999830075708204e-03
7.847803778345475295e-03
-3.285830690432790802e-03
-1.048516772736388450e-02
-5.475925662332375987e-03
-1.242847326840900313e-03
-4.007373999324331457e-03
-4.115041594497768560e-03
7.976098160120358421e-04
5.994061982465269693e-04
7.966140208719133149e-04
6.728858555760792309e-03
7.068181464712100168e-03
4.840596717356614176e-03
4.800071623109370030e-03
3.469468035811336393e-03
2.004202688654664177e-03
-3.601937880521613022e-03
-4.305719117308397757e-03
4.871334045407183823e-03
6.960478653483629166e-03
3.143912880538971173e-03
-4.389779138546774651e-03
-1.237250069199482931e-02
-4.413511304713165460e-03
-6.579440248667320877e-04
-1.156071730356662657e-02
-9.898511520249272944e-03
-4.089863717401342330e-03
-4.994629152222542293e-03
1.690017337296775509e-04
2.457820128689162942e-03
5.183051707757714999e-04
3.666262017676749380e-03
4.783070578364103514e-03
3.135780313159970082e-03
7.332164845968305129e-04
-1.160066581968773047e-03
2.237001655112753288e-03
4.590190317953449228e-03
6.445166877020240721e-03
1.378065654637149196e-02
1.753000214591304493e-02
1.208367600475603564e-02
-1.854706463866381957e-04
-1.525450282739282057e-02
-2.055533839790736964e-02
-9.319270038106232737e-03
3.108451515501810865e-03
1.974001521874264257e-03
-2.818775191488862887e-03
-5.915093294669051920e-04
4.727399148667640882e-03
8.526235424614996006e-03
4.366381751236375966e-03
-3.812175884420037318e-03
-4.516661723064475421e-03
-3.519005435097227741e-03
-4.271593424719704463e-03
-1.877821716053810867e-03
1.737382277424752213e-03
3.150066403109084718e-03
-2.037231791201978958e-03
-6.942199120393994713e-03
-3.372521376831109571e-03
-3.462259092809936035e-03
-9.174051534903188490e-03
-6.778961969553096677e-03
-2.705485032815355996e-04
-1.158477630124232511e-03
-2.574412393146702574e-03
1.010068771790773685e-03
1.792973578789067461e-03
4.369259038306008008e-03
1.028908788828739561e-02
8.113977268340819698e-03
2.415512655184854154e-03
-7.263572230180025688e-04
-1.266803726210120841e-03
3.080340567196976874e-03
8.049761707547580317e-03
1.053975128570571948e-02
7.308147551206033155e-03
3.698611723601376820e-03
6.143676164358015737e-03
1.218152984689096011e-03
-5.479424769912244302e-03
-2.798084303936933508e-03
-4.304292892541262613e-03
-7.032438111954102469e-03
-6.766998941964297125e-03
-8.245483096045657170e-03
-2.914248056551970063e-03
1.388844464115145810e-03
-5.033636423157860067e-04
4.889073785226306576e-03
6.618773130398191915e-03
-1.115902622919449525e-03
-2.391297461428311486e-03
-6.218585336691004502e-03
-1.284623515471803451e-02
-4.047573991222663467e-03
2.930810130295257495e-03
-2.309538894336458925e-03
-4.998240580695448472e-03
-5.510398231756329958e-03
-1.676958548366912086e-03
2.587827553901189681e-03
1.393523387288628929e-03
2.808680971105422669e-03
7.903225982008241484e-04
8.692051153231902978e-04
1.057932594975220450e-02
1.371803089144344595e-02
9.756195907434110984e-03
7.531800154918246587e-03
9.615523783007494732e-03
1.089134143455244928e-03
-2.112390797546890783e-02
-1.755098410865589889e-02
3.527915651464537655e-03
5.832252081692384203e-03
1.688370082957901201e-03
4.202342770276947448e-04
1.710376641354678347e-03
3.197298358380794552e-05
-4.867612607915893300e-03
4.128365729532441236e-04
6.605183713690292993e-04
-2.476940363209562210e-03
2.394080426212098420e-03
1.072160616283415312e-03
4.564635554017677267e-03
7.901723937007939375e-03
-1.525621533210633207e-03
-2.725899474464543552e-03
-3.150997575665211679e-03
-8.196037517098225117e-03
-4.432785400004566646e-03
-1.934982940314730398e-03
2.723285241635377274e-04
6.195080098836305837e-03
4.745659372897776188e-03
-1.608054371010385428e-03
-4.797083563801022958e-03
-5.942465831950816471e-03
-8.163777708700210162e-03
-8.400122213199884280e-03
-6.881436544254814283e-03
-6.845505222630654356e-03
-3.628394150194399516e-03
-1.433776387101849811e-04
1.942218921752866421e-03
7.952825830741843544e-03
9.996567632135900522e-03
1.090820864821938005e-02
1.443084821944678152e-02
5.395970524255115815e-03
-4.636821192366935053e-03
3.302688676508972452e-04
8.319174485042001715e-03
1.385352141887646188e-02
1.530516947311415417e-02
1.440736556798519197e-02
1.016349236942256339e-02
-6.252303961566770506e-03
-1.994932823740489317e-02
-2.428828802469287090e-02
-2.372467410289788581e-02
-1.234927841401135991e-02
-8.373627430639208127e-03
-9.270938173843640273e-03
2.073989199407574261e-03
5.692758719823688522e-03
4.896526511360755826e-03
8.156112867378472950e-03
1.920499962980458386e-03
-2.345322919945319520e-03
2.283457266102984829e-06
5.337401754434559556e-05
2.246543809260208909e-03
6.517080880876180773e-03
7.709487435064179238e-03
3.424564993801715567e-03
-1.962557627791448357e-03
-3.162614871009048097e-03
-2.714478834830649258e-03
-1.936301747824723668e-03
-1.612920956999970264e-03
-2.426281487005358534e-03
-1.375283025221337319e-03
3.462532887618022422e-03
7.861462466970083746e-03
7.348094039624472433e-03
6.243027780146508977e-03
4.220541075399111830e-03
-1.128454323119477878e-03
-5.105987961921400371e-03
-8.382844645911480957e-03
-7.206674316760598373e-03
-2.190828331357026152e-03
-5.428702536700421612e-03
-9.913946093370951465e-03
-7.027433979222447516e-03
-3.575017780455910180e-03
5.434629706775005991e-04
7.451886064594083134e-03
1.339752943074917248e-02
1.387783742662649679e-02
8.621003920503694448e-03
2.260636446212123136e-03
-3.031848973186152506e-03
-6.350451407644433846e-03
-5.424876746034720462e-03
-1.833295858263862734e-03
-4.635385496847017200e-03
-1.051999354535729236e-02
-3.164378110405336592e-03
6.609700083971087499e-03
5.651612353188143097e-03
8.643122569271400463e-03
1.147501413591220029e-02
3.503574640637579195e-03
-1.130467385264244135e-03
-4.900612303720815145e-04
-3.734898167429025889e-03
-8.736534277496432743e-03
-9.193428938436732853e-03
-4.240949570714564083e-03
-6.124207565933500151e-03
-1.225292995154256444e-02
-4.062838595614497866e-03
7.903992737057117038e-03
9.695194999075758616e-03
8.226541200105564472e-03
5.153210956064590426e-03
5.184041379446707905e-03
6.341878947615209837e-03
-1.651515848286599485e-03
-4.721274507904528461e-03
3.872105482967840018e-03
6.649792184614542259e-03
-8.388053760195837184e-04
-8.215682724855859556e-03
-6.624528903174841526e-03
-1.190332691672005370e-03
-1.124664413095847072e-03
-2.338176335174775924e-03
-1.175999754049533155e-03
-3.490920648066644949e-04
-3.557197706734510113e-03
-6.142610821374213173e-03
-7.998753627768001584e-04
2.892718231183894796e-03
5.275247446334443632e-03
1.073843946800106565e-02
6.390034848482055614e-03
-1.823388464613937389e-03
-4.871047819813309129e-03
-3.412706851621913774e-03
4.247606463825202329e-03
4.979519086168227027e-03
1.522972014403580366e-03
3.578740449187917724e-04
-1.081620088172329311e-02
-1.673307778228114509e-02
-7.830915940224562194e-03
-1.382174144622668127e-03
2.085856806709166997e-03
6.874989730969467000e-03
1.102541948839572995e-02
1.212428547749899027e-02
9.891281065193928412e-03
3.420977228877649864e-03
-8.542106196619884267e-03
-1.079615495734192153e-02
-2.094150580578947683e-03
-1.034137624016889237e-03
-2.802905641507241492e-03
6.208195360257851665e-04
4.476595011059405875e-03
8.401794628147258789e-03
8.498910012875966064e-03
1.465114953931034858e-03
-4.485378112070113540e-03
-4.159500588037812023e-03
-3.532020453382289042e-03
-2.740968750042836743e-03
-7.563357675627633636e-04
-4.714023346616027892e-03
-9.972429584132691538e-03
-7.443767101352842357e-03
1.479448094603939660e-03
1.068440641628594541e-02
1.128587837895077273e-02
5.669646209831263883e-03
3.228706686928195773e-03
2.651430025123508610e-04
-5.175029628756883625e-03
-4.776419777250534397e-03
1.087352452210746151e-04
3.903086637915862550e-03
7.362947229637662079e-03
3.808884201929305102e-03
-1.935667238862915848e-03
-2.800919296693239226e-03
-1.700622677012753048e-02
-2.624281407592881157e-02
-5.451434949102235833e-03
7.472843594168477287e-03
5.229424644195505411e-04
-1.370628676015634350e-03
1.542978063804153989e-03
4.851554581397129334e-03
4.430708220280818975e-03
3.144153027113343480e-03
4.243088816078001944e-03
2.578881790806529083e-03
4.659026526524543722e-03
3.756768845172329431e-03
3.850833705759719667e-04
1.112374893665062786e-02
1.511587480560186610e-02
2.504377889065194634e-03
-1.920083170630005730e-03
-1.638666708051080001e-05
-3.800357546101390538e-03
-7.526006287509903053e-03
-7.860725763819466708e-03
-6.267966957865567929e-03
-3.951441437993605775e-03
-2.479932620496669900e-03
9.703314679443645219e-04
4.961156164959706905e-03
5.141380349469346772e-03
4.432216015250962926e-03
8.575639162203014393e-07
-4.964492039920853118e-03
-3.721766780279633056e-03
-6.985291442627542501e-03
-7.289424233514366774e-03
4.155243606546357715e-03
7.575717902925345644e-03
3.173354522797919297e-03
-8.306521976676236717e-04
-8.655612446477839103e-03
-1.225562523943892965e-02
-7.422447195924915600e-03
-1.712155981037982765e-03
-1.086389836498318851e-03
-9.162871277500145642e-04
3.474018748879987694e-03
4.074388597838330892e-03
3.344812938197493177e-03
5.544688244127521023e-03
3.197990219412509376e-03
7.292511881374009368e-04
2.274371501996099929e-03
1.506314617855453349e-03
1.943391715636951650e-03
7.588727870614585605e-03
8.204059880969876567e-03
2.945701954973459040e-03
6.233905785944065777e-04
-3.225374760447963316e-03
-3.494062858985288750e-03
3.867294518997325004e-03
3.442243675370638533e-03
-8.867785285041540275e-04
-3.658842598810305852e-03
-9.879966051269829103e-03
-8.722106348749246799e-03
4.284469618612849265e-04
6.140340960739690268e-03
4.740647315617953390e-03
-1.520061896261756503e-04
3.095303680742420103e-05
9.963667380564543256e-04
-4.664110809247608118e-03
-9.382240039496511988e-03
-7.506198127267222318e-03
-5.417857412127521227e-03
-5.389133922119020842e-03
6.764253270463147557e-04
7.402294715561593720e-03
5.667285201714684223e-03
1.347579249292902518e-03
-2.460956648558496225e-03
-1.824262420625237654e-03
2.828516389759313902e-03
2.061763372522898256e-03
-1.997655455306709092e-03
-2.151508248273364433e-03
2.476049685981020383e-03
5.896325315952394459e-03
7.808704538611180475e-03
1.109889943331230332e-02
5.539395081432032901e-03
-4.697541230634899589e-03
-6.260999576661808314e-03
-1.074548742900724484e-03
6.370346559296222004e-03
7.060515225313876778e-03
1.208862497181665196e-03
-2.155315950075685320e-03
-2.264128626568758483e-03
-1.671655693360495510e-03
-8.529808433225328709e-03
-1.476554848142803966e-02
-1.297162695803481119e-02
-1.576006373262861179e-02
-1.172220897526917750e-02
1.490422957615729262e-03
5.832621834051008453e-03
9.915312660855839580e-03
1.370680965339088689e-02
1.166836631137653513e-02
1.149033173287631812e-02
3.263480071931565765e-03
-8.122100847233446747e-03
-1.927009783327428239e-03
8.251093557143693302e-03
6.621443679557506047e-03
2.029430361978522279e-03
-3.864526797180523054e-03
-9.138228789043315037e-03
-6.538595816370137634e-03
-3.060180505124323030e-03
-5.238733339907690727e-04
1.894615963063536572e-03
-1.006642923358711623e-03
-2.559450968337015180e-03
-2.009893384181213327e-03
-6.470600119716157306e-04
3.930958506327863339e-03
1.077529742677371671e-03
-5.271043763837486747e-03
-4.252247093627279338e-03
-6.531320337535345341e-05
6.218458235684629423e-03
1.032782369211392506e-02
9.602407905460928761e-03
6.992100554142019822e-03
-1.663615196743560044e-03
-1.092550388184453623e-02
-8.533603533504853858e-03
1.794287746296457237e-03
7.885724953982460941e-03
8.399479678784224634e-03
5.149434934031092530e-03
-3.872265468330666951e-03
-8.022824611549092197e-03
-1.520304970057823665e-03
3.002781019366095906e-03
1.526065903980362848e-03
-1.648399103539872467e-03
-4.588430282230925375e-03
-6.821804486327581393e-03
-8.059738228800851847e-03
-4.238584754927912819e-03
1.958894249232197900e-03
4.072772421770429023e-03
5.374587023585773206e-04
-6.408320587394063413e-03
-6.637298400585092684e-03
-8.738024441164018779e-04
-1.679216506400765157e-03
-6.916822209955997454e-03
-8.390379402040921281e-03
-4.334646351938879240e-03
4.020690022011553545e-03
1.007918932146992241e-02
7.341066225669703668e-03
2.196055630590538696e-03
6.332610962392574289e-03
1.107507024457416930e-02
6.656703321919504868e-03
6.155769872251280056e-03
7.677115380837254942e-03
1.703922959823429579e-03
4.048823153865129844e-04
2.773246452080208382e-03
4.259168544642629416e-04
-1.247791799961480352e-03
-2.109845397717890689e-03
-1.586581684915357171e-03
-1.844560251045829387e-03
-7.137393997395156606e-03
-9.899608935534067594e-03
-9.443556148738430078e-03
-6.758797110335648152e-03
1.047806883427631914e-03
4.064640593721565408e-03
1.667439446208087133e-03
4.119003085813757563e-03
6.597583963753927971e-03
3.435486324865525288e-03
-1.099324363502281708e-03
-5.517052699289793326e-03
-7.488670913426318312e-03
-3.298439848005176728e-03
1.805995619136483311e-03
4.634742573773664720e-03
6.193336180135527828e-03
4.891104837359805044e-03
5.232874541584582942e-03
5.565509632187655258e-03
8.504723593614175884e-04
-1.924003583575614349e-03
-1.154130803479140165e-03
-4.610216472198644215e-03
-1.997197681932705998e-02
-3.039643799224871559e-02
-1.140562837610164214e-02
9.918382381065448186e-03
1.197628505299273317e-02
1.101394645902972064e-02
4.073385937798351675e-03
-8.380090428937963902e-04
2.742042423706311013e-03
-2.749491952958114070e-03
-2.730752542550202167e-03
7.179197445386535821e-03
5.915581843284459240e-03
5.842507719710771487e-04
-3.597232595296786812e-03
-6.567172994193929032e-03
1.856707631425183382e-05
9.789065954316538559e-03
1.201297583147321879e-02
4.463814415430415738e-03
-1.857634474668378756e-03
2.091002015362977283e-04
2.091395983237878068e-03
4.138849367511493460e-03
5.626135245729180917e-03
3.230912382196721600e-03
2.362326470683093725e-03
4.930451506190814499e-04
-7.491885163063541396e-04
5.809382924226957857e-04
-7.728578217489879242e-04
-2.379918172451069881e-03
-6.940146074708728255e-03
-9.825690783295433495e-03
-5.153650609031347127e-03
-7.509450656708437609e-03
-1.318947450668277177e-02
-1.111498843976464236e-02
-9.837267320954964228e-03
-9.846821896241825939e-03
-6.854601788655036339e-03
-1.187699237414818233e-03
3.867336122024262954e-03
5.290352337464776511e-03
9.669037730749414222e-03
1.777045818114406095e-02
1.781912424857117622e-02
3.869360478919941105e-03
-6.268632414034605756e-03
2.430562887553634581e-03
1.064753305292417268e-02
9.702691556558857428e-03
9.559129189344288055e-03
5.137010786835293115e-03
-3.904928355007132416e-03
-7.630354692552656498e-03
-4.306459364935729534e-03
-5.487945100018240367e-03
-7.065585968288170225e-03
1.841724068765644099e-03
9.897067450461791843e-04
-1.808725878313041397e-03
2.252284402940795977e-03
-1.246629359503317533e-02
-1.290945630211734994e-02
7.637182446825764061e-03
2.651475628712578452e-03
-6.050798522732746439e-03
-5.607015346481467565e-03
-9.397311560345036202e-03
-2.733738226027342989e-03
4.924338926600871878e-03
3.917756433411787899e-03
2.924450433638339526e-03
4.708558818959221459e-03
8.096443756598500907e-03
7.373703474310505483e-03
5.931309041863774660e-03
4.071260280742896101e-03
-3.697227501771917506e-04
-3.650175117499483961e-03
-4.686318104846518701e-03
2.231211199385436852e-03
7.314124513916416340e-03
4.357062839946988786e-03
3.217649598872576473e-03
-5.031868969317314453e-04
-3.033569203112655883e-03
-7.651349180862523740e-03
-1.497365882926976130e-02
-3.064992027756216486e-03
5.623010376510940815e-03
-2.604434726502247339e-03
1.543751742790830037e-03
3.987048405470392486e-03
-4.672493501166137889e-03
-4.049242580835232981e-03
-3.116053554343118856e-03
-5.002429465238792880e-03
-4.752669387279252235e-03
-8.837345107244667930e-03
-6.898521454847211451e-03
1.413642219906569410e-03
6.579461538611719451e-03
1.418102790710819121e-02
1.642868355351681520e-02
1.124598792923706993e-02
6.270500826890241207e-03
-1.846108426836209557e-03
-2.290662109586952527e-03
9.072689815455811701e-04
-2.430193392665678381e-03
-1.845455169282608950e-03
-4.465027520583359291e-03
-2.876869809818946924e-03
5.366728268023403248e-03
-3.200691478210491905e-03
-9.393667215438633589e-03
-4.317109145882676996e-03
-5.023493707802806352e-03
-4.495646292352165757e-03
-3.815524043107905959e-03
-1.163961800407083092e-03
6.831469244531646404e-03
1.285758522035789116e-02
1.399660020409788756e-02
7.580722785410683347e-03
3.814746998934109845e-03
8.038604764103304476e-04
-5.293974585368464540e-03
-1.770966328657658717e-03
-1.718259156144348078e-03
-7.191516940344315663e-03
-6.071988570138597309e-03
-3.322794522563955657e-03
3.693302142254177925e-03
4.534037793325130725e-03
-4.354490673887372910e-03
-5.333553029664807495e-03
-3.935836568545781483e-03
-4.903968280593677502e-03
-8.729890745637070015e-04
1.834229141278711324e-03
-2.401854314701350190e-03
-2.824326262697901026e-03
1.987597410617086141e-03
1.549459502848503714e-03
1.036804633936200086e-03
-1.854108796753315812e-03
-8.591683075715214613e-03
-5.803589469742482382e-03
5.449141217369596725e-04
4.921577354505903695e-03
5.025193039311197374e-03
9.737318654002170143e-06
-1.076788285272738555e-03
-4.455157867752477900e-03
-2.729253033862916872e-03
6.783036422707871410e-03
2.410432240446730781e-03
-3.994001168149022979e-03
1.081897379362686731e-03
6.811808124102829501e-03
8.719913544640359865e-03
9.424653335876054250e-03
1.318434947944324698e-02
1.000167143271460911e-02
-1.385625875907384955e-03
-2.568443070186096199e-03
5.542913803972959394e-03
7.873396934607592226e-03
1.112315368835861597e-03
-3.061688460999040066e-03
-1.407417694117269087e-03
-2.413230525529170677e-03
-4.818473920255519558e-03
-7.412704118510288383e-03
-7.248904787059401618e-03
-3.249916662894299611e-03
-3.868826216193371054e-03
-7.331992343697507804e-03
-9.081294719393319392e-03
-6.384216247150674775e-03
4.262904685152430970e-03
1.486323680954050597e-02
1.482108299674823534e-02
6.186758651754907523e-03
-3.744419243718437058e-03
-1.286475174682397658e-02
-1.477434925093240939e-02
-8.865499612290552237e-03
-2.588779159980711658e-03
4.699838796119258644e-03
3.105469577678483632e-03
-6.584566242585836865e-03
-6.388335502425739228e-03
-2.402639460874789537e-03
1.838445362020899119e-03
5.509956720261478813e-03
-4.926609087920360425e-03
-1.978713845916982295e-02
-2.096115223053165305e-02
-1.104762863162669223e-02
-3.993905095216346811e-03
-3.098582939805205345e-03
-8.036987694421111970e-04
5.715891406526208383e-03
1.854969510209211053e-02
3.169706538501516208e-02
3.839828789400626108e-02
3.869021060481265400e-02
2.907573164357653978e-02
1.561363095762615359e-02
4.804635280527865503e-03
1.184113110896002109e-03
2.486193510527448698e-03
-5.250283477215827305e-03
-8.489366906093032128e-03
-3.006137502373861566e-03
-7.291487471517617627e-03
-8.796980986337011449e-03
-4.532663543265568092e-03
-4.031819265944817238e-03
6.232432729204563041e-04
3.981369860794200903e-03
1.742234638066465389e-03
-1.078603742061463953e-03
-7.782538263545154752e-03
-1.694402172493190278e-02
-2.177706327273199946e-02
-1.887497385419872886e-02
-1.185805765870151518e-02
-7.323520889685390493e-03
-3.613751326739571279e-03
-3.546944086055897009e-03
-1.326738420415027840e-02
-1.607518262565794595e-02
-9.230218428998996152e-03
-1.522909325361051190e-02
-1.879004184572990663e-02
-5.022375106525541789e-03
7.338505044005525293e-03
1.603493683429060498e-02
2.152481507471271788e-02
2.874501857098903101e-02
4.397677877009930486e-02
4.949143126469138926e-02
4.106973557579975120e-02
2.553147616751576601e-02
1.346818549372779013e-02
1.040586162071337195e-02
1.783459924776395695e-04
-9.816954364642978270e-03
-1.106766264341396515e-02
-1.379236296100153775e-02
-1.405588856798081071e-02
-1.483485689550865030e-02
-1.519899987961817467e-02
-1.235496959471567985e-02
-1.776105935408748768e-02
-2.313790090612300593e-02
-1.916240197292378225e-02
-1.401841913569584416e-02
-1.227756897026240253e-02
-2.071425137362507135e-02
-3.661666070861303857e-02
-4.252436278041279993e-02
-3.789436773586966900e-02
-2.979784143734148447e-02
-1.754421777410381314e-02
-6.862473517273070742e-03
5.783079657371509655e-03
2.460098830725864633e-02
4.193801380360027975e-02
5.878494177444806845e-02
5.882307732582330723e-02
4.010593349908451316e-02
3.894904173133162395e-02
5.061099689553488074e-02
5.245652574056224732e-02
4.277610626646096564e-02
2.019825576865639030e-02
-3.700934713729210190e-03
-2.098839964053408544e-02
-3.016651256796970201e-02
-3.884101209367944035e-02
-5.645232493266326423e-02
-5.672356769101986190e-02
-2.486877023707128459e-02
4.489916436812235734e-03
-3.869761895180505451e-03
-2.452093915589851139e-02
-1.183801473955454174e-02
9.537841299420639352e-03
1.039255606127575428e-02
2.308725724509180267e-03
1.076929293660348896e-02
7.548431841600866665e-02
1.439208366719314791e-01
9.485056815293552157e-02
-5.468632573775811939e-02
-1.527966278137203593e-01
-1.479955237436458015e-01
-1.190383424357727427e-01
-4.502623529573152039e-02
7.728994822939674880e-02
9.629765357248472324e-02
-1.949828873077095450e-03
-6.518117916451840466e-02
4.525830897233970064e-03
1.281602340498229076e-01
1.317794297156461014e-01
3.954686890217716522e-02
-5.137170356462848753e-02
-1.514726373543985316e-01
-2.007317830037886330e-01
-1.445993648599021575e-01
-1.567932032781345006e-02
1.275095639951551452e-01
1.940718121963748710e-01
1.691926664560716997e-01
9.464249285123890743e-02
-2.168629354977251802e-02
-1.554382390082429399e-01
-2.267263582836149816e-01
-7.589163132615049656e-02
2.652835941736882974e-01
3.651762029382715768e-01
9.253863488450726760e-02
-1.071690187971666569e-01
-1.200847124840658947e-01
-1.280593016896509617e-01
-3.543696776230786938e-02
7.342237341235538506e-02
-7.814277314097630616e-04
-1.207039929350565977e-01
-1.378421241692870391e-01
-4.298805539308367396e-02
5.920738705060336893e-02
-5.480182307393464958e-03
-1.854721813254087137e-01
-2.337179574004228377e-01
-7.405960824478025062e-02
9.505675459275142458e-02
1.731030255971343357e-01
2.092527709438938011e-01
1.796320235012812683e-01
1.448529238052839174e-01
1.132138146485798108e-01
2.124377085250583191e-02
-4.143231307783000472e-02
-5.726938308197897926e-02
-1.702430841773854009e-02
8.090591677714044361e-02
1.068058670805928229e-01
5.232783837733399196e-02
-3.434056932104137538e-02
-9.378295406512404675e-02
-1.105300820955503333e-01
-1.098189922004556146e-01
2.168585041953938891e-02
1.278846467500399375e-01
4.022655562692203923e-02
-6.703973677483553856e-03
-8.579532740690693632e-03
-8.161410579820356503e-02
-1.521717822290697963e-01
-1.957268689075269963e-01
-1.699210549019931626e-01
-1.045944921702558622e-01
-6.980160944353636099e-02
-2.340807482888727920e-02
3.201081309751468984e-02
-7.722390613934911573e-03
-1.395466185951390881e-01
-8.454302335568500415e-02
1.540510285034775995e-01
2.151247745975915227e-01
1.680152296571954529e-01
1.939713552501425853e-01
1.927038681373051399e-01
1.139885541186625578e-01
-3.057093220930618901e-02
-1.112317234617755390e-01
-6.828921382137127793e-02
-5.022797222309674861e-03
8.481759322985379934e-02
1.124834117318847665e-01
2.641401064958685124e-02
-2.576647870058819314e-03
2.595030937233067450e-02
2.277296649739487741e-02
9.172515138860160358e-03
-6.621510829675734955e-03
-4.137679089052370696e-02
-8.699225744506131064e-02
-8.161899218958799940e-02
-2.131677310231321412e-02
6.386095422368134010e-03
-1.545820897281288686e-02
-4.161676851376875513e-02
-6.264761955516097436e-02
-7.963910299574629426e-02
-6.335438903553766710e-02
-2.545829927447207375e-02
-7.418447066458317037e-03
1.756184625553766990e-02
4.779419553019503830e-02
4.119555783365781015e-02
1.872891311011004589e-02
4.305716950115025081e-03
-2.240018204544274617e-03
-2.439095926588198161e-03
1.230446710653846157e-02
3.746253927480658330e-02
1.814903675265485197e-02
-2.734102579989237253e-02
-2.813365208014474705e-02
-1.403820109570865296e-02
-1.737977518445501385e-02
-2.042717150123295189e-02
-1.530907580928790937e-02
2.720377407889715878e-03
1.171046105784633549e-02
9.297507093130456465e-03
1.523152727596879634e-02
1.192333696178556057e-02
3.939957503170800172e-03
-5.032444469623319899e-03
-1.340796260243334176e-02
2.021283781820814099e-02
5.763516534124762947e-02
4.959683238624057466e-02
3.922663609416612851e-02
2.946179564857677111e-02
1.816213664047111598e-02
2.721762358153285988e-02
1.990464604256309000e-02
-7.964477331910195480e-04
-8.384074985007903408e-03
-3.471441266467053394e-02
-6.501163622603418901e-02
-5.346942074031725556e-02
-2.414485762256857182e-02
-1.159533219637038683e-02
-8.411775911215670434e-03
-3.476154486046516799e-03
4.055212435508589140e-03
9.454552602657824434e-03
2.207827241063240863e-03
-8.932482552763111594e-03
-6.587693814247060770e-03
-2.699570127335651016e-04
-5.692801787710147915e-03
-1.699521251191737220e-02
-1.829458270284407481e-02
-1.453553173011667803e-02
-1.290339247666512021e-02
2.144420135327862811e-03
2.094519459730809219e-02
2.197118619109341559e-02
1.603925354169817227e-02
1.257519224131881802e-02
8.822077821882242168e-03
6.373583738902878493e-03
1.050289421933314760e-02
1.580038463883917665e-02
1.195967600915330033e-02
7.412405946473979435e-03
3.605306390696455619e-03
-1.018172859836612154e-02
-2.420602602213432417e-02
-1.695540259756944668e-02
3.646813025967844245e-03
6.894718157084185270e-03
1.058353290639959740e-03
7.995986511695412453e-04
-5.024260710199512925e-03
-3.295755083584274523e-03
5.554683535303431285e-03
7.652802616467163123e-03
1.251626118655854540e-02
8.468325089050363075e-03
-7.284369083661748276e-03
-1.245939266220436742e-02
-5.310500813523440569e-03
6.822138691774548395e-03
1.355050591134368716e-02
1.021661889255916049e-02
6.308743781240089450e-03
4.067050741848276391e-03
-1.107322388415290593e-03
-6.560856962479735995e-03
-6.857088646141594121e-03
-8.013985206429602090e-03
-1.520288938549930156e-02
-2.061918578174234962e-02
-1.756310139875376375e-02
-9.554496645831312904e-03
-5.737446480901196681e-03
-4.581481218426152260e-03
-2.701965769422732307e-03
-1.054727805651426743e-03
5.471402940946854497e-03
1.029715092526592608e-02
1.411991210166775070e-02
2.446756020070565973e-02
2.118027053704167259e-02
1.230449006577872574e-03
-1.259608163297843905e-02
-1.415068652776418044e-02
-5.824713209350909464e-03
6.538354044364641862e-03
1.578738252707145157e-02
1.992571622785177174e-02
1.813774071871472604e-02
1.393788117608190519e-02
1.057322014762528822e-02
2.213387353406582030e-03
-1.475613936229524213e-02
-2.738434558819864695e-02
-2.642329481323405296e-02
-1.523198531137132453e-02
5.417447350548362621e-03
2.109394670096097213e-02
1.865949041075015344e-02
1.096424766303633232e-02
8.044165273081176418e-03
5.837889828196330712e-03
-4.555061044441007304e-03
-1.682675131269035021e-02
-1.033947872316229484e-02
5.304188064373716906e-03
8.693805146511286372e-03
5.447894298881724925e-03
2.305074142387071590e-04
-9.117499896492834224e-03
-1.428317830181956988e-02
-1.233204764810372743e-02
-7.372690499056956670e-03
-1.895936129086633068e-03
-3.016491889780367492e-03
-9.042974626274727021e-03
-1.007146206216713753e-02
-1.161234047522712032e-02
-1.862007974277618549e-02
-1.869470778524762525e-02
-4.794198915017171790e-03
8.093280468476442974e-03
8.012752482977864021e-03
6.156059707352994070e-03
9.013140954709742900e-03
1.595799900672102353e-02
2.315264180641401354e-02
1.549433461468499237e-02
3.974728760292662449e-03
1.450919661412867784e-03
-4.846883319306750058e-03
-3.780645226050167312e-03
8.811177815507284863e-03
1.249886625450985153e-02
9.781250772065135796e-03
8.938710758803487810e-03
1.317790050389679515e-02
1.877270595384636018e-02
1.264142637450053550e-02
5.362680182594756033e-03
7.521774553287026606e-03
2.520601653358690961e-04
-1.559121536349135535e-02
-1.179160876813050221e-02
4.539079164852863682e-03
6.809277428011527994e-03
9.731141395851093884e-04
-6.326535291666327693e-03
-1.443826024651533382e-02
-1.399361300316439259e-02
-1.119290647946923588e-02
-9.724661726298272288e-03
-7.900959029201480577e-03
-1.296043230912521937e-02
-1.851269570267515679e-02
-1.440614242094010074e-02
-3.459356500769182000e-03
6.569167359256842262e-04
-5.364275385712401201e-03
-6.335837970838729266e-03
-5.840565876526601988e-03
-1.118617906570801117e-02
-1.820002503011170641e-02
-2.595706415865737041e-02
-1.998975697497439377e-02
-3.250715987495046613e-03
-9.293826736730319369e-05
-2.321027945699738384e-03
1.902292151434537698e-02
6.058960279767273277e-02
7.513541008464086346e-02
4.823492077910399023e-02
1.925402226064354058e-02
6.746571018865256397e-03
5.710627837479393364e-03
5.504398068900218620e-03
6.151235122767279538e-03
1.097999615134892699e-02
2.335331122857318888e-03
-3.947197342683804455e-03
4.412768953247611994e-03
3.264449582478809540e-04
-8.478652343645309841e-03
-1.302741889598530572e-02
-1.681672533890378810e-02
-1.091236079588567449e-02
-5.032459489670801714e-03
-3.102829780758553820e-03
-9.079138920728256276e-03
-2.816134507435065146e-02
-4.719500867241915865e-02
-6.451968299034387122e-02
-6.112823907779172533e-02
-2.554542648463782595e-02
-3.921644741927932457e-03
-9.654009457342866557e-03
-3.238257537278870293e-03
1.885940989705560400e-02
2.967604968910349597e-02
2.990379901581112845e-02
3.820283151441718206e-02
5.339716773034833275e-02
5.191354771115283540e-02
3.150428396401595832e-02
2.355151578654882463e-02
1.620979918553051846e-02
-1.164052941748489750e-02
-1.824897175113863665e-02
6.155775781416884590e-04
1.104878422925250486e-02
9.110304236337513420e-03
-6.673568324120186801e-03
-1.162336740166681169e-02
-8.695356718566429671e-04
-8.573016832389207184e-03
-1.660605085728682553e-02
-1.036125378857095415e-02
-8.260012464878384655e-03
-3.731138900697598699e-03
1.918813021759256622e-03
-7.932234012092374007e-04
-1.053300255314179590e-02
-2.701184254319374117e-02
-3.425432931736060310e-02
-1.949960805544990669e-02
-4.859877161844827764e-03
-1.323146909206483583e-02
-2.486907459382822760e-02
-8.316053874764870249e-03
1.993683127557368401e-02
2.226711365979200385e-02
8.243183379728012336e-03
8.953164616500808304e-03
1.814587632479858215e-02
1.804719393501816316e-02
1.032524395708609918e-02
2.881724646158736764e-03
-5.667513495175145353e-04
-4.550806446381894244e-03
-5.264232366423178891e-03
4.403615139873751083e-03
1.088721951298603739e-02
5.653025122109817807e-03
-1.733290517480359739e-03
-2.689507826049516385e-03
5.738601462251253192e-03
1.675255612791165180e-02
2.032919407205217160e-02
1.393204173041744792e-02
1.383133976101123472e-03
-8.527887171052865936e-03
-1.313043625733685549e-02
-2.135585431607318202e-02
-2.949456603621924272e-02
-2.250567191974204781e-02
-7.249088678214847883e-03
1.705554746763052404e-03
4.476704158018068001e-03
5.586301032516835692e-03
6.432290991108965961e-03
3.109160985424573240e-03
2.669593060279727877e-03
6.991760693395942736e-03
4.847391962369562452e-04
-4.792589996754765408e-03
4.724145785309645019e-04
3.311182319104623555e-03
1.060135678652633119e-02
1.308287930989163704e-02
-6.332317834113358529e-04
-5.715556109267484926e-03
2.522232709939599415e-03
6.789367424205995129e-03
2.978261821380213253e-03
-5.668057539199689888e-03
-1.293737626935524861e-02
-1.319124369845361099e-02
-9.563354588485964425e-03
-9.206516311632379282e-03
-5.906638739554643733e-03
8.531487055887632771e-04
-1.219567855181413274e-03
-6.766568267422550832e-03
-7.862212437296650647e-03
-3.115146293829113445e-03
6.166174461046079747e-03
1.035384671728296554e-02
9.791687252275412673e-03
3.517009040204054689e-03
-7.647011679650909770e-03
-1.166235914652798307e-02
-1.394972513430866798e-02
-1.261048241326359447e-02
2.284130054177575288e-03
1.189967607078017825e-02
8.452657612802710191e-03
1.290162997000108940e-02
2.725284531742078534e-02
3.011310387253562926e-02
1.902557689102030158e-02
9.134202174420300371e-03
1.957654849447037528e-03
-5.908859263699851698e-03
-1.114573070382742816e-02
-7.220343857691054190e-03
4.259727732283532034e-03
8.179235897720580142e-03
3.648583559376659090e-03
-1.183202697330810885e-03
-9.067726243775851847e-03
-1.970623353054575325e-02
-2.949213213783380069e-02
-2.676262792172257390e-02
-8.038648682794207259e-03
1.956609880355549523e-03
-1.312499584760105746e-03
2.301514818034336614e-03
1.213003113334338093e-02
1.367682912322518325e-02
4.750643178694597887e-03
1.507299731721614862e-03
5.717364722000434218e-03
3.252248709192971394e-03
3.673537259155125034e-03
8.483728235705636708e-03
4.251588926716906927e-03
-1.103314557387448684e-03
-6.191724231109140518e-03
-1.363103792459457314e-02
-1.729809580270515179e-02
-1.996080742508214018e-02
-1.518688370909012514e-02
-1.686256514978131662e-03
6.336223330116695467e-03
8.277910378567258573e-03
6.723601173977918934e-03
3.734015414794823306e-03
3.012543817314420475e-03
1.107614616231130831e-03
-2.456406807052564055e-03
-5.912519251851302594e-03
-6.649640269553848057e-03
-3.616595252321346769e-03
1.346408372971248343e-04
5.200726615686602529e-03
1.164129484780611866e-02
1.823847322543872829e-02
2.141565713662849785e-02
1.769761287341449496e-02
1.225216214780479665e-02
9.184704937707427463e-03
7.729869751848925455e-03
6.991617257640048502e-03
4.482996316166608028e-03
-6.371279372807362763e-03
-1.944699221728807964e-02
-1.521200275215635334e-02
-7.845081936968438877e-03
-1.727968331937763946e-02
-2.276468825544734897e-02
-1.567615515240999846e-02
-5.163417593896813679e-03
3.637195766899076112e-03
3.602975510023965783e-04
-4.928123979853348165e-03
-4.087157428167331784e-05
4.256937446240212017e-03
3.161898496053498417e-03
-1.476291050269019651e-03
-6.492797878588103117e-03
-5.030707110577955360e-03
-1.854651151643945794e-03
-2.841048860236178829e-03
1.038164993237870697e-03
7.591143821475226233e-03
4.461229643100459753e-03
1.059011909943073475e-03
5.907300569758953436e-03
1.062783798377687182e-02
1.031727277161816059e-02
7.823061148176938678e-03
9.222138192733873516e-03
7.109299988581853878e-03
-2.020113941372330378e-03
-2.724975716522176801e-03
1.466307298709536733e-03
-4.151789928662887388e-04
-5.835360015774946826e-03
-1.003922259322042286e-02
-9.008646618235820538e-03
-8.609670551536321645e-03
-6.565694277389083448e-03
1.964657613466829714e-03
4.832813463840581435e-03
-3.924671372196696442e-03
-2.224045642984971705e-02
-2.760838508620240550e-02
-3.349858101952130161e-03
1.631957880977372155e-02
1.551118928572409010e-02
1.185062339744134309e-02
8.874648704173976679e-03
8.798561439076115626e-03
4.722938926904329641e-03
-4.407682422660828651e-03
-2.718271215167277627e-03
2.155223384033271711e-03
-1.115312680919024538e-03
-3.405336281254107804e-03
-3.800084861219253044e-03
-8.499716398712170093e-03
-6.748054842724929628e-03
6.743199616520154441e-03
9.816635863141144266e-03
-2.547376906676043773e-03
-8.758547006972696933e-03
-4.924221423254913216e-03
-2.404693158706899033e-03
-4.114846194499867729e-03
-3.467297989750884810e-03
-5.881591241521243359e-04
1.094834883207377934e-03
3.790341966187940441e-03
6.633226427440853208e-04
-3.983055974163713341e-03
3.790424946798276202e-03
1.180711027910230637e-02
9.383918323050612076e-03
4.194609286553285625e-03
2.156683288155562947e-04
-3.053889561677845029e-03
-4.168264096068283187e-03
1.845092717830816922e-03
7.008426198340218273e-03
-5.782217633299527055e-04
-9.425203506820445040e-03
-8.986780601644614105e-03
-2.215190346134418564e-03
5.083037256593423911e-03
5.885206700305554463e-03
3.051321370139234868e-03
-2.149926889314777989e-03
-8.290484805675221724e-03
-6.904608467017851053e-03
-5.540418489426242668e-03
-5.407462270243829951e-03
3.489315717814803902e-03
9.160913224987467587e-03
4.933254822528923209e-03
3.335571283229753735e-03
3.118652128220662789e-03
-8.687204395622030381e-03
-2.052816386314132435e-02
-1.238462290701472339e-02
-3.700709414730912750e-03
-6.321897940016141249e-03
1.110132122820109337e-03
1.383523109334430269e-02
1.812206579878753235e-02
1.239062250530649154e-02
1.237232692782681918e-03
1.838853030403180509e-03
3.117773205077935435e-03
-7.128044951578121034e-03
-8.903691073811607903e-03
-1.883650172251717832e-03
5.621897523447832654e-03
9.745814651890246857e-03
5.441638544068273450e-03
3.524565512073143990e-04
-5.039426274469685323e-03
-4.779606032114952670e-03
1.057162573578678856e-03
-3.626004291268476298e-03
-5.680364258121009188e-03
-1.153520336568990669e-03
-1.315375222876647397e-03
3.078251997514162581e-03
5.808256232261581851e-03
3.846484579899616014e-03
4.203143643888209574e-03
2.054747260855160386e-03
3.301434134674949804e-03
3.842720470711349229e-03
-2.231767310371184868e-04
3.622188283316094687e-03
6.257135111736443489e-03
6.973519031562824258e-04
-3.790719310374633666e-03
-9.828497782047661280e-03
-1.766742975814526370e-02
-1.883071618150910023e-02
-1.382305890331982957e-02
-9.016608157678745669e-03
-6.032835246177026094e-03
-7.359076900999184968e-03
-9.558724918855036543e-03
-2.022730981266072231e-03
9.832904073504553089e-03
1.479671021405029423e-02
1.077544821273665465e-02
5.223821241312197675e-03
6.164156939461807455e-03
1.822179869487010979e-03
-3.997257938112022679e-03
7.343896238376461730e-03
2.054192433385671271e-02
2.147384503522118543e-02
1.408045547369603592e-02
1.681366049300907217e-03
-3.663973232703542256e-03
7.210394474029167226e-04
4.954632570043973443e-03
2.366215842123241004e-03
-6.459737336822505768e-03
-1.183820459633397153e-02
-8.924681159767538022e-03
-7.845628050255218713e-04
5.418838553500705812e-03
4.325356236223141561e-03
-1.769610447907349685e-03
-8.740033257757373955e-03
-1.073976930751917649e-02
-1.168581426814255600e-02
-1.496380800368005137e-02
-1.027949638761473106e-02
-1.308918403337790744e-03
8.668462656869228757e-04
-5.472941659638141249e-03
-1.069259767162573926e-02
-1.597621013043007670e-03
6.846252092441562805e-03
2.066209195728228604e-03
-1.172328639803297190e-03
1.217372536946059215e-03
3.830249657693005072e-03
2.570591564743078799e-03
-1.193284332101438982e-03
9.445356063516392904e-04
7.689925976923206626e-03
1.321789418615460475e-02
1.241544927192938380e-02
6.565909879841942340e-03
3.680425321767813538e-03
3.193827703208429198e-03
4.766881772362504405e-03
6.164976454919765016e-03
2.768907985718800126e-03
5.872049567990547236e-04
-4.547293905346232656e-04
-4.430027316108374295e-03
-5.671161682631443643e-03
-4.318866682022721483e-03
-7.116721118285419118e-03
-7.883451636775075030e-03
-1.952929855622532193e-03
-2.393697595958486739e-03
-2.720906340133155948e-03
6.636090812584273177e-03
5.704614713921064839e-03
1.389192053172725368e-03
8.040434234064934918e-03
6.043867299309593245e-03
-2.170071410079260892e-03
-2.445726844274735256e-03
-1.347291021521465192e-03
-4.180913366519651078e-03
-1.110577699087752189e-02
-1.258429114820684529e-02
-2.939125900588021156e-03
5.846369955159297707e-03
6.590465067943822655e-03
2.540466251459521946e-03
-4.363357462626557721e-03
-1.057740985016417806e-02
-8.890265636797456406e-03
-5.470192046599610912e-03
-5.009336258259693662e-03
2.624693180796522276e-03
7.547220293787054897e-03
2.805271194177362797e-03
2.859852230750177613e-03
3.802699849387083334e-03
-1.684921504896453454e-03
-7.379992327713448541e-03
-3.237890625456432518e-03
8.173567294610233416e-03
5.992701227185577226e-03
-5.920662926030224654e-04
7.319845226240333930e-03
1.372469295822679319e-02
1.161690710196211333e-02
7.746719147908876987e-03
1.439553522238420143e-03
-6.162094643611349017e-03
-1.140026228717078670e-02
-8.856573087073882355e-03
-2.187807710613381669e-04
6.382953427675663351e-03
4.012394658445874070e-03
-1.871539322999620728e-03
1.943220498213242206e-03
3.135724104046226819e-03
-4.842362492760486289e-03
-1.207430999168950274e-03
4.977972638061082915e-03
-2.617603905309424678e-03
-4.532181376044981322e-03
2.398581118071011192e-03
3.981301999793930395e-03
6.334781090952178347e-03
2.638286763116037045e-03
-1.114352694085754374e-02
-1.366518023998613933e-02
-1.199035359931609895e-02
-1.263439157789999351e-02
-4.437509584121029395e-03
9.882070780407197809e-04
6.979896808407276207e-03
1.453109686016111450e-02
1.287373714020961096e-02
1.183582999112251996e-02
-2.148604946931932311e-03
-2.256345171633045502e-02
-1.691718235452206731e-02
-3.355936345535994684e-03
4.348855037844993193e-03
6.961368117597497608e-03
8.367268780649745556e-04
1.264728975002149883e-03
1.972897128153865490e-03
-8.440935594264935976e-04
3.792820249856383545e-03
3.708103245223557960e-03
-6.284370413428572253e-04
-1.900371963845598694e-03
-3.277928485927197617e-03
-1.323069045453504743e-03
2.717935470954778963e-03
8.295593680341675769e-03
1.240308430616482091e-02
8.874140242178665122e-03
4.417709059164327649e-03
1.412904360621562109e-03
-4.033407641030205618e-03
-6.862373164139175079e-03
-1.355904331263175968e-03
5.976278730015556484e-03
4.350611119883891764e-03
-2.472715635624220688e-04
1.832764621514038766e-03
2.111568883585901359e-03
-5.560241038874629699e-03
-1.431641345783197551e-02
-2.238422877349344545e-02
-2.257591438005602386e-02
-8.128230406361965088e-03
1.165512072009536847e-03
3.203895486736003072e-03
1.236370799862035637e-02
1.355763996121991249e-02
9.121663965382232828e-03
1.084220426595177388e-02
5.358080946973691611e-03
-7.783102005004033288e-04
2.156566599322075860e-03
6.413505734429061737e-03
7.200889875545814049e-03
1.901693336936516321e-03
-3.076663024559893062e-03
-6.993423452034821380e-03
-1.042370738143214882e-02
-6.520793544810690907e-03
-2.264552144276091913e-03
-6.760387201037862870e-05
-2.163499755514993166e-03
-1.052845002256898137e-02
-7.502950621153496244e-03
3.146018363491059726e-03
6.262593064112223669e-03
6.960843422016047520e-03
6.963794426677548041e-03
5.345310045548987143e-03
-1.777888130622624950e-04
-8.726798470883399134e-03
-9.320912408801137680e-03
-2.143190610777168971e-03
5.562206220904538680e-03
9.354650428370803183e-03
3.839474491438971820e-03
-4.530916173453064695e-03
-4.934602957219699076e-03
-3.759467459593432599e-03
-5.693404093366276515e-03
-6.186098371666018825e-04
7.053999183898363584e-03
6.273945993047204753e-03
3.335923122378766162e-03
3.652501858583211310e-03
5.543029485792935925e-03
3.578869558963743494e-03
-1.400139712390125087e-03
-1.281048450815899711e-03
-5.516197463402127028e-03
-1.340170392442080124e-02
-7.915896640127956241e-03
3.193885075529854112e-03
9.079522992480357907e-03
8.775760163771762282e-03
4.983420023816126712e-03
5.258254400662345715e-03
1.325288353712253051e-03
-8.870388798278406803e-03
-9.342941667477391507e-03
-8.445755644954384272e-04
3.418258815229017512e-03
8.230336595536967385e-04
-2.822647474871543306e-03
-5.228239890203540199e-03
-3.688337502073839834e-03
7.633676859515758526e-04
-8.762857394283669280e-05
1.058731663432920835e-03
5.319774852853651620e-03
1.009007002834225392e-03
-8.450822329585576474e-04
3.708617404196819234e-03
2.542194255281290689e-03
6.428804953527393748e-04
4.209467253214010246e-03
6.176359549911305050e-03
-5.855195502779035957e-06
-8.206080287915289845e-03
-1.085113505204434239e-02
-8.212844004303896175e-03
-2.308513779758665507e-03
-8.592471597216091430e-04
-5.177423073929261809e-04
4.070550923215475458e-03
4.731158319295403550e-03
5.837567020873317067e-03
3.824408844672807888e-03
-3.260167049955264114e-04
8.901733378363033827e-03
9.479611763926669085e-03
1.270156398968563848e-03
9.517435082962514767e-03
1.116421653183139601e-02
-2.395939211874827720e-03
-1.600286015524955349e-02
-2.346750810887818922e-02
-1.247477122602154084e-02
1.186760205150117408e-03
1.168946973100844396e-03
-1.050832292455948589e-03
-4.672906415675143720e-03
-7.573806624363789604e-03
-4.852115501649361534e-03
-7.739949750161449326e-04
1.323292177182943882e-03
2.919848941207105371e-04
2.216500491142821445e-03
5.841565998829036793e-03
2.977160521914328124e-03
3.650150044087518476e-04
3.775392776571870421e-03
9.301617636284025339e-03
1.417644379476749525e-02
1.378693050838666195e-02
7.264643286184100171e-03
1.547564960611402243e-03
-1.644778059499756636e-03
-4.141633678789005506e-03
-3.385391763830561916e-03
-1.308643814406409023e-03
-1.257410629612115520e-03
-2.775733138741381077e-03
-6.685963835615126201e-03
-8.838692164637212273e-03
-4.623635754039338852e-03
7.815700672631464277e-04
-2.311358529590129248e-04
-2.529976920996139349e-03
2.177046363271978226e-03
1.938092753179025424e-03
-3.353865712221934352e-03
1.989483993615643979e-03
5.444339909281181028e-03
-2.719668843638842117e-04
-4.882108100790724312e-03
-7.969437668040922282e-03
-4.970338855940312044e-03
6.739503213390826046e-04
6.178989916181782532e-03
1.437375388667666565e-02
1.019509086216375225e-02
-1.487362954793000191e-03
-4.832170490656068074e-03
-3.161708441306176984e-03
1.787277845141020411e-03
1.693994916306150629e-03
1.499471946943815946e-03
6.563435558157257668e-03
-1.316121560884030151e-03
-8.862370983519168507e-03
-1.203477102654482850e-02
-2.336380437840583288e-02
-1.194284596475709594e-02
1.174816347488365220e-02
1.299296066410064732e-02
1.027687955188125689e-02
2.840149369422871779e-03
-1.250767031909151561e-02
-1.472154136680822907e-02
-1.044929866447274168e-02
-3.322883800224168179e-03
6.222495498951335739e-03
5.845048747902783365e-03
6.708986729568960916e-03
1.592007443409479070e-02
2.036921972311385443e-02
1.935546752526825370e-02
1.594180716207140025e-02
4.885040152674668262e-03
-8.570919020414713083e-03
-1.172983032792324770e-02
-5.090112368184651973e-03
3.179944033232007944e-03
5.019902790063028586e-03
-7.009806992934887026e-05
-3.857538643616788970e-03
-8.667062496140652550e-03
-1.390227617901179484e-02
-1.229398867962709987e-02
-7.669515686702019913e-03
-3.968407087596831015e-03
-6.655593827051693202e-03
-9.816017052770260182e-03
-4.968741319838951807e-04
6.722808293209432684e-03
6.206314155475241290e-03
7.180546368815920837e-03
4.929777964326038063e-03
3.903167084507337247e-03
2.367551528727529497e-03
-4.164135798331963269e-03
3.415737259354973332e-04
1.082594711074385402e-02
1.006523855522215537e-02
4.105341299015214697e-03
-1.766337317691619091e-04
-3.150335166467494938e-03
-3.757628063818757840e-03
-3.922964382018184586e-03
-5.495309602628943579e-03
-7.054243642073237432e-03
-8.133782146409931912e-03
-5.617952109274672486e-03
-5.809853052184570706e-04
-1.367726892653831159e-04
2.772047091637158938e-03
7.492978328302386977e-03
4.483221591352101309e-04
-7.288426205641593790e-03
-7.548914443024971194e-03
-5.020173481749812955e-03
3.781839682671242833e-03
1.023214534667760481e-02
1.010405387436826528e-02
7.324999531197280180e-03
1.074623302038296745e-03
5.783167484816442716e-03
1.350249706292488278e-02
9.008701109418759678e-03
1.003208340627238272e-02
9.909185889015466320e-03
-2.926007015199660541e-03
-9.156814835569855593e-03
-2.436105197664590032e-03
6.180640452594816925e-03
5.654093977990927618e-03
-2.321161377811845582e-03
-1.109444150384837277e-02
-1.851201240004148041e-02
-2.210850371669661335e-02
-2.705653641301217216e-02
-2.745712938749358262e-02
-1.796338937343575776e-02
-7.702306004000758835e-03
2.979209783961972620e-03
9.882549032479802723e-03
1.499845980154709997e-02
2.202258198231566919e-02
2.624648248735234751e-02
3.137904569518765174e-02
2.798968369959755134e-02
2.028350308254471546e-02
1.809601882062046585e-02
7.521926603721052276e-03
-4.045057146840377003e-03
-1.328164906585773894e-02
-2.362444713559274517e-02
-2.864194269935717296e-02
-3.440855455343039965e-02
-3.848421939983012741e-02
-4.453054704080605664e-02
-4.428492045674267685e-02
-2.079023870812367336e-02
2.493957050563412603e-03
1.105381625642709933e-02
1.538869599948175168e-02
2.771261308829029227e-02
3.947936365544282844e-02
4.213844443369962889e-02
5.099084303518149064e-02
4.604751314004369711e-02
3.521982373627523255e-02
3.267193425883005431e-02
1.078110953279832855e-02
-2.003535524624285719e-05
-1.135804044483666210e-02
-3.235810842872405974e-02
-3.817854267932688228e-02
-7.652406044671311580e-02
-5.287598226217070374e-02
