2.574879099813176184e-02
4.571586061831804659e-02
3.659067775898135894e-02
3.596400617877318351e-02
2.413304978584802224e-02
1.462609993190768821e-02
4.801100721814999901e-04
-1.495183046686070910e-02
-1.975055579688347884e-02
-2.615105713650230784e-02
-2.628445210395355738e-02
-3.141175021702147935e-02
-3.935396444240300134e-02
-3.381338245555910033e-02
-2.755868500325740419e-02
-1.533073293192243648e-02
-1.490590714025323213e-03
7.620569016659927558e-03
1.941114404568076296e-02
2.014032803054019438e-02
1.502415628372467601e-02
1.592310935757000265e-02
1.528770768867237367e-02
1.212567118624490251e-02
9.751950625761476171e-03
5.728250853203124306e-03
-2.177178542609193353e-03
-3.380954668626904094e-03
-1.798950134453326626e-03
-6.058717036150702145e-03
-4.938715317109584890e-03
-5.521314400366404349e-03
-9.059507006642533375e-03
-7.796768331576094634e-03
-9.518382190301306542e-03
-5.231776656286559433e-03
4.946350548654688054e-03
7.749309245580524898e-03
6.460060598348362285e-03
5.602831358269041995e-03
5.237519988940990238e-03
3.732470690498096520e-03
6.743209585818108441e-03
1.032883782928424414e-02
6.054722149898817546e-03
2.926231068187818730e-03
-3.548331050959826257e-03
-1.170948366654428995e-02
-9.424913489262871577e-03
-2.799105248966534103e-03
6.566892595383467743e-03
9.463105514503416735e-03
7.527798060422410606e-04
-4.653314329289672327e-03
-5.662149878772647534e-03
-4.115812612620443900e-03
-1.727728939785564679e-03
-2.710478905596830270e-03
-3.768965839667501750e-03
-6.224295175374963164e-03
-7.343049221940176237e-03
-1.240658311104837156e-03
5.074315152288678445e-03
4.694075968861967027e-03
5.173481951015856083e-03
4.504098526922909601e-03
-2.233558457385856257e-03
7.669930624904105175e-04
6.498697972123921619e-03
7.755064786103898870e-03
1.389945301242190463e-02
-2.586108702000939740e-03
-2.833699870055696526e-02
-1.731549513609212040e-02
1.471208100945907990e-03
4.935925417849416387e-03
8.796481895126790490e-03
7.834781739013405022e-03
4.426078349866780469e-03
5.624936268218001280e-03
8.109264385913829464e-04
-6.865780711904921445e-03
-1.878596799343641363e-03
4.241638094696902929e-03
-5.711569855456573091e-04
-1.460355602734942021e-03
-4.865721774504251250e-04
-4.788627790760354927e-03
-5.099873636598701264e-03
-1.324198049003007119e-03
3.758042330837403112e-03
3.690135333662696634e-03
-4.226234261940655626e-04
-2.760229136751665116e-04
-5.613981599950156054e-03
-9.169845746502293393e-03
-6.356011490455103783e-05
3.029365586483374461e-03
-5.054435804880889720e-04
-3.784668895185919137e-04
-2.334453976996798789e-03
-2.771184106137333184e-03
2.480231314813269479e-03
7.707086118579739055e-03
8.322684007562648756e-03
2.075453893884299586e-03
-2.733974969648878244e-03
-1.704234846462005957e-03
-6.122283804396971407e-04
3.022930943623858800e-03
4.442890592968424049e-03
6.869340054753540498e-04
-4.814892736843055625e-05
-2.906521565586611851e-03
-7.786886598339632856e-03
-7.805743610124872035e-03
-9.400817804984305890e-04
8.323154077725727906e-03
6.801113887200667223e-03
3.457585423363704769e-03
1.746918904556742091e-03
7.550965583558783738e-04
9.340897206961330801e-03
-1.010988276476138849e-02
-3.816552300125864577e-02
-1.401976363421643910e-02
7.614493232718559657e-03
-1.283981746093731295e-04
2.301413929493501681e-03
6.850848544277084000e-03
1.335219775128566010e-02
1.667033580784676311e-02
1.080706551756186254e-02
1.112648059342177809e-02
7.526909092075999633e-03
3.568692267333643982e-03
4.099916832001206102e-03
1.473264141735716216e-03
-2.341510228097128197e-06
-7.778330180720978079e-03
-1.233174478701799630e-02
-8.732887939241627123e-03
-1.195271933672820489e-02
-1.335974599431640625e-02
-1.292505430451137277e-02
-1.181491044082938306e-02
-3.683499939238724791e-03
2.472098442383247486e-03
4.994220319472228789e-03
3.652213841658460448e-03
1.906603373836125888e-03
-3.142019521859067913e-04
-7.197318746642053164e-03
-3.752036096482861023e-03
2.442395326193556090e-03
3.335397842150439589e-03
1.320204840428168894e-02
1.711077355829559651e-02
8.340459231712565522e-03
1.493488030157640121e-03
-2.408572332911237523e-03
-2.698805752816546815e-03
1.543692772598776342e-03
6.806642301531078652e-03
4.848026926871856247e-03
2.042714960581381526e-03
5.553126776873263878e-03
2.322364006907367846e-03
3.275471720363536468e-03
7.507368644646476331e-03
4.322809542934519765e-03
1.066734805391295407e-02
-4.067687964672139431e-03
-3.682565989719167182e-02
-2.656102247765097443e-02
-2.102026983921964631e-03
4.067167487833616389e-03
8.574067966322842377e-03
3.572868457667478011e-03
-3.971468668273797978e-03
-7.413263952469793805e-03
-7.619355715630474549e-03
8.580281658071326097e-04
9.573375617022207053e-04
-2.815985030365423299e-03
1.937351946528920697e-03
-6.533874583684757273e-04
-7.765806701494280297e-03
-6.247499588434476600e-03
-4.930528722562207110e-04
2.974669011270629059e-03
7.035636422771883100e-03
1.049201854944957490e-02
5.844463065264255200e-03
-2.376828256975157508e-04
-1.443052741394321593e-03
1.356597865542068758e-03
4.550567352044760684e-03
-5.215836670972807867e-04
-4.470853439138548768e-03
2.918021258456503838e-05
3.604004031238612887e-03
6.169064550104653814e-03
7.787034900582196460e-03
8.259245120852361233e-03
8.364013377624834183e-03
5.800928576304317102e-03
1.302141648828917175e-03
-7.733380249297529437e-03
-1.219658544974329753e-02
-5.092012403487198441e-03
2.382745742760126648e-04
2.871610135418489924e-03
5.659307383027748113e-03
4.679621631840472432e-03
2.053775456521169697e-03
-1.112093761305659335e-03
6.734478150088060808e-04
3.898677102198733115e-03
-2.183019839101807153e-03
-9.574616406499958030e-03
-1.213787108218930717e-02
-1.196317323643154851e-02
-9.427518094480835664e-03
-7.938076428441147650e-03
-7.098377467926364655e-03
-9.329342390588321252e-03
-1.308456219547876088e-02
-6.243911786941425644e-03
7.249348386246019620e-03
1.525772115454287342e-02
1.526249453154837794e-02
7.478590399898835638e-03
-2.020780479001723935e-05
-2.391306780997062376e-04
2.761766573624163060e-03
5.814400166058042267e-03
6.783707490074306588e-03
4.226764373552983727e-03
1.520083016897209199e-04
-1.506262498607827084e-03
5.392734228937487179e-04
1.824880029011470822e-03
3.030234861867122514e-03
6.419047216292772529e-03
6.981373880706555346e-03
4.238776918319758433e-03
3.715332663068042539e-04
-4.033332179191720206e-03
-5.144519587734890445e-03
-1.856292340863307036e-03
2.738924334042428920e-03
3.064110909530250691e-03
-1.766126913539363972e-03
-5.433966451425556801e-03
-6.786680844700987772e-03
-5.813417634607421711e-03
-2.943197279514936631e-03
-2.139076618681290398e-03
-2.032704480448488914e-03
-1.762801340723740276e-03
-1.823616216975878796e-03
-2.301536490431973104e-03
-2.998460412801892162e-03
3.163689210856940760e-04
3.373296535063920274e-03
5.037076799972330489e-04
-2.858241071106620672e-03
-1.653292296655392958e-03
2.118756338616832342e-03
3.599780169878070719e-03
7.311660381811132398e-03
9.311381009052727836e-03
4.281111575459488968e-04
-3.224365123220961082e-03
-2.266474034334293314e-03
-5.700254985659698043e-03
6.543671860843447560e-04
4.847356546225469083e-03
2.264168106413496826e-04
2.216287367233690884e-03
7.280610086201597152e-04
-3.470525747811995833e-03
-3.470420499536125782e-04
1.222159342801834884e-03
-5.408664627536414853e-04
-2.714782778576911495e-03
-4.360393974448275277e-03
-5.616945947861547855e-03
-5.600108772764089173e-03
-1.396014230210111716e-03
1.999627225177668093e-03
5.215465101931521241e-03
9.198352778805264987e-03
6.018273335041838222e-03
3.492387010084160078e-04
-9.735166671148469874e-04
-3.188511548634995608e-04
8.844778546544217190e-04
2.599823103934809023e-04
-2.211295372953217195e-03
-2.397312014051377650e-03
8.916674909517090415e-04
2.326108704802665791e-03
-2.577031389432480647e-03
-6.395073479350320104e-03
-3.198521410643608703e-03
-5.924354506278834125e-04
-1.387049739071512548e-03
1.330062576266639353e-03
6.184919257279682461e-03
7.907512238458277651e-03
6.047660223831730769e-03
3.917106735752543586e-06
-4.708816540749463653e-03
-4.821055571828684536e-03
-3.266615573153972690e-03
3.758004959327037632e-03
8.174958449506950289e-03
5.547460286573839246e-04
-4.183887164577628284e-03
-2.775468452236862227e-03
-3.346028629517053959e-03
-2.819188998844541507e-04
1.826098284119994850e-03
-8.167477553027216713e-04
-3.817980649207351621e-04
-1.807912035572035829e-03
-3.307267897539203135e-03
2.353043198055003362e-03
4.085586464750105146e-03
2.472483737100156231e-03
4.267000419228992626e-03
5.336734039701896814e-04
-3.595212359467046814e-03
-6.116305191558388124e-04
2.798657221833359917e-04
-9.374821485754014465e-04
-1.228484150625355894e-03
-4.432476985328396429e-03
-6.960214980161450425e-03
-5.247806620447565545e-03
-3.459580198470058390e-03
-2.888766398637155480e-03
-6.178951967227713522e-04
3.173444553517462425e-03
5.435385899373623361e-03
3.295204565255492948e-03
-3.028096016799302487e-03
-6.320489964779912526e-03
-1.102680092326311506e-03
5.214719043030422579e-03
5.068962161070508267e-03
2.837133991053290578e-03
8.895644804508158737e-04
-1.501176040905870387e-03
1.977327443234728945e-03
8.099601596032058454e-03
6.361376036044242427e-03
1.681098105503001962e-03
-1.144834238181202148e-04
-2.723090522022905864e-03
-4.114531564928186960e-03
-1.263463993628206449e-03
1.755917462573363362e-03
3.165339787654740129e-03
3.506801059844686860e-03
-9.601723424118259118e-04
-6.027354313469179825e-03
-2.518987436567467382e-03
2.910066656633682972e-03
4.320465392686329530e-03
5.578552211782820090e-03
4.584843804221926805e-03
4.175193318740990419e-04
-3.798602760019451335e-03
-3.644071340313095007e-03
2.032278812610251867e-03
3.734262640494528419e-03
-3.889856579117592552e-04
-2.742519495864674962e-03
-3.195315692644279826e-03
-3.385594807744553118e-03
-4.935932995031742411e-03
-8.998844662883169129e-03
-9.328157321338256466e-03
-6.312836162733401896e-03
-7.328983385695848375e-03
-5.840556690844144264e-03
3.302258751634984911e-04
2.030868471419879171e-03
4.577467839772072188e-03
6.551601899420497928e-03
1.179239716754288412e-04
-3.256992762408752237e-03
-1.685550092346376708e-03
1.036033149018327632e-03
7.617699889360592461e-03
8.912971126621382217e-03
4.165682316174003190e-03
6.217368192722561677e-04
-9.830362864720664038e-04
9.096673194871618406e-04
3.154437149829243149e-03
4.645487670744919036e-03
4.839710604990863502e-03
3.114570722553177328e-04
-3.469986396277062370e-03
-3.475698596838422590e-03
-7.243663585358781206e-04
3.627629045359423519e-03
3.885883973214521257e-03
1.693375910444186623e-03
8.042647489918852872e-04
-6.965810679400226847e-04
-1.830705314169998790e-03
-1.476895557241229059e-03
3.559435712642375241e-04
2.746364458996836469e-03
2.904158601480778378e-03
1.645120037235355557e-03
3.442049783222756484e-04
-1.218650916968314806e-03
-5.393407270357478177e-04
2.741737811720718586e-03
3.642498523672954916e-03
-1.329493935772721089e-04
-3.624214043931142746e-03
-3.982558429696622659e-03
-4.206461419268357760e-03
-3.114042637753100355e-03
5.858566634900491937e-04
2.864607559394782583e-03
1.185464504284824841e-03
-4.280566353042300660e-03
-9.260746339545735534e-03
-7.849061933878732217e-03
-1.508137402850718385e-03
2.051874512628401072e-03
-1.927494119249777019e-03
-9.090242291103960495e-03
-1.355790206931805839e-02
-1.251105535329114470e-02
-4.916489890441464068e-03
1.990413792161253165e-03
5.046364096993109956e-03
7.106604168963587785e-03
4.397256251756261232e-03
2.481542262463976543e-03
6.879026694826326574e-03
9.445734110205081940e-03
1.051983308007868601e-02
1.083151812191997763e-02
6.843565126260577752e-03
2.684930112972267694e-03
-2.249445520430305712e-03
-4.568116348737729336e-03
2.146195979967434071e-03
6.555358557535799491e-03
3.244811552604320599e-03
4.236333466916096936e-04
-1.033979320395001520e-03
-2.515953017800774552e-04
1.527625931266730517e-03
-1.553976937376063587e-04
-3.660536655928746256e-04
-6.523784049677714553e-04
-5.736982744012302134e-03
-7.463434295215461145e-03
-4.331546076866250698e-03
-6.874392896106253873e-04
3.308559776562167414e-03
3.695232530226849957e-03
1.327395521516627069e-03
8.144692092095621744e-04
-1.502510072233504638e-03
-4.451254117413219746e-03
1.435642171090934221e-04
6.110417720838172938e-03
6.806690866209550925e-03
5.292816484678762069e-03
-2.427728829351742321e-03
-4.591940738452745217e-03
8.719169992265436622e-04
-1.586595639936834445e-02
-3.169928189349169312e-02
-1.322944478836870358e-02
3.122881239565019392e-03
2.034654354576401550e-03
3.673178177332225326e-03
6.173075672874494060e-03
7.074437761183605122e-03
8.548909903488659257e-03
8.375432181245737531e-03
4.121789084740061157e-03
-9.401329483606440203e-04
-8.830085018033040009e-04
1.108307022715304246e-03
3.215192542492728654e-03
3.457847412798351061e-03
8.217436059605963666e-04
-1.212648415084389367e-04
-2.848291462156789158e-03
-4.428315513636396812e-03
-6.115473133864364214e-04
1.067797085379042915e-03
9.376801813981071277e-05
-2.835493187376585730e-03
-5.644639041426018772e-03
-3.860250514107032953e-03
-7.202033812842227167e-04
4.624375052013550598e-03
9.564849803818746207e-03
7.070674403809619306e-03
2.448069041424602663e-03
-1.124605727706607522e-03
-3.352056528905292352e-03
1.055163517187164210e-03
5.685314926199514125e-03
3.208650543149941647e-03
-7.931166489832437326e-05
-2.341508390521722122e-03
-2.122964691249500102e-03
2.839594871106634714e-03
3.329350977497112785e-03
1.265713857826118857e-03
3.292532775105179183e-03
1.250582473459952750e-03
-6.612228780960341910e-03
-1.148887576412826322e-02
-5.203278192941460101e-03
3.280531198568522461e-03
1.543642667730542100e-03
1.754067974218935771e-03
3.472866519072147912e-03
-1.935718354008504486e-03
-3.326576276751770731e-03
-1.895345320272760238e-03
2.816068413157271546e-04
1.794588093582094720e-03
-5.969441319972546532e-03
-7.262751483284080739e-03
-1.152272709358154222e-03
-5.059813427620374685e-03
-6.255968179564727442e-03
-8.220640044831919839e-04
1.761200791298594883e-03
5.285381530722248720e-03
5.137995355554835809e-03
7.411406224849851569e-04
-1.391233751339738438e-03
1.200319484250517003e-04
5.846970681360708251e-03
1.427550538259191645e-03
-8.923808015131160301e-03
-3.879015856198642347e-03
1.415548870340122651e-03
1.021940063823752317e-03
5.297419375611758102e-03
4.369248949902218571e-03
2.415675781404165272e-03
2.960339204060447559e-03
7.781262117459907196e-04
1.876661115406063566e-03
4.219238237837483370e-03
5.828260853152974520e-03
1.293171959537831430e-03
-8.491546641531379225e-03
-6.523577909400604322e-03
1.792869879165533771e-04
3.284610002454797523e-03
5.535752742563356844e-03
1.951460940536400845e-03
-5.178431909134991297e-04
-1.113805462342478910e-04
-2.039458585212757988e-04
5.248901045050660295e-04
-9.421577524159738173e-04
1.638792370046846273e-03
5.308261412050378075e-03
4.324560868330200140e-03
3.683290410502362659e-03
-2.617729995772661005e-03
-8.942894806845987435e-03
-6.131573202996104706e-03
-1.877243732743766715e-03
6.703071534012576028e-04
-3.851032023281300825e-04
-2.272897306798951546e-03
-1.644435149516700750e-03
-2.264936063619877975e-03
-8.039827479963516672e-04
1.039554895876484151e-03
-1.117117697731767265e-03
-2.421894180118615292e-03
-2.583628702780236489e-03
-3.569367152758525820e-03
-2.243279549006793952e-03
2.212449468782455141e-04
-6.518814698565304072e-04
-6.750739690395922681e-04
-1.780568032052597506e-03
-9.307290090223413123e-03
-7.469000140660929897e-03
3.628087295187750871e-03
3.726673015020310741e-03
-1.302064092988222286e-03
-9.583093710370921801e-04
4.131100717793736304e-03
1.059221763015776724e-02
9.253450322919368198e-03
7.228660393969402707e-03
1.227006017844953396e-02
1.072452753079015768e-02
2.830080132747532159e-03
-3.041464861509999206e-04
-3.305425310685439037e-03
-5.093778786732345264e-03
1.158831238854870051e-03
4.674294273456842085e-03
-3.585077094417715932e-04
-3.710433504465516195e-03
-4.975500457548545814e-03
-5.829612434869332893e-03
-3.466263377876937883e-03
-2.372682416104640851e-03
-1.347012547065741311e-03
4.309747130876311907e-04
-3.303337372268796025e-03
-5.630733508256748066e-03
-1.436916166032942924e-03
2.087808259913253271e-03
4.064375368163680377e-03
2.694066915683375647e-03
-2.522518979520459604e-03
-4.207863338945377028e-03
-2.730115028333815735e-03
-1.469439834828707367e-04
3.727965043965017575e-03
5.281737181909761450e-03
3.445380269471491619e-03
2.131460055277627588e-04
-6.069932310651452150e-05
2.337787007343330829e-03
2.033617989392447027e-03
-3.577469150179527781e-04
-1.714919856863726102e-03
-1.521634731867923911e-03
-4.022598215374615337e-03
-7.317888014272166605e-03
-3.851717155890986479e-03
-2.002079889280908276e-04
1.498616955448183168e-03
4.156486665140009078e-03
2.030114495274562211e-03
-6.746248731877868034e-04
-4.098790452863309078e-03
-7.341747185586981576e-03
1.177179080472324428e-04
5.245027149109322308e-03
1.783445894094995779e-03
1.621931265779975786e-03
-1.161820682250679386e-03
-4.434173960815002667e-03
-8.988884200656422404e-04
-2.688939948793608349e-04
3.149734424202230371e-04
3.168618651837831757e-03
-1.568541987098827709e-03
-3.653772582684803628e-03
2.663899520730554551e-03
6.953558380803630257e-03
1.212837729756816724e-02
1.397854439823397257e-02
8.491593500576405384e-03
5.520371329552664283e-03
-3.100987743241618894e-04
-6.859220674266031971e-03
-4.402390462249979562e-03
3.215429839989458749e-05
2.192875454844455882e-03
-1.359701053230962225e-03
-5.302376856319348034e-03
-9.465978169481074466e-06
6.010416647570318745e-03
7.685946627568652351e-03
6.665903949867481477e-03
3.278389513652932405e-04
-2.231209798354505391e-02
-4.645480738748195698e-02
-2.788659425924762403e-02
6.961025102482838213e-03
1.365723824022017918e-02
1.376955327695072138e-02
8.344288010983788584e-03
-7.160515861179132021e-04
3.670781611021120550e-03
2.792604157225468068e-03
1.567146160850403256e-03
6.571570384846322013e-03
3.458215086917260008e-03
1.446971343921861931e-03
-2.438815460912420637e-03
-8.315951674411787078e-03
-4.192400898273973206e-03
-1.095433253769063529e-03
-1.500816699982426654e-04
8.136068233425535617e-04
-2.192073281332417110e-03
4.783583742956467938e-04
3.914643894915864272e-03
1.963106456431218828e-03
5.942603252404728489e-03
9.862085039456373534e-03
3.991144106976916330e-03
-2.780183563681657105e-04
-1.421443534384951753e-03
-4.570130865442691842e-03
7.121957595182985086e-04
8.330378504377115856e-03
3.326652958853069681e-03
-3.950402866465500470e-03
-4.906786435076873620e-03
-3.139013659204790540e-03
-5.056900492524175113e-04
1.345318081956371021e-03
2.794308121709859326e-03
7.420025945128392014e-04
-4.103911569526153685e-03
-5.833584803393476910e-03
-4.888242954172222245e-03
8.214560581944742269e-04
6.635367269518560769e-03
5.191031956927907171e-03
2.872798164619457147e-03
-1.891357470954171309e-04
-3.981436215850745787e-03
-3.980190471770181718e-03
-4.484570287082602705e-03
-3.842175214725524011e-03
-3.971125992481686941e-03
-7.959155153618367035e-03
-5.986874589250778048e-03
-1.237070363586437270e-03
2.007110557091402406e-03
6.856702836756815855e-03
5.522544681570307028e-03
2.519826901164738935e-03
4.346748263156187918e-03
1.549374458001328116e-03
-2.136017963746161038e-03
1.462446865371802487e-03
6.782988260892729507e-03
6.716216700794649420e-03
5.128733901280863646e-04
-3.944521446925005129e-03
-4.598795959271008253e-03
-5.247284195590700383e-03
-1.974969497609362599e-03
1.606137754357396530e-03
5.587926270033807602e-04
2.959444264580622912e-03
4.665017468057211514e-03
-2.568150564269676937e-03
-5.581709453936318892e-03
9.751971551907986013e-04
5.338111781715960610e-03
4.529730120211696541e-03
-3.494100615644903530e-04
-4.902763984673721986e-03
-1.952487154237183501e-03
7.737152282113013251e-04
-1.446861943834578442e-03
-3.233644055054313467e-04
2.532857576414100816e-03
1.290861367155403654e-03
-1.172102274539098005e-03
-6.606087445683580064e-05
3.306546319907627349e-03
3.731012396334207771e-03
2.308379206753236219e-03
3.357576554104094342e-04
-4.840227153193235772e-03
-9.429878456270157985e-03
-8.663598967056799008e-03
-4.011438043955307259e-03
2.050954104473004698e-03
5.027058784304177207e-03
1.401153337348532172e-03
-9.106755347019272707e-04
2.039591839051039038e-03
1.622162162123149017e-03
1.706672269198809084e-03
4.517264064574366689e-03
6.666484380016292604e-04
-1.109503026356566634e-03
4.851128243476546991e-04
-2.743538744389746684e-03
2.492926568204759628e-03
1.010944625481171276e-02
3.263178218766543768e-03
-3.669949406994293777e-03
-2.050668986535671579e-03
-4.517396953184247372e-05
-1.173172362624384183e-03
-4.067894763383934041e-03
-2.738415694743399215e-03
-1.168787605930793078e-03
-7.859975133294672123e-03
-1.338199405248687544e-02
-8.059211574071153614e-03
1.246259047426309403e-03
7.442848282169708778e-03
1.073704018411562357e-02
1.077834790957113084e-02
7.571473603825719031e-03
3.046687863133815035e-03
-7.390512643419874361e-04
-7.264462001177218221e-04
2.331573840117691105e-03
2.936383248199340296e-03
-6.893445051453471473e-04
-3.309537809539050794e-03
-1.390882427507587026e-03
3.057142103680237895e-04
-2.039170528453047686e-03
-5.063678421196604780e-03
-2.985608918386761443e-03
6.040372035632819844e-04
-3.552545980189929925e-03
-5.879336452212739240e-03
1.177189536067863420e-03
3.527069316676764103e-03
1.826892794708695651e-03
3.222351599859213985e-03
1.702759698584902035e-03
-4.712261741653690208e-04
-1.953449762558891363e-03
-3.642118426094803282e-03
-1.514030493607846522e-04
2.929036218272176688e-03
2.352789727271356948e-03
1.613958825793270976e-03
-2.464515917310882223e-03
-1.250109215342196014e-03
5.724198686664684101e-03
1.856195011658418308e-03
-3.397673276476735962e-03
-1.758783747932992541e-03
-4.435572329245031885e-03
-4.307445474252154932e-03
2.856968921083825191e-03
7.998398068230092028e-03
8.915696121203943447e-03
5.309576589759460764e-03
1.789032504002160615e-03
-1.892005714696889766e-03
-7.711946512539822121e-03
-7.627427513122725725e-03
-2.969359792912844298e-03
6.479176292719498933e-04
-6.571913554495194308e-05
-5.233313793053510736e-03
-5.187681479150453231e-03
-4.297274673223195956e-04
2.848079159758735643e-03
3.961225243290550542e-03
2.710359925173164933e-03
2.608013333614592720e-03
2.717091661420579368e-03
4.896948852174844505e-03
9.314064617309866789e-03
8.879553838970960511e-03
1.036016512066872258e-02
1.266089973132876814e-02
8.024758634835049004e-03
3.453036536064973266e-03
-1.633463668522523293e-03
-3.349082245022017620e-03
1.305844628181991682e-03
6.851226604904452457e-04
-1.638703109740406250e-03
-3.245818122924743008e-03
-6.114895928511421795e-03
-1.655580639577911494e-03
3.598204931191667857e-03
3.248494919244837792e-04
-4.758910736611249304e-03
-5.554433551565419319e-03
-4.698053844005968191e-03
-2.318372956547348675e-03
6.834097457569758907e-03
1.643077376613161569e-02
2.072548910606689457e-02
1.966881229713588267e-02
1.137804373233554898e-02
6.291392433022034714e-03
-7.347716187321775292e-04
-1.537177613965674469e-02
-1.594219353627423369e-02
-1.172139771350927916e-02
-1.734365696388657369e-02
-2.086453596880520275e-02
-2.441048043426862629e-02
-2.234675005530241398e-02
-1.244486117573428974e-02
-5.020108155990626354e-03
5.149009417039975868e-03
1.068667386353453624e-02
8.800225489108755295e-03
1.055304396841514995e-02
1.108159210287901035e-02
8.607243231776973147e-03
3.560753307317126443e-03
-1.062743916087497418e-03
7.440069219980362594e-05
-2.176240005770469031e-03
-7.498618395001921226e-03
-6.309630930179044132e-03
8.593347109384541667e-04
1.137093668027674889e-03
-9.359880319411479146e-03
-1.543256143586293691e-02
-1.995481295564141902e-02
-1.951656492905115559e-02
-1.108762403954353069e-02
-1.075860100178062384e-02
-3.760971107805402731e-03
-6.238197082989714072e-03
-2.436750538193483903e-02
-3.551216695171432406e-03
2.534038679211828363e-02
2.766430007658015819e-02
3.208576347627975500e-02
3.315425610478002494e-02
4.193226034461363522e-02
4.296238184016438338e-02
1.328235801124225991e-02
-1.253764997434043656e-03
-1.016802581088263081e-02
-4.874164802403526536e-02
-9.832676871414650077e-02
-8.578432071889557919e-02
3.200110955887686820e-02
1.098448699958965991e-01
6.785634914393505468e-02
2.650928754902858245e-02
1.073398961730219828e-02
-1.818372198147569577e-02
-4.664405303945788617e-02
-5.086016042592916842e-02
-2.430956484232388304e-02
-1.466205182195596049e-02
-1.032392401872783173e-02
2.093375264130311122e-02
1.738932082958303399e-02
-1.800572783825222351e-04
3.859133057727330562e-02
7.389657732061494233e-02
7.597789627735497542e-02
1.280532162731409240e-01
2.176713757033841845e-01
2.270401999576132090e-01
1.204097570384902172e-01
-3.146974995369464928e-02
-1.304336811454206713e-01
-1.736578752107063583e-01
-2.567020064694871540e-01
-3.417713068563629775e-01
-3.056195275409326340e-01
-1.919057144231297307e-01
-6.598915074025443750e-02
1.323915056285051017e-01
3.130291617872845156e-01
2.508918812801740894e-01
2.404947157039493896e-02
-1.350002214447193483e-01
-2.461754109524079137e-01
-3.498334340624298933e-01
-3.411559088291727937e-01
-1.805501060252154844e-01
8.669791630215058220e-02
2.961383035170571665e-01
2.532956259771856899e-01
1.492557445194605814e-01
2.168109697295222404e-01
1.998495095648776532e-01
8.789898699218864908e-02
1.817974379292046916e-01
2.516238468150191476e-01
1.047395967384047305e-01
-4.483200490920501158e-02
-1.022121553869352467e-01
-4.340224862778182396e-02
2.585263464871665612e-02
4.467630525388414930e-02
1.059044060496697470e-01
5.485032947259343983e-02
-1.240492339097824387e-01
-2.804360732112791132e-01
-3.281336194031654885e-01
-7.812368514296778865e-02
1.505973047553182120e-01
6.435953200094579260e-03
-9.688465571938521814e-02
-1.234656162686273602e-02
4.006596528106491639e-02
8.393793252656796267e-02
7.190076632418938851e-02
-2.110287754664873922e-02
-1.234091333896484982e-01
-1.772564897522516392e-01
-6.211176805930612721e-02
1.012940278284424900e-01
1.114540447923391825e-01
7.173090093930670208e-02
5.394765692258619155e-02
5.998888900553135672e-02
1.050875307452993068e-01
7.633691034606013108e-03
-1.535042031590278244e-01
-7.883752276722705288e-02
5.002969519320382696e-02
1.661140617433594716e-02
-1.052044189506457783e-01
-2.193015129191471790e-01
-1.342198876564791032e-01
4.129019443531208727e-02
3.264871529028101627e-02
-3.165648535496218274e-02
-6.800833023985451697e-02
-7.985517121661160622e-02
2.429220306150029624e-02
1.145672296876497354e-01
8.383773989253159864e-02
5.158557227489469349e-02
1.052016488855344878e-01
1.562140136628959453e-01
1.334477791198189767e-01
1.219252864254574686e-01
6.883698998178647277e-02
-3.399217893274392860e-02
-7.469152443208887729e-03
5.588926648210312126e-02
2.707311616143697267e-02
-2.171413029725915295e-02
-4.839137765462805940e-02
4.406636269882244390e-03
7.163769786698816200e-02
1.022120764400141074e-02
-7.761052863247863698e-02
-4.060246504802505346e-02
2.451147062116636535e-02
-4.434742716348309688e-02
-1.640185760840389417e-01
-1.927561719126787698e-01
-1.625356254877440842e-01
-1.039045135448118384e-01
-4.044208254388933360e-02
9.444241419049344624e-03
9.455349404974927596e-02
1.606248380660098007e-01
1.313341004870592910e-01
6.400675491190704891e-02
-2.206166266443028087e-03
-6.310903793815432483e-02
-5.213495572153795804e-02
2.417967406176072670e-02
5.340422236921794213e-02
3.028666259921114490e-02
2.238672363931680509e-02
3.164088439533606356e-02
3.732997958626163570e-02
2.057563275179281198e-02
5.534997515424341279e-04
-1.071399447472427824e-02
-2.967607715658624259e-02
-3.444746716384653601e-02
-3.120903518163210821e-02
-1.489959462114697278e-02
4.829393827640524224e-03
-1.786643513289522603e-02
-4.142378332097074178e-02
-7.513309827878437985e-02
-8.382022908281437645e-02
-4.787845830789611359e-03
-8.528082620072818809e-03
-5.584053520129615700e-02
2.660818256939123314e-02
7.322020079938328097e-02
3.657170372799371794e-02
3.177304104722095124e-02
2.977737472023175500e-02
3.270216550771043451e-02
3.897170704692346638e-02
2.884904409632701311e-02
2.499935134276134313e-02
1.367693251879360111e-02
-1.708440931416352771e-03
-2.976938975349535557e-04
8.635733831822207940e-03
5.920750926246019785e-03
-4.860764142171528079e-03
-6.140732533581820529e-03
-1.310199475473667295e-02
-2.141723937942719910e-02
-2.271228348312263196e-02
-2.447860643843485090e-02
-6.108654695488560660e-03
7.376264937606213587e-03
1.316575670047928116e-03
-3.148373016194144867e-03
-2.381452096689025411e-02
-2.584876137780979174e-02
5.774418317988168695e-03
1.568997177939577756e-02
1.367320590814727344e-02
1.052132394480246452e-02
1.332474375995696921e-04
3.977310702287468157e-03
6.502181067802920503e-03
-1.797856945685444036e-03
-3.814217229568587619e-03
-3.469750980438914261e-03
-5.853452347159936522e-03
-4.047741968523701009e-03
4.077629126179236480e-03
6.076409317008240468e-03
1.384578146408884389e-03
-4.147011138209455092e-03
-1.524126966423751395e-02
-1.818042036519207372e-02
-9.666272204342555088e-03
1.694292728973950668e-03
1.918022090243117969e-02
2.402046887386850155e-02
1.362927895743947307e-02
9.285775178782493602e-03
5.601887919072442122e-03
-4.285494115463176607e-04
-2.432367418066188822e-03
-3.751789808795108743e-03
-7.666063359539042506e-03
-1.079965988127995144e-02
-5.005093591057533167e-03
4.216339850737678592e-03
8.611821121519256869e-03
1.075801198501802509e-02
1.319658100084047762e-02
2.016170543466074688e-02
2.245737136813869342e-02
1.172253869788344137e-02
-4.508834906994905155e-03
-2.376082571934579057e-02
-3.021203963058850459e-02
-1.790786875270214754e-02
-1.056462008349446854e-02
-1.260232455129235013e-02
-1.587507069919643493e-02
-1.137813492896608616e-02
3.412761198369531138e-03
9.624446045003039532e-03
7.710826648554253322e-03
8.194671477011330335e-03
6.023773330314539237e-03
2.157151511433819287e-03
-5.770483345347839164e-04
1.756161826327555216e-03
2.875211971510673037e-03
-7.749133138974946197e-03
-1.201734315430140823e-02
-4.881241591525691849e-03
-9.308816624089394885e-05
1.096049151437785557e-02
2.376511215172663616e-02
2.263837457457506738e-02
1.661319467082532017e-02
9.024974315229160327e-03
-5.341579592508121505e-03
-1.366636325812308449e-02
-1.203654222063722974e-02
-1.250667296921270655e-02
-1.035596193100310307e-02
-5.296629061415644886e-03
-6.840636697997689794e-03
-4.263685295164871408e-03
2.027305824431296314e-03
1.853213379018954282e-03
3.176709252911706551e-03
3.927435609632302926e-03
1.648433737580664877e-03
3.099826433025915443e-03
4.258222219101374939e-03
6.131141378270024353e-03
1.045947960913767849e-02
1.121555816739688675e-02
8.270008918207588655e-03
4.052012036579285409e-03
2.315587181655762508e-03
3.126012137573289627e-03
2.840423930295549702e-03
2.664626763951421021e-03
-1.138555114077362436e-03
-8.052862729299834973e-03
-7.010233272725406757e-03
-2.848708229326410435e-03
-6.241337599516121222e-03
-8.690024967128126901e-03
-5.524822204463507302e-03
-5.574290119866032005e-03
-6.967587749683143601e-03
-5.397117586980785912e-03
-2.916760994270180523e-03
4.858453720151117115e-03
1.144840650291347947e-02
6.721293636377927497e-03
3.730389827024543220e-03
4.825391712996019052e-03
-1.946834698827248987e-04
-8.776490394626272704e-06
6.730206278719477915e-03
6.583725581419560408e-03
2.798572900961676831e-03
-2.811429595678018901e-03
-1.078828152793922211e-02
-1.135365845286254172e-02
-6.048134812915652476e-03
-5.284201112513241434e-03
-8.309667692954658680e-03
-9.635582287461816678e-03
-7.528880075453907826e-03
-2.312623661636663622e-03
1.340825510673096391e-03
2.179180288618818261e-03
7.397759107359090647e-03
1.308240518430247093e-02
1.280132111336795483e-02
7.687621423178398090e-03
-5.123511866111593767e-03
-1.034558486895650192e-02
2.185036261896291122e-04
7.273385914454639882e-03
1.337063475542698415e-02
1.584398558173666371e-02
5.371897098080037625e-03
1.431553333656157513e-03
1.286727819251297323e-03
-1.524939040938649067e-03
1.306432009328575405e-03
-1.489692342203941759e-03
-4.777714688172070290e-03
-2.509976255122163113e-03
-3.902081118417937301e-03
-1.867786634606643462e-03
2.083281867658215002e-03
4.827171660026552185e-05
-7.772077763791744760e-03
-1.316916872467839561e-02
-6.835386838364911066e-03
-3.638457882623321541e-03
-6.139309093305058036e-03
-2.399661020372109363e-03
1.590139938130381500e-03
8.032394862019686527e-03
1.412020676865157268e-02
1.134175262962632685e-02
5.334334728373758480e-03
-6.721037365144991952e-04
-1.276436780241311814e-03
-2.826624360570010718e-03
-1.093114940704657465e-02
-1.119764785665191935e-02
-1.047374787885095755e-02
-1.484484376536791307e-02
-1.023890511328619246e-02
-2.194751190230426457e-03
-1.354017497681803757e-04
1.641049171215247168e-03
4.231398919214105804e-03
2.410296140876497673e-03
1.604352426748803908e-03
9.625991268714217952e-03
1.760649957695867296e-02
1.538885043164586915e-02
6.237583806426116526e-03
1.682229838497987335e-03
4.750861976145458188e-03
4.096129801728382036e-03
-1.137824224679071525e-03
-4.807712152388546670e-03
-7.235933976943258877e-03
-4.938977415287123043e-03
3.165473560584064223e-03
1.193740589553483715e-02
1.439983718990043259e-02
8.962128989029871651e-03
2.092527249974646727e-03
-5.265064141875975233e-03
-1.058437871504940356e-02
-1.081971656823243685e-02
-1.277186794863595896e-02
-1.410276941757716319e-02
-1.339446219399214287e-02
-1.662222406974845149e-02
-1.471137673471243495e-02
-8.693523105581326543e-03
-7.275298976999331618e-03
5.451073622806871903e-04
7.699538625180171215e-03
4.660985445004939449e-03
6.702312793536008804e-03
8.296244661688099639e-03
6.157901664735589836e-03
9.176693955530647318e-03
7.700263089340206833e-03
7.559579084045759366e-03
9.138286627499207782e-03
2.968388898288599944e-03
8.001753461971878624e-04
4.325780246057941590e-04
8.448443742375879445e-03
1.924252216760720044e-02
-4.202108776456475910e-03
-2.425451549214498528e-02
-2.636006214640846963e-03
1.138178203522981213e-02
3.723259610054836539e-03
-6.710349494855109799e-04
-2.429703625413251206e-03
-2.461201539098786546e-03
-2.693723683628526915e-03
-6.746452129986873700e-03
-9.713459422332952273e-03
-9.649594290713440353e-03
-6.915384692065408567e-03
-4.448189402371787327e-05
4.989196213735268629e-03
3.236308747430538708e-03
2.715388890098796321e-03
3.849337543854066367e-03
2.705658498692462867e-03
1.977181558973342169e-03
-2.560506497928144616e-03
-6.423771562139912739e-03
-2.754219134467809742e-03
2.558333814974291485e-04
6.640220823479461767e-04
-3.828069815723905006e-04
-3.179991264214913037e-03
-3.807329090863119467e-03
-3.929182032582335081e-03
-5.015179594286395086e-03
-4.793375226169713059e-03
-1.895090743206584698e-03
3.883637749684252724e-03
9.029825098462528066e-03
1.020413320995046044e-02
6.493516834879871358e-03
-1.301209317145729603e-03
-6.214350475323293307e-03
-4.525145296106170348e-03
-3.354521723662407841e-03
-1.817885050452587191e-03
2.319166291029500955e-03
1.791306226981033900e-03
1.040963570125741106e-03
1.448383045622267168e-03
1.177863309210275787e-03
6.028937376811098654e-03
5.778515686985510706e-03
1.272441006855587519e-03
3.954974685330199698e-04
-1.189355298008594377e-03
6.382663859434852503e-03
1.350367061904730707e-02
9.834056158020156729e-03
7.118955528762812776e-03
1.339892202748950521e-03
-3.648069389368643108e-04
-1.810871923716990406e-03
-4.271403248644168628e-03
8.799005706175519470e-03
-4.948376085266824841e-03
-3.915304512825672906e-02
-2.984058210219665830e-02
-5.975468469825619654e-03
4.113288720806015236e-03
1.072362882794431621e-02
4.194652254806908315e-03
-2.609466805433321122e-03
-6.401983380518623534e-03
-1.564350013242525941e-02
-1.518813060998889727e-02
-5.548125582888622023e-03
1.546316948985734883e-04
2.510689080699267991e-03
6.146051785263516136e-03
8.043499978647101686e-03
6.906907655878646857e-03
5.952862083333395476e-03
6.236329729776435120e-03
1.024329831817872953e-02
1.083502248640080649e-02
6.205104255717863899e-03
4.287752602733129609e-03
-2.012619439731834926e-03
-7.126653598187665355e-03
-2.395538479433794322e-03
1.112106608575346009e-03
2.899417160043645924e-03
7.732022690870564170e-04
-4.434400538378626203e-03
-1.128178188972743783e-03
1.826489146918409230e-04
-1.278363934455862758e-03
9.011446515958717804e-03
1.467204009568494859e-02
6.413652385166866872e-03
1.358205086158343830e-03
-2.355553766921224040e-04
-3.081202837078243751e-05
2.349411965960952753e-03
-4.272653829023803987e-03
-1.054869086236026599e-02
-1.018621830887885861e-02
-1.140739941022187072e-02
-5.281428626134741615e-03
-4.442477251509988631e-04
-6.282720319906597191e-03
-6.200344395364145930e-03
-3.413136075250259791e-03
-5.246875684043496128e-03
-6.763696326655261465e-03
-4.933802808262168285e-03
-6.222162940340927352e-04
-4.651790247135956929e-03
-8.970171345864856594e-03
-2.844013136235000547e-03
2.845250720198887954e-04
2.574753117330705419e-03
9.564443684988139724e-03
1.128700397560545958e-02
7.196605956513325159e-03
5.653409027531829979e-03
7.392554662706430496e-03
2.217598274276161123e-03
-3.473532786693982188e-03
1.706841586686235358e-03
6.750023932174337681e-03
8.014827655477306523e-03
5.973444969911602051e-03
-8.142639954094800687e-04
-1.374991666616552210e-03
1.827696091237273777e-03
3.519546050416716941e-03
7.226389651934399423e-03
6.204512489204667795e-03
1.065114359710852936e-03
-3.009471330054474744e-03
-7.264294095467233210e-03
-8.386002961644094256e-03
-8.332607045900500969e-03
-1.054994101210701522e-02
-1.379615430517490762e-02
-1.696258663987572010e-02
-1.505235963660973147e-02
-8.858653171328436868e-03
-2.155070062671830431e-04
1.127149180514104218e-02
1.377635446413755238e-02
5.177478259503091006e-03
-2.527754663555314540e-04
-2.813206780244621470e-05
-4.714136969520233908e-04
-1.296693005303890594e-03
1.074307960426960223e-03
4.195489653237456477e-03
3.160372335554469895e-03
-1.959173127754328635e-03
-3.951732321119892297e-03
4.997056396476458155e-03
1.262102125916457311e-02
7.319328070148241328e-03
1.316261143485886360e-03
-1.226389620390049484e-03
-3.639390105645548025e-03
-3.925331104875052872e-03
-4.645074616071681421e-03
-4.956503552674428048e-03
-3.607489858899420952e-03
-1.678444695682211130e-03
-3.905087791661228120e-04
-9.900558050832985232e-04
1.644627831776848529e-04
1.749622352282756508e-03
5.359334396906972886e-03
9.921702230957195334e-03
3.366715100528913478e-03
-5.120375775565657629e-03
-5.343370319181688956e-03
-2.229240941696358867e-03
5.574082039345733437e-03
7.840687133626575780e-03
8.243497706621376667e-04
-2.929677309962496531e-03
-3.969629495438434762e-03
-2.213549394783112002e-03
-1.322898246598953908e-04
-3.384176566602095128e-03
-4.165565150512429322e-03
-2.188577913636491259e-03
-4.414914130808831466e-03
-8.631435929732207690e-03
-9.538197432743665549e-03
-5.069247703036875927e-03
1.432856902906725445e-03
5.306993674106796725e-03
6.397154368447995586e-03
6.497969123866229914e-03
3.897641747740710795e-03
1.268044564685092811e-03
2.869369532845821805e-03
2.823300712159324943e-03
-5.903257707974110839e-04
-3.593633443791125533e-03
-3.840193828280242562e-03
-6.763133109167669427e-04
-4.306895483518595209e-04
-2.085204048007130179e-03
-2.659230537103208104e-03
-3.779012363644379362e-03
-5.406427268808888451e-04
1.735297597205990401e-03
-8.816669366397875650e-04
5.904677380774124573e-04
4.919273630975215701e-03
5.026652475530766183e-03
1.147894742942688921e-03
7.083147893241101235e-04
-2.941256426969028658e-04
-3.860889480724726680e-03
5.085504530813996296e-03
1.096741066270527296e-02
5.813585880469695436e-04
-4.283408245168153841e-03
-4.940358700777190346e-03
-4.265166894761456690e-03
3.514260669247060501e-03
3.903263658723909752e-03
-3.507077735399947906e-03
-4.457491105772752593e-03
7.292799761689592458e-04
-5.333727990943617006e-04
-4.437279280948651199e-03
1.049357556448863443e-03
5.410667747089224766e-03
6.730103963848030335e-03
5.361397630694018229e-03
1.862262721545865536e-03
7.438200705181995977e-03
-4.845298199460247417e-03
-2.862897676744875775e-02
-1.712584933348260466e-02
2.643587805977320668e-03
3.474693547367716309e-03
-1.175847713893131072e-04
-4.988503502255852394e-03
-1.815654688113139698e-03
4.328449802654269277e-03
3.714406880387062689e-03
3.230825795007665705e-03
-5.523411125240650739e-04
-5.025274213968752152e-03
-5.290468899238006534e-03
-4.504245653334330683e-03
-2.124950402944012157e-04
4.572102801744677356e-03
4.935877291202642701e-03
6.168310511540322019e-03
9.868918495825492604e-03
6.578525894529839955e-03
1.394749002814933431e-03
5.441867482326627828e-03
5.889195237355528308e-03
-4.820011219698484687e-04
-2.779170344900495828e-03
-3.005803689265042645e-03
-1.377446112558476914e-03
5.822048839604706963e-04
-1.262595147945174919e-04
-1.107032678653558679e-03
-3.342441069178781875e-03
-5.504273471591491183e-03
-5.841971252255748030e-03
-2.950758597407510987e-03
2.285273805822750966e-03
2.927139686469112500e-03
1.990977507233631619e-04
-2.860112268485854583e-04
1.096144946204740712e-03
1.055402467256083207e-03
3.562938818536749209e-04
3.008458786454724573e-03
3.906476945350708177e-03
-1.259600162613016845e-03
-6.927108125305062730e-03
-7.500231696546125031e-03
-3.649923266630112750e-03
-3.975261349884977985e-04
2.674452408111432575e-03
9.687679954622855629e-04
-5.689595629779243928e-03
-3.775525689389830873e-03
-1.615523019932494676e-03
-3.131642442621482888e-03
5.497996824173557312e-03
1.093070542021488956e-02
4.529183888579325565e-03
-2.261904849901100363e-03
-5.687662933286351426e-03
-2.692707968546861549e-03
1.946798955007122880e-03
2.714896353034996265e-03
2.314940017933624344e-03
2.687166929010871542e-04
-2.254571526349280594e-04
1.141874117852768530e-03
1.492146232878379308e-03
2.133340815868317412e-03
1.644862098292935830e-03
2.245529644717213658e-03
3.567539411927388897e-04
-5.709608700446277933e-03
-4.142825397365452328e-03
3.216103928518052372e-04
3.311119555871315078e-03
7.730847585311220391e-03
2.412785412287743198e-03
-4.092942089543178882e-03
-1.445749171588528621e-03
-1.521318178095424278e-03
-7.831141721990954882e-04
3.238485174894177414e-03
1.695717546367613709e-03
-3.750905273038644336e-03
-7.375444577094832956e-03
-4.061957884984071857e-03
-1.187015486543509723e-03
-4.676232151023553690e-03
-2.320664235547393282e-03
3.525854068639838312e-03
1.558223151415227435e-03
-2.745113724428726188e-03
-2.175156925895945122e-03
8.990773733472347175e-04
2.574007020897517775e-03
4.738918485147442135e-03
5.348638698246158119e-03
1.809733098214855304e-03
-1.387106201485954152e-03
-4.212634207935253040e-03
-3.228647680503890505e-03
2.155433116544582146e-03
3.014272588067978126e-03
1.503445435630872476e-03
6.260417551345306758e-05
-1.869634414402963993e-03
4.930379254939522976e-04
4.373176006510432270e-03
5.078803995263877179e-03
8.113095250594731887e-04
-4.693835917157407681e-03
-4.218102502819825322e-03
-1.971068258206853333e-03
-3.859108228939384794e-04
3.565321746948935198e-03
7.425953966392924779e-03
6.820360261776235375e-03
3.689885630706301592e-04
-2.498388760967352323e-03
-6.439363235384038681e-04
-2.682985243869191044e-03
-2.276738656174875225e-03
-1.648749124026089447e-03
-7.072368818174122086e-03
-8.368048163414396057e-03
-4.828419238109181270e-03
5.709642827711166116e-04
3.538614282281668348e-03
-1.755078456345056772e-03
-4.107105142594860182e-03
-3.456608413764614921e-03
-4.759668775386460653e-03
6.541946612956539564e-04
4.327913704512140539e-03
2.942406657793367360e-03
6.224124868956076514e-03
6.956954673151719698e-03
4.694843504198023369e-03
2.961352137282845676e-03
-6.068419992612519766e-04
3.353786707178118675e-03
9.380593047478135577e-03
5.538128223475375159e-03
1.180187741462265577e-03
-1.889381779098526669e-03
-6.837377046689683754e-03
-9.655611212095755597e-03
-1.149054590072288301e-02
-8.332884853082483598e-03
2.292135448808306432e-04
5.250363595779916799e-03
4.048138718585077463e-03
-3.901466755400872198e-03
-9.343074132257886757e-03
-3.877584918712627567e-03
2.873968537417746338e-03
5.739689599577607257e-03
2.931202506861705758e-03
-3.780617064989625666e-03
-4.504170101198083816e-03
2.714945828643187129e-04
7.832606436463863953e-03
1.144110035077901440e-02
5.661286694153248519e-03
8.670228788670108046e-04
-1.731241214522850555e-03
-2.891416131403425419e-03
1.151558455601676620e-03
4.536255889348243808e-03
4.377569066354719887e-03
-3.246013318617078100e-04
-4.367273059393812426e-03
-3.710462512024854248e-03
-2.917662763880296811e-03
7.882602346801362639e-04
3.301889285171766969e-03
4.686969629726440295e-03
6.330084339358648532e-03
2.537928747858978797e-03
5.597640078922066879e-03
-2.975683178825585216e-03
-3.025079528215247893e-02
-2.279376168624420648e-02
2.961370342566551576e-03
8.256908483618948576e-04
-2.609160246651111119e-03
3.759734679482714705e-03
5.833452963978806756e-03
6.328602849144620082e-03
5.317576153461833592e-03
7.469131567715616435e-04
-4.752887574741761038e-03
-3.898440493663103430e-03
-8.432967625225369721e-05
7.356167389104303726e-04
4.277701973473250867e-03
6.306980303728228557e-03
3.580940628368963537e-03
3.483930086185845886e-04
-3.143158365857480659e-03
-1.586669777622339537e-03
3.305946984221250218e-03
3.207177693374729452e-03
-6.986155132731738330e-04
-1.348703240055946833e-03
2.316006582790447639e-03
-3.584912581629549422e-04
-6.111529748318396925e-03
-1.957077317361254672e-03
2.198424303097875829e-03
-1.406289389960765955e-03
-3.007089446484462365e-03
5.079151728991978393e-05
1.444075334399468795e-03
-3.616624507644744741e-04
2.371978164387162583e-03
7.120640342023186811e-03
3.786120568977623720e-03
5.261779430647422519e-04
1.018821216370901714e-03
-2.213587557022586951e-04
1.896476475302224900e-03
2.997082123986125491e-03
-5.110365634067340042e-04
-2.003265268402190831e-03
-4.236383247830577056e-03
-5.385937983023611660e-03
-5.594956174111744875e-03
-7.542646017546540682e-03
-3.664981117981402307e-03
-2.007758757231655963e-03
-3.593825501783380616e-03
1.133978419729573476e-03
-1.097207923036749031e-03
-4.824854297514872062e-03
3.330014237352206530e-03
7.930421249446794815e-03
5.521698095419447748e-03
1.668519829329704555e-03
-3.150403201962360868e-03
2.804135266650699810e-04
8.967354813879691369e-03
1.056191856442711095e-02
6.139907323892019111e-03
-9.532694175757300400e-04
-6.699351958887276963e-03
-2.369313827059275294e-03
2.586967178590388917e-03
-1.456807051124589872e-03
-1.263452706707972285e-03
-6.574471844609827524e-04
-6.818813861604008583e-03
-5.494100986041298117e-03
-9.431059055795922887e-04
-1.126570533704538378e-04
1.760828865181389077e-03
5.228418423220612937e-04
-1.371520956533599060e-03
-3.761994296845374078e-03
-7.397206865804762874e-03
-2.843915938289344469e-03
4.353145468326225995e-03
5.755021450496874968e-03
3.522750740569212564e-03
-4.654072357119918473e-04
-3.298732549659208306e-03
-2.919040049551486528e-03
2.677244893790710128e-04
8.568466560314700079e-04
3.868621854948712776e-04
2.963316407938012924e-03
7.345556406817743602e-04
-2.319262490967768930e-03
-2.077701057668266803e-03
-1.679443041652178316e-03
5.958163515898050669e-03
1.168907738590369005e-02
8.167893196355378860e-03
4.435016245291316730e-03
-1.777183736189881296e-03
-5.517628691751405405e-03
-2.188966164492910701e-03
2.410819217530783018e-04
1.196443409998996935e-03
-3.523060126398708507e-05
-2.922018538048529526e-03
-5.551845677895365407e-03
-6.902990956650150930e-03
-2.790900286414342568e-03
9.881164895684439817e-04
2.054521640330051260e-05
-1.562966903154755678e-03
-3.475213569781273812e-03
-3.816064574763992131e-03
-5.618375262854072164e-04
5.200457913368108920e-03
9.431368478909471845e-03
7.185281456427420992e-03
1.738547788392833448e-03
-2.885443894907793391e-03
-5.332640692298649433e-03
-1.092543209835192698e-03
5.549326253007582158e-03
3.541918078716891315e-03
-1.950904145859604175e-03
-2.298583248392601069e-03
-2.506818586679547458e-03
-3.369571673159675921e-04
3.518876123592289389e-03
2.870913656376429448e-04
-2.861059395416342896e-03
-5.020465000266524647e-03
-7.421365914733640476e-03
-2.180602704709607310e-03
1.088719001037330956e-03
1.068892614435585416e-03
3.207142189872764712e-03
-2.788167778869460279e-04
-2.446558903734510557e-03
-1.055952052404131059e-04
1.913300694982265687e-03
5.183066610635526580e-03
2.868020500178445741e-03
-2.513272310085589356e-04
8.985237919447545962e-04
-1.284701567534978937e-03
-1.898215493329685451e-03
-1.792432611974534469e-03
-2.874852594955120983e-03
7.917070751824349314e-04
2.585258992434029922e-03
-9.518554928674412361e-04
-7.981806493330224905e-03
-1.101941818945084348e-02
-3.081688523011849937e-03
2.938561134764646181e-03
7.207528469535175869e-03
1.123351543469365207e-02
3.088737391188209249e-03
-3.343297716552512486e-03
-1.025664130282799439e-03
2.066178372954793896e-03
7.548857560417023514e-03
7.638590541528988108e-03
4.864825415815023611e-03
2.360129607859154377e-03
-4.276419221172776328e-03
-3.004158395977112039e-03
1.353182330359044890e-03
1.651584123377186500e-03
3.636309786248877532e-03
7.141794834697378844e-04
-2.545909630512541762e-03
-2.153093239411434275e-03
-1.379510192589628948e-03
2.941035751661577862e-03
6.378731889814301566e-03
5.962114452818146823e-03
-3.963395676894946110e-03
-1.260441745280007665e-02
-6.295376832259118489e-03
-3.061759603369413728e-03
3.508577761722633023e-03
3.030197713721962706e-03
-2.702269386850241623e-02
-3.301152212276312753e-02
-9.405491511158188891e-03
-2.619586919361485081e-03
2.529019304483961453e-03
9.380867438917606452e-03
1.090241479941363167e-02
1.278307249604737801e-02
4.675235554215050396e-03
-6.502592998198906309e-05
5.148723788379663650e-03
5.889625648686848923e-03
4.925837847684611491e-03
3.711291932087767455e-03
6.632411184340970172e-04
-2.603988557151843981e-03
-1.853902906167489723e-03
3.673140168092840080e-03
4.928143055041649470e-03
3.828938119196802214e-03
4.243517316887122047e-03
3.958476489030949251e-03
1.489080676480335555e-03
-1.902929077165613127e-04
5.233739695003110891e-03
7.059123330700716424e-03
2.662463870822476958e-03
1.183181374993798980e-03
-2.216934403177241424e-03
-3.449487571438854781e-03
-3.731927382816014032e-03
-6.770412169495406383e-03
-4.720495515440795847e-03
-6.632609610653480287e-03
-1.167735154376773124e-02
-1.267187525959578322e-02
-1.407476382309680307e-02
-7.356805937808935658e-03
2.368086833406153266e-03
5.054758179808859983e-03
8.383014090448240307e-03
9.477111219246199189e-03
9.754749769433178688e-03
1.565765575663810583e-02
1.721151566053151158e-02
1.423235472792018508e-02
1.373793701880167417e-02
7.654659928604012550e-03
-2.190364410197312948e-03
-6.638171097203543827e-03
-9.794821255299596130e-03
-1.199282482762710315e-02
-1.829672366596502009e-02
-2.981038144570539311e-02
-3.149437618949851164e-02
-2.791788356056494613e-02
-2.318178099817775825e-02
-1.396340618570687982e-02
-7.518652320028597173e-03
-5.432942783799462032e-04
5.228888170478529843e-03
1.044342235252096115e-02
1.935301010840554184e-02
2.542643983224875115e-02
3.269707938708469458e-02
3.659093665619395086e-02
3.685268291453702716e-02
3.198279254257416215e-02
1.394325040750090706e-02
5.056617507565343284e-03
-4.985262423259768233e-03
-1.800558099128163336e-02
-1.709833790595911493e-02
-3.621929120502252741e-02
-2.647187582764240835e-02
