1.014723217990736760e-02
2.820231500277735684e-02
1.952408355544381358e-02
1.801592455503599199e-02
8.629178518688268920e-03
-1.406715399850884613e-03
-7.114469352667674796e-04
-6.883046502685409226e-03
-1.069181344920759960e-02
-1.168645542750596650e-02
-1.517712482246113583e-02
-1.674732708179936871e-02
-1.557659208848785268e-02
-6.010207937988741415e-03
-3.956812292285246876e-03
-7.637592303903822585e-03
4.195099389879544324e-04
3.705477254457831097e-03
9.140367045485259592e-03
2.111365724916080752e-02
1.650610006776583732e-02
9.180006851609081100e-03
1.136589934239179422e-02
1.135566404452475336e-02
6.205918847584437036e-03
-4.354249531964276155e-04
-2.245722041557309803e-04
2.711082234310403620e-03
-3.096213807198398404e-03
-1.301298808803808688e-02
-1.255581224656964791e-02
-4.604577861717497160e-03
-1.410817198054111279e-02
-2.981140783240743969e-02
-1.949239330902961115e-02
-3.085349410160468774e-03
1.192063205015719883e-04
5.808381107479935156e-03
9.647302717837463043e-03
5.552148402359594233e-03
6.414264827834345595e-03
7.356098035771165694e-03
3.307782595982680738e-03
5.560209466424236892e-03
6.360243611937310519e-03
2.302802764274416167e-04
6.895240788672514411e-04
2.847380159655096485e-03
1.915472185541646378e-03
1.325163023552410318e-03
-2.810689630498811476e-03
-2.193596853907018359e-03
2.668105794445639091e-03
3.694302351002835307e-03
4.196251509894968063e-03
1.406450915244004994e-03
2.875610088375896677e-03
4.550465911038317768e-03
-4.544886272338996558e-03
-9.630515156558916087e-04
3.984920404579463983e-03
-8.418986229586282108e-03
-4.991822388137300004e-03
4.851493640947372558e-03
-4.147778931220147403e-03
-7.904863495329046696e-03
2.364804916350287344e-04
5.077602483782956908e-03
5.484143674562121790e-03
2.703542724146303436e-03
-1.511742338778735697e-03
1.196060346243864835e-03
3.735402515630637660e-03
-4.500579968846746097e-03
-4.437958643387645771e-03
1.301900915540195889e-03
-2.631545334840743131e-03
-2.263121976173275559e-04
1.288758866734454481e-03
-8.505600382665693716e-04
3.958205185396891645e-03
9.569830183472844212e-04
-5.802050272960651263e-04
-6.930514635899259713e-04
-4.797290245522774915e-03
9.992958498746238889e-04
-1.152192978782499641e-02
-2.544779564565402899e-02
-3.899753034329004643e-03
3.222618360467558590e-03
-6.231910273371801118e-03
3.762958442845755567e-03
8.192979608255631166e-03
3.268359974621019935e-03
6.698526959878234842e-03
7.310747261312015681e-03
5.087496959237389552e-04
5.171770519989537119e-04
5.057865175111481669e-03
5.671808796069402643e-03
1.104074069021674341e-02
1.030259244232856544e-02
-2.146045896746506549e-03
-6.117264209545870100e-03
-6.416166278371647838e-03
-4.904106900501067900e-03
2.763494384750188760e-03
4.796021911023502435e-03
5.626431836848575126e-03
4.207637296770561433e-03
-3.164415169454029217e-03
-3.977339637912683488e-03
5.012077366078894448e-05
3.383273448214538411e-03
3.949202448270548033e-03
-6.679261446019891298e-04
-4.596714794572079148e-03
-7.618972257109260862e-03
-1.184681981433615382e-02
-1.177703823414564394e-02
-6.639308634948096720e-03
-3.073399184099044699e-03
6.723571638742496196e-04
4.473192703871873947e-03
1.356092801478810713e-04
-1.445448081816879445e-04
4.711309845853799659e-03
6.051718679258621990e-04
4.257112286279016514e-03
1.284115782499902977e-02
7.504488203481676084e-03
-4.408350376837438648e-04
-5.265641199755781085e-03
-1.348674462964895380e-03
8.128953550546134249e-03
6.461763190184413932e-03
1.563536312431909906e-04
-1.050061444159878198e-02
-1.627658166246191002e-02
1.607823952192900677e-04
1.085413825883249118e-02
4.093138535226718486e-03
-3.431013884930139159e-04
-1.322438408310371190e-03
-8.733061915349581584e-04
-6.038486931669896640e-03
-1.125433952980260492e-02
-2.053085097130614815e-03
2.824955541698906305e-03
3.985954438226525266e-04
3.949018706252573237e-03
-6.820447751385371555e-04
-6.783888808983276272e-03
-1.395166961966953561e-03
2.350622975365443488e-03
6.161723317461737480e-03
8.699286292427509809e-03
1.603084797210825195e-03
-5.081770650578094645e-05
4.908749395821915620e-03
1.352550557060390544e-03
-3.772456886733510824e-03
-1.305018795308911196e-03
1.753901140289027883e-05
-3.257970129795182638e-03
-3.170275395080902631e-03
-1.469866543697039658e-03
-1.396388098473085081e-03
1.637758349625999602e-03
3.718373817072675655e-03
2.772203662854923721e-03
3.195200366282865186e-03
2.716088690419586268e-03
3.018991066865901220e-03
4.782875621930371586e-03
-8.181740721742250012e-04
-9.111671110840817434e-03
-7.663847818400530178e-03
-5.092947449288039510e-03
-6.659660139669258336e-03
-1.281832150886872117e-03
2.993880306947439666e-03
9.557772542479268506e-04
3.019913881917828634e-03
2.572255509144273904e-03
-3.180945089332793026e-04
1.829482600397268474e-03
3.754557954950669268e-03
3.567147876077869650e-03
2.222892635751779096e-03
2.904279310352062254e-03
1.478628750448178920e-03
-2.374679919977469404e-03
7.374590767253090366e-04
-4.881883594975364171e-04
-2.956486213698396141e-03
2.237916816340365048e-03
-2.119006544211680270e-04
-2.244583020419342947e-03
3.047698534462622106e-04
-6.464637964332055255e-04
-3.160610908861037323e-04
-6.715808137760131621e-03
-1.120123610392578274e-02
-4.677163542237214137e-03
-1.251503368122667496e-03
1.143136786558743160e-03
1.277851226504276910e-03
-4.865119703619843160e-03
-7.524566796434010649e-03
-1.689910938605980895e-03
6.633509410309482678e-03
4.381807318989276549e-03
-1.915930408447440733e-03
1.200664351817935186e-03
4.934848148402453012e-03
3.538252247754575947e-03
1.947259317417533242e-03
2.405860598019648675e-03
6.156445911346355125e-03
1.122713101676143382e-02
7.878691980066914943e-03
7.369894680533176350e-04
3.247581100905048458e-03
3.949309584244203170e-03
1.177916493905989013e-03
1.223042871642309902e-03
-2.488255964145889409e-03
-8.081027871713391750e-04
5.113709991693047262e-04
-2.321342291428722410e-03
1.401161010961649500e-03
-1.677493364919494965e-03
-3.335822513001219635e-03
1.990089900205501729e-03
9.966746031640240627e-04
6.661768632763049192e-04
-1.011558931504343527e-02
-2.301807766374173309e-02
-1.426114214024638838e-02
-1.304406551505797552e-03
5.685452027204996629e-03
4.309178727405295166e-03
-8.781970363742224762e-04
-4.269000892898780312e-04
-4.395588898683036594e-03
-6.137091076208945305e-03
-2.860365778244327618e-03
7.333904857293163573e-04
7.520042664719121112e-03
5.140187721738094691e-03
1.435658775167354380e-03
2.690491288734496098e-03
-2.396253352361276973e-03
-3.473175089052804847e-03
2.860297193629584948e-03
9.423716861409615897e-03
7.390645859234833831e-03
-1.860255735972129055e-03
8.828699879910843372e-04
4.061314976782088269e-03
-3.518074186546254513e-03
-4.655541107230262016e-03
-5.405785412258253333e-04
2.099935621656754108e-03
4.149429685516874654e-03
1.932976134833467620e-03
-1.836711364695211516e-03
1.470957065594737274e-03
6.300808953504767086e-03
3.685978867475635506e-03
5.942494963278352471e-03
6.942497877285038616e-03
-6.181193071979595652e-03
-7.838091861167018060e-03
3.495106816170591175e-03
5.989235654436275008e-03
2.699033259960172300e-03
-3.065768010879627459e-03
-5.076405619693989679e-03
-2.041379405846186802e-03
-2.490098018744231912e-03
-2.793602714998180084e-03
-5.788223237946683516e-03
-1.140304727024783402e-02
-9.376462686848529779e-03
-3.441622712041774151e-03
5.633881744660608005e-04
3.240761016222254431e-03
3.427705315797175377e-03
-2.137835508032335640e-03
-5.996480720420340783e-03
6.729043212324078548e-04
3.167502041302543408e-03
-1.124184352705166800e-03
2.386206294306305112e-03
3.927066393876426156e-03
-3.339554251791442517e-03
-5.661661639504887537e-03
1.368812043037068117e-03
8.185558327942571433e-03
8.937846937790814780e-03
6.401236680470612402e-03
8.978406984181694448e-04
-2.974714707070017818e-03
-6.079956955279760969e-04
1.716393069914851771e-03
4.180169797243596733e-03
5.816850121926775245e-03
3.026267546791761628e-03
-3.368502703044566897e-04
-3.129238929755687702e-03
-2.229276309479242667e-03
-1.540354390257854967e-03
-4.603367040787685431e-03
-2.781982222994421224e-03
-4.717138088695404271e-04
5.962725486379352258e-04
4.077378544352470643e-03
3.852575964567809749e-03
2.140462586758074947e-03
-7.451511352233984456e-04
-4.265896066007743466e-03
-6.102211472920411779e-03
-8.566572567011288344e-03
-4.844032227369077410e-03
-8.241102033235743083e-04
-1.570165770792129444e-03
1.041093178083000916e-03
6.039319483136394631e-04
2.985389502569819821e-04
3.651123627279484040e-03
2.334191509793281157e-03
1.069186273094883694e-03
-2.904397440780365734e-04
-1.302786977772806953e-03
1.228442936653420135e-03
9.645760861777435188e-04
-2.954536248180010408e-04
-1.384035940680119125e-03
-2.063231477572723994e-03
7.662312108275968385e-04
3.843156082701700872e-03
4.294457010972994003e-03
8.744154502278992562e-04
1.367996918236282161e-03
4.884402080000605460e-03
-1.016790523635585034e-03
-3.980556226087372459e-03
3.176019995181847931e-03
5.053430194941446046e-03
9.061323272397819612e-04
-1.385664219655174034e-03
-8.718662763392659269e-04
1.729527949115204199e-03
2.922460792463392638e-03
-2.079012935423905743e-03
-4.530425401726143921e-03
5.644133371459793659e-04
-1.964261296332151224e-03
-6.400103182148736934e-03
-3.111004094437655725e-03
-4.900372022691142429e-03
-5.104350419137350381e-03
3.840966040399598725e-04
9.652794201040536888e-05
-1.501392141540301229e-03
-2.054568079422217173e-03
-2.572778774083417982e-03
-6.796845760430022046e-04
3.670673067321793270e-03
6.516258683029417346e-03
2.277439028752614031e-03
-6.986127045419592094e-04
-5.466300851693007461e-04
-3.271846811378354824e-04
3.376304703592906704e-03
1.251593418302275693e-03
5.321653223649333835e-04
5.650911062911863000e-03
1.318094180398012190e-03
-1.029356145472752702e-03
1.188576886929028700e-03
-1.018540878614622967e-03
4.363570980588213268e-04
2.261769794665522955e-04
-1.493641470217630871e-03
3.107032135252871426e-03
6.918821966523088472e-03
3.860060922111704929e-03
-1.690808412859877170e-03
8.879735196889486848e-04
1.563670140767556543e-03
-6.552799854946161386e-03
-6.005833326621573889e-03
-2.957488198295924256e-03
-3.445490127063279440e-03
3.447697810971078703e-04
1.661416211121888612e-03
2.586440024631439863e-03
2.274416065150874303e-03
-2.307379125632111512e-03
-2.758646407575199300e-03
-4.782614899886464092e-03
-6.417863180519466776e-03
-2.182510159633629584e-03
-2.487809641538084489e-03
-3.337315951340626054e-03
7.907889713164961525e-04
4.192609508438962726e-03
3.187237483168497715e-03
-2.025133591775413969e-03
-8.163008603908382746e-04
4.198197669331526702e-03
1.456719416352835654e-03
1.700855735815121322e-03
6.495675191025188956e-03
6.192871906956321643e-03
4.447918047100140118e-03
-6.131415289391122262e-04
-5.252954013520313124e-03
-1.137271619677911443e-03
1.418242121509580452e-04
-3.091492086432072808e-03
2.624702023192082204e-05
3.806307938188848317e-03
2.433378007513186617e-03
8.097769557169226550e-05
9.552450387928141957e-04
5.050377957052221319e-03
4.275125296980843842e-03
-3.761540401985533685e-03
-6.426958323041211812e-03
-4.054089356745131352e-04
-1.699786273706179851e-04
-3.299436974863575057e-03
1.882232005356964397e-03
3.883055221507026103e-03
1.711710099326259858e-03
1.439874740327856586e-03
-4.998900941723588565e-03
-3.070986911354893403e-03
3.016287809904655802e-03
-1.247296150723459403e-02
-2.119205643289070670e-02
-7.781477301234114227e-03
4.182614329068826630e-04
5.166429581868752993e-03
1.121948726530006858e-02
9.789452143722560465e-03
3.346061416010113077e-03
-2.320635162093692401e-04
1.476377203268534237e-03
8.203451592921875068e-04
1.281789161938972190e-03
4.544708847156497464e-03
-3.176353932836025471e-04
-3.228044948437135044e-03
2.485199013648760075e-03
6.508984357917071625e-03
6.209990856979524972e-03
-3.260384003441127443e-04
-5.726860202772567250e-03
-1.328010320354933898e-03
8.778369283870945255e-04
-5.497422589089936626e-03
-6.743132857413743075e-03
-1.988304968969873885e-04
1.177131278652878863e-03
1.575085902820931886e-03
3.565220855886476296e-03
-3.394009007520724409e-04
6.554983681221242730e-04
1.612495923927073768e-03
-6.057399287727648768e-03
-6.589067576755195353e-03
-4.008073011219232158e-03
-3.190948357897625907e-03
1.438349174064660913e-03
2.570291041908794299e-03
2.323036346169297332e-03
2.212432730448946408e-03
1.570351403429190440e-03
4.400970971384438740e-03
3.239675413152684827e-03
-6.647597797038521652e-04
5.259418723686080000e-05
4.216092612330623116e-03
8.649294286757565689e-03
5.738146734865272325e-03
-3.616481089298017064e-04
-2.299079818246569339e-03
-5.793855568034486300e-03
-7.375196005069132275e-03
-2.550099896352523137e-03
1.596999139174182366e-03
3.791143829360500705e-03
3.882682946257440173e-03
2.316302642231275223e-03
5.760915347375260634e-03
2.602080322496353620e-04
-2.017607134754565226e-02
-1.941675021843764642e-02
-1.431008443648131793e-03
-1.903913126656447833e-03
-2.809945830394576342e-03
5.534312708949376200e-03
5.487866317514867795e-03
2.956094416864469415e-03
1.102686345824626171e-03
1.552506858454191351e-03
2.947358907062602729e-03
-2.199679332436880932e-03
-2.776138857516164890e-03
-8.273902775193403309e-05
7.296679691395058752e-04
5.622359955284511601e-03
5.905547014967046406e-03
3.408862140346746294e-03
9.639973106590081953e-05
-4.590251570790754992e-03
1.542424987987730178e-03
3.862044670714672844e-03
-7.506306275104662924e-04
3.041355945640603943e-03
6.871882245971592650e-04
-3.026335613814728001e-03
1.002011725801708799e-03
-1.199756747129930145e-03
-2.607269327035494338e-03
5.555823487155974079e-04
6.769472884736839682e-04
-3.139058497872931376e-03
-8.099795040282771821e-03
-5.317027681422300742e-03
6.090405658881618877e-04
4.960876667502648121e-03
8.082130763285911776e-03
4.705940932303441515e-03
3.878581984665646631e-03
5.314544975590461753e-03
8.591977408076230567e-04
-3.820632707301931455e-03
-6.328190269376083969e-03
-2.684639096075176409e-03
1.066814048523839591e-03
-2.860959904485052985e-03
-3.705149612306270386e-03
-1.103023428630982934e-04
3.664909830531565011e-03
5.417990983326166285e-03
2.115997768219157228e-03
-4.237479188515324386e-04
2.043377838602467717e-03
4.042574994939521563e-03
-3.349346364681835084e-03
-8.873429814846827551e-03
-3.635450662731264972e-03
-3.729711475401737211e-03
-3.806577746129475269e-03
-1.270873536955928777e-03
-5.686393454439833510e-03
-3.356875982443384508e-03
1.852528011409243329e-03
1.771347782823230656e-03
1.385029587596073872e-04
-4.211450985264994853e-03
-7.586819981718329314e-04
1.956826761859426726e-03
-1.438705342357672569e-03
4.672250396785863902e-03
6.399723971620566512e-03
3.166647716821196883e-03
7.763443449295757796e-03
5.299581784734706293e-03
-5.080793390261379317e-04
1.637524377829782229e-03
2.499997002739974376e-03
7.347013713451238520e-04
2.328507884967358894e-04
1.672695939756640104e-04
4.614912185915944409e-04
-1.477918230996742074e-03
-4.078424330370889264e-03
4.066292099526255290e-04
3.903723811469893886e-03
-1.840311969125678435e-03
-1.764436188426649153e-03
4.864273871628129603e-03
5.268145118681556022e-03
2.009288534662788568e-03
8.592632163471861269e-04
2.574740928979273556e-03
-3.219919790399907323e-03
-1.134178284844764538e-02
-5.238387518975208025e-03
-1.125649407483908428e-03
-2.020786550234182979e-03
2.599795884489020017e-03
8.698171569762613593e-04
-4.596021831350803784e-04
2.161683647805862085e-03
-4.613243201669485526e-04
-3.804487259918310459e-03
-9.007655062707838750e-03
-1.008529730247726547e-02
-8.233446977749884696e-03
-9.536798018857034834e-03
3.706380817332466469e-04
9.706455622064095665e-03
5.629684486563152866e-03
1.198870160748530256e-03
-3.570474756798435248e-03
-4.087573902420369061e-03
2.063473082047065452e-03
7.168265735450316152e-03
1.261213999960265550e-02
1.182540043739440695e-02
3.232703423113084031e-03
-4.969890064571338539e-04
3.174015430950702290e-03
2.741663290986063890e-03
-4.325289293858235878e-03
-2.596019243656867877e-03
2.469555430293213401e-03
-1.102271732123342790e-03
3.278987420962292719e-04
4.930052264499245294e-03
3.985106320597659943e-03
5.152145359505947049e-03
7.286049763729008158e-03
4.113690184598259129e-03
-3.882961826638721761e-03
-9.443086414886460098e-03
-8.436691992815225499e-03
-6.138697825900235605e-03
-4.354858397492227147e-03
1.280301814235486725e-03
7.126428850432876654e-03
-7.604238134824818770e-04
-1.271707562533564047e-02
-8.305689994956455546e-03
-6.491327773773956553e-05
2.071189538383404888e-03
1.445990850227277334e-03
-4.746344399784403062e-03
-7.079632139925375739e-03
-1.733039776249434543e-03
1.272747418253131636e-03
3.070068948903111050e-03
8.375551076685812391e-03
5.364530270904018135e-03
-1.073219942914572372e-02
-1.596419566876565443e-02
-4.131500775841657168e-03
8.026949352836246568e-03
1.285591631219549710e-02
6.818605105686581166e-03
2.477361098515575011e-03
3.375437647480103616e-03
2.201605322176708739e-04
2.810713344332916620e-03
4.251893489035763786e-03
3.974419380752285038e-04
3.651550043851762434e-03
4.228952970398856988e-03
1.200776787950850154e-03
9.395068419735463309e-04
-8.136379618480291511e-05
-9.655155263749299862e-04
1.160096514407673576e-03
7.174341922614450862e-03
4.311105722222625426e-03
-4.274197785688045419e-03
-5.091380019557357854e-03
-7.490865297973541004e-03
-6.960929613004243968e-03
-4.929209583006766496e-03
-9.732109319971891936e-03
-7.348548778527700526e-03
-1.955049185626610807e-03
1.427606015661803552e-03
3.708556724003104002e-03
1.364815361714374724e-04
5.959713665202484405e-04
2.066162747669639602e-03
1.029876056520149716e-04
-1.509902709796180468e-04
-1.456462393292960538e-04
2.332814194034901322e-03
3.239099711707783911e-03
4.643432733034208275e-03
4.123558130514109327e-03
-3.581428235303317411e-03
-6.389314255515500789e-04
3.397693199502907924e-03
3.128473051307807716e-04
6.216417663695634165e-03
7.467875254317582305e-03
3.517210119727786927e-03
1.286886818588491369e-03
-4.602809688523301981e-03
-9.757008887425879049e-04
4.222242183917438753e-03
1.827497145345250784e-03
-3.796280274046667270e-03
-1.963855302769573763e-02
-2.339945556849942071e-02
-6.300833219863642524e-03
1.714873228050677522e-03
3.199152665218084422e-03
1.084327498333083339e-02
1.259318533663249598e-02
4.158456462855916400e-03
-3.115192413735081052e-03
-2.793384452344341122e-03
1.844566832766138340e-04
1.021945805155857583e-03
2.122098670922052612e-04
2.518933053143219969e-03
4.528096990211331885e-03
-2.358028064699127426e-03
-5.441005923786923319e-03
1.613490867037660394e-03
1.379386950012816485e-03
-3.197635754084737249e-03
5.921145694321191090e-04
3.280339296967690627e-03
-5.621469503741783561e-04
8.743292576749474299e-04
8.244530466085876405e-03
6.677703488054631542e-03
-1.580098707086029317e-03
-2.981006174615567252e-03
-2.178199972068920170e-03
-4.043022618039974515e-03
-2.843361378297326169e-03
1.967420037409230388e-04
4.213676745188024860e-05
-1.795700556913503929e-03
5.132909486158453941e-04
4.823732059316006814e-03
3.537640953865682069e-03
-1.756183748406812137e-03
-6.995331567393977754e-03
-7.669222580779874558e-03
-2.665617690147076106e-03
-2.181816561089583700e-03
-3.703486942473503945e-03
8.253777444044303182e-04
2.886391745277507546e-03
2.492494578713293045e-03
4.273806965230169015e-03
9.360638771655697792e-04
-3.696081728545987360e-03
-7.234932410454066910e-04
5.089524991617309750e-03
8.037566224036002752e-03
4.216784044527718649e-03
-4.553611635333873128e-03
-7.149149452695802327e-03
-1.891922922085084377e-03
6.095883502471242422e-03
7.675428649646161283e-03
-1.832968695334893537e-03
-3.547169788292003044e-03
4.908902086521872276e-04
-5.230883583312253941e-03
-3.362524510539586283e-03
4.301531888687222700e-03
4.600383306997585763e-03
4.610861217531361800e-03
1.152197040673772713e-04
-2.915063631401699010e-03
-1.589335284631321864e-03
-3.608553731421008416e-03
1.839569827340197753e-03
5.232654596875502793e-03
2.142585486524065954e-04
-9.108792961553815407e-04
-5.359234278386718238e-03
-6.801203899508992054e-03
-2.138759152321748156e-03
-3.255381480722031092e-03
-5.642821442237317200e-03
-9.869494536566623955e-03
-7.142223912941214441e-03
7.111050718891558098e-03
1.298774642233185318e-02
1.099022032534808201e-02
6.458459722541302558e-03
4.582930289262483032e-04
2.064952380857531383e-03
3.883806796876445970e-03
-6.471211248920884923e-04
-3.562874725164000625e-03
-2.890118789010033421e-04
2.834973391120033243e-03
3.432345603709124199e-04
-8.514615040027093303e-06
1.677735378685131723e-03
-6.499334727632532409e-05
-2.291057218232621200e-03
-5.795012824186879762e-03
-5.601777502401402223e-03
-8.043419262096650375e-04
-1.886835643600498751e-03
-2.906570025345085219e-03
2.188069139397787535e-03
3.098154937690193386e-03
-2.982515554353080186e-04
-3.633399538538786529e-04
-4.353119093149037766e-04
-3.001699511662503199e-03
-4.048368404892989901e-03
-1.576949862761613252e-03
3.421578293251763790e-03
3.687975039480878223e-03
2.154680694148211964e-03
6.141350703399090991e-03
2.789474247099624736e-03
-3.124630352200083103e-03
4.124578855552981163e-04
-1.853440978252092160e-04
-1.955937770799318510e-03
-2.976756014700170875e-04
-1.262310903446054074e-03
2.376354309080287632e-03
5.610631968571777942e-03
4.732928948882897564e-03
5.127456494628069260e-03
3.038717883803132482e-03
1.461174707770653914e-03
9.329431381628718652e-04
-1.857458548384198060e-03
-2.073675583640629400e-03
1.996659485221239944e-03
4.090848062612608034e-03
1.498526143973596307e-03
2.304464193610932399e-03
2.864663374203406474e-03
-1.838225131689718780e-03
-3.034577416847553111e-03
-1.273404943406716361e-03
2.418246893249997170e-03
1.211916541337960517e-03
-4.359336721453798726e-03
1.021045827706387743e-03
3.415980660189692295e-03
2.610007388647204388e-04
-1.968459924027904416e-04
-7.165724659249945484e-03
-4.726809756575495181e-03
-3.389044832204817555e-05
-1.076546668956215348e-02
-1.439743793378117642e-02
-7.946311621707781783e-03
-3.425851373871811271e-03
-9.259406203065281143e-03
-1.554307240737768867e-02
5.040230220792115421e-04
1.288617252054937226e-02
8.179404807474439237e-03
8.456034593040055725e-03
8.269669575631207956e-03
8.550895308905277423e-03
1.342419309524405836e-02
1.098301533597342665e-02
5.957179713167577891e-03
8.763810140778054494e-03
1.334644831629216988e-02
1.034799211257328433e-02
5.190853598731013166e-03
-2.369292374106676032e-04
-5.629576415632453652e-03
-3.746197402427682045e-03
-3.731532796924952322e-03
-5.924817890565722486e-03
-5.174328181421100972e-03
-7.621525715251422847e-03
-7.330616507760920851e-03
-1.309332967066061636e-02
-2.194302518347750891e-02
-1.357519711510658464e-02
-1.115477476560704055e-02
-1.748484323135807844e-02
-1.072931407007248449e-02
-6.501993697013878221e-03
-9.473831334777420895e-04
1.460147089509765926e-02
1.789353740029955148e-02
1.229993085628828219e-02
1.168483318046620659e-02
1.294373345511024009e-02
1.236909779109786160e-02
7.652546323833338271e-03
3.808261518725636514e-03
2.810512598679643006e-03
7.785897505739877017e-03
1.877659580710563589e-02
1.682419518340362574e-02
6.064044598489131722e-03
-2.795595087786106187e-03
-1.765553582023220505e-02
-2.993070019137520146e-02
-3.655921916514241060e-02
-3.483110283569568894e-02
-3.710497099553925621e-02
-6.276990225909682974e-02
-5.824127934768533188e-02
-9.389970447638595549e-03
1.965282006526237329e-02
1.722838550519857279e-02
6.802649815218341639e-04
-9.247059693352724374e-03
-3.790463462324409651e-03
1.156301122602050591e-02
5.344592235903797284e-02
9.933697554635961824e-02
1.135164542619572642e-01
8.767468280031932848e-02
3.392797867710924120e-02
3.616230956411379573e-03
-3.118809879521059879e-03
-1.179716545988938187e-02
-7.234495456050416690e-03
1.226225705104026960e-02
4.691595582267665820e-02
6.130036568629238652e-02
2.476475708453109922e-02
-6.955334324357232562e-03
-4.969111988854221611e-03
-3.161757121311203119e-03
-2.940701834211863902e-02
-7.686540521376455937e-02
-1.187581583575802874e-01
-1.407936101760655367e-01
-1.356214641497871520e-01
-1.132976851547935759e-01
-8.591151187412195134e-02
-5.787643128828149491e-02
-3.048379058126025193e-02
-5.495541549089102799e-03
4.339384548927360981e-03
2.651718891456729052e-02
5.666150310672862789e-02
7.632967116916206107e-02
1.087393684708480301e-01
7.813601656434240872e-02
1.152985721363681930e-02
1.747372511560155162e-02
1.872425230138656180e-02
2.749420940197250945e-02
7.475377786579670558e-02
5.717200192102311895e-02
-1.093875093154291107e-02
-4.406310964728856611e-02
3.781918380599094687e-02
1.353097453445282483e-01
6.800979360791135908e-02
-7.418614071362122399e-03
4.122836752354255840e-02
7.170383589059989293e-02
-7.391683551964465908e-03
-1.377794819641624535e-01
-1.571875140530854253e-01
-3.422756711915266037e-02
6.007867333551986794e-02
2.827108185329224588e-02
-4.374006678083991462e-02
-6.274383100986677397e-02
-6.018578204636514106e-02
-3.599942595367340570e-02
-2.285178323646914686e-02
-4.968823882779230261e-02
4.605640800399330576e-02
1.660931193281600660e-01
9.224072610647666981e-02
-8.857157711408485123e-03
-3.452518016029050563e-02
-4.453701242224814699e-02
-2.006413673446574841e-02
-1.276569796796029515e-03
-2.350191488827053921e-02
-5.842255895613955585e-02
-7.543367115745032436e-02
-7.491722619121064797e-02
-6.698059867436931270e-02
-1.943585824422355834e-02
3.962048264077588228e-02
4.357772429424056071e-02
1.433242761812223744e-02
1.598715774311518581e-02
3.215001168977400098e-02
1.511646912564390023e-02
7.603825387746909921e-03
-1.185700584253668701e-03
-1.900406067960804662e-02
3.881295513774422890e-02
8.326321651796121659e-02
4.280124916330774187e-02
2.058468118691980306e-02
1.603175834699848215e-02
8.841826179021204657e-03
1.837181850616924697e-02
2.207800025152652224e-02
2.298139599993579904e-02
1.047168534593324353e-02
-2.140330678601062159e-02
-2.393828224207897315e-02
2.288122435087323187e-02
5.832192545036456177e-02
2.555002453619427752e-02
-2.733679213666189226e-02
-4.578016840013410943e-02
-4.877284250120006437e-02
-4.943047160885954278e-02
-4.323530603414009466e-02
-4.187202731426895030e-02
-3.936082403893474690e-02
-5.587414491924826143e-03
2.603824686031985802e-02
1.495072889900340637e-02
6.373083826220640388e-03
8.278831048665920636e-03
-1.745103176070558326e-03
-1.539343689126239671e-03
6.595114372242478172e-03
1.058421844922277297e-02
5.450501951432215955e-03
-3.405502957177052384e-03
-1.080802844439026798e-03
-5.441309955188470063e-03
-1.112666813177708505e-02
-4.433841828661781552e-03
-3.195113966525995382e-03
4.039770196207571385e-04
7.209355414246593381e-03
6.161565360895935456e-03
6.326367913701743881e-03
6.070629325906904024e-03
2.964819472157214416e-03
1.776446919234652040e-03
2.944980154270370604e-03
3.141497122185487462e-03
1.570608691897990971e-03
4.679979272928432368e-03
4.743473447326209715e-03
1.646811308902212164e-03
8.310677497623404977e-03
9.070173980638000441e-03
1.669723903718830366e-03
6.269189848616928996e-03
1.103159850678502030e-02
5.685312754521059872e-03
-3.188604539981635191e-03
-1.213100836336663928e-02
-8.597548105032295357e-03
-5.189887547290958011e-03
-1.994550798463500668e-02
-2.706580458066994155e-02
-1.888979750742056721e-02
-6.623115195482302819e-03
1.034023540196101973e-02
1.258483897372615103e-02
3.318937243655304802e-03
-3.921949305433973889e-04
-9.140696675258172532e-03
-1.153613964749428643e-02
-3.138893108245452770e-03
2.032359358977053887e-03
1.164240132499639278e-02
1.476352712366719826e-02
7.069595253144929196e-03
5.467717829777378295e-03
2.782767437026902740e-03
-3.035763818282969078e-04
9.612386473822136473e-05
-6.746116531576684498e-04
2.891933982437006490e-03
3.049256493529888153e-03
2.299035335370647052e-04
2.487647329060127619e-03
-7.249490597728174609e-04
-3.107662906585016011e-03
2.759639229520306769e-03
1.704822984891572963e-03
-5.604764856257808507e-03
-5.829062588877179964e-03
-2.537989977137739255e-03
-1.574053694746087653e-03
1.603764659781810493e-03
4.677992658075167016e-03
4.450079224138144690e-03
1.975158431851928645e-03
-2.325341644228237463e-03
5.432677647923579711e-04
4.840632515134066574e-03
1.078216483302929908e-03
1.445011196410724875e-03
3.651640476687146621e-03
7.143633122390316992e-04
-5.037160252007954163e-04
3.084227656476685661e-05
-6.548713905136703496e-04
-3.426522068524623897e-03
-5.800126746151954525e-03
-9.480855154301250434e-03
-1.034149458803219727e-02
-2.316446173470713705e-03
-5.423408799276563342e-04
3.609371761520771137e-04
8.870607794029406867e-04
-1.655811666970699245e-02
-1.644868351834272852e-02
2.751378680703232566e-03
-7.551576954505612952e-04
1.918229402878822182e-05
1.378340173098289295e-02
1.119182124114329394e-02
6.619542107722082951e-03
7.050835460566960526e-03
4.296445156198116372e-03
5.127227917578702082e-03
7.163672345708495953e-03
4.198496170282835921e-03
-3.093210163843391320e-04
-1.598521978226831344e-04
2.602001383835503799e-03
1.995664399898500890e-03
2.247023014676872467e-03
4.283903424123721750e-03
-2.168840216513178484e-03
-9.893455211781398626e-03
-4.286255704318998189e-03
-3.131711233391859788e-04
-4.632986678097529044e-03
-2.119943532541375148e-03
2.355868310113753365e-03
5.484486887234321824e-03
3.685949738860094631e-03
-9.701104414921947819e-03
-1.210157206761987812e-02
-3.780769374262803271e-03
-4.883824727015791470e-03
-3.826807452725859184e-03
-2.834488236813458408e-04
1.390488933543564121e-03
1.074626523811857831e-02
1.673772711697994048e-02
1.377896566241098956e-02
8.466270315730436286e-03
-1.640551953431159185e-03
-9.504505799449192507e-03
-8.241705987382269907e-03
-5.449767498911696137e-03
-5.981379342171938562e-03
-3.586522747117681063e-03
2.388573650236722710e-03
3.712199586942870402e-04
-3.849952349473996852e-03
-1.090524374769810071e-03
-3.918423465954267229e-03
-1.046955097585873344e-02
-1.146483391849132186e-02
-1.011446436132033833e-02
-2.136835937321464925e-03
7.000121594981061589e-03
7.458975280465768298e-03
7.672995786909888108e-03
1.093417175010483536e-02
1.174028110351462914e-02
5.560383087908600877e-03
-3.748652888090889344e-03
-3.476719767002768666e-03
1.306059697554683976e-03
3.807394476268130047e-04
2.033966636923348163e-03
7.554464407733309239e-03
3.939923728281247498e-03
-6.406621099151427884e-03
-7.806547215492915665e-03
-2.252472051788553635e-03
1.075582138301968242e-03
-8.903803606659724257e-05
-6.517974837210967383e-03
-1.722582726973402763e-03
1.610526146994241750e-02
1.704431880207796235e-02
2.991640053946562766e-03
-4.266042191819912656e-03
-5.282727498059140887e-03
-1.885491852246143005e-03
-5.692183466550828101e-04
-5.438974917197038871e-03
-3.760365723461199690e-03
2.783186093881970333e-03
3.658837184877861571e-03
3.735204912831239198e-03
7.467205120725506177e-03
1.233533129226262182e-02
1.145792510698869122e-02
-3.001189323024207995e-04
-1.124398823692940481e-02
-1.665957476282828656e-02
-2.615670942272402613e-02
-2.862614960227247152e-02
-2.035568129234311199e-02
-1.836718739235011777e-02
-1.424633267417881044e-02
-3.689233048131359454e-04
1.062645530051062326e-02
1.950289015274911039e-02
2.523023399542559039e-02
1.686380705372036992e-02
-1.170616821825942342e-03
-1.046573071213120418e-02
-7.067066110279924401e-03
-2.061666296393295517e-03
8.357563902219535337e-03
2.111066952786679399e-02
1.766557963942872941e-02
8.539804580590842562e-03
9.451860204031336393e-03
1.136417385747049043e-02
7.593279950647189094e-03
-1.327161803876765163e-03
-8.618473623835665176e-03
-9.722649822891749408e-03
-1.323964361527777377e-02
-1.338537555191777681e-02
-1.945101353093836366e-03
6.348990553591471811e-03
9.858960586282269206e-03
1.251579089361288914e-02
4.093285940010287817e-03
-7.057569543191124541e-03
-1.015885011548751764e-02
-7.580669293529098546e-03
-2.486831807417277680e-03
-4.291943154653411925e-03
-1.017872401642805694e-02
-1.421090572510649679e-02
-1.441142654359813154e-02
-3.141538491734864776e-03
4.546197455537667569e-03
2.009277768512409378e-03
4.286196263911166288e-03
7.579396779806073410e-03
7.282456733468663061e-03
3.058961317841288677e-03
2.285462242561463794e-03
8.679330223231683863e-03
3.369797648957254151e-03
-6.441930305103357735e-03
-8.799247279202768168e-03
-8.547715191168104784e-03
2.293839700402762905e-03
1.127710112571984370e-02
9.863818946069706842e-03
8.390271969505766828e-03
9.320434264428350581e-04
-5.543611006714753257e-03
-1.987191365597334222e-03
3.145394087843339081e-03
5.180644184606401220e-03
5.280295707823573145e-03
4.640476783654179024e-03
-3.607636303871539045e-03
-8.901868919825566689e-03
-3.338445885596336062e-03
-7.812694342011306664e-03
-1.115495466223071289e-02
-1.429765824349570969e-03
6.698707866477006823e-04
-2.130548563662989017e-03
-3.130380501348753626e-03
-4.016302105059701630e-03
-3.036662192178440130e-03
-5.808764932379318832e-03
-5.841038196148302247e-03
3.435358052665585769e-03
1.192975980148104458e-02
1.101291376912480122e-02
2.840735364222845075e-03
-2.332434073188587552e-03
-2.751245045776828219e-04
3.534028422413444323e-03
3.529482541608433034e-03
2.715232108299393474e-03
2.073396899441623965e-03
2.236598792979667893e-04
4.677843151759546007e-03
5.590729854212202719e-03
6.113156268605652709e-04
3.713385017812796847e-03
-9.080516923775775774e-04
-7.000778471083755373e-03
-1.981415461150591118e-04
-3.644359591784475383e-03
-7.728048425390939870e-03
-3.678504665794155026e-03
-9.962951060406916720e-03
-1.331381582079821553e-02
-4.267443580617334697e-03
6.743632899774047208e-03
1.378765909144954831e-02
1.265038169990353838e-02
5.223901287568206639e-03
-4.154330046336015452e-04
1.570378109101221858e-03
3.857026463724455047e-04
-3.883720879293597363e-03
-9.494718201585150130e-04
-2.316074206399384126e-03
-2.305171397549746117e-03
2.396695416867387733e-03
3.140414285780829783e-03
9.647501204859968565e-03
-1.545771986118557942e-03
-2.457317568060684784e-02
-1.203643454007847363e-02
4.436325405898239142e-03
3.467168482879346390e-04
7.019748326324186990e-04
-1.196216813544312375e-03
-2.523353699523871868e-03
-1.321394062197996360e-03
-6.245312964407606117e-03
-5.466803832013696334e-04
1.048496966568327783e-02
1.046363570942579826e-02
4.219103905574820082e-03
-1.241962920714819590e-03
-3.205307119803709175e-03
-7.767374555706002548e-03
-3.731693239635414279e-03
1.076049259479401610e-02
8.992426939246397216e-03
5.198617988186748570e-03
1.055999802303067212e-02
4.666212635961411448e-03
-1.033173720881054147e-03
-9.007557042877924105e-04
-2.049532854398637954e-03
-1.884202154379662451e-03
-5.698772048947661414e-03
-6.018418614348547066e-03
-4.516222527190168548e-03
-1.038067828470462702e-02
-9.206012651829026047e-03
6.157783789022504891e-04
4.867217051858078666e-03
2.096489390121664674e-04
2.177704698412871839e-04
6.238115443247251209e-03
1.755141728693082864e-03
-2.014739878506969194e-03
1.877600962292150146e-03
5.527758661790423481e-03
8.199666271386204727e-03
6.482161800059954224e-05
-3.374081846719120727e-03
1.873216096902561743e-03
-3.810296708157568085e-03
-6.002943248455509806e-03
-5.904093578681723214e-03
-6.594591362828491551e-03
-2.833355791273739748e-03
-5.084836773358555710e-03
1.448785660602225226e-03
4.486155671815840289e-03
-4.095967886042163088e-03
3.871162685836072436e-03
6.863690303740344056e-03
1.858699022111214884e-03
4.684909173243268811e-03
-7.871299841721899433e-04
-1.393698800158537808e-03
2.937912716368109352e-03
9.672559193764905007e-04
5.063033338444986216e-03
5.395171696548108943e-03
-3.800408918473620421e-03
-6.283286549454670904e-03
2.985780081426520852e-03
5.003403948813404598e-03
-3.922093092755242483e-03
-1.801856968089622906e-03
3.178103599147115541e-04
-4.071260348893756056e-03
2.011970878527242351e-03
6.664244660717087536e-03
2.410641379261373000e-03
-2.995511748592261277e-03
-5.529971051936382991e-03
-5.881257146000521546e-03
-7.218184455762644523e-03
-2.331520366166815739e-03
1.217699367354097267e-03
-6.924053216125133090e-04
2.741921180079662582e-03
1.952740328326694726e-03
-6.741053617724657556e-04
6.896392705411627435e-04
-2.564042879939511764e-03
-2.733669476728705760e-03
9.877725120147153905e-04
1.609672395088640766e-03
2.104654345530495890e-04
8.395666373862244528e-04
5.559943298195365452e-03
3.847701877769759901e-03
1.287634685846247807e-03
4.081605995246011774e-03
-4.245891107044385193e-04
-2.433121974804356488e-03
-1.378066857560204545e-03
-4.549395958983144979e-03
1.232964558791837693e-03
4.048842774720002972e-03
-2.886504616331902204e-04
1.786598098885227182e-03
-1.043419659068150823e-03
-3.611290089483517023e-03
-3.888581389837133281e-04
-3.038021326530097790e-03
-8.229525604983506989e-04
2.133219320178032525e-03
-5.185011939543991005e-03
-6.195085027148265755e-03
-8.084521810223417875e-05
5.283679593116549257e-03
8.192668498346451084e-03
1.602085438855723300e-03
-5.204433576036216619e-03
-3.424034044476204248e-03
6.810287050593116873e-04
2.839398300938303279e-03
1.409365713852080409e-03
1.913324264359828617e-03
2.079543000899068683e-03
-3.917048533729044699e-03
-4.928827444756156591e-03
-1.077717622664782536e-03
-2.383126007743684226e-04
-9.007811891920038810e-04
-2.604566566485315253e-03
-2.465446774202678139e-03
-2.164626317409008589e-03
2.504355393882955541e-04
7.683214928855503639e-03
9.188606226363325857e-03
6.256062133893103804e-03
3.871091334007669728e-03
1.786698831227583268e-03
2.062890901828119076e-03
-2.589799926112826452e-03
-3.699109766021309656e-03
2.594663296740862008e-03
1.699489142066366420e-04
-3.834766198694915425e-03
-3.324341651316546024e-03
-1.449303691911189461e-03
2.387786285755645090e-03
2.940854305121016685e-03
1.568815837906469782e-03
-3.342257067148790388e-03
-3.433291223492665988e-03
-2.255555951951173071e-03
-1.944805995034732532e-02
-1.954720636017380497e-02
4.876602392446835292e-03
1.043961493884656977e-02
6.486263890191247029e-03
4.977960888645826219e-03
5.902691059995237785e-03
4.594098157615722142e-03
-1.572783171201231137e-02
-1.986249290564415584e-02
1.906705636181097244e-03
8.316204112459207529e-03
5.426492491656450569e-03
6.246647440348336924e-03
5.484543117255778581e-03
5.128827824899263345e-03
5.896107450217962127e-03
7.144468787586052104e-03
1.693677313454285192e-04
-7.605948092930477945e-03
-2.096173626897889289e-03
3.027231943462434065e-03
3.383773263700637357e-03
5.638729790911409592e-03
1.872776597848430742e-03
-3.707660706800883221e-03
3.371909918111608306e-04
2.894943599998201812e-03
-1.530641862591412914e-03
-1.295264665314352403e-03
-8.569602480773569776e-04
-2.519789339330902062e-03
1.124389750118414972e-04
-1.342311579332264998e-03
-5.919788733253041231e-03
-4.918540670617149377e-03
-3.076605160643723202e-03
-5.541763663149262831e-03
-6.574628901969077448e-03
-3.776010575555861434e-04
5.075409455002035525e-03
7.949654271526237700e-03
8.155973553750563154e-03
-5.461676527582363157e-04
-5.141978358379887572e-03
-3.571189516343239653e-03
-2.932865294738061859e-03
2.299013161159553509e-03
3.370651678798144979e-03
2.587787507782630860e-03
3.178524470335914159e-03
-3.679943995001363610e-03
-3.067347163756047133e-03
2.441696695119795202e-03
-1.265404338987722145e-03
-3.178003482640333506e-03
5.651618846527556783e-04
4.297970019532811048e-03
-2.627789215411936393e-04
-7.250479630899635264e-03
-4.571822007758982384e-03
-2.580693416121731480e-03
1.130648375805381328e-03
8.334817908727046309e-03
4.443148557040885703e-03
-3.475872081842541501e-03
-3.968106641227020157e-03
3.211609384489321276e-03
6.631976381835343222e-03
1.033088708152890859e-03
2.588240926346478590e-03
3.693307484252111774e-03
-5.069455897238752534e-03
-7.173640208984310117e-03
-3.194358434337984422e-03
1.710023393001891632e-03
4.510468953554606052e-03
-5.640278880628931600e-05
-1.382152640885810340e-03
3.726691544804890620e-04
1.601013910051942964e-03
8.842800291679095426e-03
9.519243381303710977e-03
-8.879621322370448346e-04
-6.225752708943892502e-03
-7.114436764535958004e-03
-6.948226750891403798e-03
-1.344653620425442482e-03
2.315675042654895353e-03
1.261886989062247291e-03
2.831930863455243801e-03
3.299822547831391794e-03
-1.591121404241842936e-03
-2.667396642345762348e-03
2.555657256315867210e-03
1.976470544137338622e-03
-3.522764044316992627e-03
-3.381924437190630180e-03
-2.869330240617443736e-03
-3.547240068831242470e-03
-1.836031427477721365e-04
7.273641295519959592e-04
2.500181268718617211e-04
3.385300902699599906e-03
3.221346188903530337e-03
-4.253912256932993428e-04
-2.256811175162112305e-03
-3.381239422834104395e-03
-3.319588345906586847e-03
-2.471014819978824967e-03
-2.560178994460674158e-03
1.869034584035077565e-03
6.653258545940031465e-03
1.976110659314441690e-03
-4.222230746328147931e-04
2.423077594372318767e-03
-1.079185229520502947e-03
-1.559378328421145250e-03
8.123787639326156187e-04
-3.855636618500364599e-03
-3.690125810351967215e-03
2.176778889819748139e-03
4.240981239654816395e-03
3.943179522914865703e-03
2.005453940333253894e-03
2.527903497353885254e-03
3.843652542023163685e-03
1.098707736551098524e-03
2.263873454331355103e-03
4.960856877713313955e-03
1.982626639055557523e-03
4.898128481192465505e-04
-1.087099597654529173e-03
-7.010107468125176440e-03
-7.259986005728889108e-03
-1.317864953095332662e-03
4.084387594010748554e-04
-2.881878312606690144e-03
-3.751828764637570729e-03
1.061828177216107578e-03
1.062538754890163424e-03
-3.944667897801753739e-03
1.227878559887999417e-03
5.164804429236120008e-03
-2.611447526541219293e-03
-5.522466360897522117e-03
-1.573734391417690604e-03
4.256177291344574211e-03
8.697996382401283755e-03
4.641892161395816743e-03
-3.080907255085921269e-04
-1.120272035059081571e-03
-2.518591546679773210e-03
-3.845540731118346142e-03
-3.611747415320977483e-03
-3.965079732137214395e-03
-4.820394753640431726e-03
-1.519600215488843965e-04
2.461034591629244258e-03
-2.373529912213913871e-03
-2.768707470754775682e-04
3.715826116777462464e-03
3.341420390570747079e-03
4.048689419018498131e-03
3.035844059253228408e-04
9.920061556687993862e-04
4.707146024893662378e-03
-5.948124203942801612e-04
-4.179998130172104739e-04
2.110403622849132358e-03
-1.579698453077109290e-03
-1.910234571347428374e-03
-4.081662456490799812e-03
-4.952517448077525634e-03
1.012314722400636975e-04
1.447410581892708166e-03
1.531981004380393368e-03
-7.674536584501925150e-06
-1.771403433751343607e-03
5.867758856939179384e-04
-1.957685487042987778e-03
-2.358402004886137830e-03
4.055309086256587807e-03
4.554602864919399599e-03
4.071529953240258376e-03
3.504336092606627918e-03
-2.074265315744143988e-03
-3.449853423594957842e-03
-1.869142511982789133e-03
-1.467024668347725620e-03
-2.907658372459066766e-04
1.987275624294067115e-03
5.567347390320426422e-03
4.315034629105080240e-03
1.424612339186338535e-03
1.081397375682395566e-03
-3.767471113219636892e-03
-3.207479878377306279e-03
5.519330267838476467e-03
5.202481428865618485e-03
8.812192743596985144e-04
4.384431089090420203e-03
2.682787467449493021e-03
-1.259933415789454489e-02
-1.831280735698865778e-02
-4.991677604863537648e-03
2.318343534792479885e-03
-1.076625212845999831e-03
9.218198055485485928e-05
5.678306587114735453e-03
4.960951549814576582e-03
-4.836051089658826435e-03
-6.085257984264467838e-03
-2.572658609453367350e-04
-2.678200520052450694e-03
3.310195537734357410e-04
3.942421368597385026e-03
2.960359772888633816e-04
3.775087621463332939e-03
5.264272555425416559e-04
-4.496415366164734084e-03
3.086440388725673369e-03
2.654645677495691674e-03
2.362255215206625477e-04
3.705728575423944101e-04
-3.407126907441223197e-03
1.914589184423140999e-03
5.061622641459087232e-03
5.271929848392362290e-03
8.519542713232942932e-03
-3.573670022405140171e-04
-7.779486238205276204e-03
-7.575507460348373558e-03
-4.107544074732546839e-03
5.549649401840116118e-03
1.947145420961439704e-03
-4.794967038434389157e-03
1.145173046294813097e-04
-9.137010823627511125e-04
-2.432284946745236730e-03
-3.728839118177958156e-04
1.337151318406588386e-03
5.932395049934181819e-03
4.343530841933953071e-03
1.618897163347042219e-04
3.594570215526928826e-04
-4.356807143967787429e-04
-8.580824719700407693e-04
2.479720396004896771e-03
7.056545044305737903e-03
4.973688105876969932e-03
-7.574577430308318581e-04
-2.197949908287795927e-03
-1.335474391362107124e-03
1.041689131590014866e-03
9.044289147845285988e-04
-1.428924645974251773e-03
-3.158251507343997483e-03
-2.305801143169475091e-03
4.240628075134571066e-03
-3.934539840544036202e-03
-2.007880105924233702e-02
-1.125006587381004348e-02
4.053777697909374984e-03
8.757475874234973284e-03
6.648997278971547492e-03
-3.666611916081280020e-03
-3.804911797431892451e-03
2.874798677396492221e-03
-1.646129775638602256e-03
-6.665409265774237431e-03
-3.988461405248411654e-03
2.091415274518258066e-03
5.149628718790610210e-03
2.516379003031987867e-03
-1.041766421678531462e-03
8.725197758078366865e-04
3.603917049332938227e-03
-1.358191454840003681e-03
-1.402506402717895034e-03
2.722151483988125204e-04
-5.234025614208786918e-03
3.101143213677103137e-03
1.250371061142554162e-02
6.629396681876956882e-03
3.078422716079659907e-03
-1.569581573293000977e-03
-3.007491692012856897e-03
3.302248684175890670e-03
2.003791346823269749e-03
-1.283793226784923176e-03
-1.961106594716865385e-03
7.411071157357779129e-04
2.816804669508703694e-03
-3.862102349375859042e-03
9.623433886745313059e-04
9.901237734478937971e-03
-2.034101003350984710e-04
-5.727721411291590917e-03
-1.672584468851760764e-03
-2.494058435537494477e-03
-6.092119419371758464e-04
2.757968621298555103e-03
3.711696209063278414e-03
-1.085705678223904515e-03
-8.115368964793574433e-03
-8.015858495497603506e-04
7.048399881596641506e-03
1.570184145361944563e-03
-3.874910054791444024e-03
-7.217458608650645889e-03
-1.562366569930197365e-03
5.445228539616824188e-03
-8.160632850071326827e-03
-1.611866754921827821e-02
-6.345345821142421919e-03
-6.008867835185246684e-03
-7.865256058149097673e-03
-2.187432348793199189e-03
1.133793155591759656e-03
5.496351950770517018e-03
1.016108850592433756e-02
7.912984448815642280e-03
4.357105722001055302e-03
4.254775634602294895e-03
2.657261519621590285e-03
4.962674404995708445e-04
2.299506908893422102e-03
8.868216036594293514e-03
1.306849031353297941e-02
4.787148304619713753e-03
-1.884975721881145460e-03
1.934684268558963145e-03
7.250592256919079909e-04
-2.383905327554224161e-03
-3.828310419290839161e-03
-3.019601989413781603e-03
4.947405216228207420e-03
1.237028895465815473e-03
-9.003285915779150189e-03
-3.786506747173074960e-03
1.323990517913074122e-03
-2.712473929886495896e-03
-4.934399597670234387e-03
-2.087148256958919895e-03
-6.788958940170631770e-04
-4.030865761481946738e-03
-2.894861327038729306e-03
-6.684973033316828983e-04
-1.609678339592699034e-03
3.536672214763965762e-04
9.115401725702406126e-04
9.083559016499659659e-04
-1.021705692682371887e-03
-2.959432699219688347e-03
6.321789841197206043e-03
8.425849230037070134e-03
-2.233693608889943810e-03
-3.060002177095251259e-03
2.098143975152624136e-04
8.024876254906609507e-04
2.065591554605638192e-03
1.190334913788116062e-04
4.688739185199236950e-03
1.033078851585286610e-02
2.043234653621208916e-03
-2.499120548729910109e-03
-2.119045201483771464e-03
-9.053362297996074559e-03
-6.877435037277209416e-03
-1.762864843943385933e-03
-3.850039398485090390e-03
2.571510100980398030e-03
5.781635270355208085e-03
2.310882406289166587e-03
7.493650755482457113e-03
7.308021155109306090e-03
-1.874684954027011630e-03
-1.052152340355659230e-02
-1.469912696452776654e-02
-5.632041705365811723e-03
1.214353799837565801e-03
-2.255092617065469675e-03
5.000928262714521982e-03
1.364703635969785438e-02
7.542699275348995272e-03
-7.891496761280649428e-04
-5.270782499375641431e-03
-2.472394204559132374e-03
5.853541757687427856e-03
3.143902009347224018e-03
-2.289034991399005545e-03
1.649912307325098219e-03
2.028050967820828245e-03
1.341190550201726761e-03
3.298299124329615809e-03
-1.521403365137820535e-03
-3.644362704030360868e-03
9.428945702278457384e-04
1.325710332835781794e-04
-1.441683568204931050e-03
9.989885362645936281e-04
-2.988827674905841607e-03
-6.600704573115447234e-03
2.785092179735010592e-03
1.075085742788244036e-02
7.925380307820313608e-03
4.157513224602695569e-05
-5.403261271607490319e-03
2.748413547689567207e-03
2.890333892705989130e-03
-1.922730075766309471e-02
-2.185588965549954341e-02
1.210472176324741463e-03
1.067941052735479554e-02
4.611029001494349779e-03
4.388713377930377564e-04
-2.269332029007980957e-04
-7.428081689238205361e-04
-2.744676882736653452e-03
-3.968910313130655058e-03
-2.685814353436048133e-03
-1.423709267102935797e-04
4.427763350674990273e-03
8.208951517424954367e-03
5.939262092602786390e-03
8.243956413027330420e-04
-1.379052047664476284e-03
9.033428211439118035e-05
1.829319291878563894e-03
2.450163966167990225e-03
4.021937441917107676e-03
3.227019430207454971e-03
1.946915055175011875e-04
-2.953055974318969691e-03
-5.866497112657778103e-03
-2.572182588352163977e-03
-1.010247665146054479e-03
-5.494725151492259492e-03
-4.447677075216303379e-03
-2.691210688533993145e-03
-1.001837731965672315e-03
4.605135237175756249e-03
6.765229566027361474e-03
7.986675807304532623e-03
6.839799009407199551e-03
3.308261116280583527e-04
-2.284962636016511350e-03
-6.295625606515032648e-04
1.059686585965608214e-05
2.839734374798244532e-03
5.532738423218678571e-03
-1.049836620183290745e-03
-4.213724077898636615e-03
2.601103857238538843e-03
2.184842108633637883e-03
-1.464445747621653479e-04
-1.520247581357608824e-04
-1.847060428365131972e-03
-1.408497368034963924e-03
-3.512182081488903710e-03
-1.656943273212735119e-03
-4.399073691205572685e-03
-6.034425980983969783e-03
9.749871289050457412e-03
-5.719353560636672440e-03
-2.828370900610258434e-02
-5.842648355596937078e-03
-4.740449990869782045e-04
-7.545431837410887174e-03
8.035905789758527110e-03
9.516529978231267825e-03
4.719009205788073785e-03
4.939447147137963727e-03
5.975431844487772044e-03
1.143103010108071325e-02
8.138514497626758715e-03
3.527063359651123105e-03
1.279355942406265037e-03
-1.805614632150364047e-04
1.287953185932886810e-03
-1.224524374933798690e-03
2.531028411439473040e-03
4.309079053916798491e-03
-2.972118677637154444e-03
-3.790783300949104439e-03
-3.538489080019052713e-03
-2.097161624252163147e-03
-1.043813814370578123e-03
-5.208079169793509988e-03
-5.616040033215757496e-03
-4.834660416580123000e-03
-1.365141070378348169e-03
1.003484414309698978e-03
-1.141599547548118911e-03
2.712838861866813129e-03
4.097019369906316003e-03
2.673889918274463019e-03
3.877650051480035359e-03
3.948480347566504095e-04
-5.757922192051287587e-05
1.719928858555187789e-03
-2.899024418239349882e-03
-4.429352693893747264e-03
4.665181713129835147e-04
-2.757188727871875121e-04
-7.325649592326355548e-03
-9.703438432241934947e-03
-1.127889254057253855e-02
-1.200931310982411744e-02
-4.380354269473671174e-03
4.190626134606209455e-04
-1.219058217325618299e-04
6.408803660381256866e-03
1.796935788530246506e-02
2.048139108500718689e-02
1.552039991870872958e-02
1.700154596049400016e-02
1.664806158229001007e-02
1.201652033244771621e-02
1.169617772405982629e-02
2.268656528413134400e-03
-8.404689430545340609e-03
-4.928252777424548502e-03
-5.621340861395407972e-03
-1.370979510323778669e-02
-1.502038191506371856e-02
-1.636433041527789525e-02
-2.047782825613393004e-02
-7.445340081633175858e-03
