8.834313566789646355e-03
2.078460607528356471e-02
1.608272041213970258e-02
2.006604108450050356e-02
1.761933346048126167e-02
1.051772512835372035e-02
5.080310732099246017e-03
-3.483102707154726342e-03
-1.056333917051698913e-02
-1.884749998437231649e-02
-2.452716982753050737e-02
-2.472965620947970011e-02
-2.773616538047692440e-02
-2.961839995012269244e-02
-2.313524293124210457e-02
-1.302817509876600180e-02
-8.330920309441686156e-03
-2.368130305178597645e-03
1.081404283214328250e-02
1.631050512151923162e-02
1.419263867567327302e-02
1.641664680170259669e-02
1.771310861342258527e-02
1.360856823602242874e-02
1.158873039351686514e-02
1.172674109996633095e-02
3.987751692411516460e-03
-3.465778338684270387e-03
-1.996283835270360862e-03
-1.487064089818253493e-03
-3.516725026810384267e-04
-1.925951233251130832e-03
-5.566354701805410581e-03
5.366265071425763145e-03
1.668319806037093719e-02
1.518359001593590565e-02
6.224904270381284924e-03
-3.423258567400735974e-03
-1.181305191758192340e-04
-5.505853717664907325e-03
-2.439767285059442001e-02
-2.169601515051232735e-02
-1.173341076662565846e-02
-3.354048032411368393e-03
1.400543897537648297e-02
1.461711006482396304e-02
-5.081709065801018506e-04
-1.005932299337387176e-02
-9.230131293156952632e-03
-3.136521079945425467e-03
-6.998344594851593423e-03
-8.325325077724106404e-03
1.002975479910900379e-04
4.343111253084550147e-04
2.368568025444757995e-03
9.154439892397323031e-03
9.426596775124709837e-03
6.307253841636282880e-03
9.874330109308365484e-04
9.520740090325143391e-04
4.627799997548869178e-03
1.374979864356673173e-03
4.757863402333133802e-04
1.117355215875075409e-03
-1.516113681548227283e-03
1.097691121495716730e-03
1.381789815775908000e-03
-1.845706865001411120e-03
3.082492947633436176e-03
3.022322434939689328e-03
-7.422574197352744749e-03
-8.680544419021173769e-03
-2.379151339919241548e-03
4.221669533177937615e-04
3.427177460663414534e-03
5.762118232313625035e-03
4.700365160386793008e-03
1.875965612642757760e-04
-6.464199686641202564e-03
-7.843080385279673286e-03
-4.470241916434541767e-03
2.068894935213731051e-05
8.097226865406330701e-03
1.284468677661965673e-02
8.784954017135897936e-03
3.149440334911577516e-03
-2.396869840389088870e-03
-6.901525808161474741e-03
-5.550398572807339545e-03
-2.463097278541613849e-03
-1.411993896023564215e-03
-1.443909455311572897e-03
-5.153079888022160659e-03
-7.596253176263629420e-03
-1.513957746405001628e-03
4.120606408990465375e-03
2.890440806192173112e-03
1.914137779688626759e-04
-2.487921351104028806e-03
-4.779754956551293676e-03
-5.772120580470940787e-03
-2.701941095200519581e-03
4.150204893474825595e-03
5.136142801423314655e-03
3.256891012169057468e-03
3.305443889654486721e-03
-1.018928302386098907e-03
-2.720165040146543291e-03
-6.540624857840806727e-04
-2.015522404050640228e-03
-1.970153218383484568e-03
-2.443138170426591756e-03
-2.716460700425391266e-03
3.152057074355869327e-03
7.592296971486164198e-03
6.433502225316787594e-03
5.435330227610965168e-03
4.150954309264726777e-03
-8.652552698090473868e-04
-1.925293190171616532e-03
1.270099890229163184e-03
7.027929368505442340e-04
3.961702517041326525e-03
8.459835827422499191e-03
5.600794192165124176e-03
-1.407642561399514080e-03
-1.142352408971940118e-02
-1.520426150288721641e-02
-1.249778206063480862e-02
-6.633609953911896902e-03
4.518982626899989766e-03
7.897686691215500751e-03
6.978863369410795436e-03
6.367804556133812091e-03
8.067296050253358608e-03
1.745403466103523024e-02
1.109531972217119716e-02
1.142948679542622878e-03
-6.820757166139761012e-03
-3.076497370854457472e-02
-2.651564618468954526e-02
-1.348164610495485721e-02
-2.056179010261981188e-02
3.773556068489337858e-03
1.824582520624585397e-02
-4.212459672443105750e-04
4.543329597788433802e-03
1.207262248032763170e-02
8.103224587251883423e-03
7.588597262620951772e-03
3.615389795186556027e-03
5.310746286814813089e-04
-5.968620021854463553e-03
-7.597480860524812203e-03
1.532278352410810937e-05
3.407674468378695063e-03
8.346880950564541241e-03
7.769531741471867071e-03
-6.237420924628021097e-05
-3.282640495865386809e-03
-4.078118103910298269e-03
-1.400871280660988521e-05
2.315585541267678460e-03
6.261504976297130581e-04
8.889614123185656447e-04
-9.508939871478617892e-04
6.343229616274794576e-04
1.244776146132450930e-03
-1.012424856157837600e-03
1.442750282329479479e-03
-1.204104643982419369e-03
-3.941903864205670641e-03
-4.262984036212434137e-03
-8.416029437325741810e-03
-5.294545085246685906e-03
-1.346140504330116307e-03
-3.976583695571708418e-04
4.785848728263860340e-03
5.306400572527266227e-03
3.063553009187119924e-03
1.516528539120493967e-03
-1.065082001397116979e-03
-8.405444083966614132e-05
2.429679024350454505e-03
5.173413526389472779e-03
3.960209059621924710e-03
-1.798564484721148528e-03
-3.661659238557983531e-03
-2.234186353979370539e-03
2.343391747234534021e-03
4.656478898674163217e-03
7.147385247659784197e-04
-1.126879462892117550e-03
-5.957802943958528420e-03
-9.232036767441928471e-03
-2.270565274465513898e-04
5.303095358097993824e-03
1.668124529297412752e-03
-2.606267941805476707e-03
-5.407169438030620320e-03
-4.863545917880390118e-03
-3.142956302008462644e-03
-1.957211731712211154e-04
3.381415791345388985e-03
4.192869620448506050e-03
2.793535823188729623e-03
-1.285079433492551486e-03
-6.067872563746492826e-04
4.037903362974735143e-03
1.366135106270140349e-03
-4.279602952043621102e-04
1.147216112146785079e-03
-1.909131958389889694e-03
-1.053431966076127588e-03
4.638697331171550906e-03
6.795821921113978127e-03
6.737888708359311349e-03
4.352663419704217232e-03
9.301633365283558733e-04
-2.738798362527804838e-03
-6.154297124617445248e-03
-2.064281617721898648e-03
-9.782318229979891817e-04
-9.094940957685473601e-03
-8.165849443639239258e-03
-2.050215094430718650e-03
8.485565267081390025e-04
3.318183453578423241e-03
-8.701405365782246019e-04
-8.800908298072307803e-04
4.307636708649442182e-03
8.429496985307319105e-04
1.438652358351526304e-03
6.171148349077582376e-03
3.979311000267421634e-03
3.224998664517268656e-03
5.605599749756559960e-03
3.884983393823068613e-03
-4.791752408563658416e-03
-1.159791427588211660e-02
-1.020595422214212906e-02
-7.060221388862844040e-03
-1.735385811710951154e-03
2.953003519987932105e-03
4.204913934047418630e-03
5.746011490187071143e-03
2.448444736704945886e-03
-1.636419669034654134e-03
-2.591952749195129777e-03
-4.193233289256646616e-03
-1.181228297715429228e-03
1.160798525152218147e-03
3.885920391499307971e-04
4.005439100529775004e-03
4.388110322772280011e-03
1.691240991523890874e-03
4.167301989792587293e-03
5.191047497661918468e-03
1.743340801008563421e-04
-4.781998301488236264e-03
-5.513465790395541931e-03
-4.265058875445868099e-03
-3.241905299664296636e-03
-2.385322568995408565e-03
-1.517434903582457080e-04
3.724070654206095010e-03
1.536569837815553695e-03
-3.977658540054605438e-03
-4.787920075573262038e-04
3.070377839750308788e-03
-6.527743311179258923e-04
-8.705236914637852095e-04
5.110611505848532262e-04
-1.204965033786486095e-03
9.801935813332667610e-04
6.270128694738270198e-03
8.601510446175845981e-03
7.087526250957819005e-03
9.523785435210868969e-04
-7.038501779047865239e-03
-1.017157903627591807e-02
-8.242427261390673082e-03
-2.068758636852482610e-03
5.306043874023374379e-03
3.369404790587401857e-03
4.067331921029720358e-04
7.088642230784971028e-03
5.725673145346115052e-03
-2.541366378727567300e-03
1.275511737108447202e-03
3.584709649719013125e-03
-6.999739982094911953e-03
-1.256792069529159145e-02
-8.540000855164891005e-03
-7.964822186045730779e-03
-7.507100206660240194e-03
-1.689058598972360652e-03
1.048415260050018002e-03
4.348114503584818956e-03
9.645974084318924974e-03
7.091082910761165557e-03
6.342214622106163990e-03
9.897238859256765608e-03
7.701358107035450110e-03
8.767206096086265291e-03
6.518656712602731440e-03
-1.013532384426584637e-02
-1.676660234964779880e-02
-7.623105180702982771e-03
-4.289883440915840708e-03
-2.734339916366141082e-03
3.295475306593615046e-03
1.237823802649964597e-03
-5.474907624267595294e-03
-2.436180536048299962e-03
5.714079537973639107e-03
7.679496057754409827e-03
3.896934142012881391e-03
-9.302171104213756035e-04
-3.625138978775471234e-03
-4.272916468260938572e-03
-4.725026363646136866e-03
-2.077935678469139749e-03
1.945474704820513139e-03
1.916205435113658029e-03
1.158563273833344495e-03
1.601239597908889244e-03
2.744990080729324804e-03
4.248520535517688775e-03
2.969633776267956334e-03
4.012059524311560425e-03
6.737617284151500505e-03
1.734161060134228665e-03
-3.564908958027830123e-03
-5.323578183169419987e-04
4.615510563175442664e-03
4.815129253373088593e-03
2.363315192978855336e-04
-3.973608617269157664e-03
-4.866753593343040203e-03
-3.019046197675729574e-03
-4.139824292574752901e-03
-4.078142648468535691e-03
1.735931471863999933e-03
-1.002219649589292279e-02
-2.706306827864450246e-02
-1.461646112128270510e-02
4.991731388275500413e-04
3.460810775556044661e-03
9.860288353317002430e-03
8.974778034427453172e-03
3.845993964700080044e-03
2.521263713401542851e-03
2.156290284589372410e-03
7.798951693493909147e-03
1.232960601728934520e-02
7.637763082279633298e-03
-7.580019024436581137e-04
-3.757742920798838766e-03
-1.174841633243726589e-03
-1.748879415189053769e-03
-2.650006187782609664e-03
6.379575152679574563e-05
2.538700706545485384e-03
1.843778261184613127e-03
-1.183515166160276728e-03
-1.376295818174596902e-03
-2.431765800161939106e-03
-5.322300179968811849e-03
-3.198310559952635256e-03
-1.432819816333781495e-03
-3.956020805219197939e-03
-4.332840969248061280e-03
-7.428779673576823162e-04
3.460066539323209929e-04
5.944288080288061184e-04
6.329512371977584831e-03
8.807754541460103420e-03
4.604309575504199857e-03
1.533662279039302604e-04
-1.768243949784697577e-03
4.990392318047745437e-04
2.651548908358023881e-03
6.080089543246508868e-03
9.338106318937625105e-03
5.379380833816754803e-03
1.015729674043422577e-03
-1.579436313556231578e-03
-3.301804844777262229e-03
-2.830403504983648646e-03
-1.089896196782294806e-03
-6.110856580959358000e-05
-4.456394788389132430e-03
-2.137655359900618012e-03
2.249160300667355644e-03
2.507761411825280753e-03
1.141073083344526506e-02
-6.309543808970506824e-03
-3.313766652771451410e-02
-1.355263083289200837e-02
-1.153877613553776129e-03
-1.348308803286471513e-02
-1.443844845047725749e-02
-1.311348745149226377e-02
1.501500585730770540e-03
1.522906118420684109e-02
9.399607515327788182e-03
9.132765955315992265e-03
9.184811549950067447e-03
1.013296294987133493e-02
1.477719696949708963e-02
6.571519507985867405e-03
8.946113045604415538e-04
2.325195815708711033e-03
6.039399858219790139e-04
1.700709508011956405e-03
1.090567984816547507e-03
-3.358408099123021649e-03
-5.565578338670125642e-03
-6.541961908117118613e-03
-2.905316685482669126e-03
5.450811235038183211e-03
6.521453500951289103e-03
2.198004979226938615e-03
1.662477353526177828e-03
3.889465921507222678e-04
-1.443793602907305533e-03
-4.387410169131358666e-03
-8.402503108768489409e-03
-5.245965538726232898e-03
-3.599745506766722884e-03
-6.061890124273474657e-03
-2.167934202922613008e-03
3.266345299313391706e-03
4.889469725218608710e-03
4.295399059957544230e-03
5.954837421115576589e-03
8.164518283468221935e-03
6.390751667534740228e-03
3.026453200697198139e-03
-3.472678416489165514e-03
-5.940279110152452829e-03
-2.692497201708881228e-03
-1.377489465211006840e-04
5.205562819811976501e-03
2.179442596846568013e-03
-1.865006082613867786e-03
2.386434885098999079e-03
-2.591889050911527163e-03
-1.196740865043465635e-03
-3.062350149738386328e-03
-2.614414925796959208e-02
-2.376466397369080344e-02
-1.319477210441973632e-03
4.248558204386574007e-03
7.920101244705369387e-03
1.390756799274393135e-02
1.565923952455442955e-02
9.850433175476205200e-03
-1.765436440371594010e-03
-7.265945689787151225e-03
-1.098393108761180903e-02
-1.076543319276345931e-02
-2.413676850958317716e-03
1.131024104210590032e-03
-5.314809012237401396e-04
-8.735319894998272178e-04
3.091462232201816051e-03
8.138721172210655261e-03
7.712581783404791162e-03
5.574072510399309850e-03
2.821730236556612998e-03
-1.699580654913533087e-04
-1.613002608342985677e-04
3.287087872277615324e-03
8.068563319135059475e-03
5.726692293260439610e-03
1.817939553755878578e-03
1.690866782242642042e-03
-4.156194056488014127e-03
-6.568138658719175835e-03
-3.174722804673494551e-03
-3.943044204705402518e-03
-5.035188189375931940e-04
3.192173709365008979e-03
7.234887373833813473e-04
-4.100235134393948153e-05
-2.368371504463701906e-03
-4.681306430128847999e-03
-2.024035462679671469e-03
2.175824756296234328e-04
1.785066583153395448e-03
1.279465712001008962e-03
-1.706382633749302814e-03
-2.027094482175845376e-03
-1.511321989693167629e-03
-4.595796003776607798e-04
2.103487032471885228e-03
4.302182473572671627e-04
-5.498254854498309079e-03
-9.727832275943783941e-03
-8.364588396231695949e-03
-2.487395020892550161e-03
1.416498565424464604e-03
3.584624211458116005e-03
8.268290802480633347e-03
1.053632888885924768e-02
5.713496789762046758e-03
-9.467820345764508226e-04
-1.124823674745987004e-03
7.589139798737570613e-04
-3.820532020978505139e-03
-3.994641161082172071e-03
3.221723786290647731e-03
5.338565749049888932e-03
6.258844528727254206e-03
4.028584864244543103e-03
-5.640086883042567771e-03
-7.267823563438687712e-03
-2.548166713440816120e-03
-2.301679592865044869e-03
-4.043502255962254030e-03
-5.971833905589459500e-03
-1.999355352656914490e-03
3.594815428474046511e-03
1.367743736090206406e-03
1.889427672149998584e-04
6.570102179814603285e-04
-1.923839151006572368e-03
-3.772783643909734383e-04
2.316410063681228777e-03
8.816467693782148191e-04
2.588662194406993362e-03
5.741139869314472975e-03
3.415677282137707504e-03
3.933376812355737079e-03
8.885580084843684723e-03
8.436688686394067799e-03
4.459011357186239491e-03
7.594636741894134329e-04
-2.754605948636060578e-03
-6.535832669317468736e-03
-6.827167156412024263e-03
1.565257093607152919e-04
2.997515528642009149e-03
3.656007704555569015e-03
4.343644408025274829e-03
-2.465458788638653746e-03
-1.632682199235480861e-03
-1.041019577846484870e-02
-3.400052222313241362e-02
-2.136256931567940068e-02
4.068532655344030483e-03
2.545862700853248999e-03
3.435564032258802726e-03
7.772035212508663499e-03
7.099285332558719595e-03
9.426428959726819434e-03
7.766473751678103742e-03
4.224053855532036890e-03
-1.039068525235622336e-03
-5.532155335001084570e-03
-6.849245756804403333e-04
3.216965017337759282e-03
1.923568548436976671e-03
9.902108745773801832e-04
4.040476559827634864e-04
9.933285241440152191e-04
7.637066489879144708e-04
6.454249215439644216e-04
3.197165482709427194e-03
3.122643620017966689e-03
-8.755217155102357858e-04
-2.322627159841345740e-03
-2.681240759525392169e-05
1.699485943673503851e-03
2.873263272204033651e-03
1.819284059769588806e-03
-5.028743261421075340e-03
-8.666572048030609862e-03
-3.403792817467248075e-03
3.716831519067006909e-04
2.037474479842951887e-03
3.953390748857527406e-03
6.133462172415336464e-04
7.728598692476733876e-04
2.974395451440513781e-03
-2.774266893209676853e-03
-3.534433949304689997e-03
1.107506145446819157e-03
4.937765307354059947e-03
7.830608833648633818e-03
7.285623552108833664e-04
-4.265471550777858063e-03
-2.192940348857825000e-03
1.972301205662435088e-03
1.150650609768932679e-02
-3.932348723165197436e-03
-3.009305618632675261e-02
-1.748589517090623144e-02
-4.316930373251472337e-04
-4.140656667945989688e-03
-9.206074117289024267e-04
7.996954208173062684e-03
9.498623144786793107e-03
4.068140683724182777e-03
2.717601529106453574e-03
6.358906416284058546e-03
4.496045115118830864e-03
1.772043739385021580e-03
1.145716928310387944e-03
2.632556355726191864e-03
5.020208078186345381e-03
1.760936265226239030e-03
-1.804960082461556665e-03
-1.511118098619773252e-03
2.987494008797860704e-03
1.027847539853943108e-02
9.543291597983781169e-03
-1.875107847960154719e-04
-8.160754056245916876e-03
-9.443363177448600709e-03
-9.144858005082889471e-03
-7.154412769113915535e-03
-2.672150024875616630e-03
-4.785938509235592060e-03
-6.439136699569059617e-03
-3.553226084746132895e-03
-6.927792842415246392e-03
-7.780671280402137562e-03
-2.575031284948812570e-03
1.767352281412992764e-03
7.545381977451303367e-03
8.283551093905907464e-03
4.299130914376328959e-03
6.605032894199060547e-03
1.139940831923904295e-02
1.064974157608187220e-02
6.222803931021433400e-03
1.165347736514502769e-03
-3.790094557868102336e-03
-4.712644077382684669e-03
-1.035281586553663154e-03
3.521348262146133893e-03
4.946224639482485128e-03
2.420964572701678023e-03
2.544792936732800850e-03
-1.463991388021823430e-03
-8.843041708942933274e-03
-2.870447281768278886e-04
4.325317674870170562e-03
-9.094585760898846183e-03
-1.189091397143097681e-02
-5.505039466222628845e-03
-1.740088420437486787e-03
3.590675561329519528e-03
1.898975011040151661e-03
-5.321026370891634646e-03
-7.448921152351752582e-03
-5.134921762693280683e-03
-3.169075833381387701e-03
-2.951354686264851587e-03
-1.474664979823099055e-03
1.716162398612581987e-03
4.863559075748338095e-03
4.141799713766812843e-03
1.628325225423611546e-03
4.730398391923788803e-03
5.051436372054228865e-03
1.868893291379381287e-03
4.638535209752834079e-03
5.073715688802109443e-03
1.432638956344320109e-03
-9.217535234090374480e-04
-7.199278858111190973e-04
4.879755053853079491e-03
8.665199972976029771e-03
7.257597341631251246e-03
3.356545257776118434e-03
-1.485602181261449790e-03
-3.099950757841063529e-03
-6.079323789907353261e-03
-8.384213138808474866e-03
-4.076332538643847626e-03
-8.523376146588798868e-04
2.777905610113564380e-04
1.733819429047257082e-03
4.818478520232698996e-04
-4.139828661708431015e-03
-7.435554812124497460e-03
-3.914884171287665894e-03
-1.109864280442969314e-04
-2.399445410720032253e-03
-8.750197538861869545e-03
-1.013315124913388536e-02
1.129593338212222468e-03
9.796380230707984332e-03
1.244790024058640976e-02
1.746992856805853686e-02
8.701932136470597740e-03
-7.138695486795186215e-03
-8.851064422122216155e-03
-4.625319133084553926e-03
-7.406546481494838321e-04
6.179754823597105422e-04
3.351236653040855012e-05
1.078196448640185998e-03
-1.308717513168358325e-03
-1.902109461625882620e-03
1.356387342612040865e-03
2.021286046586273644e-03
4.404424483010705642e-04
-2.811289278066532709e-03
-3.107373601079943710e-03
-4.162252914938274415e-04
2.876325043975866240e-03
7.849418439812030912e-03
9.086901537396109910e-03
6.612928174541191952e-03
1.099392725137669129e-03
-6.203660915199186131e-03
-8.214060215049877670e-03
-7.293543728311751607e-03
-5.184753722967264458e-03
-2.801104916749721282e-03
-1.543951520810736772e-03
1.150312321851369680e-03
5.733843221006451173e-04
-1.166857013408371512e-03
1.268446334384289035e-03
3.142359547132119076e-03
1.190888746101883156e-03
-1.746372770749628775e-03
-2.275263418187273030e-03
-3.773786565533245128e-03
-1.112382675737868306e-03
4.980735553895130306e-03
2.397592703976753666e-03
3.365194282402837397e-03
7.356790839306480423e-03
2.760266759454157483e-03
-3.102446680125959914e-03
-7.784980247665431938e-03
7.532996253686626963e-04
1.211674019584236747e-02
8.091405589600203160e-03
7.056198261023470704e-03
3.247833541162879149e-03
-4.957918492973921627e-03
-6.432466757395859970e-03
-5.152691110547939768e-03
6.306452103922802373e-03
9.651445218322571643e-03
5.261120720317079627e-03
-9.995959427453010820e-05
-2.349212015306260254e-02
-1.969848959370548713e-02
-2.801804022337523511e-03
-1.890415591596120853e-02
-1.145892368955677906e-02
8.107785867466776528e-03
2.775913710394429992e-03
3.476382699281839114e-03
3.284355831173000739e-03
2.483863150786621253e-03
5.259354568586034964e-03
2.517818561998334381e-03
5.232692474057606263e-03
2.817516696301123474e-03
8.602920179699693939e-04
6.591978634844220669e-03
3.795956637473773491e-03
4.298359051160034403e-03
7.847660303902423418e-03
4.702813781913197516e-03
2.821481068612509586e-03
2.446975040773417733e-03
3.597855461293900277e-03
2.512596673549697540e-03
-2.757386489636129943e-03
-9.865340171810023026e-03
-1.559806077913199543e-02
-9.681984454862516826e-03
-7.092197734845889605e-04
-1.199965383042734786e-03
-3.631838057006125595e-03
-3.573079198362311224e-03
-2.565165471005210421e-03
-5.395910948459863889e-04
7.079704745925267766e-04
1.675532941100380002e-04
3.442015012241571130e-03
5.679310221870508858e-03
-1.735618375008997349e-03
-4.667057897745853848e-03
-4.266918329008283694e-04
4.729737971962755423e-03
1.218092814402847203e-02
8.838338071187393924e-03
2.661836184542530886e-03
2.478451791616877523e-03
-5.339914647766150040e-03
-7.643484341165103849e-03
-1.136989542410761413e-03
3.480547648902538975e-03
8.025432733880682665e-03
6.044437844630500467e-04
-5.847785876635754748e-03
1.153642431137510971e-03
-2.786190142729460216e-03
-7.098794076822480086e-03
9.555880480299160356e-04
3.540645080545560706e-04
-3.101367037884896448e-03
-7.339440601388389418e-04
-7.373243493337702749e-04
1.678728955483780845e-03
6.371256603076972530e-03
6.422343578724792543e-03
1.893215526785401066e-03
-2.956010648396568009e-03
-3.976533793791001657e-03
-5.918601549475970697e-03
-4.172616252508143386e-03
3.447924882202425909e-03
1.165030478214369421e-03
-3.996945327016868457e-03
-4.368143784041841546e-03
-1.063757241529810806e-02
-1.371972044601839184e-02
-8.406885636391477068e-03
-4.856900436971109186e-04
9.286627612643150176e-03
1.095228085847496820e-02
6.222529102921879433e-03
5.992848823600829301e-03
6.971754899926826780e-03
5.520670738622228575e-03
4.007805310673006119e-03
3.270268183064121807e-03
-1.184252726118061299e-03
-4.382767059795874935e-03
-4.854145291596720108e-04
1.579442153180918816e-03
3.823863082741235566e-03
6.149473211697302835e-03
2.461121740467947516e-03
-9.120949096013673298e-04
-3.768040176205745585e-03
-2.199687633878096796e-03
9.204733393106717849e-04
-3.238983354944162570e-03
-2.899516465555621817e-03
-2.071601915800171979e-03
-3.861515027091385818e-03
7.948555507848064543e-04
2.856460945434890868e-03
5.737598107774961702e-03
5.482502782850342052e-03
-5.867121576244929693e-03
-9.842307807815052489e-03
-8.170347293266492367e-03
-6.362453738636825000e-03
2.166946086333265133e-04
4.060123057891613062e-03
6.058837380274084868e-03
5.499461973035969266e-03
7.693431887547748545e-04
-3.159892836495183533e-03
-4.580737451071692674e-03
-7.330866273468585785e-04
2.587340774727602856e-03
2.272349255528582131e-03
6.628047864643323711e-04
-2.220465059629072105e-03
-2.037965623628808297e-04
1.599137558214929400e-03
-3.346737370084761792e-04
1.962364195231535227e-03
4.794437792276778389e-03
1.974353052099824760e-03
-4.340723657753459662e-03
-4.832180001461326008e-03
-1.923150959122189429e-03
-3.983137472223307642e-03
-1.360320869714298775e-03
4.173981113684877703e-03
4.440290884805374316e-03
2.453070975996130606e-03
7.924265938561790134e-04
4.289107635769898001e-03
3.623421846338987541e-03
-8.336257169654767360e-04
1.200422465040932446e-03
-3.734563113090346321e-03
-4.048156198983791920e-03
8.048413315798884360e-03
6.134141476461575995e-03
3.018630978655871414e-04
1.951341889656859349e-03
-2.213149754344930463e-03
-6.064511814863783080e-03
-5.118504800620932681e-03
-2.303844185946322346e-03
1.665013228161931532e-03
3.177396164689735673e-03
2.368910328765947738e-03
9.152569519135767516e-04
1.923982946026345665e-03
2.665375694818751355e-03
6.519023468448072092e-04
5.386942588854303892e-04
-2.479402805620384330e-04
-5.246430057404068321e-04
-3.636428498494252747e-04
-2.278190844331931444e-03
3.815835298647650507e-03
9.808536741985722507e-03
5.003508941167499231e-03
1.148450922176870751e-03
-1.499265651824009974e-03
-3.497987987254395567e-03
-2.542336924668645980e-03
-4.088054623299792675e-03
1.000905138700115913e-04
7.413707275861353141e-03
4.429324064096755789e-03
1.238290896295411118e-03
3.772469039644277961e-03
4.442117915105396608e-03
3.912395305591748890e-03
1.567622061635634599e-03
-2.451499469039968536e-03
5.021800092241922309e-04
4.940281898738962951e-03
1.050161343466795346e-03
6.212605028576244619e-04
5.576742603068598515e-03
4.809596764882359023e-03
6.690979769511084521e-05
-8.721985013660771974e-03
-1.342002650597829728e-02
-9.137874242890996201e-03
-1.052770021503063487e-02
-8.844656548295913231e-03
5.973558694617760569e-04
2.824136189732168330e-04
-2.362562655053773719e-03
-2.142618613267023749e-03
-8.074513901762732371e-03
-1.366602160907830904e-02
-1.082548727779540296e-02
-4.883996518469369691e-03
-4.260086293203359763e-03
-4.837214871148818283e-03
-3.907475301309547289e-03
-3.544105681087433932e-03
-3.819651055136515441e-03
-9.719520860358916645e-03
-9.831338224088576050e-03
-8.060978583402284708e-03
-1.750848603544920626e-02
-6.715130015909188607e-03
1.710623201381653372e-02
2.203868414248358332e-02
2.573582463918186111e-02
2.571039739968629736e-02
1.817579015140722079e-02
2.049267536656458263e-02
2.170593681910192030e-02
1.984209751856479478e-02
2.273291775241853552e-02
2.252573423023740418e-02
1.714822984407312137e-02
1.111575419558013568e-02
6.087740333585342847e-03
3.962252557636412181e-04
-1.553178206595280490e-04
6.796355058379078065e-03
1.140563615815307422e-02
6.913440058615513348e-03
-8.101809554188491719e-03
-1.917941878601784472e-02
-2.003579330935080505e-02
-2.324172892708026641e-02
-2.828025186887713621e-02
-4.328442960568549408e-02
-7.002195490478957396e-02
-8.231884836562611274e-02
-6.919154072904543096e-02
-3.548658139379599896e-02
-6.774691736148189501e-03
-8.112046338491550254e-03
-1.390361844438827571e-02
-1.891001226167710872e-03
1.448583919634638048e-02
1.861271837289601647e-02
9.821602390222743464e-03
1.302935696171249845e-02
3.501931465372688096e-02
6.088422325597658835e-02
8.160676694800608755e-02
7.700773810532515751e-02
6.154630207732462305e-02
6.616650162139786628e-02
6.444098040719115073e-02
4.274489841795273137e-02
2.823458654287517786e-02
2.725728902520365218e-02
8.940381400842353082e-03
-5.004704492073420302e-02
-7.723553009005870718e-02
-1.974658190475165123e-02
1.860954159690196563e-02
-1.631758596321835481e-02
-4.114559138726742171e-02
-1.693287548918843977e-02
8.707963238231331352e-03
-2.604216858968752893e-02
-1.016025626764181233e-01
-1.381672233167358099e-01
-1.343527824859237496e-01
-1.110685039467406571e-01
-6.283068093679536337e-02
-4.312809632572723456e-02
-8.155288545370946440e-02
-1.074550734002722302e-01
-5.139941263200894367e-02
7.975890569817710440e-02
1.962292033115587142e-01
2.019339672126034269e-01
1.258354794368028440e-01
7.883680674779106057e-02
8.454811246900961752e-02
8.229273906852055398e-02
6.503185747124501370e-02
6.149317456342618532e-02
3.867237563256663985e-02
5.310292398460513159e-03
1.849414229031220644e-02
1.826573849009802478e-02
-1.468008997968478155e-02
1.067186036924616926e-03
2.464199656908174288e-02
1.556426697645099666e-02
-3.151333391346289661e-03
-3.143467788654925182e-02
-2.087680841218331890e-02
-2.194738235590040776e-02
-1.050712741572042697e-01
-1.445288985722119612e-01
-8.511147548805955698e-02
-2.371209489860167177e-02
-1.595510156175736216e-02
-2.342222447353005041e-02
-6.630966903997940380e-04
-1.028977186280376731e-02
-5.359348763898544310e-02
-6.507768113899682627e-02
-7.734796555773847115e-02
-6.185129964755653464e-02
7.836236736386783044e-03
4.798168548992622073e-02
6.203336349429142832e-02
1.003838873004437998e-01
1.063540640572799706e-01
2.164720962594040080e-02
-4.758994490380621251e-02
-1.248196008664552090e-02
1.796945405639888832e-02
-1.825925088368232987e-02
-5.907538827168415385e-02
-4.298475943130886795e-02
2.036719326541769695e-02
3.166802898542558919e-02
1.133454382949808902e-02
3.841851690738812969e-02
5.759680454307409408e-02
4.598166194826281555e-02
3.985967514045235527e-02
5.803564083964762171e-02
9.835996489326981340e-02
1.128137550161703584e-01
8.335425352026984425e-02
3.079967363687009796e-02
-2.046373006142279682e-02
-4.252580469189626983e-02
-4.022940891559890347e-02
-4.367937542142286828e-02
-5.921462201432172584e-02
-6.507785731399484686e-02
-8.197648469546278682e-02
-8.476753631286244872e-02
-1.959128743627161148e-02
-4.454628923395083893e-03
-6.009726983561109598e-02
-5.443238845710453994e-02
-2.747679893914513338e-02
-8.455172145621815336e-03
2.459910250168948972e-02
2.569124155029074361e-02
1.779285217785445822e-02
1.055228815535971636e-02
-1.039169709711258672e-03
7.777789927937010447e-03
9.909154714067884562e-03
5.462006328084305536e-03
4.470021087741349146e-03
5.278962771296212553e-03
2.255997605330208738e-02
3.098941598930604266e-02
6.506568402426859965e-03
-2.707382434762262841e-02
-1.202405179886051074e-03
6.634690605906982952e-02
6.362334855619795893e-02
2.692387694556144795e-02
2.058122514735372111e-02
2.503392537076054754e-03
-1.705204144220472118e-02
-3.125688525283057406e-02
-5.440723566090659852e-02
-6.017509111108303860e-02
-4.930995718903850855e-02
-3.777403589551079494e-02
-2.603027546848206766e-02
-2.035349550196326098e-03
2.611310459221214200e-02
4.295997558329042731e-02
6.680697463438060868e-02
7.511383153660594614e-02
5.806150259051544998e-02
4.804588840349339335e-02
1.245329756438728203e-02
-4.150415948978332381e-02
-5.935314483341944114e-02
-6.164696674801438403e-02
-7.138398922315528083e-02
-6.937017532602386682e-02
-2.264338357146290434e-02
3.952928334767889101e-02
3.331307103782622792e-02
-9.149834701943929116e-03
-9.695821474527920730e-03
4.863556665469401588e-03
-1.074728534008893670e-02
-3.060247034075832748e-02
-3.368293604467578490e-03
3.783283759932958012e-02
3.469233138449778070e-02
1.915265294360733034e-02
2.728177800488645888e-02
4.166342838626560519e-02
2.965377273131920843e-02
3.904061117909815061e-03
8.049786872111828681e-03
1.089701222012150542e-02
-6.233602494189124064e-03
-1.020810961740333672e-02
-2.559711573937159881e-02
-4.441271533649430309e-02
-1.782152352122362213e-02
2.226051304281558355e-02
2.252485096883125731e-02
-4.799660923195537242e-03
-1.575125519964635026e-02
-1.182104748845960035e-02
-1.257718638225263294e-02
-1.906162780955338032e-02
-4.043450321652969359e-02
-4.214717030307917750e-02
-2.481198242479108404e-03
1.830734823361515953e-02
1.004192616112653189e-02
9.648400203797985117e-03
1.110482828027175434e-02
7.634271733173828706e-03
9.356529470066156720e-03
1.686603205438456932e-02
1.673633893111612508e-02
1.075708036852140483e-02
7.515990543499932730e-03
-4.695560418611399549e-03
-1.557472701626706237e-02
-1.240992309760582772e-02
-1.159106668652095523e-02
-1.307509938328004287e-02
-6.622513309407261975e-03
6.844128530105738489e-03
1.390334647407392293e-02
4.991060604025001311e-03
2.537224635005831588e-03
1.394023284883685182e-02
1.385127681867322214e-02
-8.581497690091993095e-04
-7.019015292163737624e-03
5.373806701425336285e-03
1.413260512759192261e-02
6.169956459004642332e-03
-9.356352792178800276e-04
-6.190226360394674018e-04
1.203143681860597549e-03
5.502784108250766137e-04
-2.305503010273813463e-03
-2.999936175904475044e-04
3.934757741240147051e-03
7.635929040331263136e-03
6.298030132241296507e-03
-5.806505535726579417e-03
-9.834048761647408085e-03
-7.922876125163260536e-03
-1.960084307409324864e-02
-2.386139790764398375e-02
-1.289406134906427755e-02
-6.643539026296860911e-03
-1.091844484979761880e-03
1.208072079130598220e-02
2.577032304976864877e-02
2.597648830107633297e-02
1.159790010608075309e-02
-1.095594232031396782e-03
-1.335136691518855681e-02
-2.573359308818382735e-02
-1.855525451829749886e-02
1.418117562339017137e-03
5.150916687090703085e-03
-8.922556955387472150e-03
-1.531774964080648282e-02
-4.743844699816195977e-03
3.054882210907855934e-03
2.195872724363634638e-04
-1.990357794292697043e-03
2.781220315492576988e-03
1.601958757925491666e-02
2.288831788591925986e-02
1.600607067045603862e-02
1.495903256846184415e-02
1.071975807436942318e-02
-6.126746470460131544e-03
-4.024606990764525126e-03
4.547282381548126140e-03
-1.415810238975558945e-02
-2.330780637448107151e-02
1.628967469180259576e-05
7.331092892209562298e-03
-1.194838963838281039e-02
-1.227041024603136438e-02
4.281643330689453159e-03
7.133816268126549898e-03
6.022232686875360168e-03
1.051831396705234928e-02
1.398454386764673256e-02
1.728040771801664377e-02
1.581566617226640159e-02
3.847478805447002593e-03
-1.288050382358295158e-02
-2.754642958351125742e-02
-3.928083221987049845e-02
-3.279354184552995405e-02
-4.558932219961149253e-04
2.128719261863830370e-02
2.249777834961765727e-02
2.880146436143558863e-02
2.933524743480419097e-02
1.457032609620544789e-02
8.608884028131076269e-03
1.901082284807599151e-02
2.822213813885426133e-03
-4.969995612795120865e-02
-6.348128511509457117e-02
-2.867834191702026483e-02
-4.091836286013022031e-03
3.111363224179466026e-03
-4.829553069704516782e-03
-1.553387666845693071e-02
-1.214647216075932443e-02
-7.294957947599774173e-03
3.750574888564129836e-03
1.490946030322126345e-02
1.198287241908905197e-02
8.579478007476267626e-03
1.088676967228977520e-02
1.949194182483750953e-02
2.992781622917319029e-02
3.441631741558213303e-02
2.418367830102602714e-02
-2.006171353570496401e-03
-1.257443484151081134e-02
-2.712063960739014620e-03
7.361847158556413364e-04
-2.977619022036916488e-03
-5.294349114548624335e-03
5.236317475356216077e-04
7.129323727914532380e-03
2.652628758586246093e-03
-6.739520018697852874e-03
-1.411035369192566516e-02
-1.214050530107339126e-02
-8.010018956081861943e-03
-9.055731088861679323e-03
-5.395755667808380118e-03
-5.257488183932214343e-03
-1.031315874650276347e-02
-1.237297173057608744e-02
-1.724764881895799601e-02
-1.878438527453049622e-02
-1.080064800326332661e-02
2.474484206818178354e-03
1.224502775558348848e-02
8.205801999435883426e-03
5.035400919123011413e-04
4.788131183335373083e-03
1.463550960956357810e-02
1.308169252201572298e-02
5.330073483335110059e-03
7.134818484726046864e-03
1.166030468301272778e-02
1.250970399091335360e-02
1.119985346661988429e-02
1.128976362595464356e-02
1.589469155125637287e-02
5.740256246849287543e-03
-1.416160120230220559e-02
-1.445229228243052715e-02
-1.309525730166895795e-02
-2.079171278713498258e-02
-1.203646725671852352e-02
1.315676740983589372e-03
2.304664787171305674e-03
5.408768868489768379e-03
8.432994778209650447e-03
9.133728035726745159e-03
1.193807631206202265e-02
3.173182727305299405e-03
-3.903714426395631445e-03
1.339643552401689449e-03
-7.745852421052685892e-03
-2.067072616303307006e-02
-1.817998667493221296e-02
-1.207703368022754881e-02
-3.568471860515476726e-03
-5.694991944544676790e-03
-1.865644892027277027e-02
-1.177113394449920414e-02
4.946146989459051374e-03
1.104200360878977195e-02
1.452628449784453685e-02
1.388525439195282055e-02
5.063720220549164722e-03
-5.449981181006007501e-03
-5.813213079384241602e-03
6.318085224362734315e-03
1.712665848920226497e-02
2.263133044877320768e-02
1.763729590797070285e-02
1.754170730703649760e-04
-8.716786299069322064e-03
-6.682468461436700050e-03
-2.631292392935414160e-03
6.378211578332876330e-03
8.798395480960443868e-03
5.820038891595455703e-04
-1.544310667831809078e-03
1.316997377157255711e-04
-8.574203850248946629e-03
-1.127445057168200739e-02
2.783693504737870267e-03
8.346663742784315651e-03
5.862020609861791180e-03
8.147672332887402006e-04
-8.961810226295595719e-03
1.186709127340177449e-03
-5.271043413802377993e-04
-3.393449905249971976e-02
-3.220164582100898398e-02
-4.655457665432252701e-03
2.600477919959875549e-03
5.177245817524028099e-03
5.213459806243395979e-03
6.244870521181757062e-03
1.209057512556333848e-02
1.045758456957497813e-02
5.581542956778692832e-03
-1.398105423505878551e-03
-5.232995743646418584e-03
-5.056121037820686913e-03
-7.483963310874101361e-03
-2.822436940381672921e-03
1.939355724833513985e-03
7.004259548290016346e-04
1.620257527460210872e-03
-4.893916094398990902e-04
-8.647802376457653685e-04
5.815592527379437500e-03
1.217950845966219754e-02
1.508509940017814348e-02
1.226884620933155548e-02
6.537278161979365350e-03
4.682382627241371380e-03
7.033013897304082017e-03
5.128235081895429759e-03
-3.733392075144688523e-03
-9.720373166056218289e-03
-1.020091381346714850e-02
-7.808878565742110277e-03
-5.367334485306720672e-03
-3.028227688641835485e-03
1.083175955930365053e-03
-1.184358303937099169e-03
-5.808424649159731577e-03
-4.109435889179498952e-03
-3.493511158579559565e-03
-1.876847169584965926e-03
2.110457889797238973e-03
2.230038670439660978e-03
1.080687144828792285e-03
-1.498986063074126763e-03
-4.763003081682366628e-03
-2.606923959259452826e-03
3.143154434712957905e-03
4.446495405669629794e-03
-2.493891972402347045e-04
-5.042770694369943726e-03
-5.214360635839245320e-03
-8.570770755799957466e-04
-6.480899468802956559e-04
-4.323343785908875629e-03
-3.079459637274898536e-05
5.521544737482446397e-03
5.019148335378031088e-03
1.114093174048323958e-03
-6.365267430566059342e-03
-5.339114843426541988e-03
2.758953445037994924e-03
2.549942109908894840e-03
1.325272805737821304e-04
-1.604948666705906767e-03
-2.578500600355806364e-03
4.798578741176848586e-03
1.053447735902189077e-02
7.428010741000314575e-03
5.123377050411743495e-03
4.421102468884689426e-03
6.966978952291204633e-04
-1.302442998543632121e-03
1.102420591588831747e-03
-1.351516317547927061e-04
-3.821194302276580048e-03
-1.367238927047806146e-03
-3.011691323787243045e-04
-4.350942252047026483e-03
-4.242702014962256366e-03
-9.184953223675127506e-04
1.537597709453652648e-03
4.810756871399760742e-03
6.886109775835809292e-03
3.137573708182106545e-03
-2.310308517059197608e-03
-5.277532067865874739e-04
3.913741099457915956e-03
4.524011710266548358e-03
3.097140144140516759e-03
-2.405110832177906246e-03
-8.373978606498402519e-03
-9.307945938536199906e-03
-5.908252550398788300e-03
-3.776653262518955725e-04
3.290402758963739509e-04
1.349641530605261174e-04
2.325169414931545643e-04
-7.209420497159421508e-03
-7.663408615123498170e-03
4.583844762184615231e-04
-1.019188301738807524e-04
-4.051541827610478930e-03
-3.463496251100957671e-03
1.780940898974402468e-03
5.537595289344539838e-03
2.820247977836321581e-03
1.849620556796736492e-03
1.212507928949431305e-03
-3.218138616216016309e-03
-9.613921161046796657e-03
-1.265525847801177509e-02
-5.737357429592053991e-03
-4.444986530946094111e-04
4.854365825048722292e-03
1.508823643816040519e-02
1.165767865778503942e-02
4.651617400521433979e-03
8.078701924066629403e-03
1.019915671040756353e-02
7.170999811218514187e-03
1.229976614567994777e-04
-2.526108063695051836e-03
-1.583493898722603552e-03
-2.952780716983209684e-03
3.089940878772279558e-03
6.919119558419371124e-03
2.766889756962548439e-03
2.442038837040080585e-03
-6.362170006577774458e-04
-6.722616896117092691e-03
-6.830173099870852187e-03
-2.976156746472474746e-03
-2.839496995318484913e-04
5.522487259305829815e-04
2.380976753635748785e-03
4.505550420299122096e-04
-3.177878421724748305e-03
-2.485223809003172125e-03
-4.458692383919764246e-03
-6.363239902806722310e-03
-3.320367318829549417e-03
-6.678881452873869926e-04
-4.464845634661102807e-04
-3.211952815468410369e-03
-5.849641594175543878e-03
-6.326968590506103739e-03
-5.088761447400360488e-03
-1.452648461085190605e-03
1.207452242615924013e-03
2.170736733592197338e-03
1.712670887709796417e-03
2.067759360194563589e-03
4.706470055934291845e-03
5.262876242240298666e-03
7.581922471521510692e-03
7.733644178648144477e-03
3.291124880545963057e-04
-1.605842503951401563e-03
4.748890977596218897e-04
9.283971577580829321e-04
4.081625068056919658e-03
4.223624838175696859e-03
1.792435451378191326e-03
-2.701721216698811483e-04
5.936770961515667718e-04
8.606138535626525060e-03
8.644013159047832934e-03
-1.085638124617346705e-03
-5.222965610132091104e-03
-8.512815900463733057e-03
-1.150525407095218805e-02
-9.426945090795760610e-03
-4.793732519737302009e-03
2.382024489146128063e-03
2.700808797971829094e-03
-2.917011288214767326e-03
-4.087920173775929505e-03
-6.271570845144434220e-03
-5.603680674211316756e-03
-6.983690811148582193e-04
-1.285229341235301446e-03
-8.084122221513165459e-04
3.152353671034925642e-03
6.659535828850139845e-03
7.499987113366626476e-03
4.528069822305021835e-03
8.137201553619931305e-03
1.285722546321267125e-02
1.153996133841463621e-02
8.303437919201489548e-03
-6.611665781255250673e-03
-1.687321812623018488e-02
-6.866974454311663457e-03
9.158305047698698555e-04
5.600325758277898552e-03
8.697050249114860257e-03
1.975255687566809890e-03
-4.225581131050312050e-03
-5.466750466044540888e-03
2.530225006366598750e-03
6.920193978629142831e-03
-3.303915105619503311e-03
-2.342194495726632186e-03
-7.086199514182731606e-03
-2.886211131631766236e-02
-1.970107483316049096e-02
5.095966988078547318e-03
7.988976596864193550e-03
6.409026810670173310e-03
4.505051170876149536e-03
2.104864193587362414e-03
2.137541862083502421e-03
-3.528380486138895863e-03
-2.211827417806728861e-03
7.966914447529704554e-03
9.124897191152430559e-03
4.004421072000092716e-03
2.907495200208990403e-03
2.246330828789710847e-03
-5.893973148982613840e-03
-1.062995495602679988e-02
-3.786534456920641334e-03
-4.075035358324732154e-03
-5.833502196681374270e-03
7.761286431190949318e-03
1.654023324619965582e-02
1.536973202767702787e-02
1.517240660108825669e-02
1.019993205918693323e-02
4.553890395141159918e-03
-5.555329643825152389e-03
-2.298523395352237986e-02
-2.626297156714918132e-02
-1.773641972317656357e-02
-9.835638847854526884e-03
-1.507569765052857273e-03
2.684323413173433145e-03
8.432656785606146288e-03
1.457598418471417988e-02
1.219413997680879325e-02
6.439994829245146608e-03
-7.471923345944778139e-04
-1.402770143094947365e-03
1.109103630507233184e-03
-3.433883308208380680e-03
1.239843368641082525e-03
9.599547533608913941e-03
8.036040317508562347e-03
4.480731200735261696e-03
-2.830818885759903928e-03
-7.939812013847948047e-03
-8.039108784309760905e-03
-6.741800705611356720e-03
-1.886809999369230741e-03
-3.681729025582173979e-04
6.400259814509246664e-03
8.937374657768417524e-03
-9.622314398741454652e-03
-1.740487522099094450e-02
-8.185469475201760658e-03
-3.327896703886028674e-04
5.907968735425213336e-03
3.126662302251422779e-03
-1.671161052800148586e-03
-1.725908201084092692e-03
1.383781478923317180e-03
7.639062643779509151e-03
5.498139907125717402e-03
1.780323089957062087e-03
1.633754803546314622e-03
-3.551292901582229610e-03
-7.708910444027767921e-03
-7.133524276583239412e-03
-4.554981081972102330e-06
5.756218322461630760e-03
3.338722944636212265e-03
4.696207410654775795e-03
5.136264881271315232e-03
1.248298823616115312e-03
1.134847680409731838e-03
1.968763942910705788e-03
2.610071897341434497e-03
-3.062830351402796511e-04
-4.344640681075605075e-03
-2.824319887507658125e-03
-2.019729061623183608e-03
-2.705355062902976230e-03
1.764453512073391097e-03
6.856794766596853961e-03
6.042316634796578200e-04
-8.353463790440704417e-03
-5.928612457881319436e-03
-6.124942420617057433e-04
5.619553382560989185e-03
9.070544285943712981e-03
1.540365850574232278e-03
-4.937444096706504817e-03
-6.149418828625496589e-03
-5.685853023092138706e-03
-2.790929794221325578e-03
1.435700550986248637e-03
4.617144089625974286e-03
2.132135161947891142e-03
1.215051856089066802e-03
8.587709124068627561e-04
-3.399293515270356610e-03
1.695988880894928668e-03
4.679528958821571258e-03
-4.782260970150837252e-03
-7.070781449237560287e-03
-4.645462933389586267e-04
6.095306448504593261e-04
-2.801301490549510265e-03
2.556962175748991178e-03
9.652604030281113079e-03
1.267768725568059821e-02
1.927685229984625950e-02
2.918500931152727060e-03
-2.660825006143497165e-02
-1.782777086531164498e-02
4.993550688075011276e-03
5.079547932289968544e-03
2.624951569164701197e-04
1.063845084764165417e-03
1.592901551714539805e-03
1.031823006335697230e-03
1.652102463360368648e-03
1.752071604409237947e-03
1.452787411067740482e-03
-1.045357619865019733e-04
-5.418148034550213619e-03
-7.296623957255264983e-03
-8.478608005492806188e-03
-8.531699105114462500e-03
7.365691106777457918e-04
7.249507671644539984e-03
8.928748764139153235e-03
5.132794765053250337e-03
-9.020796495656567202e-03
-1.198787873292540135e-02
-1.537237620552516816e-03
6.532989083840413241e-03
9.692865106354262364e-03
3.325602425105656391e-03
-2.316428008453953833e-03
2.135837891221271934e-03
6.219369850043341037e-03
6.386139322164158076e-03
5.251935839261511960e-03
3.272630918620684191e-03
-2.669884608683196700e-03
-7.797722430389650988e-03
-5.087649356367474236e-03
-3.672289388062411654e-03
-5.818309269355913032e-04
7.085947792058097487e-03
5.786714293726799921e-03
1.915941906215880980e-03
2.815310020262974363e-04
-3.063047926116806673e-03
-8.579818334479251060e-04
-1.194935967718308099e-03
-5.644443085150802931e-03
-1.753295164112339370e-03
1.029771438493674819e-03
-1.321372064472193554e-03
-5.350036159589124972e-06
3.413169730724186640e-03
5.585371817934186092e-03
1.762786892470270556e-03
-5.579331270648192100e-03
-5.415178537182221107e-03
-1.835036707183230770e-03
-2.766804037544951834e-03
-1.355392054728289143e-03
3.180772921178022863e-03
2.893477694225640934e-04
-4.473028442535445341e-03
-1.636740947304861100e-03
8.235755935542361447e-04
-1.056340622206830993e-03
-5.087774712682281014e-03
-7.262152338348442163e-03
-2.805450822740817446e-03
1.588041394755891275e-03
5.265582679581369899e-03
8.802931881776028880e-03
7.001166679441415096e-03
5.560075766611974682e-03
1.409403221787087872e-03
-6.955512050605685941e-03
-6.281607061117627268e-03
9.362148400551949939e-04
3.218389228716215123e-03
1.688523760842676556e-03
4.690376775566726733e-03
7.569439187277952549e-03
5.332419871852666152e-03
4.303354812612799653e-03
-1.610404967309964292e-03
-2.605668494716638101e-03
6.237127030418851761e-03
7.170452591496732139e-04
-3.105286859010258395e-03
2.126845405474238858e-03
-1.072914381341901315e-03
2.682126217492571216e-03
4.057118618217098356e-03
-1.294559767107891779e-03
1.251720843045911078e-03
4.126194401513300167e-05
2.392826809631313188e-03
-5.874134564615575253e-03
-2.989650441643418657e-02
-2.170772113908032291e-02
1.330843465399165126e-03
4.482735641116942366e-03
1.438547037460381458e-03
-3.735451409506563951e-03
-3.801980746233655974e-03
9.160551043853540224e-04
4.370975304512067505e-03
6.726943711603802778e-03
6.475977504761675115e-04
-2.472356224174937066e-03
-7.015855596058421465e-04
-7.809109983990880155e-04
6.980261940264157090e-03
1.087924312341067602e-02
3.316880476887044526e-03
-2.045125769700466192e-03
-2.577819852574170408e-03
-1.581222494235712001e-03
2.748675778696455310e-03
9.016555907984944926e-03
3.553945851450625477e-03
-6.815058729699544418e-03
-2.610730599310454470e-03
4.237907038572557433e-03
5.849685045028072718e-03
7.076362407946470111e-03
6.548772056638296930e-03
5.028407605213070994e-03
-1.999280059697549836e-03
-7.751035001976480480e-03
-7.055627069355140633e-03
-5.911252342891241095e-03
2.884393636282996630e-03
7.371997917763231656e-03
-2.359551436222649679e-03
-3.504658976252186201e-03
1.239109737338173114e-03
-1.987223946930805236e-03
-3.813768031201732536e-03
-5.029741471809556601e-03
-4.786995275771544975e-03
3.371597861852495236e-03
-5.316730396437502814e-04
-1.410853796813846088e-02
-4.491221144361559267e-03
1.107926979354587928e-02
6.990537570399129631e-03
1.544645925932948026e-03
2.196237355165678307e-03
2.708903556267707163e-03
-5.969579447882796853e-03
-1.944119929107231137e-02
-9.159646620042167370e-03
9.685131655756806096e-03
8.248830374906554116e-03
2.417785934071476836e-03
-4.693804311582812599e-04
-3.239038570349440059e-03
-2.551669805621749332e-03
5.568640663873447995e-05
5.880922269451018154e-03
6.762473725525106755e-03
8.234125022342633294e-04
1.620018617531323636e-04
3.126619150086307284e-03
3.718720235109940642e-03
1.000722876745689400e-03
2.627063591202914760e-05
3.427589210622102641e-03
2.459813137168194268e-03
-7.456571425238224353e-04
-3.221846711846434444e-04
2.675752894394956959e-03
7.859107461098713623e-03
6.583506400795024159e-03
-2.799748142018689250e-03
-9.247486289293286449e-03
-8.304791217520925486e-03
-3.035662557024074604e-03
4.539600450544728993e-04
5.287021161886995655e-05
-2.575995379301808039e-03
-1.315311955987128432e-03
4.808834738922867884e-03
-5.227265104782165511e-05
-8.580920350875057001e-03
-3.186183871933217452e-03
1.330962988046463860e-03
9.369342492129214021e-04
1.146242671899040753e-03
-1.749621593715725270e-03
1.922345651319207335e-03
7.185801881240567839e-03
4.159895591648123982e-03
1.355758892330486505e-03
-3.155328216644046665e-03
-8.018408611168766076e-03
-6.896417289440999986e-03
-5.171417068213729137e-03
-2.320279772913948300e-03
1.449258567268609833e-03
1.977782650676550812e-03
2.156457407081526986e-03
1.724450933353504928e-03
-6.112253203355812116e-05
8.088993308054173150e-04
1.907560196598581583e-03
1.651155477456881827e-03
3.389757363276375314e-03
1.334203255866282106e-03
-1.658357130351203687e-04
7.815250583248119221e-03
8.416519062845448373e-03
3.848761852148720642e-04
-1.305992915848876081e-03
-3.775377172224181864e-03
-5.571332887741608543e-03
6.275285943008544320e-04
8.512169794958283214e-03
7.804336089295838344e-03
-4.112455828247525355e-03
-7.553108485850383580e-03
-7.449518717594304749e-04
-5.382825244773375983e-04
-7.921544358311453623e-04
-1.379167604499396981e-04
-3.769908358889332732e-04
-1.071551482207491399e-03
-5.793132529463931348e-03
-2.495674315352508672e-03
2.638827090951102392e-03
-2.114601113226988356e-03
-3.398365741335347689e-03
-8.006414177266306777e-04
5.851449537187800639e-04
-1.219790481158173527e-03
-6.039396045770425471e-03
-4.544931570848038428e-03
-6.139497276886639104e-04
3.671547788306083436e-03
6.997775004147566320e-03
3.060987992390696785e-03
3.029928776872612989e-03
3.878917881311931375e-03
-1.244414191632981295e-03
2.692419620567756402e-04
3.608508544806479732e-03
3.258467013337863934e-03
2.413399781480177978e-03
-2.128243950747360329e-03
-2.132312988944726380e-03
2.797586728176890657e-03
3.414379684341161802e-03
4.977094974275265982e-03
3.405262628230521470e-03
-1.543830909864074433e-03
4.343243117244838941e-03
6.350871947168979653e-03
-5.070520929493302874e-03
-7.976793287374129085e-03
-1.428176569073312963e-03
1.964939107426103351e-03
1.457677870811139014e-03
-1.954177418177692211e-03
-5.493368584060414825e-03
-7.452750894654277050e-03
-7.013184024128089715e-03
-3.458693055048405601e-03
-5.171188845773936520e-04
-3.978838185039456146e-03
-9.795179398971454177e-03
-7.819678530067767502e-03
-5.598162441021382017e-03
-6.485881100237416222e-03
-6.553242165588757471e-04
3.667806639837878011e-03
1.248896832633718691e-03
2.333268351820325798e-03
1.096258384214005184e-02
2.049818386439767465e-02
2.145889965592502613e-02
1.503473475959873733e-02
7.585290882252499964e-03
3.604818541007666268e-03
7.087594610299995448e-04
-2.472911958121660515e-03
-1.872812397054864639e-03
-7.297362939084773431e-03
-1.247290604897888927e-02
-1.049523504410397601e-02
-1.487403001731255232e-02
-1.116658946087691236e-02
-3.934661768948034474e-03
-8.606664692607799219e-03
-7.343115729186508803e-03
-1.610279657500469919e-03
9.016793983296906081e-03
1.649565949957266728e-02
1.096095540876246277e-02
1.451954731920134661e-02
1.962515505895066556e-02
2.350476907048958466e-02
1.579653638504222024e-02
-1.382378933053368328e-02
-1.550395611313653069e-02
-1.315386081439869417e-02
-2.938036935866384161e-02
-1.112323165553743068e-02
6.137033469575656208e-03
-3.109967743797441113e-03
-4.994374585885147030e-03
2.405415343584218092e-03
