-4.812987860714997880e-03
-7.477101010948935221e-03
-3.080081377822446211e-03
3.757197878226144899e-03
5.302024296961148180e-03
-2.869142768308136603e-03
-6.712907233157339518e-03
9.311196139706983928e-04
3.248820095122313158e-03
1.422501971047065951e-04
6.363960247623705498e-03
1.317452969198901376e-02
1.079592542310277639e-02
8.586076099333591477e-03
7.470256651285193082e-03
2.873901949609899281e-03
-8.453254084392831155e-04
-2.270175950497570552e-03
-1.820094773147520146e-03
-1.366031351818703700e-03
-3.960316681085280371e-03
-4.716725622431623341e-03
-2.115883694345629430e-03
-1.017498871676827434e-03
-3.840512125556648330e-03
-8.457953518924924557e-03
-7.810702133612951528e-03
-5.959354445156030133e-03
-6.766156347977270863e-03
-7.260187257876714317e-04
4.848366759942685823e-03
3.450222304046781426e-03
3.456285825843389246e-03
-7.075966724311038604e-04
-3.594181295534665862e-03
2.943628105271115826e-03
3.348329667150223669e-03
1.550875502787399341e-03
4.785175003207166322e-03
1.820740863557140888e-03
-7.760913627133330219e-04
1.517669604716329231e-03
2.753925778021528662e-03
3.505108822448396114e-03
8.550603028449663785e-04
-1.994775253436909760e-03
-4.079314269638411108e-03
-6.572956434019543853e-03
-9.900628700300337977e-04
3.887775348816122686e-03
2.771610243829435247e-03
4.917912823542494594e-03
1.044975175167671671e-03
-7.483263270249761352e-03
-5.951392349739324968e-03
-9.482049992114363742e-04
9.563835641713774155e-05
9.937546568785824656e-04
2.230503602191506295e-03
-1.244718945198589229e-04
-4.414717490782016883e-03
-3.941117406948383903e-03
6.628279704814073149e-05
3.136286134696154686e-03
4.746581727793519612e-03
3.869988286932348094e-03
-5.771838942574113868e-04
-3.580603613992802258e-03
3.605622397495811173e-04
4.437429188540086000e-03
5.516091848767289835e-03
6.278700160156948373e-03
2.919467976753150284e-04
-6.856130380446657895e-03
-5.740726449638497257e-03
-2.488649453091670415e-03
-7.685365811708056013e-04
-7.724415283479742439e-05
2.808137779078518324e-03
5.747736957199260643e-03
2.393474880921916178e-03
-2.222135521687869527e-04
-1.517775838751312181e-03
-1.829408163208637826e-03
3.198091775592978424e-03
1.222910274579069997e-03
-5.017442058676693274e-03
-4.455056786802924669e-03
-5.537190741196048975e-03
-4.755941968904223854e-03
3.499283063859761397e-03
6.049663901126110625e-03
-1.406243981959795107e-03
-8.706675481289298871e-03
-9.817238758529044096e-03
-4.016616325494416773e-03
4.505673971736068317e-03
5.813702535859316574e-03
1.541112348938025256e-03
6.799102265446075504e-04
9.379364149059845690e-04
1.362005845684714431e-03
4.618389685413989976e-03
7.631944991527491937e-03
6.768394204499727541e-03
2.761777771444972121e-03
7.428556644589901642e-04
-1.358310322505797835e-03
-5.643290062665285746e-03
-4.866728799154492434e-03
-3.118522562070332317e-04
2.387022652733676933e-03
2.372846475639277329e-04
-5.135370640340901176e-03
-4.110807184618120447e-03
-1.209432304521100424e-04
3.160774650664927520e-04
-1.433483076389100276e-03
-8.494328489535451013e-03
-8.294271134332623779e-03
2.571412529963178293e-03
2.320580265038658593e-03
-2.121312684313328179e-05
4.821653536141928993e-03
1.257277330388872948e-03
-4.782318875504457047e-04
2.002464888379858633e-03
-2.862405994442009799e-03
-2.225117306481060563e-03
4.351483570608766574e-03
1.068652438327193435e-02
1.485906385755346795e-02
7.968746647332089483e-03
1.698788617980962097e-03
1.178948082713545840e-03
6.354218367359497875e-04
3.351770380145788555e-03
3.520911609046871037e-04
-3.939066040628030202e-03
-3.365253241561371941e-03
-2.376127192479349746e-03
-1.243238648312964970e-04
-1.407365071266527927e-02
-2.357711958496639185e-02
-3.763076935132309009e-03
-1.183955601003193166e-03
-1.227963495725335752e-02
-3.535515409402925982e-03
7.197443521946450019e-04
1.304997347841747174e-03
6.085971904791408378e-03
2.909109035322794169e-03
2.003628768893634879e-03
3.509444332841301414e-03
2.122467754168649683e-04
-2.521726509735415511e-03
-1.100291590907819840e-03
3.483669662824489307e-03
4.384341175027675445e-03
3.677052506647299733e-03
4.401427950983635012e-03
3.122682435615986639e-04
-3.458200944291499410e-03
-8.107848872938351343e-04
4.164298252797613877e-03
6.944515561886019546e-03
5.155307180206031986e-03
1.919800085985186571e-03
1.704735677562548143e-03
2.967542632498585721e-03
1.545447979140724586e-03
-7.606608493978471138e-04
-2.136048843763449067e-03
-6.550898809977198471e-03
-7.905603733718668050e-03
-1.614973093494094210e-03
3.847115277960327733e-04
-5.980564066924143590e-04
4.443795105715898225e-03
5.904121573448752047e-03
2.063614111073669378e-04
-4.212930132797112863e-03
-4.020873747078660548e-03
1.537712219409454253e-03
4.804321469289918843e-03
9.437279249956568921e-04
-2.606685187080746806e-03
-4.498159820675536047e-03
-4.325454396398455137e-03
-2.415677819913708297e-03
-2.349914088781913067e-03
-1.101948722565415867e-03
-2.583094946498547262e-03
-6.746032653349910528e-03
-6.734011306960904428e-03
-6.982149826586612519e-03
-2.230028353115549606e-03
7.055193847039732159e-03
5.696321613363052039e-03
1.614427800514672655e-03
1.030982043987698632e-03
-2.723988752531056670e-03
-5.453935660883943957e-04
7.699591677669641310e-03
8.827316007993732394e-03
4.088203051544842502e-03
-5.745775645079220540e-05
-1.821229496693514065e-04
2.056293575415197531e-03
-1.599371810697237733e-04
2.067642289727670418e-03
1.094202929035435236e-02
8.063046720970013653e-03
-8.653055726673561593e-04
-4.172879351111195671e-03
-6.681219394301510239e-03
-4.509245350065141204e-03
-1.119252137292087472e-03
-9.705930956752425315e-04
6.895262044209189787e-04
-2.211622165439213004e-03
-5.914059918444477745e-03
-3.148386703226388993e-03
5.613753457215877083e-05
3.239090298541035234e-03
1.511665949841886495e-03
-6.657275593036526828e-03
-9.614356184675244832e-03
-8.440977218510699667e-03
-6.852655690812110671e-03
-3.465059319314598135e-03
-1.470928730702541478e-03
2.308182401243231551e-03
3.919835215350799679e-03
-3.361064881542446224e-03
-3.501321052576293960e-03
5.969105635983065414e-03
9.990015375520851920e-03
1.242223266555671050e-02
1.094699767331617016e-02
3.472852939039052910e-03
2.651449493199040802e-03
3.831593687539823143e-03
4.220618682946611355e-03
4.989843400921934423e-03
-1.410424370460144948e-03
-4.387736849742468817e-03
-2.313703832874075984e-03
-5.691308871145152500e-03
-3.618613978212864568e-03
3.957163159664293592e-03
4.468961942395826767e-03
1.751854462344371944e-03
-2.097536909859850328e-03
-7.510792986840844794e-03
-6.911737996422799568e-03
-4.225012840754322277e-03
-4.622075793772517129e-03
-1.791795348979186150e-03
-9.195061903602470442e-04
-2.135922950494455880e-03
2.344443504102667686e-04
-2.023261640043004864e-03
-1.593795579532918897e-03
3.104869091777415647e-03
-1.254733823487640555e-03
-6.631703920147215443e-03
-8.757727195877244852e-03
-3.650506129553667684e-03
8.499944710855980579e-03
8.543748841240227099e-03
5.272828027453951676e-03
6.382555521248630889e-03
-1.487322752913185480e-04
-4.907033037942752987e-03
-4.319589467708257954e-03
-3.965632893679485634e-03
-1.161452524948037614e-03
3.254212267228483082e-03
5.783675177500464254e-03
3.308025962049768003e-03
1.299605518779877247e-03
1.932958163053314369e-03
3.675981794532186611e-03
8.568363429696442338e-03
7.024538603243735656e-03
1.877036184082106225e-03
9.989062570191073118e-04
-3.569290183187094536e-03
-5.549080593068976379e-03
-4.307317995678644528e-04
3.319006224145178759e-03
4.305552068364427651e-03
1.553456764925967119e-03
-3.253714800631312114e-03
-5.821648655147507873e-03
-3.664889552388221269e-03
4.200888274496647696e-04
-2.286225671497967710e-03
-1.031099014839766646e-02
-1.420798413176092671e-02
-1.010174598854128407e-02
-5.805977005406708427e-03
-6.205123644673867130e-03
-4.134562656840485260e-04
1.013043644274602521e-02
1.251275978718187354e-02
5.815211606803054670e-03
-1.782141924276811553e-04
3.868144677390512615e-03
6.658647464596049309e-03
3.455966915977754569e-03
4.451046471657711320e-03
-1.451240704442307455e-04
-5.707281229052848549e-03
-1.559423158683851318e-03
-3.423008764988066770e-03
-3.685158707288444836e-03
5.706664565652119943e-03
5.791355618261996054e-03
7.489765522093661714e-04
-5.833814829590294347e-04
-1.474822316436786261e-03
1.729430646881819711e-03
2.015372191665983515e-03
-3.621044319487823696e-03
-4.453408175155348404e-03
-3.319608509038415520e-03
-3.970061338093037497e-03
-5.427296767172120392e-04
2.830452392349460874e-03
4.576643497191323299e-04
1.755973714504332952e-03
6.461686625309994228e-03
1.379932170330754005e-03
-3.120023658382934956e-03
-1.583565372328529710e-04
-1.727529809850502631e-03
-1.551329506708206372e-03
-4.904174201054812632e-04
-4.037901300716881074e-03
-1.477383810582901446e-03
1.360826330181322480e-03
2.741339472076757648e-03
4.508657853414831107e-03
-2.590616344129651437e-03
-4.467623090523311497e-03
-3.843296616031183048e-04
-3.697944617459517861e-03
-1.081766771500121231e-03
2.352532320560109334e-03
-8.151964721038261041e-04
6.260661453308224121e-03
1.042511784627055474e-02
-2.509965782168959228e-03
-8.275460851429126963e-03
-3.500423475472411346e-03
-3.635479643574542671e-03
2.355128857719711831e-03
9.758520218948124950e-03
7.490224411831569035e-03
1.066448364361732674e-02
8.843338609323079039e-03
4.197877592784856823e-03
9.783065991890237123e-03
-1.104236570506149720e-02
-3.640317577476392258e-02
-1.910806042299495119e-02
-2.902432338497400611e-03
-3.018881074976412400e-03
4.313800906170841935e-03
5.920349974509527859e-03
4.652055740041413125e-03
3.590438011077020861e-03
-2.679343722644269774e-03
-2.841032883643807277e-03
-2.034184171800341393e-03
-3.033166472900398537e-04
6.247000071368575928e-03
3.587379045425635390e-03
1.834068191734102883e-03
5.229708737874835464e-03
-2.285267381157692762e-03
-4.651691000338082325e-03
2.605933799453141655e-03
1.245018546439525435e-03
6.786019588192809468e-04
2.706313907161928597e-03
-1.761268648620262830e-03
-2.140253541872185090e-03
2.144656453471728043e-03
4.007782468042130758e-03
5.853630635722355258e-03
3.557970790425526390e-03
-3.710149263355391139e-03
-6.314970794210290027e-03
-4.990979893046302261e-03
-3.254014479543451341e-03
1.746012872281574139e-03
4.277093617085152982e-03
8.820839825994476399e-04
-3.847821841262036996e-03
-3.408764178769510371e-03
5.029715603147990460e-03
6.553567168301852215e-03
2.103473874885632925e-03
1.517285504839274712e-03
-7.296661410019111837e-03
-1.121247177022261128e-02
-1.894856716337368647e-03
2.346724169912774507e-03
5.407294088693469225e-03
5.794050390271348466e-03
2.309772166063040789e-03
-7.835872961041597234e-06
-3.446646393500380325e-04
1.016706564345443674e-02
2.335700719192781299e-03
-2.388274849141707595e-02
-1.768119058245737688e-02
1.237317861309300722e-03
6.824118616484334612e-03
9.743349832330036597e-03
5.125580991715401880e-03
4.549856240340967306e-03
7.494779804408594447e-03
6.446827652057860424e-04
-5.993407246579902405e-03
-5.860828431904673702e-03
1.917963978771688224e-03
5.046687041023428799e-03
-2.197793984701298768e-03
-4.024717070587421029e-03
-3.570989438975624188e-03
-6.785347560665040169e-03
-6.878948493236345177e-03
-6.391308780399088292e-03
-9.236433855483162231e-03
-8.584740924481738117e-03
1.167105943055028126e-04
5.961968140795076768e-03
4.024133624399209470e-03
2.676109401221569723e-03
4.627816763328251176e-03
8.853009243989745300e-03
1.284877822161992547e-02
1.166775391506253562e-02
4.158561243092645694e-03
-1.988617457236215285e-03
-1.252002633093505677e-03
1.208901044853211712e-03
2.709253358076238374e-03
1.313577614089823714e-03
-2.184688299250434063e-03
-3.649545414850100152e-03
-4.360640030794055502e-03
-1.787901550895797022e-03
1.443095818397584868e-03
2.683933209659873989e-03
5.157044580965567705e-03
2.051048559668997105e-03
-4.335605984953121855e-03
-6.771729620927440310e-03
-4.249212687353694402e-03
7.862030877348729361e-04
-2.796835100131392447e-03
-6.576499363055991060e-03
-3.474113326448177979e-03
-4.799262494762203748e-03
-4.479785211832014620e-03
-1.007842967310842216e-03
3.127741076405559251e-03
9.438674557076545679e-03
6.918896088018273126e-03
5.952291977168120687e-04
1.121978979479876367e-03
2.775264677722904649e-03
-5.241386026694613755e-04
-3.931612350931404723e-03
3.909030751391319035e-04
2.267833868026081917e-03
-1.400818262427724588e-03
-2.088749081679412353e-03
-2.305284797514123209e-03
6.821537212749585006e-04
1.314637052362015125e-03
-4.758327387980799093e-03
-4.437602106949609451e-03
-2.716452353792734968e-03
-5.022570253257788511e-03
-2.884160083755445483e-03
2.258449879085233473e-03
6.893049310989047065e-03
7.716317052233069747e-03
2.167334426188448609e-03
-2.089374797559655217e-03
5.629219744399387593e-04
3.795021678784849493e-03
4.101312218148387562e-03
4.189131373090930130e-03
2.616041353247523620e-03
1.085890338141075415e-03
-3.006175870093361980e-04
-2.485446089456273648e-03
2.842925857891216994e-04
3.378547589324821989e-03
8.925932362161114603e-04
-5.280053273994671399e-03
-8.646151123617915740e-03
-2.452606861273624438e-03
1.182771293879147792e-03
2.623443015726417715e-04
4.516596385550609126e-03
3.286807715669515934e-03
-2.882267201592775448e-03
-3.869872554516720631e-03
-2.536957224215254710e-03
-2.669852295958015376e-03
-3.998718782007911615e-03
-2.045077644967219568e-03
-2.532818237667600492e-04
-8.295842407752294706e-04
-3.683573380500740173e-03
-9.219405784518221181e-03
-2.141427268930602180e-03
6.946471104147254258e-03
2.280573388445732760e-03
1.832700152895951800e-03
1.043409410822779358e-03
-1.805391764477247722e-03
4.412158703392904044e-03
7.925119856146153538e-03
1.097726433152393551e-02
1.105079187692335936e-02
2.733931438940353457e-03
-4.172144191805089415e-04
-3.410919032639120677e-03
-5.863392093480733827e-03
-1.691557305806915597e-03
1.664937533341017848e-03
4.266367473616862818e-03
2.648974460553052412e-03
-4.344885299411403593e-04
-5.509681524652856096e-04
1.009749620918517447e-03
7.453715562715164042e-03
6.100078553273043797e-03
-6.033008703183014498e-04
-2.453269183267243071e-03
-6.786794282221955514e-03
-5.831342246627343323e-03
-1.358545116778586519e-02
-2.994879510521343546e-02
-1.671734593919407125e-02
1.394025956648641939e-03
-4.785773149585591203e-04
7.307290429532246933e-04
1.596987722052911618e-03
6.161711074364243333e-04
2.201713081515861876e-03
2.293173939467911364e-03
5.590266535297446979e-03
4.190335154728080068e-03
1.639530795297383658e-03
9.441943920378514238e-03
1.212333067980162112e-02
5.246343228346338899e-03
1.242743426604677077e-03
2.303276682174870184e-04
5.240092278511836437e-05
1.346855891690197041e-03
3.571152118820467101e-03
8.502773254680469350e-03
9.875544225089218087e-03
1.553144219834303981e-03
-4.222035567762880831e-03
-4.268399601550849909e-03
-5.197027265006573873e-03
-3.076913111343434169e-03
-1.317676879348941800e-03
-4.445475603678151902e-04
9.177042086902539690e-04
-2.323771256173065916e-03
-1.339340978434094224e-03
4.731646110091020769e-04
-3.023868116175294080e-03
-4.189162625522998597e-04
-2.555347632934910559e-03
-1.097377088646946629e-02
-6.535037992251735255e-03
7.562410285001342717e-04
2.583796169151111270e-03
4.941509006124748457e-03
2.764022619380768989e-03
-1.331944059112720197e-03
-2.199844869153149470e-03
-2.615396561349588641e-03
-2.597589028537397571e-04
3.080525084016209978e-03
2.981721434030806632e-03
1.446336450281310174e-03
1.082670922820488360e-04
1.380590240847019744e-03
-1.032203372831333281e-03
-9.884854181913791532e-03
-6.044166180681933079e-03
5.395572755895907888e-03
1.072714701238310911e-03
-7.472879976360400495e-03
-6.412709871385619854e-03
-1.282661225305892260e-04
7.872701423889193889e-03
1.118112659442457683e-02
8.608233510232545307e-03
2.621237716830677501e-03
-3.339797460813769773e-03
-4.340551810571461298e-03
-5.213656054663833028e-03
-4.608741054778409639e-03
2.665652576372107719e-03
8.196892944244625959e-03
7.583134439577464761e-03
2.761966263919124216e-03
-2.457711906846706679e-03
1.674304472357998413e-04
8.073925096085354108e-03
9.509636644098751895e-03
-2.870863044393917552e-04
-1.007154694591017377e-02
-6.561762979166167915e-03
-1.373955537470531569e-04
4.904998722512196379e-04
3.374381744480822558e-03
3.191918712363888983e-03
-1.959877239639499710e-03
-3.012267741491632747e-03
-4.065313838654216472e-03
-4.498022541234029774e-03
-1.044471348951710350e-03
-6.237037986877256310e-04
-3.860890258210722403e-03
-8.255301257960468569e-03
-1.117376890339977571e-02
-1.045469298123173109e-02
-7.813828952944634754e-03
-2.026439697754959818e-03
4.601243019040500599e-03
7.198450025529889301e-03
8.033589556411258048e-03
1.043245740861950197e-02
9.535215502025483347e-03
3.213325337786182654e-03
2.475866720512112391e-03
3.857550586647120593e-03
-2.049380728815419425e-03
-2.967603278806170072e-03
-2.435302419379188578e-04
-2.497763090472181462e-03
2.990217160044254634e-04
4.624430786382891650e-03
2.629995361184198424e-03
2.395552298622820493e-03
2.165567587117231754e-03
-2.089953264011091931e-03
1.599493550955212613e-04
6.041735827328275667e-03
3.151157156246855214e-03
-1.051018920777855789e-03
-1.811724253511851502e-03
-3.700118340215102688e-03
-4.632272833507434726e-03
-6.512976165356643490e-03
-5.334376847405941473e-03
2.665089585852145268e-03
6.183747520074298586e-03
1.615765325111833415e-03
-3.710168394194003193e-03
-3.661759166555989594e-03
-1.256744627731128973e-03
2.217256465383661752e-04
3.390712303027878984e-03
2.018547377962420786e-03
-1.537597359254168437e-03
-3.440441927991252447e-04
8.267352166273645841e-04
1.795460161826754279e-03
-1.259593071981717719e-03
-6.242141380920610688e-03
-7.252190412027579962e-03
-1.008648506878311729e-02
-8.738554345185955280e-03
-2.036606741011021907e-03
5.212704056681464505e-03
1.120875737423236013e-02
4.162469543104106197e-03
-4.204842558090597475e-03
-2.577793997822360860e-03
-3.256594716745183846e-03
-1.230420064705681216e-03
6.320682167031621383e-03
9.918908185057541058e-03
7.328605072439549339e-03
2.532345952446748722e-03
1.847514569949597471e-03
4.431669563181837163e-03
8.134761463428908865e-03
6.266101029754235149e-03
-1.712728627817126145e-03
-3.914032271082046148e-03
-3.670962522217464854e-03
-7.298540073032814017e-04
5.428102466950137164e-03
4.449593689205017660e-03
2.752456091005806536e-03
-5.415224386097668976e-04
-6.771372260274805509e-03
-4.959376647354263659e-03
-3.409138534563085129e-03
-5.596556360858317980e-03
-4.804588896808264196e-03
-3.625375796545590029e-03
-2.806199729574133852e-03
-4.519410716710666256e-03
-6.393422349772081258e-03
-4.214902394449325171e-03
-2.612743305243482670e-04
5.958330226703082051e-03
8.031553578254788106e-03
2.844699205133913340e-03
-1.464028368509060537e-03
-3.439781997558137051e-03
-2.002665240638546677e-03
1.444209075168580245e-03
7.412645146898474329e-04
-1.876871550224128203e-03
-2.167132717429038485e-03
3.655873782502672923e-03
1.033747485294234450e-02
6.474900696095852413e-03
9.732726976568445822e-04
4.055935483478105628e-04
-1.162303753835491806e-03
-1.401275291948413148e-03
-4.014221463430520630e-03
-4.615696559079437988e-03
3.627932823963664604e-03
5.454881215789185098e-03
1.161349962922398932e-04
-6.054275372160447012e-03
-1.109485722064935086e-02
-5.245478948589957051e-03
2.303901590678521412e-03
7.321243210181059904e-03
9.789322321481679426e-03
-2.566054322150773410e-03
-1.031506876886093341e-02
-4.190709470017165740e-03
-3.405992474967035367e-03
-5.881168434469057071e-04
5.822003096938866730e-03
3.509486881101687734e-03
8.535229837209705721e-04
1.637327285436676301e-03
4.223381087226546525e-04
3.927701091791960773e-03
1.069970986941468430e-02
1.073441104373802982e-02
8.555937526851823891e-03
3.926955924651896052e-03
-2.421672154709965906e-03
-2.670101746520549615e-03
-3.141897746890308981e-04
6.040011670903328196e-03
-1.624870407427810286e-03
-2.439570597191896562e-02
-1.693846705998571650e-02
-7.412990850157360470e-04
-3.148970793723589092e-03
4.408274285703177482e-03
7.987679137987580696e-03
5.787651264780412433e-03
6.583089046139679185e-03
-1.855122836621461409e-03
3.613273109757959411e-04
-9.023996952376002120e-03
-3.693357498099229114e-02
-2.580155326117378883e-02
1.187545763622823965e-03
4.542655749633832049e-03
4.753937408930989511e-03
5.548958359349411874e-03
6.066187729740267140e-03
9.102477555596823200e-03
1.287970360455225997e-02
1.744879278989824173e-02
1.341848146153420095e-02
4.571454504478484997e-03
9.810760896459404072e-04
1.103734766702667161e-03
3.804670392000779940e-03
2.967148935070514689e-03
2.726638252471503209e-04
3.238062984713047099e-03
1.905303339405031325e-03
-3.526323884719888106e-03
8.977123377481205412e-05
5.033149789300498875e-03
1.223418755819186089e-03
-6.691092199251829492e-03
-1.156715653545794045e-02
-8.100521873542763582e-03
-1.706659301227419438e-03
-8.022276836337657825e-04
-2.478713715149332125e-03
-4.747404751936992913e-03
-9.436002143402261177e-03
-1.111815698729939558e-02
-5.606141108095053990e-03
-1.402015592907596662e-03
-1.514838230422007118e-03
3.359101288706711937e-03
8.131456631222434145e-03
2.317687700721246351e-03
-4.679497832630095423e-03
-8.428293549029783338e-04
8.595951819321472759e-03
1.192269938410549061e-02
9.631140158842173629e-03
7.038560417453898835e-03
2.226237109123175607e-03
-2.932148057685289577e-03
5.129849813949324626e-05
9.632346872774666738e-03
9.941517012039042048e-03
5.760397645213724029e-04
-2.535989224565535650e-03
-4.468130121174316953e-03
-9.974368990351725056e-03
-8.103432677343667956e-03
-2.884125405164595854e-03
-7.803458165636773490e-04
1.125123714360921770e-03
2.283258898429197173e-03
1.268444186112322033e-03
-2.445334923473411418e-03
-2.423485580989171231e-03
3.857779690183396094e-03
1.214542058446213893e-03
-1.134511106705463589e-02
-1.573189630089628227e-02
-1.067223827163145573e-02
-4.906812429920662418e-03
1.468473650741912917e-03
6.794101548841454362e-03
8.047968114342387083e-03
7.964140112693971971e-03
1.045857500026542430e-02
1.404738196472044356e-02
1.420984644770068375e-02
1.504554662627658780e-02
1.747194953229438963e-02
1.312260917300205228e-02
8.219707330766859790e-03
7.277785707672462454e-03
2.107985115071308105e-03
-1.329684844099781205e-03
-1.066401750013766178e-03
-8.851326533866008331e-03
-1.962133969806560685e-02
-2.264672385901477306e-02
-2.124322895985250939e-02
-1.408243897645987744e-02
-3.250071969095946279e-04
4.071441179513122545e-03
3.277392964039186761e-04
1.017580660047825774e-03
-7.729587008746428498e-04
1.225046137320138910e-05
5.512534552508796884e-03
2.936272537989750159e-03
3.271268783790169839e-03
6.531504015967813485e-03
1.271758026865255466e-03
-2.393085123262491450e-03
-4.164567460575620272e-03
-6.596146065616503330e-03
-7.082976073640184604e-03
-9.978739827583543720e-03
-1.608922644625035772e-02
-2.368854079626804554e-02
-1.962829758254268364e-02
-3.649366362243816782e-03
3.886438467833873509e-03
1.874497142559954001e-03
-8.474296998567524761e-03
-2.108914938638384307e-02
-1.964974283548135206e-02
-8.805178986100547014e-03
6.248177881931688861e-04
1.573066960846848834e-03
1.019478605356289713e-03
1.092927099425450473e-02
1.960819674344254152e-02
2.198416440634773372e-02
2.073100531693304951e-02
2.113739449318417091e-02
3.298134778886809698e-02
3.876844747387077350e-02
4.054700285210925681e-02
5.738576622815664413e-02
6.527713493880518691e-02
5.380520478369805321e-02
3.928241588048735078e-02
2.689213490579540899e-02
1.663186833344598020e-02
2.905901156432333463e-03
-1.137093395925058842e-02
-2.898489159622336803e-02
-5.809079503083000584e-02
-9.047871490673710382e-02
-1.213480481282052104e-01
-1.239963970124458303e-01
-7.947665233120622397e-02
-2.595802507801564518e-02
3.171438882765314354e-02
9.841439429094600566e-02
1.005627806935207591e-01
1.331286894224371561e-02
-5.853934172684123471e-02
-4.608499844737039275e-02
-2.138232111515196363e-02
-4.686025056081475487e-02
-7.702232192118572962e-02
-6.370822857627035651e-02
-1.915297938693947752e-02
1.260043756440225489e-02
1.109224919079915272e-02
-8.267552631080230668e-03
-3.364654843845649168e-02
-3.519798222636563029e-02
-4.344290299368399645e-04
2.431956481728574093e-02
2.161857087557203169e-02
8.622207537356660692e-03
1.448231289642004649e-02
7.458576632271901596e-02
1.497668659496257937e-01
1.783731629822081222e-01
1.498316286285595877e-01
7.596536785418646354e-02
-1.358447921490370160e-03
-4.499446839273065629e-02
-3.999020815174464394e-02
-5.810858667195902168e-03
7.282994384530906348e-04
1.333633003931676900e-02
6.400452201741860248e-02
6.279824189786545330e-02
2.146962521091190859e-02
3.700101500664613324e-02
5.462261238125821344e-02
-1.214216145237301432e-02
-9.081168208668775887e-02
-8.440124234630923261e-02
-3.694402767433210832e-02
-3.324209893302650098e-02
-6.214816737603478386e-02
-7.153471606197191190e-02
-1.055297209972552441e-01
-2.082203617268557350e-01
-3.028482948946594200e-01
-3.741443315595949781e-01
-3.204501980020408869e-01
2.509689616749556304e-02
3.391918269261555152e-01
3.239695464627345145e-01
2.234832020647201933e-01
1.271054384507705748e-01
1.178643047110640310e-03
1.493751405350160141e-02
1.163551874394145591e-01
9.496244382357843516e-02
-3.045908816309781525e-02
-1.372972546621944734e-01
-1.641260218980739038e-01
-3.678246772070518922e-02
1.446867527466014214e-01
1.483136885923958259e-01
8.776673513742984378e-02
1.211669063560922438e-01
1.472154112360903599e-01
1.501492833162581253e-01
1.377942416168790041e-01
8.683395639653491982e-02
-2.841028139164871250e-03
-1.100250327052083171e-01
-1.504001154011981867e-01
-1.751010754080901954e-01
-1.790847252924686883e-01
-8.169618604212242063e-02
2.093959335682657398e-05
3.202727382242846754e-02
1.507457024856257398e-02
-5.096368857451250706e-02
-1.023957030561705589e-01
-1.654802551059048332e-01
-6.844981364811249247e-02
1.403388136765544858e-01
9.743152669495715179e-02
-1.956720160008447798e-02
-3.270876321251061508e-02
-7.728248246420817147e-02
-5.787120029821123113e-02
1.323648247750426783e-02
3.324351786179471219e-02
4.665640543172860921e-02
4.727108246552100268e-02
3.830880377189237879e-02
3.584193264866825102e-02
2.751249848386860472e-02
-1.220971200164751302e-02
-5.200986090248331528e-02
2.575086963058483090e-03
6.924196990528311280e-02
5.767764586846300945e-02
4.243923507083150609e-02
4.259479292777402365e-02
5.364159684935509986e-02
5.702461293487822575e-02
8.196965413003574549e-03
-6.206000266746156124e-02
-1.337627414128131076e-01
-1.367054566332943921e-01
3.364071559496453236e-03
1.091015502941516668e-01
5.631922628133397696e-02
6.529699188045122796e-03
9.913031150006227157e-03
-7.771424496795305281e-03
-9.821893574622450260e-03
5.430888636291955791e-03
5.620222024169529464e-03
6.068154822169671836e-03
7.273967555633253923e-04
-6.239226826377736700e-03
-7.230561527972773073e-03
5.278569889039837724e-03
1.947302815423987768e-02
-1.102043705829591595e-02
-4.084293649349421407e-02
-4.458456552436965842e-02
-6.552886857098909335e-02
-4.127345558692812472e-02
2.405497046905299280e-02
2.658520277265059503e-02
-6.257644548289312530e-04
1.726559974109169102e-03
6.138873718220997852e-03
-6.122386577335607333e-04
-3.979054538983522842e-03
1.423240317691553715e-03
4.266695566342244839e-03
-1.556671068695215021e-03
-1.669918186799741310e-03
7.302008070572991484e-03
1.599702343351655856e-02
2.108617992570849253e-02
1.832775821809291480e-02
1.084686326996200240e-02
3.853051075175782832e-03
-4.792278114274266775e-03
-5.184102191193674936e-03
-1.120697428126808236e-03
-5.606802182322168787e-03
-4.081760744890632932e-03
-1.923799502695947114e-04
-5.467012567342542130e-03
-4.678716103855293587e-03
8.466009970088804893e-04
9.434602533774209127e-03
2.089468476099201957e-02
1.789595201862406379e-02
7.469205728966988797e-03
-4.739417147578837280e-03
-2.005594583324292468e-02
-1.819245507540469958e-02
-4.886575899949424651e-03
4.273622625952701488e-03
1.526946606769677070e-02
2.100638524190432191e-02
1.724609791308310755e-02
1.308963014082460859e-02
9.276681346453369628e-03
5.473463437855409508e-03
-4.328042670565358276e-03
-2.767907477327126442e-02
-4.530190973398173782e-02
-3.527143619159073262e-02
-1.505128801416135212e-02
-4.610504692521485114e-03
1.935579111364414641e-03
3.117020028021527667e-03
-3.915574170238305123e-04
1.170755626784759180e-03
2.556534863521932842e-03
1.597759044277211483e-03
3.862834601571720709e-03
6.775635388509643198e-03
6.925254310850901922e-03
4.212606752705572166e-03
3.248202454175952002e-03
7.453310462055236403e-03
1.279591471960603299e-02
1.443367698793091361e-02
8.432590035335958342e-03
-2.745193606303361188e-03
-9.291972461451230431e-03
-9.963556586897528988e-03
-1.068058942694489512e-02
-8.920096740314882935e-03
-2.497615628009206175e-03
3.174134461632061466e-03
5.844923819702174325e-03
5.771068798416655564e-03
6.006333388237794328e-03
9.079180897810653142e-03
1.169541423478875561e-02
1.337974396449875293e-02
8.564427852210518624e-03
-5.462850582180133092e-03
-9.759045924370214967e-03
-1.196736026404784313e-04
3.487354892333521545e-03
-1.049869119248873512e-03
-3.193729056448622438e-03
-4.322430637573869937e-03
-7.502151573638827717e-03
-6.809365358481023027e-03
-1.385838760861697345e-03
2.031137827691705238e-03
3.902265880012260792e-03
2.782130525218974495e-03
-1.691701435770409873e-03
-1.096110106287185183e-03
-1.096866004644366432e-03
-4.223718712198624298e-03
2.389875885347530603e-03
8.601326718477296171e-03
2.118577560850236927e-04
-8.712935985339337677e-03
-1.015683980531682275e-02
-8.842866248301302703e-03
-1.471206365399749163e-03
8.503649526608515752e-03
1.118051742062628126e-02
5.524235609234806436e-03
-2.002041899120928729e-03
-3.484542069916356320e-03
-2.938860779624609832e-03
-5.640497613660074537e-03
-4.918573812782071550e-03
1.419405309279503586e-03
1.048230751660789509e-02
1.322652444528036632e-02
4.180713253665223339e-03
-4.335872174506749492e-03
-8.154079610918617618e-03
-5.296198402954190206e-03
7.882478074645040637e-04
-1.041908410201979399e-02
-2.043715056546212619e-02
-3.825157033606601045e-03
1.579196317181031511e-02
2.090248379767828055e-02
1.816735253026228666e-02
1.619463061283965208e-02
1.117062363584097121e-02
3.358239376121084641e-04
-4.288625320480440916e-04
2.607396512422811320e-03
2.150796721242716116e-03
4.558892817554506885e-03
8.544143958804682271e-04
-1.681679626441046982e-03
-1.222902238875457799e-02
-3.681921987429880722e-02
-2.838995489783050288e-02
9.878351856454511103e-05
1.504506719539189805e-03
-5.534329995092622176e-03
-5.603430086712836954e-03
-2.330068814294693549e-03
2.126453464100277677e-03
2.723315736523949926e-03
5.658438198011578497e-03
5.501889254994471977e-03
2.209470849317791280e-03
7.425453432026045408e-03
1.157101329919607569e-02
1.208044632457028721e-02
1.188543799595559620e-02
7.445741377470152002e-03
7.837888929533716811e-03
1.073006526285516168e-02
7.586348156265976424e-03
5.297857384576101433e-03
4.264544856974679908e-03
2.589934274752605983e-04
-2.355105068945896000e-03
-1.892517032532755380e-03
-4.005122154624189169e-03
-7.621707981697502070e-03
-7.308446622988681168e-03
-6.542293589601871906e-03
-4.884822480419114682e-03
-3.501169754887118249e-03
-8.782998106827233017e-03
-1.576804906457267633e-02
-2.481285281271809057e-02
-3.152529026381981764e-02
-2.314315373013681870e-02
-1.294666543232413612e-02
-9.369839996667293433e-03
-3.406489285404306917e-03
3.988223052454265482e-04
9.016198246385102866e-03
3.448489271404161366e-02
4.897686272766163529e-02
3.002270459268737909e-02
1.037176344983771134e-02
7.444397800065999729e-03
5.228036397408790045e-03
8.092525004425914215e-03
5.214938161320427194e-03
-3.400197155883751855e-03
4.368642510279718491e-03
-4.924870314010246219e-03
-2.745073692367338419e-02
-1.508030726677312902e-02
1.266741463780798535e-03
1.991323679035292109e-03
9.099826034080453832e-03
1.065262064408092554e-02
5.108842744079200755e-03
1.727147283465418947e-03
-1.625587792044698660e-03
-1.682677589296925104e-03
-3.184174026564574444e-03
-9.157255546272285648e-03
-1.459518859366654674e-02
-1.887481666645057093e-02
-1.866909683066537290e-02
-9.854388295934518593e-03
4.055068551812437971e-03
1.369246920293516051e-02
1.363941098291508551e-02
1.008377175540570332e-02
1.004858744976958561e-02
9.978405416064347125e-03
3.928871761830789872e-03
-5.595291090581972979e-03
-7.938433144948298104e-03
-9.690463888648051484e-04
1.542269440595454627e-03
-6.515092909034837093e-03
-1.940665817926422176e-02
-2.322834724942541076e-02
-9.415091028463863643e-03
-2.905672321451558283e-03
-7.041545407072912453e-03
3.019512072408985295e-03
9.878902391564539642e-03
5.824277888977175827e-03
8.168411587773077159e-03
8.045475026536378846e-03
2.546571493812912514e-03
-1.295573598344947107e-03
2.241616791331655680e-03
9.824831000880437232e-03
5.233458885061930722e-03
1.959731010189881637e-03
1.004244404387859106e-02
1.221099039711754167e-02
1.036295336620582201e-02
6.008863545378560593e-03
-1.444079803389402986e-03
-5.714734101409765690e-05
1.527370634203575189e-03
-5.542930268814564090e-03
-7.665989722481907423e-03
-6.540845754795543768e-03
-1.221730863470894303e-02
-1.169935732699805241e-02
-4.007658632186101959e-03
-1.729749043573056665e-03
3.130611707588464108e-03
6.453727468384334170e-03
-1.223823730175465198e-03
-4.537164516498761076e-03
1.495215673510511727e-03
4.197887501759390953e-03
-4.073698979856988679e-03
-1.154096746696368393e-02
-5.659339030863642581e-03
-5.611971448237775776e-04
-4.314733190246097154e-04
4.232383429409154220e-03
5.512312977043308353e-03
2.279253426572845805e-03
7.372875657930885859e-04
-1.380645103774224679e-03
8.478671656792021068e-04
8.789092100651338044e-03
8.894268525788659452e-03
1.341145280772060517e-03
-5.515257550554398050e-04
-1.502884746801535229e-03
-9.126162042248069789e-03
-1.674169693356084704e-02
-1.846732257251539402e-02
-1.187632465171687031e-02
-1.258133925059064760e-03
6.881124309332697225e-03
1.267183796603231494e-02
1.336706191756986684e-02
9.756406452428492693e-03
7.664190020732684211e-03
7.248647158043530075e-03
5.928262068194511784e-03
-2.922305396430424120e-03
-1.475897572532628571e-02
-1.209934861590557763e-02
1.278714235497323704e-03
8.681298794683904238e-03
9.151083445906931998e-03
8.836751015534268644e-03
7.425550586188421967e-03
1.504743006376812933e-03
-2.752569232868428382e-03
-3.318249116611267304e-04
6.975678554625371368e-04
1.408114025922984486e-03
3.763628889332871867e-03
-3.233447339234767201e-04
-6.289861017939966242e-03
-1.039700285322367988e-02
-1.310051476175575109e-02
-8.560009726843939570e-03
-5.044706805220794052e-03
-6.859486291759535510e-03
-4.817864119255783027e-03
-8.578708481355793976e-04
2.702330677257654221e-03
7.032043943828125004e-03
8.489579289891711900e-03
4.744083258830296239e-03
-2.752008498529768046e-03
-6.529746985438220942e-03
-8.656466233061604551e-03
-1.491952990308088173e-02
-1.293470288467344319e-02
-5.353712462435155760e-04
1.038460156401057807e-02
1.611205363630176593e-02
1.301374211101707923e-02
6.402338520381853533e-03
6.484675451398697575e-03
1.181537300344139181e-02
1.641188112994877366e-02
1.397709275310702985e-02
6.625627913623493952e-03
-5.294599044591116049e-03
-2.207982215569347789e-02
-2.680612625987941616e-02
-1.532146427606813528e-02
-1.021981300793569454e-03
3.241039405926799798e-03
-1.095981680545874424e-03
3.859181339821685271e-03
5.745748454839004309e-03
-2.867619589180115357e-03
-2.195056631973030234e-05
5.238000684651375992e-03
5.122634308379237986e-03
3.105452865384830609e-04
-9.966974183941042925e-03
-5.599674233797607807e-03
4.242442346759975683e-03
5.137856024854371706e-03
2.803107683656960464e-03
-4.860550719931612529e-03
-6.767728427129776625e-03
-1.231669530126320135e-03
5.962178599041700194e-03
1.129671340023671693e-02
7.088790614058166489e-03
2.554852017473039760e-03
-5.345779200158390018e-03
-9.395068290266360769e-03
-1.916215154718031981e-03
-1.436736153172968756e-03
3.055077532261739684e-03
4.418746083590356297e-03
9.972727648241658076e-04
8.055148162426655281e-03
-7.555055130973120994e-03
-1.873176052870097891e-02
-6.294639569494378181e-03
-1.185406608647412638e-02
-5.554097935841315059e-03
9.065538689256101568e-03
2.387748907234495295e-03
1.578465394487989183e-03
2.556502252393361846e-03
3.132694749761664749e-03
7.062760776401791341e-03
5.092126733634523561e-03
4.280603415251125164e-03
-1.453175337528462879e-04
-3.733680732811652143e-03
-2.991116642480034712e-03
-3.397203234705090114e-03
-9.891670708496690112e-04
-2.163249558283133166e-03
-1.403294742628737393e-03
-1.932005164595541934e-04
-2.962340996581267535e-03
3.233793147864697046e-03
5.504541980979374936e-03
1.533856798533926808e-03
7.989716691386424896e-04
-4.768778624788611899e-03
-7.567670614745467504e-03
-5.000622528685713837e-03
-2.853741300521186195e-04
6.699403410428238746e-03
3.962026801104595423e-03
-3.948857488618943978e-03
-4.028323509713402882e-03
-2.138864497997305155e-03
-3.210074567118709025e-03
-1.736950147178723328e-03
1.749954907666362606e-03
3.226380269362653323e-03
2.651875674902718066e-03
1.265591047366537063e-03
4.507129354456412482e-03
8.251834060424689116e-03
6.395172985382727854e-03
5.456341406273777176e-04
-7.422999408065869727e-03
-4.940739592142552421e-03
1.870733696530208368e-03
1.787925814306880927e-03
4.583794907202805476e-03
4.443676022008576088e-03
2.638611587696083546e-03
2.115818506556358487e-06
-1.398879315526770951e-03
8.300495633437520934e-03
-7.730968881053754647e-03
-3.171485706520730391e-02
-1.205252539674867181e-02
4.661318945372497531e-03
1.348166935415363258e-04
1.847363350343968875e-04
-1.091185511814346922e-03
3.886264406108071168e-03
9.038279517101521082e-03
5.472839891822319294e-03
1.740981559624740814e-03
-1.926180228876100574e-03
-3.709810770941432238e-03
-7.690316397981466351e-03
-7.143846440794712933e-03
3.380002282013798605e-03
6.536245989721614982e-03
2.036423376297316103e-03
-2.706425658490590764e-03
-4.302985840301104363e-03
8.357377048114477281e-04
6.006738879752850611e-03
7.557270006957082092e-03
3.207871434856163825e-03
-4.909630642322915239e-03
-9.937732715395138430e-03
-8.645750074971618113e-03
-1.833957529617488745e-04
1.148009345349832464e-03
-5.033315430464579791e-03
-1.417629641340714371e-03
2.345174347696240939e-03
3.342446381896405343e-03
1.079357928006848509e-02
1.024782961327101727e-02
4.945957221629296470e-03
5.867436164994993542e-03
1.802646578709811415e-05
-3.380479974827371639e-03
2.520415817795748897e-03
3.574836693890104953e-04
-1.202017013512529306e-03
2.635012046522772992e-04
-3.917577511570822374e-03
-6.367118370388009929e-04
2.165205105528933589e-03
-2.280019894241861866e-03
2.484871070299435368e-04
2.211736880463115347e-03
-1.126406484409925302e-03
-4.540308094391971513e-03
-8.365779868902729552e-03
-7.736836284660409367e-03
-6.043072788451760505e-03
-4.327676506320230453e-03
2.632882543162295107e-03
2.748820397810827591e-03
-7.060656755701144247e-03
-6.733706246616894334e-03
6.449380271922801333e-03
1.413097765780517608e-02
1.272733756989782687e-02
8.402944571212772260e-03
-1.335564791041049960e-03
-9.075264015771210280e-03
-4.438710306240660659e-03
1.628705941443816174e-03
4.092722156421191131e-03
7.709115873393021859e-03
1.216559805577225022e-03
-7.586419281131125819e-03
-1.705489757552248933e-03
2.922667437499805801e-03
-2.696215192857820712e-04
-3.543968940765995692e-03
-3.911092197238744128e-03
1.914011373414481161e-03
-2.596770630044810142e-03
-1.422313767842914300e-02
-1.240649482627399769e-02
-8.718940133617927163e-03
-4.243455572715912165e-03
2.736102119796198807e-03
2.028537116893496580e-03
4.423185720146794245e-03
6.916476932603488753e-03
2.372002448497114672e-03
4.307784111033870732e-03
1.183297909191434634e-02
1.194724687712982875e-02
1.949731099928377542e-03
-4.515049911599732478e-03
-2.386780690724987428e-03
-4.250752792591118391e-04
4.027500142070372657e-03
6.782439613700145739e-03
3.323587092169089010e-03
1.501922797690981130e-03
8.155008734770229518e-04
-1.448257408295395210e-03
-5.687608729180602431e-03
-4.650790662684008495e-03
2.434263069147184384e-03
1.815815249750475646e-03
-1.097560831397259226e-03
-2.052954694420398418e-03
-3.185697611694531754e-03
2.371314627887559888e-03
4.636417940969423356e-03
3.750358295825237322e-04
-2.658949120863801033e-03
-4.864101237048112925e-03
-6.346429577654405865e-03
-1.023428537516148963e-02
-2.693758089945130860e-03
1.047879000860893126e-02
4.355170653073034675e-04
-8.397249623679573990e-03
-2.724165884387438896e-03
-2.666413788422069674e-03
5.992331439551549935e-04
5.790298848970730668e-03
7.675701027258704026e-03
6.930103198185038650e-03
4.056935423686308488e-03
7.148175501820859708e-03
-7.493368545923612123e-03
-2.486607417223418715e-02
-3.614623319075132169e-03
1.085689257452735271e-02
1.575442373597034471e-04
-4.099792817915274353e-04
-4.466855354357686359e-04
7.133426482723824458e-04
8.166705585434880926e-03
7.653392697691357126e-03
7.599736321986516607e-03
8.244760684128498926e-03
1.711931976692658043e-03
-3.882512434871975091e-03
-5.489261902779350895e-03
-5.171829416985218239e-03
-3.925942957554544310e-03
-3.195999631642887449e-03
-3.504128117129120222e-03
-3.691949359469971943e-03
-1.046294033648015060e-03
2.747987075614737908e-03
5.666955788689891603e-03
5.706539204680077630e-03
-2.186984874085858271e-03
-1.161264500259500884e-02
-1.319735178383956743e-02
-1.160425308656960752e-02
-7.634846335132216069e-03
2.937855103784756464e-03
1.302535830647615946e-02
1.226020764934301205e-02
2.458270251556382742e-03
-9.467579135942381322e-04
4.082422653136990286e-03
5.279218941443853015e-03
5.890536341486506643e-03
5.593075257478511905e-03
1.874105839623569551e-04
-9.360259302186424001e-04
-1.075396777293013376e-04
1.538343228625106869e-03
6.641356562460220929e-03
2.757020493834096229e-03
-5.146891575188866814e-03
-5.970079128531256482e-03
-5.870963492970547939e-03
-1.871129196136908385e-03
6.061416531903457937e-03
7.750238740352603448e-03
8.252282557471618887e-03
6.920998829772343104e-03
-8.668687590597901754e-03
-2.334479520353079790e-02
-1.838494586568142214e-02
-5.746814951657282754e-03
3.263713336611383416e-03
6.149605003267344557e-03
3.648841828735452115e-03
7.914894358069135983e-04
-2.252098299886662932e-03
1.256838354869007583e-03
9.446610434213327870e-03
8.296986409591040890e-03
2.679959963670635464e-03
-8.212212237071542719e-04
-2.535636618555184036e-03
-2.434169147988255680e-03
-4.367139456753047627e-03
-4.279116509301621185e-03
-8.593117777556754820e-04
-7.644289286018713346e-04
-2.588607969046933990e-03
-1.550359499480004517e-03
-2.893882349476134086e-05
-1.334633196595982115e-03
1.384760940595460964e-03
3.448108241608227858e-03
-3.925268126773525691e-03
-5.607111085197860612e-03
-1.310299890731201483e-03
-2.475116217458121792e-04
5.120217866484136869e-03
7.524805351779963528e-03
3.899901883329198737e-03
2.674931013831470875e-03
1.465237218309425318e-04
1.869310398194231389e-03
8.448419665973325512e-03
6.986922285387010476e-03
1.314625017507164376e-03
-1.041452769230423936e-03
-2.105110403038315710e-03
-2.055443415134616467e-03
-7.072271414921661248e-04
-1.408710189136486721e-03
-2.369053539829158242e-03
7.368545471264299936e-04
2.080956403006146808e-03
3.253361305571014967e-04
4.711922466847605611e-04
5.632750924499224226e-05
7.659200815570296967e-04
1.775318684002525314e-03
-2.638273505252771052e-03
-8.214656179867331834e-03
-1.116202691824393252e-02
-9.252142734623996709e-03
-4.017629317408529140e-03
-2.155210128542685028e-03
5.637494848338061313e-04
3.438516217507393575e-03
5.105095855356654461e-04
2.570862562821787586e-04
3.560727621744059525e-03
3.247029630956406281e-03
3.202991699201275088e-03
4.059910669888121444e-03
3.460836223795020396e-03
3.031307647381719424e-03
-3.121017708500846904e-05
-1.823324367374209044e-03
2.592524347120298348e-03
1.690416997939680251e-03
-3.474921196284523530e-03
-1.646137280207257345e-03
-3.992456391118284049e-04
-8.994428234932825422e-04
1.981650540068878238e-03
5.224571320417105945e-03
8.915430260284559760e-03
7.299791442356721484e-03
8.067346937094774803e-04
-3.663369524342379498e-03
-7.578024635466783406e-03
-5.081260618776422232e-03
-7.494411820248665299e-04
-5.467038112863191468e-03
-8.727080374895885076e-03
-6.181090808057359935e-03
-2.920729609341675588e-03
2.694951904580396816e-03
9.380362510808926135e-03
1.129993009451094911e-02
6.150396178285453055e-03
-1.289561122994937852e-03
-6.955133151186374679e-03
-5.945963053563279102e-03
4.737368176923447620e-04
1.729220242495574465e-03
2.712669439545954339e-03
3.164972150386790965e-03
-4.486549177504011755e-03
-6.629764617741965016e-03
-4.381073687469776504e-03
-5.407533172093881638e-03
9.476451471122680032e-04
5.657938303800651679e-03
-2.108905981959323590e-05
-1.779985699777525843e-03
1.994458329053623493e-03
5.274244979843149307e-03
9.232705414055707160e-03
8.752214210140033326e-03
2.000217236935151934e-03
-2.998430955497766691e-03
-5.321576571823624646e-03
-6.135141943710634149e-03
-3.156127328820980318e-03
1.273277010906669624e-03
4.994548667826417994e-03
4.068100047643652753e-03
-3.075788762714677963e-04
-9.955687909377270491e-04
-3.193263134273030199e-03
-4.357271839871928315e-03
2.895594053734395004e-03
6.213390498995859448e-03
3.268094725503740885e-03
1.790554911918366748e-04
-5.598511184894593151e-03
-5.713032247192921347e-03
2.245077035197318854e-03
4.969626027802906236e-03
-5.792644164432192259e-04
-6.348971574777834831e-03
-6.482019464652313476e-03
-2.199995130449991249e-03
2.140509785301932064e-03
3.024812915792235869e-03
2.574831116017219784e-03
5.054425397745473253e-03
3.394750223805282664e-03
-1.237538377872609446e-04
4.430106749091011070e-03
7.071141105768351080e-03
8.115231262657564629e-03
3.795206743026610478e-03
-2.158824797724428340e-02
-3.276831902840195848e-02
-1.079943472533191617e-02
3.026771889565520787e-03
3.215573664240478375e-03
4.326855634166360161e-03
2.720360866672274971e-03
2.656047966448183122e-03
2.041442087974627666e-03
1.712461534121543410e-03
4.914113558453398443e-03
3.370534494850010478e-03
2.097199932165364541e-03
3.965560740917630118e-03
1.426093850254912939e-03
-1.045583309132631054e-03
-1.143288780131500749e-03
7.773274940904138395e-04
7.131023764493637021e-03
9.322804298509164075e-03
4.589790461346277863e-03
-1.881021518708346973e-04
-5.346811086896531562e-03
-5.544888360229816883e-03
-9.413943668233155579e-04
-2.577513036390151335e-03
-3.854031727743361183e-03
-2.820087874470768134e-03
-5.218877153280513520e-03
-2.652167251040941053e-03
1.510463849193592915e-03
3.435754090900492927e-03
6.589649867020123605e-03
3.586029736123480874e-03
-1.417466348113564055e-03
-1.804474574146591737e-03
-1.472271897010452501e-03
4.453872240351571758e-04
3.367444373935980090e-03
4.701073180711705206e-03
2.123335576522827808e-03
-2.714039156291475543e-03
-2.759823203546824151e-03
2.684663126376572728e-03
7.910899404475880622e-03
7.565651796052660916e-03
3.637608726981212716e-03
-1.803672050121459588e-03
-8.620345730778255361e-03
-1.067869445677645766e-02
-7.091804534318735254e-03
-2.654617188412396536e-03
-4.049655360021100700e-03
-7.719742592094476670e-03
-6.023852182446862852e-03
-1.023025018896548018e-02
-1.274072848629544986e-02
-4.348390225944616903e-03
-9.337911970286646556e-04
3.792117927938102023e-03
5.733508246336888395e-03
-2.147901957781032782e-04
5.826060047277210018e-03
1.006026610027726045e-02
7.958026019859697209e-03
1.145164052685744040e-02
8.064976820101163804e-03
2.766155249827444065e-03
-2.037865076420692398e-04
-2.287362892961560847e-03
2.180948854971845752e-03
4.093055171907411006e-03
4.709844638396376917e-03
5.132843500967357656e-03
2.202344294991778143e-03
1.297565969036225484e-03
-1.275248886906805903e-03
7.971928827903916300e-04
4.650610106397008725e-03
-6.516094650867913871e-04
-1.393746212224920324e-03
2.895869472863520501e-04
-3.278825287755635261e-03
-4.261083063011632949e-03
-1.921383333856114877e-03
1.396112177471576848e-03
-2.422264034900654776e-03
-6.965384568643304131e-03
-3.994365048289896976e-03
-6.294655160355698900e-03
-4.927861914210914830e-03
4.741217150921281376e-03
6.316848217422356936e-03
2.123802805223832212e-03
-4.865039621067926943e-03
-1.058156425921356544e-02
-9.462667840627610183e-03
-7.472453835706402946e-03
-3.368484888790504450e-03
7.058439465107069948e-04
2.852192153044652827e-03
7.021397778276304916e-03
5.116394078187367842e-03
1.199056797128565189e-03
5.493027351728901365e-03
7.283938184421085392e-03
1.691946916157259810e-03
-1.858692677348253771e-03
-1.075553036415301039e-03
-5.617675022408241420e-04
2.321668293074520149e-05
2.943004983309662360e-03
3.952816116842087710e-03
1.777931778818330963e-03
6.013886955355862750e-04
1.176667089530711568e-03
3.726931553832706859e-03
5.951418116622596982e-03
3.758451829211910400e-03
-2.219565680714606377e-03
-1.141304303624534645e-02
-1.847982789239235868e-02
-1.471320195507486855e-02
-6.124930092502764781e-03
-2.251255306671582409e-03
1.546886857763774643e-03
7.758443247279128881e-03
8.055956456793996259e-03
3.070079493198775086e-03
1.691941011340239269e-03
3.081115008376942958e-03
6.827480387021362361e-03
1.111761566175919341e-02
2.398653287187261108e-03
-1.104627215756890692e-02
-9.107589872736597536e-03
-2.106397434124954605e-03
2.323417810000258203e-03
1.116282049576108881e-02
1.639877880103855767e-02
1.799035088867896592e-02
2.293803534988969606e-02
1.838904311579415626e-02
2.044370027311942853e-03
-8.509049600688834911e-03
-1.100836332238227730e-02
-1.326789191914505041e-02
-1.359807829829726318e-02
-1.284857016971786316e-02
-1.471958146209679380e-02
-1.265118988916150329e-02
-5.026191137782779275e-03
-1.189198770421151389e-03
-4.453912595565255833e-04
-6.192484731632978267e-05
-4.874634367661978204e-03
-8.045356267054312727e-03
-6.800786417810558357e-03
-6.960946720935103256e-03
-6.072628305631948406e-04
3.726667437987129985e-03
-3.450528820426066942e-03
-3.488002413316214183e-03
2.365678986570712242e-03
6.432607627946789960e-03
8.801508998089006830e-03
-8.000267940667355566e-04
-6.054371632820704924e-03
3.609554566410782053e-03
1.111373687120319372e-02
1.625403346392362280e-02
1.495507489090305321e-02
7.473011022598529708e-03
5.756930189486558769e-03
6.816918390638607118e-04
-5.484758795941018991e-03
-1.326088555063387837e-03
1.265581264931747978e-03
-3.039808157669389877e-03
-2.712949616862973118e-03
1.367144462332628820e-03
-6.991291501397665529e-04
-4.262680919256446599e-03
-4.932078943685336801e-03
-2.342822685134901550e-03
5.041992311745081487e-03
3.233046645736534393e-03
-5.506820954277749647e-03
-6.221802618048776455e-03
-6.126462011656405929e-03
-2.057845859155691022e-03
7.529559296065468053e-03
9.986973117214841683e-03
9.968782357699549485e-03
7.934550951451110890e-03
1.166058435446488527e-03
-2.407275474480013826e-03
-5.011250520605829359e-03
-6.034435086599615819e-03
3.670619311536068175e-04
4.136921216164231481e-03
1.517623994808799202e-03
1.743450931327925925e-03
-1.026862861157570731e-03
-3.381218612739599581e-03
9.678191126142944882e-04
-1.481192703608633261e-02
-3.777329805024191856e-02
-2.596350854243893724e-02
-4.289805960765833912e-03
2.009504715379239418e-03
8.197677984202355467e-03
1.377264439357012323e-02
1.366730853775510908e-02
9.340291923243074571e-03
2.377088307460596770e-03
