1.017073789602520586e-03
-8.741074750250491660e-03
-8.608087373079565882e-03
-9.552348948721358854e-03
-1.219138347394811868e-02
-1.026660767339850414e-02
-5.262382283755463047e-03
-3.107268646081475481e-03
-6.251340591541023608e-04
8.143263905169161390e-03
1.496203885220600063e-02
1.549369501435732613e-02
1.537521067605347909e-02
1.712931261866711824e-02
1.746008024968797104e-02
1.556028092774010448e-02
1.419757607515206507e-02
8.948754048153590226e-03
5.486775670561262926e-03
-6.788068818533638839e-04
-2.704044555653482146e-02
-3.971879832029175106e-02
-1.935916182106200978e-02
-7.244876167204302407e-03
-7.802460795805476849e-03
-3.935030845616294820e-03
-2.847516407173890981e-03
-2.422839578337340240e-03
8.099716482148893587e-04
2.828811170160800467e-03
4.915483158111353876e-03
7.802812962859064297e-03
8.665323231736420800e-03
7.744201686331525503e-03
5.973556666336734579e-03
4.314818511662771826e-03
6.714601149719705980e-03
7.606233225441860930e-03
4.371593876490401098e-03
4.326053093735576435e-03
3.570460016225001504e-03
4.669399873034048667e-04
-2.323263940798819815e-03
-4.724484959709622685e-03
-5.067615479802436637e-03
-8.171495423948375511e-03
-9.541729394732498953e-03
-6.568422187950085159e-03
-7.066894128766952610e-03
-4.470364996273798810e-03
1.004155240043037812e-03
3.111720938020086629e-03
2.364805939171584458e-03
-2.899529387128430523e-03
-3.585578652323229143e-03
7.175000350460291601e-04
7.412142993332500221e-05
1.816322716055438673e-04
4.166392809104194767e-03
6.508242813766775339e-03
5.619928344230142384e-03
3.632776655735059455e-03
1.343739710619156012e-03
1.312478280180957163e-03
4.413910930730160533e-03
1.981905069097204038e-03
-1.869517295544360046e-03
-8.755401336761571215e-04
-1.534818054816732176e-03
-6.995043689476088903e-04
1.127967386918009903e-03
2.164019358245618165e-03
1.027954450426198704e-03
-8.206012786522935698e-03
-1.064442380462692420e-02
-4.972387887775655060e-03
-2.686606144356465387e-03
1.540039681763572888e-03
7.572663299303446921e-04
8.873129478005121378e-06
4.952972073908131281e-03
-4.201845800794682252e-04
-3.056839672721238955e-03
4.636243027106468940e-03
5.323489521676758908e-03
1.665962628060060555e-03
-2.154576694693152510e-04
-8.747015106794242848e-04
4.045650322018356669e-04
2.901806336476607691e-03
4.320094589434955723e-03
2.707080563361558955e-03
2.524614168737575239e-03
8.659739070481162746e-05
-5.870796238758641504e-03
-3.365731430583595099e-03
1.954950788301473147e-03
5.475780240491166014e-04
-1.773361624333113845e-03
-9.855450357744530588e-04
2.447654286684867748e-03
3.842004218115208612e-03
1.632457365135214517e-03
-1.159500326166338128e-04
-2.920820570422450347e-03
-5.368166774780675117e-03
-2.057185639778573005e-03
1.638268698351000308e-03
6.390662797632009782e-04
1.804559699849030575e-03
4.669567864566402313e-03
2.732609319561806263e-03
-7.295678718848077086e-04
-3.783390282909214475e-03
-4.424420760927546756e-03
-1.648182226866586270e-03
-7.500405861902700389e-04
3.923415927125714501e-04
-5.451302023646835025e-04
-6.525216364508024808e-03
-5.110988122766994823e-03
3.589853823555788290e-03
5.666925509191163800e-03
1.261126178547150806e-03
-8.751408862049607062e-04
-5.961849704602102760e-04
-1.458580833595184536e-03
-1.695876154112929256e-03
-2.479917417316081858e-04
4.204670499737792576e-03
8.220396399992514411e-03
4.602426529089815102e-03
6.674893009310880511e-05
-1.327140437084310893e-03
-2.351908069710277258e-03
7.839092601001756153e-04
3.813314350979631583e-03
1.727457248641999302e-03
-6.209722895494457435e-04
7.144875292799835343e-04
2.750626092775516375e-03
1.538100263507849582e-03
2.391141871175964540e-03
3.076047285485922819e-03
-1.407279185713465868e-03
-2.556763321043477918e-03
-1.979218161438568279e-03
-3.782539324947840464e-03
-3.535556899794455119e-03
3.243901193222254158e-04
3.091118393185426395e-03
-2.661333974171552989e-03
-6.424326621572267783e-03
-3.782462181441144985e-03
-6.689735865354832535e-03
-6.593765382049972083e-03
-5.951694932303374253e-04
6.351317839651660470e-04
2.309872704401185579e-05
1.932065968281724286e-03
5.677888983901733383e-03
6.933420327032686556e-03
4.487748677520108330e-03
-5.876943495251762592e-05
-3.863113133944663137e-03
-2.729472103174024594e-03
-3.646210066246178237e-03
-3.698591290284295938e-03
2.437823491551432357e-03
3.703098986885667958e-03
1.871177423862681408e-03
2.326572889981479413e-04
-1.196950336193410361e-03
-1.055962295946156820e-05
-1.858040776051336730e-03
-1.690855443481300733e-03
1.173353080359622845e-03
1.143735816615198530e-03
2.352001701462956562e-03
2.147459231483478653e-03
2.789855008065292730e-03
6.346920034690195847e-03
7.536399092045746075e-03
7.273898926246282794e-03
5.236191099259156732e-03
3.403825612067713433e-03
9.966111655233071947e-04
-5.245068754951860007e-04
3.079542319830297879e-03
1.806947382111970257e-03
-1.470088315550061378e-03
8.928350974209316995e-04
-2.745330972868387232e-04
-4.998768947994367690e-03
-7.986517846042531441e-03
-1.137619177180805748e-02
-1.000886192018519104e-02
2.237810487435241708e-03
2.673854444230637332e-03
-5.982902007751907635e-03
8.466790648344414694e-03
9.172851571834011661e-05
-3.815037970807937800e-02
-2.793036604745709889e-02
1.639849222396269450e-03
6.997407162464484333e-03
1.328928031385595565e-02
9.046324782733589434e-03
1.563365731246455686e-03
5.187358932150616664e-03
6.055666198991316827e-03
8.556285665675048349e-03
3.921632066571913329e-03
-3.206252135445467055e-03
1.224200188919598005e-03
1.682466730272048211e-03
3.144221910943314699e-03
8.599723961713197015e-03
8.277134385613005296e-03
7.430510893851616401e-03
1.225191256325214783e-03
-4.112636343120753407e-03
-5.134583508629411881e-05
1.138762717464565383e-03
9.035222823192895015e-04
1.754223630805956744e-04
-3.501619305530780882e-03
-2.782058329305657409e-03
-2.138846327786462706e-03
-5.535342783911086171e-04
4.268843235389245018e-03
2.911745336442848713e-03
2.399975944663662012e-04
-1.811705641924436609e-03
-6.148301889661028988e-03
-7.452177641166946725e-03
-8.705583329965934161e-03
-6.773434927799716447e-03
-6.886675070709222636e-04
1.466018967507729670e-03
3.731814484825665256e-03
4.643365828905449480e-03
2.685658016082071928e-03
1.696081405492239503e-03
-8.349774278990029991e-04
-2.874751265797415153e-04
8.994435305977681837e-04
-1.299980606595929145e-03
-1.201555595573724003e-03
1.739069912796661378e-05
3.542809619802481970e-03
4.123008112923189951e-03
-8.205983238075540863e-04
-2.940347284538628609e-03
-8.709360650879243923e-03
-1.135733162309587874e-02
-1.574547829701784200e-03
4.540310984059757818e-03
4.596967427585758013e-03
3.557315382820979907e-03
1.412721317598223791e-03
2.319475373942303000e-03
3.538404186894642325e-03
2.837142420526844646e-03
1.033384880456816651e-03
1.385303850999904714e-03
3.428739438578623597e-03
9.387784205566989792e-05
-3.159925182385653081e-03
-5.075052465494606438e-04
3.012249120885094299e-03
4.729825167623965924e-03
2.567696459921575605e-03
-1.996474485854198271e-03
-4.473750656146009350e-03
-4.651878827837276943e-03
-1.858702824585560477e-03
3.093219211367325468e-03
4.200013921574216082e-03
-3.275851191547452901e-04
-2.463100778962681436e-03
5.353035491921767555e-04
1.481070916652037391e-03
5.507285196640174414e-04
3.829118734975747208e-04
-1.708938241925587759e-03
-3.221359891440256709e-03
-2.890707747314766232e-03
-2.548062112940852227e-03
7.243463907950254159e-04
2.875777311535630994e-03
1.550377294135476690e-04
4.714795872247311520e-04
1.778391839978191646e-03
-1.924247231816600011e-03
-4.663127569854301317e-03
-4.153825522900804999e-03
-7.988063793713928024e-04
3.587392472051604848e-03
2.352054313128312032e-03
3.895210985762449177e-04
3.345980355516672226e-03
2.256991756973407426e-03
-2.835971100358612110e-03
-1.289989974441827425e-03
2.051408352492084357e-03
5.802888788080092582e-05
-1.913487254739140763e-03
-2.377952105177950567e-03
1.943331349320868366e-04
4.749352145930833477e-03
4.044883663538971150e-03
2.568445722713361308e-03
1.378809071400568772e-03
-1.858187662425695753e-03
-2.478086540805373578e-03
-3.708254097121701110e-03
-2.583483930618527252e-03
2.057234215010241181e-03
2.719273000178314310e-03
3.717379900254180920e-03
2.486688139530051495e-03
-1.591797337913109216e-03
-5.848933100654504866e-04
-2.475092523788849667e-04
-2.891649177633264477e-04
7.376871710168175691e-04
-2.006009173765770873e-03
-2.046593110569885476e-03
6.866524068653551529e-04
2.270849416375939935e-03
4.791913722252994466e-03
2.733055085366181865e-03
-3.072373557577444056e-03
-4.181787896488561515e-03
-4.331072390418449353e-03
-6.074976145429429944e-03
-4.532024373625921816e-03
-1.859143614246017064e-03
1.978127291206697742e-04
1.619108028187271489e-03
1.185694442717740230e-03
2.645923181582196439e-03
3.609437063719882731e-03
3.314346115031765929e-03
4.742688655447323265e-03
1.475839633380632938e-03
-1.309267034362226198e-03
8.312451752730159234e-04
-5.831343034041747131e-05
3.056191397906578115e-04
1.720388443214058982e-03
9.569743873199161328e-04
7.074181535595661270e-04
-3.857867240554746762e-03
-7.200359800512992625e-03
-3.546262836151977630e-03
7.427089423007679232e-04
2.166605920313804598e-03
6.663529128146565908e-04
3.423474601564722216e-03
5.901093352461193528e-03
1.116409251347596446e-03
1.657719164351533023e-03
2.226138110726310834e-03
-2.817793607649148740e-03
-2.528501851434498265e-03
-4.264089999900241151e-03
-6.436236596954086550e-03
5.819977141341332351e-04
7.077635579559297778e-03
5.672555601053392085e-03
9.129305590473491059e-05
-1.184574393583152051e-03
-1.439049885574378122e-03
-5.083347828471944906e-03
-3.819365156347725478e-03
-1.611885646245632495e-03
3.373101362588285012e-04
3.298643696728728505e-03
-3.406390042588075019e-04
-3.595830712473364974e-04
5.089207704639528256e-03
4.298309758485956492e-03
3.647189371392692758e-04
-2.506610577300964239e-03
-7.354846894721630722e-04
-2.296153694127350646e-05
-5.295028446260148861e-03
-1.757712259375307073e-03
6.044254187611416626e-03
4.078223475348756628e-03
1.681754718643865051e-03
-1.236867549396070739e-03
-1.087100010728395995e-02
-1.194660400724275109e-02
-1.100668036560726410e-03
4.539278543270036485e-03
4.483016783619513286e-03
1.339533557691649545e-03
-5.861905320651064448e-03
-5.048201961343368183e-03
2.339739091972865923e-03
4.975268249379642509e-03
5.836985594553830911e-03
9.476585355913173109e-03
9.423738715221112450e-03
6.629897414972924993e-04
-2.672283452433745540e-03
2.982785232200019145e-03
3.915036959634020895e-03
1.777681978263294946e-03
-6.235725212273009568e-05
-1.684424582423504945e-03
-2.235070512477714804e-03
2.608733884565090462e-04
3.809133874081333058e-03
9.582914551575771054e-04
4.796337114861166061e-03
7.064929089479056283e-03
8.629669961245847861e-04
9.429284406164807966e-03
-8.340348667680937481e-03
-4.549155149611483484e-02
-2.809001825713773257e-02
6.232905342290881359e-04
2.443861355185074358e-03
4.738559510518129334e-03
2.930733922011637214e-04
-9.526002480313662318e-04
6.391067892628800144e-03
7.309557382399309647e-03
5.102866052219319319e-03
7.217665379451909842e-04
-4.493152721821047526e-05
8.514735857185051077e-04
-1.533897126178673624e-03
9.649884892950475780e-04
3.908406253350496518e-03
2.903948862139816949e-03
3.906561666520020834e-03
7.350868838571672156e-03
5.811537830947397128e-03
1.636422061932885476e-03
2.027327965935769079e-03
2.830261683596996865e-04
-1.944414309787946158e-03
-8.035225957069734234e-04
-1.122158127642107467e-04
6.917194987684757755e-04
-2.553741025574958598e-04
8.595179828065685132e-04
1.623886180031008496e-03
-2.514074927956531317e-03
-5.035088580869806311e-03
-6.208738126816860936e-03
-3.375017909853994351e-03
1.815112921633667623e-03
4.998132473614475511e-03
5.972586953552711832e-03
1.352418999459850798e-03
1.243462137145283711e-03
1.534708893689896037e-03
-3.345612594572683167e-03
-3.073337375540296113e-03
-3.646377745059800439e-03
-9.099825185081222238e-04
1.374378452428963752e-03
-1.246893016355033650e-03
4.441119873641347082e-03
6.556058109181731389e-03
8.360588607554541793e-03
8.672829045874776155e-03
2.367517489857388566e-03
8.392522335093819362e-04
-3.017397815320981350e-02
-5.470433658456405612e-02
-1.700380153760735341e-02
9.077249375038051737e-03
6.667606691536983460e-03
1.325441262545796160e-02
1.065192593698859741e-02
8.584262924475078577e-03
8.326420836961945238e-03
1.763253285456603450e-03
4.938594664013695734e-03
6.345269389696744228e-03
7.236753562887575158e-04
6.336004165077071268e-04
2.675529828707503069e-03
3.476697490976105205e-03
4.637107195086418061e-03
4.139115057787331846e-03
1.159466087960761126e-03
-6.350329082855163529e-04
-1.184177400483704158e-03
-1.547977657355969648e-03
-7.149809695204335964e-04
-6.780805672970778705e-04
-1.181083721540016545e-04
4.241241235733518621e-04
-2.891235493181905283e-03
-4.444503554875806582e-03
-9.789581901731061997e-05
1.096919534607320237e-03
-1.372160277527456835e-03
1.439957594720039013e-03
4.127401617220139091e-04
-7.106904014560519282e-03
-6.103270932408449978e-03
7.322403435214813305e-04
3.391758389510932115e-03
3.845725528239815421e-04
-2.741634415750207436e-03
-1.334002151949973368e-03
2.602645342332321563e-04
2.725684188433912924e-03
2.800560505261871520e-03
-3.959064688719238310e-04
7.349665752367119794e-04
1.215278546775108454e-03
1.989601679890507305e-03
4.364905112500776577e-03
2.527403403761168711e-03
-3.658037358990565840e-04
-2.482178785027840725e-03
5.777781663304703760e-04
-3.992927582955625027e-04
-1.276818101772853736e-02
-1.380250911027975681e-02
-2.490077948185100577e-03
7.875124186948372421e-03
1.205364923071213477e-02
2.535913044608462640e-03
-3.104748593969361165e-03
1.190339596156872893e-03
-2.562557940695240049e-03
-5.896306397047947935e-03
-9.977302990288692424e-05
2.899705362026892656e-03
8.554892037594540467e-04
2.120163744308613003e-03
3.775851932661114779e-03
5.959057131790167997e-04
-8.855600565129499984e-04
2.080946947417738196e-03
4.780271811732201420e-03
3.716174203676974631e-03
1.613545376019999726e-03
2.023170651055713597e-03
2.732280188324529274e-03
3.893549611828477260e-03
1.482786802270170913e-03
-2.874336183457132203e-03
-8.707330427446806787e-04
-2.442245799667231744e-03
-6.515474735318983052e-03
-4.510420590980632714e-03
-4.947049881222355741e-03
-3.785363149432843625e-03
9.156888301555591008e-04
9.165499642360526661e-04
4.895170429220433838e-04
7.197059737287249924e-04
3.108600277807868823e-04
1.794910538524324998e-03
1.791790617340199279e-03
-1.051316086087896199e-03
-2.325246010339504423e-03
-1.639499834296233652e-03
-2.372893419333493490e-04
2.367486423353014780e-03
1.840153752006528634e-03
-3.494236570511136770e-05
3.754366294074951323e-05
-2.656556022336162455e-03
-4.219832053917553331e-03
-3.695005366617102899e-03
-3.246110651658523551e-03
-1.084934212313234773e-03
-2.128484755169403938e-03
-9.401105813895330567e-04
2.595815453019282258e-03
7.552663072685739630e-04
3.135332412015828362e-03
7.364228112210980531e-03
4.664992343739121985e-03
7.694015268032691540e-04
-5.537130988022261145e-04
1.332790778458403137e-03
5.423687836395880459e-03
9.014149244634568625e-03
5.504635109318676417e-03
-2.002764098961053087e-03
-2.466658156086260281e-03
-1.187948407375981341e-03
-1.091677417020864987e-03
2.071766388510146747e-04
1.576440648598777250e-03
7.271541925273252837e-04
-2.989297294058067527e-03
2.242408635102466699e-03
6.135397497960428867e-03
8.713013020692290033e-04
1.524621259570025722e-03
-2.543211009069879912e-03
2.835988784241904063e-04
1.492692049214246501e-03
-3.423734850140010971e-02
-4.214067246856290777e-02
-2.686012733699175842e-03
1.032166744673305471e-02
7.913293651202883347e-03
1.206144353056285909e-02
6.169717292697070483e-03
1.812559666043398214e-03
1.658657215118699126e-03
2.974324606363221981e-04
2.000269438584177054e-03
4.590862783464289346e-03
1.743958721707954997e-03
-1.577733183879140213e-03
3.298915308997061799e-03
4.666843256841843313e-03
1.727918186179842105e-03
4.089383540383286116e-03
3.898512684088719944e-03
2.865275087594695846e-03
2.685343216510139002e-03
9.226026515407204781e-04
2.864578061084859829e-03
3.014859953979467846e-03
6.255954167795870283e-04
-7.486237733572688674e-04
-2.605832662192528008e-03
-3.711177078135357525e-03
-7.910263932504223855e-03
-8.455332720290989479e-03
-3.258498190158308234e-03
-4.715313572444192365e-03
-2.570268380608326658e-03
4.048869914072554706e-03
6.439851950740630446e-04
-1.801094505823464757e-03
2.875816071281346283e-04
7.105399550025356514e-04
2.619386795538503586e-03
9.858414402649992581e-04
-9.151560485029971688e-04
1.636316299456033393e-03
2.661643299199767387e-03
6.008813221957860946e-03
7.480317793983918759e-03
2.592185449160099193e-03
7.629357069233125982e-04
-1.072624779464553119e-03
-4.423176107137283437e-03
-7.088052056894647047e-03
-6.541742245517447214e-03
3.275108278147351171e-03
2.530300244912664885e-03
-7.633822482473551739e-03
4.573263481229064022e-05
6.661224933948199471e-03
8.870621509983520449e-04
4.645320062741654628e-04
2.916108409965241380e-04
-1.917560985236564652e-03
-2.844148758034395572e-03
-3.253422665767214533e-03
-7.023354548993673916e-05
2.503332942074919416e-03
3.307913134966655039e-03
2.313670572013263888e-03
-7.323229365880614327e-04
-1.225817300519279306e-03
-1.399028343636538572e-03
-1.311394263832739524e-03
9.259946496719736325e-04
3.191850126872894117e-03
4.921613783659273787e-03
4.389987371373321560e-03
2.465424660767655783e-03
-1.353438350969791634e-03
-5.803029303642914978e-03
-5.345834077003373125e-03
-3.377128289661824549e-03
-2.773804504480519365e-03
-3.933386008758225569e-03
-4.388452315423060218e-03
1.005714285777561771e-03
5.398905661572630729e-03
8.074827810911889420e-03
1.086508860527965817e-02
7.279351573028877698e-03
3.848896170787776370e-03
2.467983585393179660e-03
-1.581241164525617462e-03
-2.221082218660739779e-03
-1.820982417952035680e-03
-6.492392830334800524e-03
-1.041337117047367970e-02
-8.093878771663995386e-03
-4.795638078845701306e-03
-4.899253561664885723e-03
-5.271261204216438206e-03
-4.962500183471434990e-03
-2.002550443851589673e-03
1.336097035274269682e-03
2.234826577269209951e-03
7.566155006835672409e-03
1.422089193746394961e-02
1.883589239098121954e-02
1.907710140757618716e-02
6.523332448567503196e-03
-3.584596729652930747e-03
-3.582472792307162326e-03
-1.059680544768390811e-02
-2.020537433777798778e-02
-2.274513642798969490e-02
-2.162027939405515922e-02
-1.534243499866271010e-02
-6.494552990572033044e-03
-4.701315252358306308e-03
-8.085192774930164902e-03
-1.981970093757190379e-03
1.280555087588561985e-02
2.083994632147042475e-02
2.422696757987576749e-02
2.841042684217104028e-02
2.772971683251075278e-02
2.738923486954647490e-02
3.002651666274471637e-02
1.926990241740376628e-02
-2.794652045174048863e-03
-1.272792856851556395e-02
-1.202921500986057698e-02
-1.380570603751301445e-02
-1.805345256351285899e-02
-2.387865016783952826e-02
-1.888200980026276399e-02
-5.467499608852111753e-03
-1.557956163548150468e-02
-4.165050353277145040e-02
-4.840992533567981676e-02
-3.159115827751696887e-02
-1.168732057186008984e-03
2.533991656709451423e-02
3.796790421812468869e-02
4.930242986359581470e-02
4.608469488245223872e-02
4.890984304405270218e-03
-4.145985428184168625e-02
-5.423638464429270112e-02
-4.885734403396687492e-02
-3.682155674442423587e-02
-9.273583267564831575e-03
3.280586595373673892e-02
9.259902123728153134e-02
1.280142629021996381e-01
8.512864712635374864e-02
2.174569039873528245e-02
1.942346386853083056e-04
-6.490289457013727857e-03
-1.231812607741615377e-02
-1.143264016283387745e-02
-1.245342155704112601e-02
-1.807259492656958580e-02
-2.153415002817583856e-02
-2.376199723293063656e-02
-4.905389215787782364e-02
-9.359772481524311627e-02
-1.131233913762041410e-01
-9.311103315015144266e-02
-6.001302009087167849e-02
-3.099723012670659028e-02
1.773006725224713503e-02
8.571633086615207398e-02
1.225550874273491214e-01
1.118763521239063002e-01
6.717911633333285837e-02
1.376021038598025832e-02
-9.028015812694956815e-03
-9.305902676452877664e-03
-1.183025500463450418e-02
-9.522045595621555364e-03
-2.561011216281455609e-03
4.650147877347058159e-03
1.715930738889705556e-02
2.629756622643137157e-02
1.838814393941640840e-02
4.646673960966668472e-04
-1.161061359148917414e-02
-1.201825372256452168e-02
-1.364803059807260209e-02
-3.060053752720427386e-02
-3.124737269090537700e-02
-3.896464297530360574e-04
6.729145790462304731e-03
-2.176657252900983386e-02
-3.975945970588413980e-02
-2.925637556664957215e-02
3.181779639099715021e-03
3.204690222752437645e-02
2.895178353405834445e-02
3.396648488886174107e-03
-9.941144494152415884e-03
-2.620437420912277021e-03
5.655026362299958760e-03
1.615837686300335141e-02
2.853096547317672191e-02
2.807984561672836193e-02
2.578504192234462589e-02
2.296619199634220704e-02
3.526029063499930977e-03
-2.372045028690867793e-02
-3.339216117817278562e-02
-1.557632199832176788e-02
6.471232818661297112e-03
5.740375626109820058e-03
-2.644822150750041415e-02
-6.677759210737008178e-02
-7.219644590928087080e-02
-5.614323595400470129e-02
-4.038171949974311142e-02
-2.585616258948387688e-03
4.665111917983917611e-02
8.078910272033322515e-02
7.976890799881168614e-02
5.050725657644443423e-02
4.405068736169045346e-02
4.114912970481934135e-02
1.607464647569805880e-02
-4.506302801481731901e-03
-5.178538125947169946e-02
-9.325792489514134198e-02
-6.064626034247939251e-02
-2.067586138814825336e-02
7.947553243677987073e-03
5.961315330285793523e-02
7.449350604107232710e-02
4.551459742652098212e-02
2.346067870499586941e-02
9.227979426104603727e-03
8.514933350821030024e-05
-8.090434233663608074e-03
-1.939969535957820207e-02
-2.631171869713682873e-02
-3.280734795492645101e-02
-3.713816035955014999e-02
-3.080861744154983484e-02
-5.413268852890643253e-03
2.657430739017508856e-02
3.768736806654734289e-02
4.020145176708778828e-02
2.916530202860684318e-02
-1.798700841934431499e-02
-6.049999178169547520e-02
-7.274425473382532814e-02
-7.128952790314664612e-02
-5.576357373745186724e-02
-2.279570542099336808e-02
2.220093898482835421e-02
4.682450845324447747e-02
3.326660005502714290e-02
1.403327910723273751e-02
8.124712335344943734e-03
1.640710206851281674e-02
2.728628732026100456e-02
2.509133230689803221e-02
2.352788835800473030e-02
2.721860800005192552e-02
2.850827195872904576e-02
2.498334156108962881e-02
1.188425069685734338e-02
-1.796315449067791351e-03
-5.438702587879203770e-03
-2.413197778362867821e-03
-4.646141855365684865e-03
-2.317068041301549673e-03
1.761183844937010134e-02
3.084573755738379691e-02
3.097131473810552441e-02
1.664362356575870699e-02
-1.357976096340551830e-02
-3.450161251705632232e-02
-6.786019644898375058e-02
-1.136192041389960661e-01
-1.243355030248220056e-01
-9.961756197711561789e-02
-4.383676054269431549e-02
1.769164813205602316e-02
5.320447256463976121e-02
7.568990684533395685e-02
8.686191835956992569e-02
8.885778608626652975e-02
7.571360243316627159e-02
4.743902533502891705e-02
2.191970903418561864e-02
-2.283624386224416061e-02
-6.790565737216802678e-02
-6.980031077920621774e-02
-4.432410617123115626e-02
-1.053289345392287128e-02
2.971123505112640770e-02
7.797512806902165416e-02
8.407050700319024239e-02
1.744989395495881793e-02
-4.013364354085723062e-02
-6.247137267703952584e-02
-7.170370566073348828e-02
-4.697707339953294953e-02
-1.113034958907397655e-02
1.833902256447820373e-02
3.783597643678791173e-02
1.110312330840906338e-02
-4.649133190189048970e-02
-8.910142501426762673e-02
-9.803288252572719963e-02
-5.036246818547203408e-02
3.654129921316390250e-02
1.029271754473119194e-01
1.403661646696892640e-01
1.452903435083659489e-01
1.059742112255879359e-01
6.471310413469542888e-02
3.852114806027915478e-02
1.255091980424932925e-02
-2.834246941656376820e-02
-9.427099847014476508e-02
-1.294742597471070233e-01
-1.105356020079496931e-01
-6.873048020383970558e-02
9.171317106325693053e-03
1.063450268197503185e-01
1.548031237239909097e-01
1.178625033219987128e-01
3.408117916800101205e-02
-4.981542983794010754e-02
-1.413247134920621040e-01
-1.993368402212767898e-01
-1.906572300465840808e-01
-1.813790385805899019e-01
-1.687214119868011286e-01
-4.989758351904347716e-02
1.354643926749485583e-01
1.743664283790762604e-01
6.183798632519638128e-02
9.825121602504698071e-03
3.128789167261684240e-02
3.155380268700148927e-02
2.704885157664583401e-02
5.470319756103988323e-02
1.168566363070317332e-01
1.612876073996881987e-01
1.586858147833092592e-01
1.352055957010951937e-01
8.897438379763057681e-02
1.306336708525154475e-02
-7.915447209076967305e-02
-1.309199186524237501e-01
-1.018162693711632538e-01
-4.778007451724713972e-02
1.610608561229052993e-02
1.044060298117743812e-01
9.701251765683052697e-02
-7.455143004977093923e-02
-2.345825873262112060e-01
-2.731169498346118218e-01
-2.546146459316246391e-01
-1.286009047697935226e-01
5.050807014797953354e-02
5.474213354176066942e-02
-4.219447009396729703e-02
-6.952071703363736643e-02
-7.422718668954905730e-02
-3.804696922212432580e-02
1.167476784794677785e-01
2.766461231526156639e-01
2.415508718106774699e-01
7.940151485975605050e-02
3.337775235920727168e-02
6.849723850860606200e-02
5.045638083256562267e-02
3.804859326426832805e-02
5.565626065423055768e-02
5.102543448299584616e-02
4.510264857857163717e-02
9.596404809402414582e-02
1.565264263129189926e-01
1.246088829738747211e-01
6.800582890313951190e-02
4.161725526878513881e-02
-7.968680067696649882e-02
-2.517613422990078731e-01
-3.044096195668093419e-01
-2.927052447835347126e-01
-2.695743581490206986e-01
-1.717747323288811578e-01
-1.308103512594271378e-01
-2.225206993360649976e-01
-1.865155516298873661e-01
8.353868285630654256e-02
3.356167552355462935e-01
3.722862994165692108e-01
2.517255728039095031e-01
1.196227556425673300e-01
4.945829486568309626e-03
-1.084235803823267869e-01
-1.600397030656563746e-01
-1.117263242387542821e-01
-2.200318997696279824e-02
5.518985020756579651e-02
1.544261070025219340e-01
1.884327715188348074e-01
3.358253137289265305e-02
-1.118908065839725047e-01
-1.060417961826167071e-01
-3.614505529684146345e-02
1.173950319122046143e-01
2.606300189470490691e-01
2.077615997444888229e-01
1.987288677211425728e-02
-1.184520561325912852e-01
-1.423423057491698951e-01
-1.446029482217665585e-01
-1.221314861522980050e-01
-1.767496155003720620e-02
4.591421480518474013e-02
2.298842799825093902e-02
-6.166895332364715973e-03
-3.789932076355990997e-02
-7.086301765212260628e-02
-5.114739940973654642e-02
1.613064071601698346e-02
5.898807297885781675e-02
1.010526331229554819e-01
1.259375678771947338e-01
8.285425341077988504e-02
7.013002846663694834e-02
3.497847769005742180e-02
-8.417361037755964615e-02
-1.879013273073179002e-01
-2.129432871492739077e-01
-3.308966923337790245e-02
1.268308914594069026e-01
-1.888142639721649557e-02
-1.429675047567896540e-01
-1.067214960881503888e-01
-2.880940307900363082e-02
1.321357779000407739e-01
2.339854191595826249e-01
1.787512148503966058e-01
5.019009812213554023e-02
-3.059446019360741523e-02
-4.830051803704651231e-02
-1.370042653255443277e-01
-2.066687019159688388e-01
-1.593122346070877104e-01
-4.856849654442775555e-02
7.288255708096509633e-02
9.762815804524661856e-02
1.276950354139511357e-01
1.403888148283226056e-01
-1.672147453521423410e-02
-6.902007455736396124e-02
6.769942446318522218e-03
-1.714936974730575311e-02
-4.875041381045197228e-03
5.391224404056074032e-02
4.553963530121910019e-02
1.954642869400902497e-02
-1.820553441098594905e-02
-2.494750238420698901e-02
7.078232111211237021e-02
1.511526247314169125e-01
1.134600402334097202e-01
6.811711458425667720e-02
4.765046929711085066e-02
1.962305485340955225e-02
2.044317882711403286e-02
-6.229268093124895600e-02
-2.386687594246260924e-01
-3.388222061172421751e-01
-2.956214574248555160e-01
-5.266016236066875522e-02
2.193235988180332052e-01
2.328964586956396576e-01
8.716712387780012339e-02
-3.699761575452959611e-02
-1.049340492336697239e-01
-9.222215126457870837e-02
-2.482015690849195821e-02
3.941866061489247841e-02
3.339368565027368840e-02
-6.462101683754611567e-03
2.168274529629504385e-02
6.488668565555420764e-02
5.520644985489139844e-02
3.405504699733674645e-02
2.475365228535210751e-02
1.508538408741164419e-02
7.839451200024754457e-03
1.023159824894504834e-02
1.864236486708194251e-02
2.365693802696197320e-02
3.790432738646933378e-03
-2.380882184695532269e-02
-1.773266177579795738e-02
-1.058170943841839351e-02
-2.733533311213039163e-02
-3.758287140777265972e-02
-3.225832608258571294e-02
-1.840708071978890831e-02
-1.098760669106184883e-02
-5.958641460587305906e-03
4.358057295454643640e-03
2.613312576143089414e-03
2.191906765260227558e-03
9.409306575463969105e-03
1.257277998340653249e-02
2.262762273213585543e-02
2.986196270840112826e-02
2.752137028541067412e-02
2.403290234465822045e-02
1.487272829435399256e-02
8.674165814394825189e-03
8.349146820672403296e-03
4.598132423201068374e-03
-3.599797418528729101e-03
-1.252064974920480064e-02
-1.226440385137123057e-02
-1.460465471561686775e-02
-2.748347771334178069e-02
-3.076743237110635479e-02
-3.747266403403878149e-02
-5.240979491649277316e-02
-3.943806098917946451e-02
-4.650419943510431496e-03
2.435317999581565127e-02
4.038568684981507645e-02
3.603079506469115956e-02
2.342249542650726157e-02
1.804322861213076418e-02
1.642800629253461306e-02
1.609694579426653935e-02
1.253305633139590279e-02
6.718574912022017530e-03
2.425290543930183531e-03
-5.360458211200456232e-04
2.458462347775993134e-03
4.628267550600187984e-03
9.466816517102920672e-04
-1.343305974332423703e-03
-4.311074248787441845e-03
-8.925017584133734805e-03
-9.370672313629778427e-03
-6.211189663623428552e-03
-5.148241698756334493e-03
-4.941123890549214623e-03
-2.053722095301408705e-03
-2.841944696864710795e-03
-5.862321736862663099e-03
-1.105580456956168538e-03
4.772974366974643522e-03
2.366113658897942701e-03
-3.892800906077952330e-04
7.580865860001434215e-04
-1.620768336615722137e-04
-2.044224943771656179e-03
-3.836247247866634430e-03
-3.162845517575231438e-03
4.454051042131224394e-03
9.965423528330658032e-03
7.527779956532997842e-03
3.213785384937687013e-03
1.445589557489252623e-03
1.214930661664332182e-03
-4.593655305500100351e-03
-1.084723799481808644e-02
-6.074983478837623144e-03
1.518905630880913347e-03
3.099563704256457462e-03
2.005686873121545564e-03
1.768479552690854772e-03
2.128436076301782210e-03
-7.695319628529314476e-04
-3.067507208550146469e-03
-9.391804206311670129e-04
-4.389847497688379764e-03
-9.961191153902523854e-03
-6.103608908870661841e-03
-3.687595172709516502e-03
-5.255746263713944287e-03
6.399624652450490794e-04
8.619119062273776152e-03
9.660564090505694909e-03
3.352230526945569958e-03
-1.418548638316272179e-03
-2.589633590519945915e-04
-1.287854995456959219e-03
-1.860765865440290948e-03
-6.389675783105422998e-05
7.884137733072562985e-04
-1.365813296699700191e-04
-5.047036084625102469e-03
-3.377034458191964517e-03
5.638792472952049162e-04
-1.467466778471873722e-03
6.292895303794566065e-04
-1.518659868895174889e-03
-9.066038152894566804e-04
9.972258540953932160e-03
8.483753175512800601e-03
6.041375501512282094e-04
-3.212109922840872180e-03
-4.019193120857652776e-03
-1.554231578447371051e-03
-1.720317433950188353e-03
1.847874222451418181e-03
1.786126396788449613e-03
2.338563863766779556e-03
1.823148461500577683e-03
-2.802319774550228459e-02
-3.456407438443152152e-02
3.936099841883052182e-03
1.761846827925721629e-02
1.445151192206743304e-02
1.641473464180202499e-02
9.597136890723913932e-03
7.374075622779229996e-03
9.440524109003979938e-03
1.126034456031920102e-02
1.009955714471398244e-02
5.189275420034592315e-03
7.190994730407439424e-03
7.965609618092844499e-03
5.468574761822771017e-03
1.106390140194990664e-03
-6.198525043738190021e-03
-4.557391954515604623e-03
-1.090774629262242224e-03
-4.432538304241518128e-04
1.868956352339652639e-03
-1.349460523569600895e-03
-4.127240787970480433e-03
-3.806439180902517795e-03
-7.321085702764011660e-03
-1.210775086551694850e-02
-1.573753131057420776e-02
-1.574005971969206011e-02
-1.336727365974506310e-02
-1.128340590009752585e-02
-8.771773292895017338e-03
-1.200989770223147464e-02
-1.795352075650485588e-02
-1.475244548640520376e-02
-9.453931881120767114e-03
-9.008498828790893753e-03
-4.563636465954512209e-03
4.084996003260239761e-03
1.134085625506403745e-02
1.616448327269076612e-02
1.868713130680113230e-02
2.082752397489588680e-02
2.061006129994253852e-02
1.852255757961651997e-02
1.573468323059718996e-02
1.277820701140674510e-02
1.289107549149839244e-02
7.524049972429112595e-03
2.647854999898968144e-03
9.511781988902848900e-03
1.336373398067329174e-02
1.392532836878575958e-02
8.482396164186273638e-03
-6.227390326475416328e-03
-6.706794364808622844e-03
-4.195493166151116095e-03
-1.129127240133703108e-02
-1.127871120136607862e-02
-1.098256947607322356e-02
-8.472055390257353380e-03
4.603068822025044153e-04
-8.820431435115272042e-04
-9.651929111543861017e-03
-1.399235941085945692e-02
-1.152158992084220158e-02
-6.646216265836933992e-03
-4.453541453987272351e-03
-6.766664216084549918e-03
-1.094864272878134231e-02
-4.555621664215862149e-03
5.196767298501064718e-03
6.278562184837343033e-03
8.721122491583152211e-03
6.600527817875602443e-03
-9.929545910576079073e-04
-2.014316551043531488e-03
-1.652635658151872366e-03
2.259481307832703154e-03
5.880611928889590244e-03
5.390632906517919126e-04
-1.795403548987638005e-03
5.860395483889067718e-04
2.410083979998483335e-03
4.439930639884722384e-03
4.144239594749850146e-03
2.675512226058561743e-03
7.851968410772944490e-04
-3.202091271651720116e-04
7.429802465426353381e-04
3.102589140208274893e-03
6.600656559790107382e-03
5.879231332491586734e-03
1.891736683959417947e-03
2.040703915511243687e-03
3.510837224977387573e-03
-2.967046319434440364e-06
-2.882154875145560673e-03
2.134826461613278676e-03
2.445581114926563982e-03
-2.538215607193414387e-03
3.756179590176813134e-04
-3.835768741044124968e-04
-2.805441904301572090e-03
7.834500095974836036e-04
-2.057234297436746472e-03
-3.197628047184425740e-03
-2.051647920927730535e-03
-5.400571022043615908e-03
-1.715702548261244719e-03
1.662395054982998294e-03
5.156556561187511899e-04
1.809009666926572439e-03
1.306475462407375278e-03
-1.016224103943118035e-03
-4.374272136983499426e-03
-5.015898999749340142e-03
-5.205367001579452521e-03
-6.015826901984966911e-03
2.522183435616514105e-03
5.706771492146608428e-03
9.996742210473523894e-04
3.896715092826209207e-03
4.092200902427944702e-03
2.332164161339928682e-03
1.302044582590647414e-03
-2.011697707099392284e-03
5.760595232269367883e-04
-7.598139173258073534e-04
-4.792554275876966322e-03
-5.001439558433344807e-04
1.788767241362415432e-03
3.377951501188957762e-04
-1.204484226879555097e-03
-3.074707144636432913e-03
-5.430628233285865296e-03
-6.906094019973292759e-03
-2.872622322267596746e-03
-2.128583000860168137e-03
-4.745658923082335216e-03
-8.858731505956769000e-04
2.483867590571199862e-03
3.385487082106387186e-03
2.846448577735359673e-03
-4.964216015308035032e-04
-2.077647235124217145e-03
-3.340929801665999069e-03
-3.506308355939874010e-03
-2.835255762356304454e-03
-4.534907131097838662e-03
-2.243265150666280162e-03
3.276266097476520679e-03
4.253408335733093425e-03
2.011395432823179664e-03
4.034743061102618873e-04
-3.384421534850269413e-03
-7.484381632066323779e-03
-5.742273427959781323e-03
-2.541331302966356401e-03
-8.619356429660450774e-04
-1.524986080549645606e-03
-3.970477175785574499e-03
-2.922183390340670557e-04
2.872851280104078437e-03
3.462044960037090465e-04
1.551515857573436364e-03
3.165936487802569442e-03
9.127661489465977536e-04
-1.385353104456949142e-03
-2.056607820307038668e-03
1.929057357019496079e-04
1.456280232596638032e-03
5.805136472789111917e-04
7.152511152656377191e-04
-2.916664842197926651e-03
-9.868286903526944653e-03
-9.101874308301029920e-03
-1.472491180580993769e-03
3.100360680045791736e-03
3.866242600987761929e-03
8.427878318343127008e-04
-3.618283749416046063e-03
-1.978987089924775719e-03
1.815914750015077024e-03
2.172645122882919510e-03
2.977576304742196762e-03
2.790571919264250595e-03
-1.581162273562887509e-03
-9.725555248410487153e-04
3.787155949150673370e-03
2.000593451979315682e-03
4.397089820113894189e-03
7.929631626142819370e-03
8.228376358634034715e-04
2.003497599669561754e-05
1.179484581278199577e-03
-3.149698182002350078e-03
-1.744629320639240781e-03
-3.531481202864779605e-03
-5.364769665967006503e-03
-1.606101840980813603e-03
6.564536633957263577e-04
1.067148093871759292e-03
-1.848690486511932792e-03
2.229765930945321734e-04
-1.870348900754754615e-03
-6.576242494091982110e-03
-2.896180619488477378e-03
-2.523395934877942920e-02
-3.732082778053458921e-02
-1.086364298616456468e-03
1.311823593027961268e-02
7.316765672461732380e-03
1.330384445362369807e-02
5.880587287283070216e-03
-9.132714046350787034e-04
-2.501223273146849658e-03
-5.516451473920020755e-03
2.141468513268537585e-05
3.076429003963096660e-03
3.694569883505554285e-03
5.601044257500018171e-03
8.432864267205505970e-03
1.099640738120982383e-02
5.113580212231340523e-03
3.262952496855871937e-03
6.003357498062864353e-03
1.961427587349805907e-03
1.236290833441739800e-03
2.696639140279827925e-03
6.423870000880592401e-04
8.557855740834640007e-04
1.925542933461438927e-03
-1.310672332224833720e-03
-6.193239896413304385e-03
-5.928981317714406701e-03
-4.108395344105358719e-03
-5.714118712933756970e-03
-7.070957756822313263e-03
-8.318912054890065938e-03
-9.562873669838120247e-03
-6.148230799185259825e-03
-4.061486486077425491e-04
1.403691374486740759e-03
-7.950252266823768475e-04
-3.356338955492550475e-03
-9.913576753143179231e-04
1.509251758024910935e-03
-3.129495202604067570e-03
-3.249532782409101771e-03
2.808961206747743067e-03
5.100782237743512262e-03
5.939601548724646532e-03
3.466005024086255427e-03
3.125336456361853948e-04
-7.693178826306836492e-04
-3.757419712234485922e-03
-9.937328876870818190e-04
1.678920965567501367e-03
-2.523985464172269922e-03
-1.834098683276295287e-03
2.677995264100414678e-04
-3.600819950713605392e-04
1.874760229831723369e-03
2.370686929297842558e-03
-3.553415875656719099e-04
-2.756607224240653284e-03
-6.381122851232267322e-03
-7.431456137845166184e-03
-1.878562177451907405e-03
2.291348467555434382e-03
4.209857040408169007e-03
7.651639911225855198e-03
7.030718661165819179e-03
3.850525030818849684e-03
5.082758101713556569e-04
8.814467016368850161e-04
4.547581985514989253e-03
2.824726963463030770e-03
3.472911622691826888e-03
3.315594779715685080e-03
-7.971800101042317765e-04
2.263099896874811150e-03
1.684676457540951059e-03
1.248858138839099819e-04
3.021010438300909644e-03
2.897677771009969823e-03
5.183035822792067017e-03
2.689816421362989894e-03
3.983581395799905799e-03
3.022490992067766117e-03
-2.882285127619173618e-02
-4.113384905901157351e-02
-6.234001805997104427e-03
1.387629351733347428e-02
7.592221707653474573e-03
7.732809359518556629e-03
-4.579109477336722710e-03
-4.135055850302596370e-02
-3.826274879907249488e-02
5.278714152128938242e-03
1.264911067147439679e-02
5.925249085669630732e-03
1.388584721022194726e-02
1.016957932211088288e-02
9.028811609501958754e-03
7.283109883502590816e-03
-6.341344173209668023e-04
1.605274679567359050e-03
2.927962098988677597e-03
5.177671225219958144e-03
8.584021616982769401e-03
6.270441795896510018e-03
7.464262892610841298e-03
5.323403062804545408e-03
-7.177159863872228322e-04
-1.508157370905759652e-03
-1.858893661159809760e-03
-3.214765402762673543e-03
-1.988082011738356771e-03
8.655201882361992453e-04
6.003386333599304309e-04
-1.402307410118863555e-03
-2.357152276194047612e-03
-1.472040274041109664e-03
-1.505154179039857134e-04
-5.194850622995414793e-03
-7.234286909027776158e-03
-2.429755396896837900e-03
-2.827711238351822767e-03
-4.653530246388040519e-03
-6.189771169655342020e-03
-4.417700887173313211e-03
1.630424383799485575e-03
1.723284960098358295e-03
2.833164180338367064e-03
2.994399464718137688e-03
-1.665829034109827123e-03
-2.831293812350695743e-04
4.506719500110675704e-04
-1.000825430392817631e-03
-1.255080627437152145e-03
-1.129963285133382504e-03
2.905536721139515520e-03
2.718289901137072116e-03
8.233609194074980285e-04
8.665466153612652470e-04
7.776356208165068084e-05
4.256418109516957662e-03
-1.257884484504274069e-03
-1.011494995094807704e-02
1.068550336072055960e-03
8.491728803277724322e-03
4.253546133443203946e-03
4.388237429741813876e-03
-3.959330278642918255e-04
-5.090475345682948967e-03
-1.223826673731653924e-03
-1.594582869786599286e-03
-5.537407329618047533e-03
-5.031000078131553192e-03
-1.389245486441681313e-03
2.364564659270388270e-03
2.774301504095861692e-03
1.445498593615485682e-03
9.713229565170145149e-04
-4.484926274758789695e-04
-1.514600550675291452e-03
-2.570019220349755579e-03
-4.106787656077552293e-03
-2.409671711932832080e-03
1.292813632671500120e-03
4.380216917255724644e-03
6.031883412252095344e-03
3.227230484384143241e-03
-1.032897392829532860e-03
-2.610598550152375043e-03
-4.862609962365483686e-03
-5.061897897695593306e-03
-7.429266067576051867e-05
1.287083148955434639e-03
-8.386245743682741328e-04
1.254385161380055808e-03
3.818167132722293140e-03
3.990408915316144903e-03
2.949559473866700254e-03
1.425465117111725374e-03
1.224630074178012897e-03
-8.579848585388567643e-04
-3.116907773345487399e-03
-1.132671487334932199e-03
8.981682642827558058e-04
2.467682412794534787e-03
3.221040083847823750e-03
-1.168280153400176949e-03
-7.156935435562286445e-03
-8.959426422310706739e-03
-7.107856978776392470e-03
-3.951684539062343821e-03
3.872127864208537362e-04
3.887617254984159117e-03
4.172169570849576688e-03
4.705625329971958350e-03
7.288285361128990676e-03
4.891110787155874932e-03
-2.369111726453900640e-03
-1.966551039460224127e-03
3.115109150821576602e-03
4.309607167827076042e-03
1.884346357656594730e-03
-8.271688180693126391e-03
-9.855565531883065528e-03
2.407598333927386987e-03
4.768831544360962842e-03
2.680922686062559707e-03
-3.481598448494935445e-04
-4.045852433495440020e-03
-5.651356598705372563e-04
-3.566359140752187098e-03
-6.179747018457488117e-04
5.441437415229356464e-03
5.441773176382506266e-03
1.753137900046721279e-02
-5.129787281031287886e-03
-4.341477112314934966e-02
-1.957515801382976942e-02
8.114668591260270139e-03
5.185245584761822082e-03
5.708982243013971392e-03
1.400085608333969918e-03
6.454013958470505418e-04
4.612622196889287242e-03
5.030681640721678359e-03
5.792718895047320633e-03
7.421669038680785233e-04
4.660149326579643143e-04
2.883543974500896775e-03
-2.921812264169550903e-05
-3.860532742220819163e-04
-1.362813410536713610e-03
-2.755735505536785327e-04
1.782372711945500333e-03
1.536099285451482952e-03
4.262850916138044219e-03
4.992520925241174766e-03
2.539915074689385981e-03
5.968339231903100695e-04
1.085686428543224764e-03
5.706270530687334187e-04
-4.016739140306206830e-03
-4.532790686208719270e-03
-1.424020329919077101e-03
1.910422565883376127e-03
2.866220021659338004e-03
3.529034286106836260e-05
-2.065583562374895526e-03
-7.702423610110459458e-03
-8.739178467133455405e-03
-3.777267816027362821e-03
-7.225983676130232590e-03
-6.042964918869913812e-03
1.534575069365788115e-03
2.854283282924231346e-03
3.074035210442987390e-03
2.152820712885795702e-03
7.521770384160072782e-04
-9.659304441874837135e-06
4.761193245838520375e-04
3.707311778638757663e-03
1.560840116834709412e-03
-2.169284743418496090e-03
2.074719427142270815e-03
9.044655564392222596e-03
7.990002117966561387e-03
2.137246132834494904e-03
-5.682213720100597401e-04
-8.888452119372692098e-03
-1.231632030730455372e-02
-9.911976618507832484e-04
1.920414867927401886e-03
2.350477509843536977e-04
4.148094639681435165e-03
1.981929023773571982e-03
-4.617566651508755830e-04
1.219357556987329862e-03
1.246505878879800933e-03
-6.412862807913964538e-04
-5.950294134759908163e-04
7.240561934682342117e-04
-3.899963757137032538e-03
-5.139675911897770635e-03
2.017785400187556075e-03
2.830278304447406829e-03
-7.067022220726608493e-04
-1.117789368466974489e-03
-6.348803741700791365e-04
-9.832297042822295014e-04
-3.519260548032015785e-03
-3.372438856972720389e-03
-2.535075705432003417e-04
9.196902501024815024e-04
2.617539345770627298e-03
4.013123223933058245e-03
3.140530144741690306e-03
1.979081502447071084e-03
4.965672796882125359e-04
-4.474148835000870371e-04
-9.574461810863409443e-04
-2.077755792880450997e-04
2.132602541212652320e-03
-6.068560471843227654e-04
-2.901068758010755429e-03
3.897490342250035152e-03
6.073857335378553268e-03
1.345774911270877870e-03
-1.538690441477003610e-04
-3.548650594439953405e-03
-5.077371120893868495e-03
-3.540462400488508105e-03
-6.835357441340733295e-03
-6.332008231584785284e-03
-3.033161726628398874e-03
-2.448855078053471020e-03
3.059956624828066851e-03
8.519106571761228888e-03
7.182663827142616274e-03
3.236943156016288368e-03
7.347539249856699720e-04
-7.083568912319749850e-04
-4.867826427543846257e-03
-6.820942594894761034e-03
-1.846154260693416965e-03
3.750288624198875806e-03
5.045917334718540669e-03
2.819242664128340445e-03
1.141644143941286009e-03
-6.601851417832662076e-04
-5.261185558377317294e-03
-6.681561970993449631e-03
-2.304101783405602781e-03
1.419875415938356370e-03
1.157519594198953795e-03
4.244635742704628125e-04
1.757624226785715589e-03
3.303040363092911783e-03
2.651256253017922424e-03
8.678024465449308980e-04
1.491449397148167160e-03
8.430972238804463085e-04
-2.833502504528657897e-03
-2.182768149220555478e-03
1.898379844105970294e-04
2.161926590175917030e-03
6.646618255233725618e-03
5.897196467603315825e-03
6.421620275666332705e-04
-1.562822554485739394e-03
-2.251816267227133017e-03
-2.605456421731987358e-03
-2.294503688022640417e-03
-5.974750438195758784e-04
-6.335254485397817225e-04
-3.787458102999269761e-03
-1.251504726945003830e-03
3.326072161619972843e-03
-1.213727584636368996e-03
-6.138166608311412982e-03
-3.103639899807547533e-03
-9.199074111138464977e-04
-3.194336326099332744e-03
-4.901292002386508327e-03
-3.552565197715581470e-03
2.555196284021559339e-03
6.352683357030109931e-03
2.220581135920271683e-03
1.622027452143363013e-04
1.229611720335350208e-03
1.239042054597063076e-03
4.259114302015587494e-03
5.292983387210048983e-03
1.967021233664310777e-03
1.586848145614393668e-03
1.891831899451386270e-03
-1.131471811170114364e-03
-2.632480493830656899e-03
-8.124154185032869636e-04
1.550128805813386947e-03
2.872846156685691845e-03
2.654971521712381306e-04
-2.572897546876528642e-03
-1.677967107131652334e-03
-3.253980291759946564e-03
-2.661649598050146170e-03
1.780812245947048858e-03
-6.753003299264992497e-05
-1.662647741664426224e-03
-1.328834044221306829e-03
-3.265601749183207579e-03
-5.684621387214321749e-04
7.206485854463420696e-04
-2.665131960873602310e-03
-1.976764305781203955e-03
2.984054331917073127e-03
6.467792023408750618e-03
3.763104452958198481e-03
1.445592086459496781e-03
7.745325938188459599e-04
-3.680679883768097835e-03
-2.934752358028392630e-03
-3.481725577945414801e-03
-1.053566730659817770e-02
-5.901964565749387437e-03
3.348094771812877308e-03
4.507914098672328139e-03
3.513287680467116168e-03
-1.076816293205116190e-03
-3.966908763313747172e-03
-5.667439492420727268e-04
6.496699233349386348e-04
1.296863557840424556e-03
3.559107069664315705e-03
3.702291215306486964e-03
4.316605798199012363e-03
3.885335986522236475e-03
2.012042144779075954e-04
1.663910981570455557e-03
6.222848422210229893e-03
3.886163859664888958e-03
2.255016196526248278e-03
3.348256643407358617e-03
1.178663948344260692e-03
2.305996865140556244e-03
2.576722861410152450e-03
1.458844560826306992e-03
2.867943996231901195e-03
-8.532501979198420326e-04
4.100830030038504423e-03
-2.275154225648735743e-04
-3.880167574008597242e-02
-4.540657257067948205e-02
-7.716518575589936292e-03
5.036211249192498740e-03
3.772538105448898504e-03
9.898902877037768153e-03
7.962988165726042969e-03
7.269596063232639307e-03
6.718009724211286039e-03
2.115161658796369838e-03
3.475569273378764472e-03
6.635384491827565033e-03
3.091634655189611012e-04
-8.925931326432597762e-03
-1.266143041153584186e-03
9.353061073021870855e-03
4.846779331608034279e-03
4.564186749511540096e-03
6.912644846051299238e-03
1.420133612815062006e-03
-6.448979423881132534e-04
-1.568405274915513894e-03
-4.053705825147499268e-03
-2.539582241848557104e-03
1.823853730855533274e-03
2.886691149312323179e-03
-2.755262786370528665e-03
-6.236666557984955200e-03
-5.130154904503920164e-03
-4.190839136058951454e-03
-2.850451914327638281e-03
-2.406263150633105013e-03
1.473778515270589675e-03
5.565321364308200604e-03
2.691770559161579465e-03
3.118517777866454746e-03
4.996957692465284553e-03
8.350510999011711687e-04
-9.545858736239312085e-04
-1.107889481885911305e-03
-3.692553956246855465e-03
-5.091396018217587797e-03
-4.390797937821822039e-03
-3.171996786839026395e-04
3.163800739697990826e-03
1.468418411609946628e-03
1.492090215819321785e-03
3.603270251664011242e-03
1.513767301215265901e-03
-7.234479809389378260e-04
-1.126682615128313464e-03
-2.750026621851432360e-03
-5.318596659273249795e-03
-8.290644685185033502e-03
-7.051729496504666878e-03
5.960139351087764912e-04
7.697903040730143080e-03
8.288762098350681631e-03
2.498038030200272139e-03
-3.136178789749431966e-03
-3.556952301851255306e-03
-4.522776188023700558e-05
3.600145588601927956e-03
3.713132789284253037e-03
2.476306531935649341e-03
1.426314992865415892e-03
1.457107971598984447e-03
3.951531237788978926e-03
1.709676365970979684e-03
-9.023246383893844622e-04
5.334128698773577893e-04
-5.257042681703003040e-03
-7.817708469061721357e-03
-2.130809092577361143e-03
-7.093896521143267788e-04
4.435741440824971134e-03
5.586662357107245735e-03
-3.426465403159414339e-03
-2.763226481310933954e-03
-1.239691561045778209e-03
-5.540564230788791282e-03
-2.228796026551718192e-03
2.318417108118224577e-03
3.901230794205725379e-03
4.462218770878724136e-03
3.356569730501330652e-03
2.735931747893486764e-03
1.715027304315585146e-03
7.915560150285464499e-04
-2.869327574100710189e-03
-5.698551451733077644e-03
-1.597276173520951852e-03
-1.778149129098089559e-03
-6.531966998052730899e-03
-4.963031420069815430e-03
8.899128664259425749e-04
5.243874067998624024e-03
6.207414188669393117e-03
5.727516578886799811e-03
1.756408418023149834e-03
-2.736717263731367963e-03
4.140651856622867876e-04
4.282106693496132849e-03
5.055794731663837763e-03
3.453948576754757322e-03
-2.146191556192923733e-03
-3.378985565406986136e-03
-3.349227478826975225e-03
-7.422960227910796287e-03
-7.646518303473221964e-03
-6.906064834282717516e-03
-7.586200376860724459e-03
-7.334705414113715932e-03
-8.638883073783300628e-03
-4.326852741717082673e-03
4.787077622928851556e-03
6.476942488453477607e-03
7.154182205199959704e-03
1.238235878553530650e-02
1.418814650834296365e-02
1.339852384112273989e-02
1.194463062037536341e-02
1.013384414680684568e-02
8.808906705057841999e-03
4.511617548562820920e-03
1.138416209727659018e-03
-6.835103913686215588e-04
-4.672198402999522444e-03
-8.743297109474770096e-03
-1.462783385600683293e-02
-1.900166099012965196e-02
-2.043054014329835633e-02
-1.901966656701408256e-02
-1.173578824245941760e-02
-5.665471996233783017e-03
4.796119574761517623e-03
1.419997102469944088e-02
1.433576847099147719e-02
2.492420744904451368e-02
1.676945279139855152e-02
