4.459926132140816860e-03
8.767943237873705373e-03
1.127703389469045595e-02
1.751790516452309335e-02
1.530424948882400972e-02
6.915199210363987860e-03
2.662323428693278218e-03
1.083760362301945624e-03
1.007367997888082177e-03
-3.621048220440412860e-03
-8.938671723414708808e-03
-7.961462258094978428e-03
-1.190654741978782599e-02
-1.585955962167236166e-02
-1.180537440253071925e-02
-1.030085505513034412e-02
-1.143378680879844622e-02
-1.051134942008279810e-02
-3.377450664112039390e-03
9.352979025127529811e-04
-1.159604104394991279e-02
-1.431180857006912784e-02
4.907758925594835932e-03
1.507335921862347321e-02
1.273942725512506972e-02
1.095330529865696373e-02
8.899300082258473216e-03
6.057408132551028550e-03
3.534682301273671737e-03
2.844659247446333205e-03
-2.965682452431801851e-05
-4.984053742005742013e-03
-5.289732628829964776e-03
-3.407433277335654952e-03
-1.490944598379275073e-03
-1.363744917925661221e-04
-8.855268815452867247e-04
-9.427705919036237720e-04
-7.455954389953849040e-04
5.169673206324716490e-04
3.776887890548155657e-03
5.054909777564037254e-03
5.002998453878433789e-03
3.520854227121927513e-03
-5.383005550188191724e-05
-1.397193611305970603e-03
-2.492749855958704790e-03
-3.927535309152145084e-03
5.532514063617938703e-04
4.404490223898073313e-03
1.346993100851510191e-03
2.170293666547379958e-04
-6.832578799544145043e-04
-5.078509416532646197e-03
-2.466080081433723748e-03
3.566017821651416061e-03
2.748793159482352481e-03
-8.369541135502781720e-05
-1.317479739884972389e-03
-9.509645322561709928e-04
9.925644123740435826e-04
1.460051588616975661e-03
1.532715053834319847e-03
2.679691226506536288e-03
9.986243859521923370e-04
-4.022972043802174220e-03
-5.236043788044865595e-03
-2.487991793037287258e-04
3.626108390811266010e-03
1.891038781987420614e-03
-4.057277432510815983e-04
1.653427345794780895e-03
-5.920019434730932565e-04
-9.251118104827187744e-03
-8.679740294515101567e-03
-1.411387875080786971e-03
1.392515501691178820e-03
2.845001087505311804e-03
1.982901832293675407e-03
1.135266227038420842e-03
9.937649505259674599e-04
-2.948816935144570224e-03
-1.479197775755842397e-03
2.234565321317629610e-03
-1.006462476386383101e-03
-1.710681162472996782e-03
6.179176815470870500e-04
8.007427272562009108e-04
8.255203387074382332e-04
1.829636085743021560e-03
4.227939447988423270e-03
3.088040165308534885e-03
-1.158824957769487773e-03
-2.028798770664727406e-03
6.258284826905140090e-04
3.315208579629794726e-03
2.240122859520681832e-03
1.465369343621085799e-03
1.356760844816842391e-03
-1.827482238289337112e-03
-1.062231402513171951e-03
1.839410523569584967e-04
-1.754131819462354230e-03
-1.030661912212895055e-03
-2.431849312516805219e-03
-3.929723111483027220e-03
-2.659885941941377615e-03
-2.682048283754951204e-03
6.805542236318902309e-04
4.040931933598664733e-03
3.363926681502503024e-03
3.294898553474142483e-03
-3.136971576975214251e-04
-5.932858914225441933e-03
-2.366061673136980650e-03
5.505789419694030913e-03
5.010456550526102941e-03
1.600755671554207138e-03
6.085520503934829491e-04
-2.449815064622364903e-03
-2.188446780952985581e-03
2.602175201554929838e-04
1.720284407136147046e-04
2.203035965435305374e-03
9.796411064454647009e-04
-2.990406198988546267e-03
-2.929112895249332341e-03
-2.489131541600897706e-03
5.633922266943779665e-05
3.537819581117584815e-03
3.457332524482251927e-03
2.969840304696069223e-03
3.589938575774849873e-04
-4.767177243858258286e-03
-4.646789371501751365e-03
1.271690634625107473e-03
2.957788625813721848e-03
6.522243052475029147e-04
1.570038506224563299e-03
8.632808007305198825e-04
-1.343222992258568966e-03
-9.717949750746448330e-04
2.808658012753924337e-04
1.966962830486786596e-03
-2.196086023656284268e-03
-6.433908611659277382e-03
-2.261651853539328565e-03
-5.665593491553489553e-04
9.594568668363355913e-04
4.943294810944048011e-03
2.911477562542046787e-03
1.167594124480856926e-03
-9.129436703523241504e-04
-6.329473415853647048e-03
-5.086027267447193641e-03
5.808709295279586597e-04
3.044707050587146246e-03
3.986930333833120510e-03
3.958001509883954556e-03
2.144938069191912929e-03
1.929755142155342197e-03
2.568439199706013497e-03
5.891451883053659948e-04
-1.230447643883865949e-04
-9.489296289421655407e-04
-4.444776838106231226e-03
-3.230771942477261068e-03
1.565576007701496939e-03
4.206668093837639261e-03
4.522027404915347423e-03
1.685063310620706339e-03
-5.488843492799831084e-04
-1.470565582991580208e-03
-4.712703342790861179e-03
-4.690625905165061310e-03
1.334638754278686030e-04
2.944749767571882334e-03
3.213671798969623943e-03
1.533226862538293123e-03
-1.656166100368518116e-03
-8.607485119091842513e-04
1.577485847341867677e-03
-5.616476214551050124e-04
-1.554812414635309411e-03
-2.668779842060174656e-04
-3.176613101819282178e-03
-4.840898835356925722e-03
-2.448532995523054409e-03
-1.183245483916961277e-03
9.610610270315935767e-04
2.110726646689395011e-03
5.756774844155381973e-04
5.834168570529056543e-04
-2.003574101351103011e-03
-2.999629608275975780e-03
3.927332406467217048e-03
4.026018529084086570e-03
-2.809625260799368269e-03
-1.308817272543688019e-03
1.553649608744844509e-03
3.342990063040214652e-04
1.518045704308263388e-03
1.886380235086723960e-03
1.338530259546325289e-03
2.339563112248240449e-03
-1.214416312059550627e-04
-2.752210865730706033e-03
3.877794137354826569e-04
4.233498998617296095e-03
3.379310370863723798e-03
1.795111927518055041e-03
4.113411295409913522e-03
3.015127506205232504e-03
-1.746695015809979559e-03
-5.628272809016181656e-04
-1.308736094662681353e-04
-2.508728901131548070e-04
4.686547894230279343e-03
3.666415626029932880e-03
1.097987032466027834e-03
1.466969294602217446e-03
-2.045508651613010646e-03
-5.250559443782930671e-03
-1.394212149797256599e-02
-1.998033895494343709e-02
-8.109296857487296659e-03
-4.592763008921914238e-04
-1.556858520780183457e-03
3.877902621692849022e-03
7.126742891136958642e-03
5.328005634597609078e-03
2.075777867179348299e-03
-3.025329221421590910e-03
-3.825798057988133872e-03
7.468896095668435455e-04
4.354621627866326131e-03
2.920244856294112665e-03
-6.799384971656224669e-05
3.368682844319369749e-04
2.518910927791551124e-03
3.711572762863800130e-03
4.089282392594718527e-03
4.386981613770169972e-03
2.989356554285295484e-03
-7.820883963257474047e-04
-3.363772721088260833e-03
-1.562383538635210957e-03
2.280741280784232862e-03
3.934969254385605429e-03
3.941169076691282240e-03
1.259857478545834764e-03
-3.316906640522429475e-03
-4.095018896571332549e-03
-4.013530848041759608e-03
-3.600147536082032220e-03
8.415859708144911885e-05
1.292080165442032825e-03
7.275810928138111465e-05
-6.566491324354139071e-05
7.808263457384541232e-04
1.842543811016017670e-03
6.983199913575502838e-04
7.778767164452973391e-04
2.388726146971467418e-03
-1.622269994787735228e-03
-5.986658849989296566e-03
-1.999311683004670326e-03
1.474176154956000724e-03
1.510310871663610383e-03
5.844517898300139597e-03
4.513701327962169746e-03
-7.562791266364897068e-04
-1.212326597049023617e-03
-9.248690305796333083e-03
-1.034268828066954755e-02
1.106628000959171887e-03
-3.132704483497900615e-04
-2.492842420923395853e-03
9.248467106700100377e-04
-1.004875852260873328e-04
1.867205916243882234e-03
3.352821422519852625e-04
-2.157684837510754911e-04
4.913725393815087175e-03
1.752955619067528194e-03
-2.106808027954561353e-03
-1.688915873392104984e-03
-1.440972068963876709e-03
8.573810124890766634e-04
2.441524547095453180e-03
3.422445763896581495e-03
3.962767996562692463e-03
2.448237287624777537e-03
-5.852478740970572160e-04
-6.725912150623016787e-04
3.682417491392226717e-03
3.470114083921505867e-03
5.461057428981148411e-04
-9.922234687958278714e-04
-2.052913741635116560e-03
-2.031640289389758714e-04
-1.901485559589032297e-03
-2.064502017346272165e-03
2.690171444695028079e-03
-6.559366819864506865e-04
-5.387707263807702505e-03
-5.099670889549060004e-03
-3.283992553137748179e-03
1.472220249748359359e-03
2.667816960729426940e-03
7.026154889926024532e-04
2.128085236393257012e-03
3.374187796124152993e-03
5.713058826568970412e-05
-3.518501279185654897e-03
-2.320431319801373503e-04
4.029402364284317625e-03
3.209499362572876876e-03
2.001163212476018798e-03
1.787100462698535753e-03
8.987203497704052265e-04
-1.446728913410857574e-03
-2.543290895108166541e-03
-1.023993135780616954e-03
-5.927819019260571840e-04
-2.152889640472196824e-03
-4.095354541661553986e-03
-4.390165678370824484e-03
-3.174527570466068385e-03
1.865610877280919969e-03
7.247165471121275529e-03
1.879080648095672384e-03
-3.366113601404209857e-03
-1.337653956860857538e-03
-1.557035892633772470e-03
1.150471491385982601e-03
2.574238158195822721e-03
-1.382830275671072381e-03
9.366882094519004046e-05
1.334068492198278548e-03
-2.913389823873502142e-04
-3.723557546216984572e-04
-1.380436276771124758e-03
-3.643799526544764253e-04
5.636279834808155878e-04
-1.043725425313263896e-03
-1.676022773556296377e-03
-1.116571995684023525e-03
1.230614015120433001e-03
2.484875731817319088e-03
1.657697641389894181e-03
2.401811368479497139e-03
1.530229543694280924e-03
-2.591137181848164866e-03
-3.029014121864305985e-03
2.369412231949802241e-03
5.298737331545558780e-03
2.712911695436263839e-03
1.286673253088409501e-03
2.765500335318845770e-03
2.386237502923714213e-03
-5.684604161113235819e-04
8.737371363043047300e-04
6.183438392021914365e-03
4.027906547497440981e-03
-4.191832233704832766e-03
-8.232673513137870117e-03
-6.670151518583103574e-03
-1.976111227225114172e-03
2.085115119999210453e-03
2.114695861409246654e-03
-9.028129799324731810e-04
-2.539597740330561387e-03
-1.858335758952869322e-03
-2.671347977294639877e-03
-2.016714967807760762e-03
4.763453984921564078e-04
-8.472645493564700614e-04
-2.020626691229273665e-03
-2.393708602471203602e-03
-3.923941247546519108e-03
-2.396519357497831852e-03
-8.275896118875429065e-04
1.340429379338133791e-03
4.411615033599524012e-03
1.599281212425017603e-03
-3.679348753498335161e-04
1.142574174601619121e-03
8.943277780250484576e-04
2.920157056297434644e-03
4.395206852286968890e-03
2.905659414938633039e-03
2.047089901331532614e-03
-9.437941177667800215e-04
-3.315639496115596954e-03
6.068583086242525064e-04
6.484826568353000038e-03
6.691988537810829134e-03
1.875239536787643747e-03
-2.191308254418242434e-03
-3.518776541716370481e-03
-1.133694194395132781e-03
4.960393675524884301e-04
-1.211718512560847148e-03
-1.450540486837298502e-03
-3.868049942023121107e-03
-5.462803962601642076e-03
-1.307622975695078588e-03
3.096878314192597786e-04
3.039176479315423927e-03
7.487216004780725825e-03
4.455610719633226746e-03
-1.929328734150854974e-04
-2.096382657103863442e-03
-3.421112991244469343e-03
-2.624494928779473688e-03
1.842688883665066237e-04
1.302353608025662822e-03
1.462425854922633282e-04
5.445450785714391886e-04
-2.450821621452195856e-03
-6.372537879488731141e-03
-1.506801117591792310e-03
3.423261112226331018e-03
5.297427372565916871e-03
3.342823914397741528e-03
-6.942617765359280178e-03
-9.884566433590933135e-03
-2.715451969513834034e-03
2.270964556812503973e-03
4.719223058659342829e-03
2.858063715687387055e-03
-4.672711286011964837e-05
-5.870875022231311635e-04
-3.597606644650146786e-03
-3.957808921057620090e-03
1.850814872938493297e-03
4.317967283346365280e-03
9.045955146215559897e-04
-2.383500721605682311e-04
2.855988818647528515e-04
9.160152226485768255e-04
4.817536122512573737e-03
4.550948287967032137e-03
1.343163885828277350e-03
-1.279050847033522315e-04
-4.247276848665760413e-03
-3.099812104878061931e-03
9.303337063000378633e-04
2.023788483450066761e-03
5.428626433818321308e-03
2.536055814327473241e-03
-3.365386836216691969e-05
3.498294266893466845e-03
-2.398977214959095228e-04
-1.779887984899766740e-03
-4.603916084877513327e-04
-1.702127947069274243e-03
2.646814987768735233e-03
2.578164171993334915e-03
5.380544428713582338e-04
1.743309023569961048e-03
-1.256495101564387160e-03
1.458499357452999311e-03
4.199963211390945680e-03
-1.428897253477027661e-04
-6.377070871230835179e-03
-1.979086812255058739e-02
-2.154369049401445163e-02
-4.117819303134031758e-03
6.722879505799016567e-03
7.118105841938266939e-03
3.279898160858562423e-03
-1.019245001178468567e-04
3.375129913686027053e-04
1.766122586181349732e-04
2.036912494123412857e-03
2.976674351322217311e-03
4.165882382296425186e-04
3.349990486026949979e-04
7.952457239183341117e-04
1.187094439318984920e-03
1.719518095442799672e-03
2.662200320243363928e-03
4.134696468164367721e-03
1.150225340150248408e-03
-7.240812921022564538e-04
5.517622675001010836e-04
3.160461607927702145e-05
2.526403004007475757e-03
6.698978597748576728e-03
7.179199877011589910e-03
1.269816799207276747e-03
-7.115623456137225820e-03
-6.659249656938981410e-03
-2.431604852673133026e-03
-1.550155158443648827e-04
2.690430107028883751e-03
1.215178475257434020e-03
-6.018687920919607928e-04
-2.011198565629736257e-03
-5.217266920379748894e-03
-1.080783023741181421e-03
2.987431080715416583e-03
9.629220017926340284e-04
4.713816052446940900e-04
-2.560468977031745644e-03
-5.786760742591455509e-03
-3.848142303594279199e-03
-9.575140486686783753e-04
2.757978151035444473e-03
4.426545704800182238e-03
3.102414903950896294e-03
1.125137740840649906e-03
-1.223016205677360073e-03
9.580018894682888362e-04
2.979905254014092453e-03
-3.107564292980208830e-04
-2.896045361700635458e-03
-6.546190365418510029e-03
-7.034221075780015299e-03
1.883689366149526520e-03
5.363165146647239957e-03
1.431705836373549324e-03
4.007027290358974522e-03
4.733510647954012295e-03
-1.167798545930547136e-03
-1.263123432981110277e-03
-9.665759601389027449e-04
-4.623253558805355198e-03
-1.753896753076535173e-03
3.454817760579333673e-03
3.932763403312600041e-03
1.013986120615481502e-03
-2.561739740403030496e-03
-6.104860738050656111e-04
3.445580676988548724e-03
3.695916089231414837e-03
2.666942657406116361e-03
1.119999790584820911e-03
5.325481091286546646e-04
-4.989792197177805172e-04
-3.700571089910816361e-03
-2.781119086487888331e-03
6.129633874228274408e-04
-2.463528451909070480e-03
-8.915158382403377477e-03
-8.099275874063364619e-03
-5.313385612405668390e-04
4.203424976081710125e-03
3.788675700722202513e-03
2.653142926985207605e-03
2.000647540416307553e-03
1.831278709548570601e-04
1.210930980648385448e-05
1.851139961496374399e-03
1.630631995867872224e-05
3.798839994579429700e-04
5.587652916025896872e-03
2.945884421667491464e-03
-3.536687146024826509e-03
-2.082707006097371354e-03
1.033703807147026265e-03
4.975100441911262344e-05
-2.820724744537464381e-04
3.528517264396141919e-04
-1.796335710057320916e-03
-1.862512792243867276e-03
5.259216869902170414e-04
-4.218488926640592113e-04
1.209031676152913341e-03
4.425752184483212372e-03
1.802916713162683749e-03
-1.737725961584055730e-03
-3.855369972788542845e-03
-3.958331871197497652e-03
-2.089911061711575372e-03
-6.813257995145577351e-04
3.127457076892534594e-03
4.694292164173157790e-03
1.686973071250376724e-03
-7.872120734165213678e-04
-3.302254452933503330e-03
-7.178723158816087803e-04
4.096614181500993213e-03
1.782969324587853474e-03
-6.189337423887100818e-04
-1.091265423726238025e-03
-9.758921319216041883e-04
2.412492362663260989e-03
3.035159731817375309e-03
1.912077179477420646e-03
4.926493600568547255e-04
-4.809076231417522967e-03
-7.354737981122128933e-03
-4.302343574314316729e-03
6.910460161319270222e-04
2.161961389244044986e-03
-1.342450881007251117e-03
-1.590591407357452652e-04
2.751929138793134718e-03
1.096872959296237319e-03
3.829485350489407339e-04
-4.392920779314166721e-04
1.214440773544123294e-03
3.604455904005475411e-03
-1.258445559857522718e-03
-2.990296396687206881e-03
-3.192052092443255652e-04
-7.771269047994137230e-04
1.192202267671746592e-03
2.432132348409743808e-03
8.417162451612604903e-04
8.224764771249679432e-04
-1.051546154417107998e-03
-1.970735513113348186e-03
7.929844650149208253e-04
1.372385461225620034e-03
-2.266571368933957434e-04
-6.889305102754050250e-06
1.205886393475326575e-04
-1.952471367300294240e-03
-1.030594935944920219e-03
3.214710663471320815e-03
3.704603407942310030e-03
1.062302351408207866e-04
-3.124042327315174148e-03
-2.574745162544458607e-03
6.226543244645825535e-05
4.069047371906841810e-04
7.546241841022620443e-04
1.580737644404989033e-03
1.974731186338171424e-03
3.326500854139840049e-03
-2.218261521155092623e-03
-8.809661185693998253e-03
4.069185471029594355e-04
8.874716394909868203e-03
4.797058402764870812e-03
2.108781972502355665e-03
-1.761094870363807659e-03
4.532831444996270704e-04
4.983940127714562955e-03
-1.499263450429723366e-02
-2.496530084262967020e-02
-4.138004887508050372e-03
3.329853386433857376e-03
1.247546558309607732e-03
5.649602531804624739e-03
4.999360785658451926e-03
7.439489824147159022e-03
9.345690455715031930e-03
5.640903638391745779e-03
3.872669604854535406e-03
1.801510913616137478e-03
1.767767775142216856e-03
-4.355224629394902178e-04
-4.270672113726704799e-03
2.113520789621074335e-04
1.260043060638721011e-03
-3.358060089716847618e-03
-4.955717098722733655e-04
3.719863325724998525e-03
1.028422940203572956e-03
-2.578665018825384778e-03
-2.360671395171288871e-03
-8.111248468360150298e-04
-1.393428683080770599e-04
-3.298992390645816633e-03
-5.142648797155901716e-03
1.608669940015309587e-03
3.366695983736288887e-03
-3.577593398677868936e-03
-7.109686106730320372e-03
-1.053840691885359580e-02
-9.731702631272570736e-03
-1.132000472827539468e-03
1.814001951473208363e-03
2.936493649862994236e-03
6.995692870208359768e-03
4.847538307944412352e-03
2.516112514782248549e-04
-1.922848802932137341e-04
1.698255297086017539e-03
2.946403569219879347e-03
2.865668402365750995e-03
3.073198960244042776e-03
1.127298796664510504e-03
-6.999510554810897548e-04
2.108616364164347771e-03
4.040796742819280189e-03
3.793158763674249739e-03
2.152166834672006486e-03
-1.344486349077938419e-03
-3.774255248675494924e-03
-7.774196480195419597e-03
-7.919886022103779857e-03
-9.703155037230395399e-04
-6.034310006223792943e-05
-4.855641951465106305e-03
-6.629524510141288074e-03
-2.604154721879495867e-03
3.999388632413185610e-03
4.873963814269087307e-03
6.563027810070757792e-03
9.888586028447750656e-03
6.778738684867046185e-03
8.683740454896216737e-03
1.554432310043639409e-02
1.714916307840303952e-02
1.673635100023002781e-02
1.199269004337402515e-02
1.698712705002177522e-03
-7.302346077283169805e-03
-1.202198311194267732e-02
-1.378475292673677667e-02
-1.398964243720894271e-02
-9.873775079844743230e-03
-1.658229648383948308e-03
3.635397107711550030e-03
1.048560368380163643e-03
-4.445910362526992766e-03
-3.776765385364339467e-03
-7.061240533013241061e-03
-2.774067534787451675e-02
-4.651657717402337550e-02
-4.604573232122684961e-02
-3.557003527904453732e-02
-1.433741385662287531e-02
7.983199839959561825e-03
6.357214497582813414e-03
8.267999494913790340e-03
3.854401150947862897e-02
5.193180468001503541e-02
3.148222369559251083e-02
1.186567896593561898e-02
4.775732872955709002e-03
6.453846567689855256e-03
8.751180207946894843e-03
2.507153644922144580e-03
-1.499524562456231239e-03
8.836381822362885177e-04
-4.430944445223699191e-04
-9.374587855392493797e-04
7.034520619061425221e-03
1.769979046698193573e-02
1.885107647799860037e-02
1.150942865148738871e-02
1.557804481319509035e-02
1.865602269614202377e-02
-1.069668239409467779e-02
-4.504050662992130361e-02
-4.892288129345311043e-02
-3.556980965726142668e-02
-1.593853871773331932e-02
8.062155162622734392e-03
2.376920151445446883e-02
2.796134432124580335e-02
3.338797401939071902e-02
3.985683566470262645e-02
3.475077353804635616e-02
2.913657940624048842e-02
2.645823255528430631e-02
-1.224573462748443581e-03
-4.687505181493574480e-02
-6.435050516272583510e-02
-5.084529781917306035e-02
-3.649328269588932722e-02
-1.622070621467123705e-02
1.428025593585373646e-03
-7.884019180239341604e-03
-1.575510951804166490e-02
-1.913240858976998984e-02
-3.493281283474477389e-02
-3.663332717333451366e-02
-3.400081057112458449e-02
-2.955606829435565922e-02
1.300399238708017241e-02
6.971453538066602063e-02
8.687243847613639047e-02
4.920924706421297978e-02
-9.593231555634169558e-04
-1.737358732659670738e-02
-1.724865589080163547e-02
-1.498819213478425581e-02
-5.158897787422521246e-03
1.930562217158388527e-03
8.674831291357930005e-03
2.103331224642097236e-02
2.833435311055333347e-02
2.018811710878299151e-02
9.148659150763684481e-03
4.415715661118048072e-03
-4.043973221455294392e-03
-5.428545923160254735e-03
3.184461110616992972e-03
1.131397752515120314e-02
2.684834549206313592e-02
3.471350653203379710e-02
2.204679664348930049e-02
1.056707482561000666e-02
5.538439361450141554e-03
-1.389248478103286824e-04
-3.086302408779580033e-03
-4.003205955648519651e-03
-5.799773531353626284e-03
-8.308572505411769907e-03
-1.105471983439087515e-02
-1.097054756691862379e-02
-8.322851075896262399e-03
-3.383821665414665173e-03
2.251850375199376461e-03
-5.662474415191883284e-03
-1.967885399066833518e-02
-2.033436730714262980e-02
-1.437318006446783314e-02
-1.535016750443487545e-02
-5.808082489429743783e-02
-1.268276918388883123e-01
-1.348986760156533071e-01
-9.262407776205361376e-02
-3.969302709095634540e-02
3.276648064038128333e-02
8.199242228202510696e-02
1.088622060250523105e-01
1.326853022776988966e-01
9.324393645994373536e-02
1.178250992781637758e-02
-2.598805450368458017e-02
-1.248503566726896601e-02
1.982256774084132853e-02
4.089537559395104577e-02
4.304718770621794588e-02
4.200515455050773256e-02
4.052594526415943116e-02
3.645473283078357052e-02
2.770287264782889808e-02
-5.925794380017827823e-03
-5.909056110560683556e-02
-8.302411047313158765e-02
-7.190801586340798968e-02
-5.893642750300190358e-02
-3.804627649001133399e-02
-3.972472310595989362e-03
3.117829121928634983e-02
6.309873486950502708e-02
6.322002013511089646e-02
3.088013748908982614e-02
9.730275849507403693e-03
1.014445132800578363e-03
-4.927601081074538779e-03
-8.610183178974116979e-04
1.480575626796749086e-03
3.589920669466824775e-03
1.101934739872856110e-02
7.272125092839882426e-03
-1.121927244684012108e-02
-3.021826737745577154e-02
-3.799185829709787049e-02
-2.991894141042576380e-02
-6.324754777936098492e-03
1.379434111394488641e-02
6.667068879475336260e-03
-2.542791148940086801e-02
-8.137188421349134115e-02
-1.389537531109318880e-01
-1.547771532302047170e-01
-1.258495356284683175e-01
-4.307387059140911634e-02
7.668053226410823098e-02
1.588030785298441827e-01
1.841091130254871311e-01
1.628507731515409507e-01
1.018635990818852893e-01
3.430282054690279164e-02
-1.861121110854151162e-02
-4.352921597864302383e-02
-4.187135432524482365e-02
-2.087333661633635970e-02
1.972181172081206163e-02
4.915011857039391224e-02
5.828861506242377644e-02
7.110637364110369840e-02
6.939186671873717738e-02
4.231731338667259201e-02
3.645266853509566973e-02
4.589003478537891784e-02
1.461561569306252945e-02
-2.462987245843399620e-02
-4.428923571329700798e-02
-8.260610690128300515e-02
-1.424670434464273272e-01
-2.242774057770664520e-01
-2.882398358180321418e-01
-2.685159662308441164e-01
-1.681488620785863974e-01
-3.592410063360447839e-03
1.594216553788453394e-01
2.562094188694375996e-01
2.822369604172249025e-01
2.122836430396925489e-01
9.261506138047675973e-02
1.330739807957198768e-02
-1.313628974706821176e-02
-3.840111985462819899e-02
-8.729501178809506712e-02
-8.914594861281062432e-02
-8.332972786586334557e-02
-1.244806280779779811e-01
-1.122227862039785057e-01
-7.773949728952175842e-02
-7.083169629204812134e-02
-3.103510163204923483e-02
4.781453811313701036e-02
1.669867524490703803e-01
2.439576196159004007e-01
2.307843717287959839e-01
2.285363510083200655e-01
2.284010198155746185e-01
1.799095559003618117e-01
8.107823676384011413e-02
-8.617375001762959952e-02
-2.604842496953937436e-01
-3.455449031800379434e-01
-3.284725822538976936e-01
-2.110976605928314709e-01
4.824964036177997392e-03
1.590361019377727891e-01
1.737969140551351710e-01
1.867994600255430127e-01
1.475369860096993613e-01
3.703382835673708906e-02
3.809375664993351618e-02
1.147844315365638967e-01
8.012839532653218133e-02
-1.221660355148848076e-01
-2.751417967671910825e-01
-2.432549537459261502e-01
-2.312914788195167271e-01
-1.942576892670927480e-01
-4.108420508382146230e-02
-4.505720659536939510e-02
-2.404546256882904576e-01
-2.850820918484566757e-01
-2.507691214446090833e-02
2.010795643664274879e-01
1.894669268969156606e-01
2.210023905658850818e-01
3.028979337381279557e-01
2.385031491491758915e-01
7.483731963328939252e-02
-5.451312168694728844e-02
-4.634728104364714552e-02
-2.068805276614434085e-02
9.072705962775918370e-03
1.738463604742883084e-01
2.236967529707228064e-01
4.215953623108934650e-02
-1.123434310712778383e-01
-1.256401748967837240e-01
-2.177375349904752191e-02
1.446052945013752145e-01
2.587770716892288658e-01
2.031209245157322152e-01
4.909399827647822206e-02
-2.740889025875013416e-02
-5.773825050549769022e-02
-1.260905949470683962e-01
-1.641411118440734285e-01
-6.778547234896235840e-02
4.682799507609882589e-02
1.156838884254544897e-03
-1.453965098365881670e-01
-3.589600299679869821e-01
-4.951040008820504768e-01
-4.011961572777292817e-01
-2.868897746344573618e-01
-5.856438531942456671e-02
3.331532741490512151e-01
3.521919657710912976e-01
5.439579062599483872e-02
5.655209882858951154e-02
2.773130842638002469e-01
2.328085035358445354e-01
5.384372275229883098e-02
5.346957060817073698e-02
6.067019488991142601e-02
1.780998620148149456e-02
2.121279099859674916e-02
-2.280405318374280170e-03
-5.323995530700680046e-02
-8.712123188017213693e-02
2.035027734059912177e-02
1.607485540425698523e-01
9.533032569599492190e-02
7.706997231445752994e-02
1.393483560725450876e-01
6.933358792846532059e-02
4.939600687186820188e-03
-5.854769769797808082e-02
-1.237229457591578347e-01
-1.372341523622554738e-01
-2.509504487478652623e-01
-3.829651991068244721e-01
-3.266038170486612602e-01
-4.986538913068819939e-02
2.588547155417030288e-01
3.015698649775045426e-01
1.523612584437697703e-01
6.299131689793632805e-02
3.085115546581646342e-02
2.735763116593859998e-02
4.030577066007850345e-02
-4.771096715867328281e-02
-1.699123076432488277e-01
-1.498385764568195000e-01
-7.146843283952919457e-02
3.952063299865597734e-02
2.086077672842815700e-01
2.060749131620632779e-01
5.889816009828055532e-02
-5.499423062957998001e-03
-2.251203670500493900e-02
-2.144657583494912617e-02
5.316084301879850545e-03
-1.353534925109767771e-02
-8.800611776376203454e-02
-1.513737538273905725e-01
-1.260606477512396517e-01
-2.268314638267192318e-02
7.720550957758044730e-02
1.040200394298066155e-01
6.756498597579012333e-02
4.081608063174235052e-02
3.312260622753878531e-02
3.835701768213814478e-02
5.038091602818371706e-02
3.556877187906691551e-02
7.281030837805572281e-03
-1.315048383688896712e-02
-2.405212867620118433e-02
-3.606056000198191308e-02
-3.961930864156576471e-02
-2.354165066638881296e-02
-2.103057571341445178e-02
-8.058611013029485723e-03
1.262489804198723212e-02
-6.899701409513023589e-03
-2.844906389536885558e-02
-5.727542734829096926e-02
-8.584276476714761128e-02
-4.489199197008453962e-02
2.319783525224060686e-02
5.348292782700464487e-02
5.509516157399527853e-02
5.050488314809366275e-02
2.126651993065495003e-02
-3.970270834142583527e-02
-8.348103618212628085e-02
-9.140715053946417423e-02
-3.739928541820433661e-02
6.003884877730275571e-02
9.678230203056185921e-02
7.176516002510706371e-02
3.402197870662609230e-02
1.825749887393262119e-02
3.928128643732608366e-02
2.073913110032688314e-02
-2.931574815918191329e-02
-3.764238765962848315e-02
-2.316507504117692323e-02
-3.616377997669274064e-03
-1.730755995020178285e-03
-1.869184379008345318e-02
2.628415352988332948e-04
2.620716802447465785e-02
1.862122796252469598e-02
1.226496527280078463e-02
9.113338400859677391e-03
2.115782918496470367e-03
2.598788297418028886e-03
1.931543718761894704e-04
3.465833708751958359e-03
4.994581505264133157e-03
-2.004989321941556130e-02
-5.406045934059888758e-02
-7.305766745702575726e-02
-3.796558022786514913e-02
3.497411077385708528e-02
5.418262359528445288e-02
3.919972722963345479e-02
3.385575910108887254e-02
7.529649724029759128e-03
-1.024913850922947074e-02
-7.789903249266437717e-04
2.911251937716220328e-03
1.279967157978107069e-03
1.916002121404361590e-03
6.272940345059188974e-03
5.624917342844216669e-03
-6.345529423426828249e-03
-1.228789845287642929e-02
-5.940850562612448940e-03
-4.460527653811789152e-03
-1.891823997482895356e-02
-2.647051570417768493e-02
-1.741009003727550866e-02
-3.104882908650251176e-03
2.122025519387325809e-02
2.648591574457935527e-02
2.174973626156453694e-03
-1.292419112189190956e-02
-2.113171113974676371e-02
-2.231443652845530728e-02
-8.060933497669679065e-03
1.812798894890210993e-03
6.410466967333832908e-03
7.482523280711169192e-03
7.951713065519044193e-03
1.149356503716142744e-02
9.146636122232255223e-03
8.515485142939555746e-03
1.064556144337629878e-02
1.115230131862368287e-02
1.076075426017662762e-02
4.375935698187095879e-03
2.874749087411604658e-03
6.235772407334266680e-03
6.726116427780919928e-03
9.831552526831830244e-03
8.752373770203407052e-03
4.079992122539564600e-03
1.431673616249904898e-03
-1.897326901880729997e-03
-8.458653573639087625e-04
1.083949248219699419e-03
-6.430021783860607456e-04
9.931590629208668364e-04
5.086538815430683737e-03
4.948691425652251147e-03
1.591153136256806717e-03
6.939660104146159363e-05
-6.878050131615676393e-04
-1.911078669815534717e-03
-2.859274271273138258e-03
-4.707061281461178380e-03
-5.357869402176185063e-03
-6.329662456161069643e-03
-1.021332158771592370e-02
-1.173950122173000876e-02
-8.517861754868396792e-03
-4.847891278452055690e-03
-3.168940429700514618e-03
-1.563612910124481670e-03
-4.246406207767477146e-04
-2.917855894403318349e-03
-5.577756351169019765e-03
-2.403727324837353230e-03
3.044019921406744111e-03
3.134359308470223947e-03
9.398349036576380449e-04
1.311229797533909700e-03
1.666562551375439134e-03
2.522630609396805251e-03
2.276263295076037980e-03
2.295763352555841436e-04
2.824229414424432420e-03
4.688201021125994530e-03
8.959403938403884878e-04
-1.240776666908113444e-03
-5.167834486691981911e-04
2.988009207439072234e-03
6.803568382814339545e-03
3.861833206048755594e-03
-1.953662681022309941e-04
-7.925246455239686599e-04
-2.026521792990429709e-03
5.193947217079611964e-05
4.855913109369588802e-03
4.714903667737590370e-03
1.606242908828363607e-03
-8.760504732701796275e-04
-1.152357840772601835e-03
6.551045559273997038e-04
-2.161982941106242208e-04
-1.747281665549355045e-03
-5.209678116832869906e-04
1.614278594974670467e-03
2.486383381399728202e-03
-1.074325411133796385e-03
-2.294322811071053750e-03
1.843327013290733821e-03
1.567734136908911172e-03
5.664674580050304631e-04
2.537690608770051294e-03
6.234299344401181622e-04
-4.222429948870187050e-03
-4.943714175809269147e-03
1.176231629694045626e-03
2.219506116789949669e-03
-4.335852311206858309e-03
-5.606102293043099295e-03
-5.718194791569352828e-03
-3.844097845607471510e-03
4.077632443101801216e-03
4.539560504874152677e-03
1.330385306296506072e-03
2.500512324972722217e-03
-3.718341586461314198e-04
-6.105659824212878763e-03
-6.347003540156035718e-03
-1.418213836295391644e-03
-4.154580721983572702e-04
-2.977267269509769557e-03
-1.268779299716799437e-04
1.535515244975015417e-03
-2.539492853323578863e-03
-3.202235845074843327e-03
7.969861828089183555e-04
3.222557034521202329e-03
2.562941968706044203e-03
1.818135766573223972e-03
-2.494544598702689003e-06
-2.605292665781488905e-03
-1.934891378153707998e-03
-7.399450111826566794e-04
1.022501854250150097e-03
4.503524433235639272e-03
2.337755966336660385e-03
-3.257314504587831890e-03
-1.971946645275392176e-03
3.621872278971404509e-03
5.310183999095428355e-03
2.855936791928379969e-03
-1.526774654375436056e-03
-4.696749371137339674e-03
-5.353854898680245576e-03
-5.285644863316125118e-03
1.057130449155495658e-03
9.141945627895812013e-03
8.581274562992215194e-03
5.255968375199342700e-03
-7.596460729535703740e-04
-4.294265552407038750e-03
3.035565296262667445e-04
-3.126807535424396228e-04
1.705412494362748554e-03
5.068069231067036731e-03
-7.058200508695785733e-03
-1.323449730701500848e-02
-5.463260909905263280e-03
5.630512642988464399e-04
3.236275320544689579e-03
1.790499791798463684e-03
2.491954056368543297e-03
4.415124043234093694e-03
-1.442678076917284472e-04
-3.960497316057551113e-03
-2.427508543293308008e-03
3.112682671138098734e-04
-1.242525411201817571e-03
-2.249547731674454709e-03
3.798959851041740633e-04
7.768074138982389428e-04
9.814790799232862503e-04
-2.498362507600582292e-03
-1.014173638487105142e-03
3.828196266628342091e-03
-1.645186758651394354e-02
-3.020969544005595517e-02
-1.048464347433403568e-02
2.491228656553060462e-03
4.258978227140485309e-03
5.165866531934484168e-03
2.092331619759800129e-03
6.751833998156922187e-03
9.539660397869291486e-03
5.487360895956248583e-03
5.025186964479882307e-03
3.107363841252634533e-03
9.649167261217083498e-04
1.065690560396077304e-04
-2.794862564145255638e-03
-1.959529169147792779e-03
2.634110413234776096e-03
4.696731096759840587e-03
5.149446973044565293e-03
6.073626571011484995e-03
1.812959349260630454e-03
-2.540880449635859063e-03
3.596546452617718423e-03
7.092501722640282003e-03
3.495141890352530638e-03
3.602790431847420049e-03
6.970017522485799861e-04
-1.809217929651498044e-03
-1.653022607413145908e-03
-1.006325321170817473e-02
-1.085386582886172999e-02
-2.300666089973832026e-03
-2.744729380549092677e-03
-5.896594527551488833e-04
1.790220559452140349e-03
-5.312094449490135060e-03
-6.698248743048194551e-03
-3.046506840736980942e-03
-1.066386892361457844e-03
-2.497233399491867716e-03
-9.378692766705349487e-03
-1.149693202755615144e-02
-7.777908682655650802e-03
-1.724590768434254399e-03
5.377607316081019391e-03
5.227554848930468165e-03
7.027614312704828564e-04
-2.823869784736506797e-03
-4.626154170246546404e-03
-3.234226059812796844e-03
5.624891094945732401e-04
5.512650463841785309e-03
2.005072095911330631e-03
-4.805859913071714590e-03
-5.283062164949045569e-04
2.201808209734941631e-03
1.967460346026423095e-03
6.740934906443543997e-03
6.990288913789347025e-03
7.648727434238280880e-03
7.715938479563241859e-03
-1.331904938123263608e-03
-3.365635397260599918e-03
1.252326272356489795e-03
6.335585673767320713e-04
3.162661072550877837e-03
4.062294919692629493e-03
-1.062793042464815112e-03
-1.217530546319191796e-03
-2.138781035442282978e-03
-4.631728197668093586e-03
-3.004250702541704475e-03
-5.487858869515466545e-03
-6.573385497435371705e-03
-3.058491751324813983e-03
-2.719898207525658657e-03
-1.232217668067990112e-03
-1.160566169605382718e-03
-3.293914474290192407e-03
-3.382666534614790690e-03
-8.049632176333056804e-03
-1.201176734570701121e-02
-7.494209512084206576e-03
5.486696903327542866e-04
6.998123621199959718e-03
7.512292555330487599e-03
4.643352675538789734e-03
9.409498579363858401e-04
-5.704971890246794339e-03
-8.465382421863190676e-03
-1.707933255970596085e-03
6.229447582329435476e-03
6.867539061480599019e-03
4.284284769975651129e-03
3.832942422348483650e-03
3.843365995908211430e-03
2.552598668344118003e-03
4.570613687423762399e-04
5.668955486712612965e-04
8.912319749061802313e-04
-3.841407866471750927e-03
-7.602913721149272448e-03
-3.608063882316695729e-03
7.629041359763832691e-04
-1.728781550651661185e-03
-2.341731456760347968e-03
1.732892709695626468e-03
1.380760326327040450e-04
-2.582218050657678413e-03
-1.993937372722455643e-03
-2.383621686889042003e-03
8.178893505809190607e-05
1.607677990462378628e-03
2.697451880498209949e-04
2.838890831544463658e-03
4.773292687595523213e-03
2.240509843107675592e-03
-1.290012294927756799e-03
-1.270366720757973474e-03
2.828455541981732941e-04
-3.224651007662927404e-03
-3.790423043823198772e-03
1.116362200057985452e-03
1.624321742167164932e-03
1.966160441867963442e-03
4.280856458018175888e-03
3.099911833514588412e-03
1.373894489228385304e-03
-2.508990324439198168e-03
-8.925548132602077051e-03
-7.501541708238575884e-03
-3.014815509742890375e-03
-5.062429137384453007e-03
-3.401522503419058749e-03
1.251051135273589625e-03
-3.817944847766781887e-05
-1.707922002645516357e-03
-5.199633160812106199e-03
-5.657157449280281712e-03
1.996365985304327656e-03
1.860633008855720619e-03
-2.183720641799571927e-03
-1.016255486640769328e-03
-2.810946277034214510e-03
-3.563183393341940765e-03
-2.380360365870963935e-03
-2.361334221177446239e-03
7.047596108365949616e-04
2.050318957706843276e-03
-2.864461978968908112e-04
-5.189980854953940017e-05
4.049886290552562849e-03
5.437215918560213586e-03
1.398279204785664222e-03
-4.352377339791140801e-04
-1.066186148562302434e-03
-4.483400135740424342e-03
-6.115721593853954037e-03
-5.273684774936985946e-03
-2.053389225495522944e-03
1.089034053400717668e-03
-1.498431714749681688e-03
-4.933508407202212565e-03
-2.237371436486809088e-03
3.053988515343049152e-03
5.662359166146910955e-03
5.573145713705318638e-03
3.998136033050966702e-03
1.952151796422458207e-03
5.082900565547100258e-04
2.315017854803596772e-03
6.113738420086696837e-03
4.385778134291576889e-03
2.147479815439353725e-04
-8.292976211631607284e-04
-2.899807665067747307e-05
2.497242471550302923e-03
6.825781443757508119e-04
-8.598591414929099806e-04
7.286238176131587833e-04
-4.600991363348955546e-03
-4.707554699990556049e-03
-1.349397585328492716e-03
-3.058780266702169556e-03
3.826968640775012514e-03
3.869822948657441423e-03
-3.517853475231299664e-03
-4.659522517249573177e-03
-1.875154370029773546e-02
-2.773139882516434049e-02
-1.336974105693030171e-02
-1.161312413364237869e-03
3.004681284474603961e-03
3.442758819803313532e-03
1.578400957500174402e-03
-1.698532749712262317e-03
-3.945143899760256666e-03
2.407395347973856705e-04
-8.897064771309522429e-04
-2.701851667952658801e-03
8.063112298457950512e-04
-4.287770404181517024e-03
-4.096839978247169591e-03
3.003072248912726661e-03
2.633722920324980954e-03
6.730471605555889310e-03
1.076458400854342877e-02
7.926052884141639512e-03
8.068564511107857717e-03
7.400923326828102132e-03
6.123481388485940528e-03
7.456303276773425422e-03
5.838505882875953679e-03
3.242683734959168722e-03
3.178431995367778443e-03
2.089745538812772668e-03
-1.197881545397993294e-03
-2.608197049721963992e-03
1.068589168723817684e-04
2.746369351891897806e-03
-3.027131616101384499e-03
-1.284805230156937754e-02
-1.059907014969431113e-02
-1.715072683960632916e-03
-2.548346349721617170e-04
7.236927322203004064e-04
2.614353149614660320e-03
-1.307736740962957755e-03
-6.466574655850479067e-03
-9.133842302364164611e-03
-7.783781568906364759e-03
-4.446843075385187478e-03
-2.333484627308556915e-03
2.205085959420571926e-03
3.388639456824795587e-03
-7.553155735119355344e-04
-3.566940405534114967e-04
9.884363005656562201e-04
1.697887690505244483e-03
2.711160661314778331e-03
-2.769951992335682473e-03
-6.932871875107047763e-03
-5.195577169963295008e-03
-3.951004332963468577e-03
-1.942548843071637170e-05
4.104424500436714383e-03
2.086057667096755976e-03
6.488433962190472311e-04
2.846753582845972051e-03
1.242600548187981291e-03
-3.479582648907277248e-04
4.234049627040553307e-03
5.432671435401624505e-03
1.184551008291768581e-03
-4.518282587122429651e-04
9.046624162374520368e-04
-6.856246930454330205e-04
-3.821556350627554159e-03
1.596223895737340767e-03
4.712648430402655193e-03
-6.388417254230961771e-04
7.838054702615223170e-05
-2.938069029990604802e-04
-1.807144253181640911e-03
1.089112014003953749e-03
2.129850242853914034e-03
6.224442305414077878e-03
3.989797452729767525e-03
-1.254940387071792332e-03
4.315981333167398059e-05
-2.424170352541582529e-03
1.929273976819078111e-03
4.272467807862685880e-03
2.499471169559020108e-03
6.251511705219909773e-03
-1.534208984367562215e-02
-3.042727867817382817e-02
-9.257703293714090315e-03
1.468007597064959228e-03
4.556165300132404214e-03
8.604916342271553761e-03
2.484321030933699884e-03
6.698331543926011296e-04
1.422377276865429297e-03
1.529332859899093337e-03
-6.230020999063343948e-04
-8.372497376491769630e-04
4.291421057548547649e-03
-9.185278363559041658e-04
-3.146369636122611172e-03
2.156106262656518578e-03
-8.778546317230636860e-04
-4.026321744535886227e-05
4.540570668394051761e-03
3.639698440137754173e-03
-6.201422335596510705e-04
-2.697455390353519986e-03
1.392059523120612544e-03
-3.516756439328516171e-04
-2.948755783984131473e-03
1.450519110119065716e-03
-2.706275693644689170e-03
-7.914435483348049999e-03
-2.929583519077720404e-03
-1.595013766535622463e-03
-4.093108466679015560e-03
7.543871626515332189e-04
4.902823538849034567e-03
1.820816222850124696e-03
-3.775122140885408270e-04
-1.070890367442748660e-03
1.244678441531841834e-03
4.035809950125967063e-03
-4.120535073206872028e-04
-1.111102560984054228e-03
2.732611549022619275e-03
2.887654039750921220e-03
3.855493695531251284e-03
3.075836803071894335e-03
1.191647988180307436e-03
3.354851878741651767e-04
-2.446401875130974589e-03
-4.475959160862719687e-03
-6.331706787549345496e-03
-6.032061915240473707e-03
-1.827850244621389338e-03
2.697900051456386498e-03
3.729717021589514046e-03
-3.339259310271610291e-03
-9.490741780216827364e-03
-5.790105609575804148e-03
1.392035793958890620e-03
4.848214472184942184e-03
1.148288394555287877e-03
-2.497224302300042782e-03
6.902884722884617590e-04
3.150160068849765238e-03
2.770811176052085972e-04
-2.986925808331752637e-04
3.765053091367962217e-03
1.571068907592812437e-03
-3.511783177812828356e-03
-4.961114937914753000e-04
2.831060056461143313e-03
2.245014420662134070e-03
1.118512340618276531e-03
3.851703777769596715e-04
1.678504598641945627e-03
-1.024575036731518876e-03
-6.150421230972281765e-03
-3.333239079800498234e-03
2.725954273079884711e-03
4.187977383144209781e-03
3.724270969912246883e-03
4.737421994150706542e-03
4.050633168974111277e-03
-1.409276166441882951e-03
-4.866862660662587582e-03
-1.581580809042226841e-03
8.179646056283680026e-04
-1.319996640846166427e-03
-4.205876997381952954e-03
-7.437488390658462956e-03
-6.606182348603228255e-03
-1.204411479313415847e-03
-3.424923598069371878e-04
-2.263804515216592383e-04
2.584812565622150813e-03
1.772621587489487446e-03
9.331933542534383459e-04
1.254102792206465786e-03
1.859928622190656694e-03
4.925239733397045010e-03
3.934725687658853499e-03
5.709411404784210447e-04
-5.316163336499522309e-04
-3.088796657807245296e-03
-3.014682617859051547e-03
-1.344122630357631873e-03
-2.312794250528675891e-03
-8.236590856259238006e-04
1.452038963178253848e-03
3.704166852387055960e-03
7.148689015286298874e-03
6.418606019748991816e-03
4.216214158047493742e-03
3.507075955550342100e-03
3.311703636054139088e-03
3.732967402764617026e-03
-3.569990514512477644e-04
-3.978089626435747650e-03
-6.912579306648451716e-03
-1.827048218201290236e-02
-1.747991191849674469e-02
1.041792021571470673e-03
6.655264505870167081e-03
1.537164410571970671e-03
1.492991242826673635e-03
8.456729286300665102e-04
1.044072184633035099e-04
1.796262505675315173e-04
-1.744257340462819971e-03
-1.898625083489931470e-03
-1.701071125356985823e-03
-3.891637633044100521e-03
-2.551566640984516236e-03
2.438793302488756996e-03
4.289692927524525398e-03
5.360362196301709722e-03
4.412442493778445142e-03
-2.385435648119632276e-04
1.818818783988516508e-03
4.138051377729237007e-03
-4.352310940636540631e-04
4.629022547917676614e-04
2.365480090356710061e-03
2.196574992440380385e-04
1.677667594056680891e-03
1.766542980417996856e-03
5.642361237406361965e-04
6.621386849544821799e-04
-3.336002750915112881e-03
-4.611887846578695445e-03
-1.460677625782350487e-03
-2.147362248561841564e-03
-7.426235423036463062e-04
3.549218255225549280e-03
2.090591307091714242e-04
-4.125363431378028731e-03
-2.854928244580586753e-03
-3.358641561394412611e-03
-8.542145992080981288e-04
4.023423542625650939e-03
1.042428789928095782e-03
1.286454934910261864e-03
4.097050831370510279e-03
-1.605346757749800740e-03
-5.222334601947676951e-04
5.701000354774049018e-03
2.935932778189830322e-03
1.216695583327740988e-03
-5.740101121880087894e-04
-6.037137315872977660e-03
-5.553495586831490825e-03
-4.596672010276540467e-03
-2.993309165640070657e-03
3.874407309580082774e-03
3.893368546345277095e-03
-3.357600751934150226e-04
7.169176513980808413e-04
2.885890865419156806e-03
4.277319147382972926e-03
1.856730791024837441e-03
-1.962220347364282066e-03
-1.469248188719359622e-03
-2.249109970152068060e-03
-3.156635400207976651e-03
-2.190455565821023722e-03
-2.761845329900560614e-03
-7.701852981065090411e-04
2.540170025916752700e-03
1.646694933939942505e-03
-3.320883929637638739e-03
-5.817013698555808035e-03
-8.863954332451321524e-04
3.010496724781119762e-03
3.108777583049737031e-03
2.384007668365120680e-03
4.669676059448554795e-04
1.096684696659110938e-03
-7.203824235528623679e-04
-1.678324656458397325e-03
3.818700573476715293e-03
2.663573809620980309e-03
1.090497839345356190e-03
4.091365614588655594e-03
4.208717876812016387e-04
-1.838962638421486225e-03
-6.688015269730582983e-04
3.991317660210351751e-04
2.693097877579094229e-03
-9.124117421532301634e-04
-5.409304688003361075e-03
-4.921771143082494769e-03
-2.438431923325775665e-03
9.012287055807670019e-04
1.575025583677106510e-03
1.754372330662580136e-03
1.237504514710314682e-03
-1.087897530720229045e-03
-2.666292399771718127e-04
1.837374523174462428e-03
3.892828072737649758e-03
3.168891979427212579e-03
-5.631594560351626828e-04
-7.774507342152682868e-04
-2.630792817952895806e-03
-5.532313076597451980e-03
-2.642533511945667143e-03
6.688709322343253365e-04
3.333651377956454304e-03
2.989065842534921122e-03
-3.628097306118080803e-03
-4.872851728685009126e-03
2.135500745042648047e-04
8.841018605212818196e-04
1.520507085651017897e-03
3.748856439860936800e-03
2.243868810276592775e-03
1.304853546005531502e-03
-7.802063146866034665e-04
-4.137115262139060695e-03
-1.898032735272773674e-03
-1.159027376117436866e-03
-3.629486174848479789e-03
-2.166715685746741123e-03
-1.301681371328336305e-04
1.070046058619340888e-04
7.839008202875590416e-04
3.564784034801078780e-03
4.597652240993763822e-03
7.842287753249926711e-04
-1.010635810870298386e-03
-3.934464214631259961e-04
-5.825793292401342405e-04
3.325321019224942824e-04
2.433525135401011768e-03
3.776988871875324762e-03
4.600478899501532796e-04
-2.287392150124533969e-03
9.034490392067142262e-04
3.059294986628212885e-03
2.936083190119107011e-03
1.249123129909504798e-03
-5.953606945747305949e-04
5.093967793344829744e-04
-7.019873874878225896e-04
-1.454142223955620606e-03
8.438071916190378234e-04
-5.110489386809203768e-04
-1.326144037946771831e-03
-8.163462007364636046e-04
-4.874640065766467321e-03
-5.698581864643599212e-03
-1.103294546267738182e-03
-1.018246211254891179e-03
-1.908058343626391684e-03
1.550953622538719674e-03
2.497974688637446573e-03
-1.119595606131782925e-03
-5.675501042496383479e-03
-5.491928711219075908e-03
-1.084151183057658436e-04
2.084165962079891250e-03
2.115393474728281126e-03
3.287224298555290782e-03
4.700537915792665083e-03
6.354325789141256758e-03
4.284090364172298167e-03
2.421430039167525583e-03
2.735694169270976462e-03
3.886127781269340200e-05
-3.256266073974751520e-03
-6.944579646082529693e-03
-5.687903128760210189e-03
9.373081764701381765e-04
5.904001430682385022e-04
-4.134206097986186735e-04
1.332316113477768687e-03
-2.836511836925296646e-04
8.166059511519878789e-04
1.199721883441630344e-03
-3.883843766899477891e-05
3.065056053792942353e-03
2.967287503943292354e-03
-1.927239655894562157e-04
-1.543056629149672796e-03
-3.283496756032376791e-03
-3.747763029872102497e-03
-1.677722309474295997e-03
2.295808579149682515e-03
2.701243906027688511e-03
-2.072918998639104119e-03
-1.626387188703546033e-03
2.086104055829395443e-03
1.474319765162717235e-03
8.076849143985884508e-04
1.530992090532812700e-03
3.684523806680578984e-03
4.599519508506160620e-03
-8.353859748713759114e-04
-4.054433974308868475e-03
8.788590281466724481e-04
3.872374972662931576e-03
3.516830160755929379e-04
7.781849568484911894e-04
3.695714966619947396e-03
-8.903190384859835035e-03
-2.237052316752709963e-02
-1.056505598076156426e-02
4.822512479290263880e-03
3.434851464339339164e-03
1.655004192946690376e-04
2.790969213746888160e-03
3.985043782543113387e-03
-3.825724056738810663e-04
-2.036966492008004080e-03
3.260666624771425739e-03
4.736354612312639739e-03
1.997336257040193113e-03
1.081614556050111827e-03
-8.728834784112223921e-04
-1.725945685724985254e-03
7.278997404183680606e-04
2.385900709388241552e-03
3.756381192276850734e-03
3.420538293167213473e-03
3.184874889553868690e-04
1.346638994118812705e-03
3.475581555250523234e-03
1.756151157873668198e-03
2.982425947284958294e-05
-4.135363290600525821e-03
-6.538853029584150954e-03
-3.032258419967522045e-03
-1.942782985758568191e-03
-7.876787429919159195e-04
1.894270597061436948e-03
1.569657893396459152e-03
5.182182224499292224e-04
-1.840952723827374423e-03
-1.307916647160447090e-03
3.746968423431874893e-03
3.338674392544030943e-03
-1.537731485903678268e-03
-1.476279239548583273e-03
9.689979870280027120e-04
-1.241554340017548153e-03
-2.264098119753815350e-03
-1.115890620202719934e-04
-2.475444995672295844e-04
1.620377314996771390e-03
7.057322162007242461e-04
-4.185219215344395532e-03
-1.908622775047530504e-03
7.672422521149697538e-04
2.566482709618204722e-04
1.429581459837020972e-03
2.991465301146432887e-03
1.969539015512113047e-03
-7.329166889667330931e-03
-9.805357978122368479e-03
2.050842737882464968e-03
5.427461489292775311e-03
2.575643336616945112e-03
2.669950902482798923e-03
-2.300633042767644739e-03
-4.551541807553028014e-03
9.011136684149564577e-04
3.741612149819171455e-03
2.589546240653941081e-03
2.768360696559313792e-03
1.071662902960648662e-03
-3.686852388241910854e-03
-3.368890288906494467e-03
9.384168340394478253e-04
3.086801190057393996e-03
3.303908533613462810e-03
1.281750477322122920e-03
-2.712996877939258689e-03
-4.891438425459966426e-03
-1.174800713926934864e-03
2.126034104954108075e-03
-5.222450825719030486e-04
-7.445445486277578939e-04
6.527869545828630395e-05
-1.598596935505497158e-03
4.878954032610503290e-04
2.365557484207045456e-03
1.562586992981426608e-03
2.275158435569505158e-03
1.164363938031567642e-03
-7.880837066767095236e-04
1.731001707090299531e-03
3.660130545119174780e-03
2.230547436083364556e-03
2.582355578311386346e-03
2.347406625956027261e-03
-2.753067152740345104e-04
-3.045191727051440797e-03
-6.242195723642071474e-03
-5.879596879712694138e-03
-3.435308057245639850e-03
-2.341876503041267609e-03
-2.723676180487344541e-04
-6.007788172007341113e-04
-3.206806561364600183e-03
-3.039880956246828695e-03
6.900714773380001816e-04
2.609984719468866517e-03
5.381486630025467555e-04
5.384377926954315476e-03
1.113403889556366898e-02
6.083126285901029745e-03
3.305560077201650376e-03
4.097335634056649759e-03
1.901022821418228183e-03
4.303092247472388074e-04
-3.867947670596975571e-03
-8.985172262967432155e-03
-1.040607918385155067e-02
-1.093030503457866065e-02
-8.472071718573979254e-03
-4.628665776004610086e-03
-5.100156771252714258e-03
-5.290412537130921751e-03
-2.858932657941348765e-03
-2.800630214779397959e-03
1.160761441021111295e-03
8.482429842126597286e-03
9.542715936675296579e-03
1.039106556350142922e-02
1.150624773011814199e-02
1.148789582516850961e-02
1.093982711810331798e-02
5.222506533417326825e-03
4.582437596885400449e-03
2.474075596149259357e-03
-5.808885676878456673e-03
-6.940307745214721255e-03
-1.513395114046145462e-02
-1.351959766934585777e-02
