1.413028693702525138e-02
6.043448728118922669e-02
7.371916969013558862e-02
8.777397998030227189e-02
8.213178770933769746e-02
6.212591680887684376e-02
3.294545885322419654e-02
-1.593133557488665090e-03
-2.230130230704525582e-02
-4.153677737208193860e-02
-6.334944619958944589e-02
-7.769762193733066591e-02
-8.166563890336164810e-02
-7.708803279911831396e-02
-7.209709785882811861e-02
-6.407651240117417935e-02
-5.997313097271210480e-02
-5.711285455561276869e-02
-3.486039789116237436e-02
-6.690454499619700839e-03
1.848294790579528557e-02
4.458135804373856287e-02
5.981805821587967559e-02
6.819777114035638355e-02
6.787893506778684694e-02
5.297400432727679409e-02
3.451584187047299773e-02
1.563121193837438416e-02
2.349658209180546277e-03
-6.545253263926091927e-03
-1.619174680277792044e-02
-2.023108126165143461e-02
-2.430945722844100529e-02
-2.092430361584243434e-02
-1.124053254855101637e-02
-1.512814205763714052e-02
-1.755926286562525807e-02
-1.468047546444820918e-02
-1.304150529544308677e-02
-2.688763946317899306e-03
1.060279598163120333e-02
2.568626817620141278e-02
2.825812290438067115e-02
1.832073628807764226e-02
2.636356539844349894e-02
2.676431514569900527e-02
5.532236288130725280e-03
-6.456824472359335571e-03
-1.014503922283426993e-02
-8.713543080233301583e-03
-6.285304302722441103e-03
-5.705060387471899697e-03
6.937951354673850112e-04
3.412303249284515116e-03
3.816811996479013702e-03
3.164483098520114862e-03
-4.127263789171823315e-03
-1.027974452692612638e-02
-1.481552957331935642e-02
-1.374732768662055744e-02
-6.743184280542222422e-03
-2.138819175401362842e-03
4.090637966073510517e-03
1.007110086582998359e-02
8.551258328654925273e-03
7.815046572936587685e-04
-6.586199844080349065e-03
-1.308974533069305439e-02
-1.500969698403811607e-02
-5.579500108852480239e-03
-9.051148982213937967e-04
1.218386850573414341e-03
1.346645248679451470e-02
1.884676347939322899e-02
1.755686817548618786e-02
1.180126776709922339e-02
-1.481818509442963056e-03
-8.276686504310870954e-03
-1.152651095952709343e-02
-1.255121411797228796e-02
-9.328358069749836251e-03
-5.917187823268573940e-03
5.543216249632016562e-03
1.512902937491247650e-02
1.226515135348017066e-02
4.421745643353326705e-03
-7.244454130888952452e-03
-1.442792297583242456e-02
-1.328071294841312762e-02
-1.092779394294909195e-02
-5.311096161538965757e-03
2.253349585281784820e-03
9.119023617920234484e-03
1.648012281269599713e-02
1.930951678064709437e-02
1.405465401279019401e-02
3.062353803931506732e-03
-8.234059769573705279e-03
-1.607964646833362488e-02
-1.853903435973743019e-02
-1.056348805236015202e-02
8.092618840332766253e-04
5.426124012848136668e-03
9.505059493929650383e-03
9.571023732647296681e-03
-3.361900180543457160e-04
-9.593696203267785064e-03
-1.553130532823636042e-02
-1.641964299947980266e-02
-8.093252245739604445e-03
-1.171373245087738374e-03
-8.208763204656719086e-04
5.078357814709796511e-03
1.800817807406860857e-02
2.168557657563680713e-02
1.651121071908013410e-02
1.044759508423839800e-02
6.681063405587562339e-04
-6.254158441942533897e-03
-9.930522898499605233e-03
-8.406149978640826276e-03
6.226096243839992442e-04
2.231514846496690432e-03
6.942915148163736512e-03
1.328882556350730049e-02
3.079762979842127352e-03
-4.306902544250313693e-03
-9.976095397564907138e-03
-1.823948080337096586e-02
-1.152303312115253962e-02
1.463113172025728992e-06
6.942537203860047260e-03
1.184398158820796666e-02
2.198670340439413257e-02
2.745705067528497398e-02
1.474256188196472299e-02
3.139830283603116390e-03
-2.368800363898007286e-02
-5.252978340242131505e-02
-2.899520512932680927e-02
-1.170344565012430317e-03
2.078973100178925504e-03
1.432931546591416881e-02
1.943102237172685681e-02
1.359435741253627559e-02
4.280804190664658899e-04
-1.505632512267094693e-02
-1.594603233326969197e-02
-1.741216738260610575e-02
-1.317627958467553102e-02
-1.464445029419694094e-03
1.926780802934983591e-03
1.018149347891368281e-02
1.577972275488949069e-02
1.820099856835079993e-02
2.043584355148219539e-02
6.739659843964896507e-03
-9.700050581060769370e-04
-2.358902196328584860e-03
-1.212547380611208106e-02
-9.518191180487358197e-03
-1.395212080434072004e-03
1.518723736210300006e-03
5.805143590928555676e-03
5.644714845851972994e-03
1.209669543936436171e-04
-9.326980563018845427e-03
-1.776253888784986093e-02
-1.770999980288766665e-02
-1.084456549934718211e-02
-2.157031788351688843e-03
6.310421910643368090e-03
1.610075080900283048e-02
2.252515641753764786e-02
2.479524199326494163e-02
2.141545550239398396e-02
9.098902991590853556e-03
2.005778132042426742e-04
-6.040654344471865431e-03
-1.118372910938596546e-02
-1.008993943866332357e-02
-6.854004317763005491e-03
4.566156861916132251e-03
1.066189964924475243e-02
6.653174659333515283e-03
3.737791919794540303e-03
-7.696628801670855197e-03
-1.106926981587737571e-02
-1.071600561601314221e-02
-7.126866852160514826e-03
1.123413097942116065e-02
-1.336415133445399174e-02
-3.141367932741900154e-02
1.695938246208694711e-02
2.346558727864088423e-02
-1.689605884650441023e-02
-3.550410012545205524e-02
-3.284423086086694227e-02
-2.596310812260159417e-03
1.386760058121313914e-02
3.407926011190889719e-03
4.066806733297898165e-03
7.790204360426846580e-03
1.645752698364226149e-02
2.161980170748496397e-02
1.121603202209194884e-02
2.055646500246640068e-03
-4.603344222836350599e-03
-6.340907331633649155e-03
-7.644516142679762608e-03
-4.513160151520465013e-03
8.624764159208160585e-03
1.067739770410948592e-02
1.260609526455539441e-02
2.003265100825576614e-02
1.666503453794166908e-02
8.984857467662855229e-03
-5.935864398060741384e-03
-1.957973169098977534e-02
-1.776376217520716019e-02
-1.086057844516620519e-02
-2.827303816928181980e-03
2.385898876602183215e-03
4.435719859811813187e-03
6.495536124971757440e-03
2.961636188654089008e-04
-1.033562633945076317e-02
-1.666694187945106168e-02
-1.779212632234582550e-02
-9.981153210774718412e-03
1.744052316419106687e-03
6.117406614294110950e-03
1.104078922598201659e-02
2.186255769146391859e-02
2.228939771216018745e-02
1.519931318960434513e-02
1.049810433864465341e-02
-5.365119643945120975e-04
-1.425903649858752814e-02
-2.174715894441231825e-02
-1.697149747563691038e-02
-2.689530749585848125e-03
2.530744112753759156e-03
3.746620050206584535e-03
6.752291474652340544e-03
9.006993572434700800e-04
-4.877240081768264603e-03
-1.153737056803490549e-02
-2.084129750726882238e-02
-1.455910847027904256e-02
-2.223825996508082235e-03
2.386838564416400403e-03
9.494731890396537061e-03
1.819663981853189907e-02
2.054458734360295469e-02
1.664800576968328283e-02
8.919612661228351960e-03
1.160444366092698749e-03
-5.037973628330741013e-03
-1.015960050860144522e-02
-1.151424733627919375e-02
-7.068865007189634869e-03
-1.291881266747864831e-03
4.842812496058888569e-03
9.993210317047983987e-03
4.062815776133081418e-03
-6.896827913901409750e-03
-1.165042792877684502e-02
-1.244913625244566113e-02
-8.126809463159564983e-03
-3.117742790242489671e-03
1.489301246202579324e-03
7.444381240429467049e-03
7.123078608796772244e-03
1.117396514021263415e-02
1.878160114518846388e-02
1.186475907483957454e-02
-1.118007190089398721e-03
-1.042333012228833546e-02
-1.332540659336933428e-02
-9.717886053755892331e-03
-4.433837437723730027e-03
5.481131174768073475e-03
1.259393940077262186e-02
1.215953895249384693e-02
6.146302313891031412e-03
-6.661334799133757957e-03
-1.132593397738700970e-02
-9.279811283564065247e-03
-9.876561406648691130e-03
-3.565821124249041879e-03
2.270208762352045329e-03
3.831729254974321035e-03
9.876617358385533785e-03
1.484400921193870446e-02
1.436998358105531608e-02
8.432295837755700990e-03
3.321015785726606035e-04
-6.491683830573987020e-03
-1.412573693210725234e-02
-1.744569719124759374e-02
-1.080992526912587931e-02
1.049100499411102175e-03
7.896761287062396828e-03
8.259888787490898832e-03
7.370303985600010384e-03
4.800713880912638697e-05
-1.328491224410027760e-02
-1.981022817044241630e-02
-1.573988953834991322e-02
-9.129632450586922313e-03
-5.896242606259285285e-03
-1.170258850101476168e-04
1.082509204001048594e-02
1.883180069494598541e-02
1.812163919517718186e-02
8.557446739103148278e-03
-1.271535018957814771e-03
-5.949355726674154798e-03
-1.026468090784302470e-02
-9.740562361368944669e-03
-9.831303391310973645e-04
6.567653625227558647e-03
1.138589100313395532e-02
1.599952548108025258e-02
1.383780747836558037e-02
2.394161051558246940e-03
-9.001464804618469762e-03
-1.020953401620782602e-02
-5.014105761201806052e-03
-3.855085735390794549e-03
-3.143086171146980065e-03
2.209369377223642170e-03
7.740641518552861602e-03
1.349828620183473812e-02
1.723222138754262542e-02
1.233455751816260604e-02
5.045929837443311090e-04
-6.876226096859041660e-03
-5.964247170773486276e-03
-7.711277567210905737e-03
-6.080222615251207330e-03
-5.026192353374474286e-03
-2.554381583469311420e-02
-2.918290162268071669e-02
1.275859333912261620e-03
8.697367406617145455e-03
-4.449723484937385433e-03
-4.704024449127059554e-03
-4.126794522801334811e-03
-3.265333816404662661e-03
3.031673703846623699e-03
8.774328951078845529e-03
1.425292057469680629e-02
1.814254110701240402e-02
1.664286987639768470e-02
7.542067450851305463e-03
-3.232042029574900329e-03
-1.147131878451737932e-02
-1.562855696090701893e-02
-1.005278409031969480e-02
-2.396504945936956191e-03
3.344371698799679209e-03
9.905802882704452944e-03
1.040150639077875444e-02
9.395041864829032849e-03
6.524544553034605267e-03
-6.687261697925848090e-03
-1.790535868802500472e-02
-1.735682869896190694e-02
-9.200927147724640917e-03
-7.457918698459708486e-04
4.168541917776335398e-03
1.045065373728231578e-02
1.429009798326953684e-02
1.337301695319473814e-02
1.221228326618381543e-02
4.243843947300219785e-03
-4.816456821174712639e-03
-7.450561131790375997e-03
-1.161864119488318844e-02
-8.562884654661399517e-03
3.023132528718117020e-03
8.210267996867613022e-03
1.146617685301371155e-02
1.031445774511903848e-02
-1.735213327947779383e-03
-1.140879219570755700e-02
-1.567209581440878394e-02
-1.615045895822850297e-02
-9.085291502598267371e-03
-2.147485228672788363e-03
1.760320835244802255e-03
9.620164413376269472e-03
1.711236255464975917e-02
1.289516973668143780e-02
4.249160279181729040e-03
1.404592994091661716e-03
-6.085114644356250622e-03
-1.463421019759804723e-02
-1.355139211119321327e-02
-1.069636619968138830e-02
-3.339663993890382848e-03
7.575435789913084750e-03
1.108388250896324458e-02
9.635094419379057820e-03
2.614135999271135092e-03
-6.830685326498639291e-03
-1.249771016655827106e-02
-1.486902242884736297e-02
-6.982182521558235808e-03
4.442422492153699429e-03
7.615181091462790847e-03
1.136197173366775177e-02
1.751882612024682068e-02
1.813471514601357193e-02
1.176190657729646490e-02
1.693015131700374102e-03
-5.836215511788583367e-03
-1.000855260605135882e-02
-1.275438862747938808e-02
-1.014586632179054898e-02
-1.298988887300231605e-03
5.100042682661791622e-03
6.404222564090357103e-03
7.029081522376630191e-03
1.965588259015002039e-03
-8.139264476474884075e-03
-1.368956899257857580e-02
-1.259899943194791629e-02
-5.227937978468455774e-03
1.274224008231573642e-03
4.251951595449231930e-03
1.003527854497626541e-02
1.407964159511569495e-02
1.506961489690642787e-02
1.041399133238503708e-02
-1.885107219173376295e-03
-7.556860841551472918e-03
-1.038213228861060468e-02
-1.682726957337447524e-02
-1.410878188810009252e-02
-3.598416236449183264e-03
7.868629088855093670e-03
1.448692477673811999e-02
1.055503902178475846e-02
2.792278596462949378e-03
-6.243747965608585290e-03
-1.445361674886604282e-02
-1.286112645351594579e-02
-4.843978605239082462e-03
-1.892704421111545852e-03
5.960064654693879131e-04
1.086589759505602118e-02
1.587784553329254361e-02
1.285850803975823603e-02
1.026271931045166091e-02
1.796247792624334604e-03
-4.282202750273077750e-03
-4.238440678547178084e-03
-9.115320147274990487e-03
-8.092350519788904517e-03
-4.757649310331104643e-04
3.385366180980470090e-03
6.687865974569788888e-03
6.200801863221121028e-03
-5.982004669252263601e-04
-9.320089894745791498e-03
-1.261781070085391671e-02
-1.000753340970318879e-02
-9.963212514924608965e-03
-6.850898747222835920e-03
8.686836459977028985e-04
7.293560936846398349e-03
1.520917580398378766e-02
1.876467176167993800e-02
1.592263129180103778e-02
7.654713404021948331e-03
-5.921580710267342409e-03
-1.126553734857344870e-02
-9.966518062115790541e-03
-1.074196069183581785e-02
-7.142916292475470948e-03
2.004673277480962905e-03
1.089533195561606660e-02
1.190203594547166455e-02
4.036169123208191087e-03
-5.527711149315679869e-03
-1.154131659778654707e-02
-1.117754691537272554e-02
-8.991000909471490166e-03
-4.626656793599157567e-03
4.554920224865146097e-03
1.037567178124135410e-02
1.389815695217513046e-02
1.608651307374158596e-02
1.326303288772781759e-02
6.419305548128785566e-03
-5.598156167682573521e-03
-1.365999512899234575e-02
-1.490856051396635164e-02
-1.380931111572042923e-02
-5.090620278143833180e-03
3.972486718024084533e-03
9.127755858040369208e-03
1.206930373995896907e-02
6.479655806178001055e-03
-3.207585398105804175e-03
-1.291682216465697523e-02
-1.607000584810417548e-02
-9.176501292335577722e-03
-4.351180785681656518e-03
1.746092588683312904e-03
1.046242902846676939e-02
1.394175737874422082e-02
1.736208549314532598e-02
1.536698758774773452e-02
1.937719903720813751e-03
-1.094753127569462157e-02
-1.635836490065542548e-02
-1.843458266474931953e-02
-1.506114609685773979e-02
-4.549410540377369846e-03
3.235659900536622807e-03
9.726613565427673705e-03
1.463015511214866941e-02
7.788492569070131454e-03
-2.319239719788134760e-03
-9.670081268685234294e-03
-1.134319832289565518e-02
-3.920451827220323635e-03
7.138861437195700467e-04
3.950280341474104659e-03
9.606054306683460900e-03
1.509257128492886256e-02
2.176623407975115942e-02
1.851215280268642821e-02
5.846565921826847242e-03
-4.656201040423662250e-03
-1.027703912369009112e-02
-1.154638448476479409e-02
-1.302068724558020849e-02
-8.887304951616213297e-03
4.027842651116896738e-03
1.551973718247498350e-02
1.552241724701332141e-02
6.529693367123984467e-03
-7.044993525136854836e-04
-2.515424081157101657e-02
-5.257724601540626069e-02
-3.443482430505616365e-02
-5.844511879521925926e-03
4.028008683059070699e-03
1.696818783921996698e-02
2.069200429631287350e-02
1.942021764445051729e-02
2.070658033854745964e-02
1.060471243349628973e-02
-8.659445059276904772e-04
-7.734115979600459517e-03
-1.047856630976178385e-02
-7.732927047830798900e-03
2.638304912637582430e-04
1.239254913694079994e-02
1.149333243167015642e-02
-1.449005949573107382e-05
-5.393596449320898698e-03
-8.276746348901827324e-03
-1.186065413843280167e-02
-1.407099788860674029e-02
-8.652184820884558508e-03
1.213312839215302096e-03
4.597641087999062431e-03
9.478850549480322824e-03
1.602910291886347829e-02
1.587458933137949821e-02
1.296167015338029610e-02
6.134049223867918052e-03
-4.812185776672197116e-03
-1.341759185499293017e-02
-1.752388302167388889e-02
-1.634806864736608814e-02
-6.713861889963569640e-03
7.953963564807892822e-03
1.514460950310796312e-02
1.420806880787103474e-02
9.655895504360294257e-03
-1.535179416883881379e-03
-1.072243532188749994e-02
-1.033114610461029897e-02
-5.602314654280618998e-03
3.554317002441816694e-04
1.970036505670198085e-03
3.207615788809238012e-05
5.616933824344154738e-03
1.337363521853262953e-02
1.080107748244188946e-02
2.222773277636579895e-03
-6.191593040909226971e-03
-1.293044427565976512e-02
-1.502512200812733227e-02
-1.565169681942430585e-02
-1.057668027119520841e-02
6.754290083136356773e-03
1.556667272930562125e-02
7.031094827522241589e-03
2.724695465655016784e-03
-9.433844972482851015e-04
-1.183780350524461789e-02
-1.232973764773943187e-02
-5.369922973288508879e-03
-2.624692421889778839e-03
1.220556672194044812e-03
5.760962393126330648e-03
1.266719174537142556e-02
1.968006077889714739e-02
1.533865325925844875e-02
4.747167061959552993e-03
-4.137078232530234413e-03
-1.180730454032475826e-02
-1.535705412109214692e-02
-1.133252199768550357e-02
-9.727638916306338788e-04
7.838166532882771473e-03
1.011850841716190399e-02
8.528382643553471948e-03
5.050599065276188335e-03
-2.132101902062269894e-03
-1.223964178563825486e-02
-1.562148485072776226e-02
-1.015990229447769240e-02
-4.708256703669188963e-03
-1.352276964736505872e-04
6.986061207010247492e-03
1.371084976337181432e-02
1.539071677482550110e-02
1.632264215262171220e-02
1.365699238588922310e-02
-2.194593806074262459e-04
-8.028497018028971435e-03
-8.485103025556087544e-03
-1.210396360595007888e-02
-3.432813410924111415e-03
4.397417552543733676e-03
3.057521311766752715e-04
3.266865946026115824e-03
2.703118660660666487e-04
-1.063648925756521986e-02
-1.218808528788757964e-02
-1.237701332027055928e-02
-1.149736340216151419e-02
-6.496895189895528916e-03
-7.901998765867082782e-05
7.987261157041887147e-03
1.391887382282540678e-02
1.953653298757639795e-02
1.888269839727916080e-02
6.003433844598372003e-03
-4.839901200345411020e-03
-6.877816046091588149e-03
-9.104356546511239989e-03
-1.268145815077809969e-02
-8.352107377487085968e-03
-3.925088530905738397e-04
3.257027404956924343e-03
8.587660889708241541e-03
8.285335460916908382e-03
-2.539789212495119353e-03
-9.610469594879916116e-03
-1.090362120773905388e-02
-7.806122130573050176e-03
3.220722072417066132e-04
6.008961847978987539e-03
7.878339140837138654e-03
9.428955059744625194e-03
1.201762150937573867e-02
1.329360947914737245e-02
7.956025907185804158e-03
-3.964565109687268572e-03
-1.435170107157742597e-02
-1.509543364133548310e-02
-8.605826089582858940e-03
2.738746704200171501e-04
7.548979937018638828e-03
7.869719349368852271e-03
7.806028933719299373e-03
8.510704545024738027e-03
-4.273427329620811004e-04
-1.052365616350247994e-02
-1.144500788971745085e-02
-1.075350761181117359e-02
-1.017567661331023054e-02
-4.581380074005293561e-03
3.986028775112814178e-03
1.178682131528654975e-02
1.690407175519506242e-02
1.696138061311577155e-02
1.099421479214523524e-02
1.016977597756035714e-03
-7.088641879042324734e-03
-1.165108405597086588e-02
-1.305497747386346816e-02
-7.465558646237499887e-03
-1.792626782420030747e-03
8.150260762392733029e-04
7.872825237474963267e-03
8.022556274414848615e-03
-4.150256323177497521e-03
-1.355060749144791458e-02
-1.708721548643713298e-02
-1.427162571120305090e-02
-4.931103066063969448e-03
-8.957871852589957464e-04
-6.390766248972126751e-05
9.935095927147705522e-03
2.053229880810619398e-02
1.871330810535707517e-02
1.049832390043704475e-02
3.133242738736279672e-03
-3.930990049642080902e-03
-9.863331071639867137e-03
-1.147259485090904203e-02
-6.576764545827548658e-03
3.851462922830506831e-04
6.648413874778840230e-03
1.154845605550869694e-02
8.052104403535355337e-03
-2.553131460175181965e-03
-1.007575039030997148e-02
-1.079273504357744842e-02
-7.325460863543025065e-03
-2.007096093661692865e-03
4.651130120166178938e-03
1.029084583293947940e-02
1.508921038031421288e-02
1.904273255904326972e-02
1.683047716912047104e-02
7.687223585319214944e-03
-4.873090772168119436e-03
-1.699135110592612380e-02
-2.348530885128929588e-02
-1.937422030070196782e-02
-1.015379421282303421e-02
-6.533370095198774360e-03
-2.069321000738237430e-05
1.071215200675087499e-02
1.019160792008623993e-02
1.888756393372558384e-03
-2.069902563080579325e-03
7.468868079236945165e-04
-5.883731954204594362e-04
-9.881717709354870347e-04
6.983408722882581895e-03
-1.089387805740337813e-02
-2.968639532577771120e-02
-7.261902897608097859e-05
2.347643170827186376e-02
1.427288285890933144e-02
2.998812229384132787e-03
-8.650623987627916595e-03
-1.129183060805320597e-02
-9.429088779509297788e-03
-8.197377409571019943e-03
3.995341276318669678e-03
1.534753044174339692e-02
2.176787927093773098e-02
2.027359859372699497e-02
7.086228281320429596e-03
-6.993521239989476147e-03
-1.789902455424804972e-02
-1.728711706142707985e-02
-1.066657149195610402e-02
-5.438736090045831473e-03
4.904364457559933985e-03
1.177062316464167792e-02
2.034934809639411812e-02
2.993050792224079965e-02
2.226123645871317877e-02
6.152129851114094237e-03
-9.412302141966026603e-03
-1.930769199398724156e-02
-1.712891296820413800e-02
-1.028156407843568501e-02
-3.637335937729427315e-03
-2.551122858883812447e-03
-6.788601828818867714e-03
-9.326410777616084627e-03
-9.825418422103469190e-03
-1.206752487389609919e-02
-1.723858581479806307e-02
-1.362859423037891121e-02
-4.729149600965757393e-03
-3.140296222306002052e-03
4.139147966959914405e-04
4.424728716487674914e-03
7.923618610224048703e-03
1.577443069940646231e-02
1.598269030892548667e-02
1.410907921974289755e-02
1.742218309513761040e-02
1.379591192492289446e-02
3.618269752326368216e-03
-7.153223969661997184e-04
3.291834708152105091e-03
3.732419885258070683e-03
3.710611723313928662e-03
9.183487748406604645e-03
1.023156534771046348e-03
-1.750273543517400637e-02
-2.463496971087783191e-02
-1.903105865069160477e-02
-6.332616620497407041e-03
1.419247007060901126e-03
2.037877429070336123e-03
7.188503456376859647e-03
1.295262352829850382e-02
1.303450580736106867e-02
8.139820733314878307e-03
5.313114948474609908e-04
-3.923077272340833553e-03
-9.724012390247378443e-03
-1.844595284806599747e-02
-1.867068350043719210e-02
-1.016277732974807738e-02
1.478354576623601381e-03
1.472710596397197591e-02
2.224186738829302470e-02
1.854404023730565898e-02
6.351527262524661772e-03
-7.371653383832093426e-03
-1.384164031951431485e-02
-1.301069233458473223e-02
-1.124032060846233763e-02
-5.623491443821015956e-03
5.337420218141153416e-03
1.131393322846429954e-02
1.086833424854906360e-02
1.026030928360563942e-02
3.477426521088320104e-03
-1.008738463344788228e-02
-1.606716695347544174e-02
-1.163768566854759406e-02
-7.375504488999259228e-03
-7.549553935759615274e-03
-4.504031884116114007e-03
4.635280368477373916e-03
6.210753611703463337e-03
1.984871365997998433e-04
-1.453860852672183472e-03
-5.764690200169095974e-03
-7.679885092008452950e-03
1.588472099494598602e-03
5.405627620454165130e-03
9.299502846140322160e-03
2.432750706544638958e-02
3.507464052843816543e-02
3.641304121357811369e-02
2.779182033805733046e-02
1.196408986323400578e-02
-3.680755615311845277e-03
-1.816628043767554851e-02
-2.340713344034869858e-02
-2.563312403364974984e-02
-2.481654284384733275e-02
-5.139582283645718203e-03
8.665536758408037485e-03
5.923690338938677157e-03
6.342079690059397243e-03
-4.500246434315935927e-03
-2.407454619265518569e-02
-2.738823453220510379e-02
-2.188827342095719247e-02
-1.792541814871381062e-02
-1.016949130522887094e-02
2.944455490645448651e-03
1.584927566311622807e-02
2.536263938814443258e-02
2.555373897820014881e-02
6.258883365318212988e-03
-2.215284026225484981e-02
-3.489270958293065605e-02
-2.228746859253435963e-02
-3.648392846830069043e-03
5.148339946195290562e-03
2.310667056738914191e-02
3.914890716969963297e-02
2.958141997378281596e-02
2.331911121477314025e-02
1.138954646139951100e-02
-2.010434221633126614e-02
-2.103518161425624311e-02
-4.068966540503733166e-03
-5.296727001930448195e-03
3.018117025567453385e-03
1.752254315030620652e-02
1.929593148545019621e-02
2.077565791781558688e-02
2.004215737110974505e-02
1.128250923678114637e-02
8.526179048524653746e-04
-1.121163898657152880e-02
-2.211277587942500969e-02
-1.844808762881682690e-02
-9.020621924229517072e-03
-1.310833055755342667e-02
-1.740179154800252509e-02
-2.063290970377244793e-02
-2.329460823653564314e-02
-4.731717368459207457e-03
4.036328003336630936e-03
-7.814553663486560955e-03
-6.627572185666191600e-03
-1.749004876199629008e-02
-3.096345497534969127e-02
-9.251861845569241474e-03
1.204461069350089633e-02
3.138837045679593318e-02
5.615158805138720927e-02
4.391196225790983815e-02
1.652639008925607667e-02
7.863208759170117398e-03
-4.929543644089122087e-04
-6.711975142104179351e-03
-1.076756545803829977e-02
-1.691336546916212893e-02
-9.142846471883438186e-03
-5.115715596862495471e-04
-1.163313761361303537e-02
-1.972778267749406012e-02
-1.117523939798539378e-03
1.813970540451024724e-02
1.512267802174761290e-02
2.046020436252221370e-03
-2.013664321447587030e-02
-3.597417542330150902e-02
-3.681471519997184944e-02
-3.923636681678115828e-02
-1.059886504091657640e-02
3.483389947768250616e-02
3.279259137742893127e-02
1.391261473560231193e-02
1.911882979334400545e-02
3.023318141553727259e-02
2.159663936933317943e-02
4.997203075969896581e-03
1.502236666270119307e-02
2.776222186837383477e-02
2.289180359245098634e-02
1.139041953139881096e-02
-6.804086725655170489e-03
-1.279725317180387817e-02
-6.873639028638515135e-03
4.358192238923936507e-03
8.127927686876128960e-03
5.097519957621695491e-03
2.526021358704647057e-02
9.998138376314687908e-03
-2.773980128548168486e-02
-1.649488692674898685e-02
-2.548193666943944849e-02
-3.085581898198653042e-02
-2.442433191820204616e-03
-1.050072390500471180e-02
-1.926871270048142668e-02
-3.790479506929224363e-02
-6.657100839879211140e-02
-4.248603326104435224e-02
-1.702315492869400579e-02
-2.927411856316207081e-02
-6.775608988592393689e-02
-6.262574183215027790e-02
2.238833127911105461e-02
8.084536138557671392e-02
9.194596134690970202e-02
5.446888975890259305e-02
-6.974620121643086181e-03
1.644207230142965756e-02
2.765362702387381272e-02
-2.246857002322200439e-02
-2.212051842412478264e-02
-7.854012186612536681e-03
-3.265679056619224564e-03
4.172566341375789564e-03
2.741037733454667821e-02
9.970954348282091984e-02
1.046312200750842830e-01
5.640005841776642853e-02
6.952832940329081723e-02
2.677067700343482848e-02
-3.469467039493363131e-02
-9.622719494747564162e-03
-1.561840702429663497e-02
-9.552330551387674604e-03
1.484372455002750009e-02
-5.815706440570000968e-02
-1.008537999040245159e-01
-7.378227049164901019e-02
-5.057255463444324667e-02
-1.785808286410548243e-02
3.076664752777447912e-04
4.839955259123648185e-02
7.755056276883096067e-02
2.214068764613620621e-02
-2.556990889883997004e-02
-1.113753790507233804e-01
-1.757843875619809482e-01
-1.207009803598158709e-01
-8.546593505385352563e-02
-4.223980168974686422e-02
4.354785165990680135e-02
9.729338610557129730e-02
1.436934671538603880e-01
1.496193624997771698e-01
1.287609837623978071e-01
7.544636614668315255e-02
-2.683723783015930578e-02
-5.512954775303290089e-02
-6.826288722775966655e-02
-8.868618063292803277e-02
3.620816820238252111e-03
7.748894612101621393e-02
5.557293615329549769e-02
3.624187566737692434e-02
2.601857660709851888e-02
-8.690815408322193503e-04
-4.486286517074970781e-02
-5.434950105785927438e-02
-2.041104511688923012e-02
6.797143521569452840e-03
3.388312714982313900e-02
5.003176183422760291e-03
-6.323478703675688983e-02
-3.345475592612928012e-02
-7.675496353372365625e-03
-7.144100689003565763e-02
-6.111572828816361214e-02
9.260315946999846462e-03
4.182737243024808871e-02
6.961832405934917367e-02
3.740284547445638791e-02
-3.196406468725523226e-02
-6.620624157219596150e-03
4.360308086985486414e-02
4.130756903708892452e-02
5.173873949211679757e-02
3.764047496497879147e-02
-4.003385304925874411e-02
-4.253365689707483410e-02
4.228939375959755304e-02
5.504158319179558445e-02
8.978106058772302583e-03
-1.397855766528274118e-02
-1.471576289170887369e-02
-1.316334686932493087e-02
-4.879591684152069508e-02
-5.337957999501057038e-02
1.361310065551373308e-02
4.148898081132754850e-02
2.466839565332337725e-02
2.810267326076537273e-03
-3.029754278737957149e-02
-4.726369311018466940e-02
-4.900130121097888425e-02
-4.000249720332019893e-02
-1.428635262072512277e-02
1.980632602991970817e-02
1.549520751175989530e-02
-3.809093180886454627e-02
-3.587748128087245997e-02
4.217705731802529577e-03
2.342744166525186338e-03
-1.451432831070368148e-02
-5.376535783141585256e-02
-3.771952543901035265e-02
5.814810869085457884e-02
9.061426497184867090e-02
8.770182722471331349e-02
6.411923382378577341e-02
-2.029043071012211555e-02
-4.372346367410817614e-02
-1.986769929683218985e-02
-2.031356854949570648e-02
-3.933095714659364840e-03
6.803617588296188325e-03
3.831185756302220302e-02
8.874446795297040447e-02
5.703977821182413394e-02
5.241464785482272473e-03
-6.769991489859087698e-03
-3.047735475275284087e-02
-3.667888828114061750e-02
-2.515436314851520264e-02
-2.029189982175126292e-02
7.937959397517450888e-03
3.627550349204624464e-02
3.396529707104814499e-02
-1.433859391941069879e-03
-3.762495570792456084e-02
-3.046409590407463466e-02
-5.188238978150415230e-03
2.389309243811083699e-02
1.306421997085932540e-02
-4.444641471984759479e-02
-2.461968693011112180e-02
4.538325348776423712e-03
-3.733997318653420328e-02
-1.192076487125646143e-02
2.279117543180336075e-02
-1.387902521028081849e-02
-1.456927070042080691e-02
-9.261687261886879588e-03
-2.351968270743922187e-02
-1.425015639764262362e-02
-1.879003791127158499e-02
-5.919960992116535779e-03
3.046670858658970943e-02
1.920835813158830452e-02
-6.374808097163625273e-03
-2.992870512587961999e-03
1.907430538166038358e-02
3.803675221362507602e-02
2.702414758645300258e-02
2.214822251204428757e-02
1.715893070212066301e-02
-2.902211960204528762e-02
-2.989365417231908476e-02
1.809809462102256183e-02
9.162389316479913406e-03
-1.285532646750319960e-02
-1.005007274678240518e-02
-2.291536494479111744e-02
-1.963019052928312302e-02
4.128610015984727002e-03
1.389573771351320687e-02
1.647392496408103119e-02
1.628017384467838474e-02
1.404526460909979839e-02
1.495049157223728858e-02
2.143414641292040040e-02
1.859201305337860460e-02
-4.771597298568933283e-03
-1.522366564458430341e-02
-5.422484588052707208e-03
-5.363533527417713859e-03
-1.239371837291020247e-02
-9.086929097756157869e-03
-9.703819222681014933e-04
-4.620923426407743187e-03
-6.395938348373068558e-03
2.910830236388141368e-03
-1.386714466919435019e-03
-9.415984323083060811e-03
-9.133738860193292867e-04
6.751055108311068177e-03
4.932497142239981175e-03
4.942756151455186472e-03
5.573326161081633250e-03
-1.052714333923419465e-03
-3.327512113381552328e-03
-5.989518285997870450e-03
-1.688892074713879352e-02
-1.488774788515064354e-02
-9.452166654533775830e-03
-3.171563718772356377e-03
3.963864702183178025e-03
-1.356486902047193688e-02
-1.005902785382447283e-02
1.892509008400850012e-02
6.664880708383147043e-03
-1.479611730426387724e-02
-1.767421577895299592e-02
-2.187418346327169374e-02
-1.055102687986998744e-02
5.636418609060837165e-03
9.226699836777901842e-03
1.051849432201835445e-02
1.688251549045400104e-02
2.918863478656454763e-02
3.243005199981232461e-02
2.137034436725479200e-02
3.072361934036448895e-03
-9.888252435979672655e-03
-9.188320303993417065e-03
-1.050847167174740263e-02
-6.278340611878333033e-03
9.969364962917207432e-03
1.770494169545826224e-02
1.783981780334992912e-02
5.141312423085225153e-03
-1.577257225737582758e-02
-1.884240945043419435e-02
-1.180956131349896084e-02
-4.458788891394033227e-03
2.084002925594676588e-03
4.825547947915995173e-03
1.040369174902325451e-02
7.863302615474276544e-03
-4.349103572251679199e-03
-1.015370801172937702e-02
-1.220806022233069527e-02
-1.118518328863185411e-02
-9.944982251783919883e-03
-1.390262070119226319e-02
-1.132570966400109173e-02
-2.096602271013100344e-03
7.833522714309645169e-03
1.877717709127478193e-02
2.228741914442717784e-02
1.331533235028717344e-02
-6.196745973596148177e-03
-1.970850604658311300e-02
-1.256391592911933197e-02
-2.267085241817029789e-03
2.025873259940914363e-03
7.661105246067931307e-03
1.401619430770638733e-02
2.118953962600115051e-02
1.892611938821909742e-02
5.859419928951950345e-03
-3.634605780625630063e-03
-9.855245717068396305e-03
-1.223066260009794508e-02
-1.300257712419604188e-02
-1.612545752922022943e-02
-1.081296711522584594e-02
2.257788964515308923e-05
7.125448307873846580e-03
1.089217456272477923e-02
7.845702859697397877e-03
-3.537145773701639434e-03
-1.456828795246205115e-02
-1.119942019805616855e-02
-1.892396103936519296e-03
-2.806044680318489637e-03
-9.101842267469377121e-04
1.085782076783795534e-02
2.173764591588291106e-02
2.356416148045670927e-02
1.366924397900127000e-02
4.234709812192226364e-03
-2.967072964912507386e-03
-1.430435845077262375e-02
-1.844867396239984261e-02
-1.404521107411553504e-02
-6.368100108586832037e-03
4.472703813658827562e-03
9.997379752299561870e-03
1.019676734635026165e-02
6.730441895091044888e-03
-4.971195060135569568e-03
-1.400682462629327871e-02
-1.211960217891951651e-02
-6.901784926241317369e-03
-1.650134010222328558e-03
3.600931872572640368e-03
8.809812376319513944e-03
1.481666898282831511e-02
1.739473789458290814e-02
1.418890739193231360e-02
4.413175739033048384e-03
-7.712885198796747346e-03
-1.183030951024421559e-02
-1.299741932958615835e-02
-1.225760881462508757e-02
-2.305318226374516999e-03
5.051156183850977199e-03
9.793995123297561181e-03
1.396299813802757105e-02
3.666456639900991799e-03
-9.172608757364530963e-03
-1.477357295278405175e-02
-1.736138540398135185e-02
-1.003374040126066291e-02
-2.309867698896075731e-03
7.890579580201039119e-04
8.604031577554223029e-03
1.313671562575159657e-02
1.288373596618499345e-02
1.341015620367195724e-02
7.573116519644816289e-03
-3.846609535970019634e-03
-9.587530492600561394e-03
-9.872775414454196957e-03
-8.113488873717088559e-03
2.562653983591758194e-04
6.922789299970075194e-03
6.332827734922840540e-03
7.423316658858439276e-03
3.590820959138829767e-03
-5.753989174023926498e-03
-1.202878387984403219e-02
-1.789596974195113710e-02
-1.388805858177139842e-02
-1.484833929712419971e-03
3.601920029774856834e-03
8.178578599816983125e-03
1.560113629192012158e-02
1.896053067839065590e-02
1.733007777349036826e-02
7.360669910142668068e-03
-5.447052207425427499e-03
-9.442239208052000815e-03
-9.155082602466618411e-03
-1.057173169251403137e-02
-5.427666501634462529e-03
3.784832385335860135e-03
8.403352822430288152e-03
1.123833018842331985e-02
5.055778383931224841e-03
-7.600546729218877681e-03
-1.107180912608783652e-02
-1.352019570915264680e-02
-1.399827154578441035e-02
-3.370753408270058156e-03
4.371255478954103046e-03
7.323114300066223964e-03
1.289569847329592039e-02
1.694468544699196180e-02
1.472496296842650335e-02
2.491656333223218195e-03
-9.093371186380667243e-03
-1.169913488830856031e-02
-1.242021332331291229e-02
-9.583597887660737571e-03
-3.759368925070991508e-03
2.086752756270760303e-03
8.338548367715286486e-03
9.556857666892700984e-03
5.411087188762721788e-03
-3.351990657696131502e-03
-1.240548692858308225e-02
-1.575954249443389799e-02
-1.310780420058196317e-02
-2.218318397627645593e-03
4.339798783730123080e-03
3.901297640198328129e-03
1.194822544838081667e-02
1.925937624420517164e-02
1.750023476313248422e-02
8.820073275465013102e-03
-4.716117823407172879e-03
-1.308254593602751342e-02
-1.723000997695863651e-02
-1.506975653968922399e-02
-6.692966220328751617e-03
-1.004738736001281650e-03
8.548180940918227722e-03
1.606768080879604835e-02
1.044290061291373514e-02
-1.146718446843302940e-04
-9.103152357983328516e-03
-1.353265720700005774e-02
-9.055624390805688123e-03
2.317543304381245936e-03
8.096509348639785442e-03
1.139116933046387808e-02
1.863763822472451134e-02
1.888877589230401541e-02
1.798576583043572444e-02
1.113850799617523667e-02
-4.449954705298955412e-03
-1.035832675263619398e-02
-1.432042243529650649e-02
-1.120900675454860988e-02
-3.597725279081642746e-03
-3.205457165277268965e-04
1.410180524938890040e-02
1.579826516648783624e-02
9.968476716850555031e-03
-5.883871900038280603e-03
-4.627674789722661941e-02
-3.615202996129683599e-02
-1.967887086408088432e-02
-4.629089410194613813e-02
-1.410543825413850504e-02
2.649036727121478058e-02
1.888416752880774790e-02
2.742881300282404983e-02
2.496021591487219277e-02
9.940780080048491896e-03
5.991784558157044020e-03
-7.343870606860774912e-03
-1.106144121078824448e-02
-7.952453982559747059e-03
-4.260257801488639279e-03
9.085898892134680604e-03
1.523762747527567137e-02
1.647164865641163531e-02
1.344431397346079055e-02
1.846503327518963762e-03
-6.864239656136178654e-03
-1.087218269307093158e-02
-8.056783053012698051e-03
1.528603779129038753e-03
9.412211184874961015e-03
1.048416315957095488e-02
8.882575746675981654e-03
1.123495498700394397e-02
9.848540093253164984e-03
8.972691567675565279e-04
-9.896475034254432687e-03
-2.040260912152405334e-02
-2.402716937739393308e-02
-1.974346499838537314e-02
-1.175807064739187516e-02
-6.382539010000392015e-04
6.789697704481571956e-03
9.186357198730552009e-03
9.710728814046009488e-03
3.904734929994652885e-03
-4.056499143969435200e-03
-8.451584330864292394e-03
-7.564990983955406471e-03
8.193644326314377790e-04
4.425841748667515806e-03
4.441600966410373143e-03
1.301256483299557259e-02
1.736121383656004380e-02
1.420239486125784815e-02
8.664942305446834622e-03
-2.423370951701581903e-03
-1.131386917541613198e-02
-1.377061581231240825e-02
-1.029863631984683468e-02
-8.794002481540923871e-03
-1.048324511672720297e-02
1.136777243743246129e-03
1.219101682976244869e-02
9.178601054967976125e-03
2.611833858323277940e-03
-7.990723511358053047e-03
-1.339603278080297305e-02
-1.114310120578055133e-02
-8.397520347892284756e-03
-9.734871900749677946e-04
5.010780858300927128e-03
1.040907715538229132e-02
1.686343817156215480e-02
1.710465895130810002e-02
1.238743802623433476e-02
1.921209024198588340e-03
-7.445839472278803842e-03
-8.989472229792556598e-03
-8.487913813685231748e-03
-5.305518448080651962e-03
1.727491081936162118e-03
7.482915599424780351e-03
8.069319503815250080e-03
5.989795855118113486e-03
-1.740960502532619414e-03
-1.556411761131953723e-02
-1.730882459435388945e-02
-1.042886684697875120e-02
-6.977898484634094747e-03
1.422667366818773562e-03
8.051433479473095109e-03
1.068657733804173442e-02
1.716428700096310489e-02
1.650385040816897131e-02
6.821110719512885924e-03
-1.147039113734571979e-03
-6.397964482202853076e-03
-1.248519631504842360e-02
-1.322379162790283773e-02
-3.984460737104521082e-03
4.142562524432098249e-03
8.223065891946995318e-03
1.049887240438603098e-02
6.021408285327822796e-03
-3.402357979991594769e-03
-1.200697977767308140e-02
-1.361916103497654539e-02
-1.043814338297616856e-02
-6.782787458706833125e-03
-1.497355286531963214e-03
2.125686173431921931e-03
9.664965418336156702e-03
1.886810321621848474e-02
1.857661568080424402e-02
1.415760224056511474e-02
3.054453799336417311e-03
-1.098649567165603351e-02
-1.480514032033871698e-02
-1.483103100403870486e-02
-1.077945312774939747e-02
-2.063396554379753368e-03
4.786841449655180290e-03
9.606097325166193523e-03
5.004928917965965028e-03
-5.234910661762614062e-03
-9.217943958664657350e-03
-1.016503454066220759e-02
-9.781476266536070011e-03
-4.602712253414573303e-03
2.029916982114340039e-03
4.467270559944238294e-03
9.829203423981637891e-03
1.845970725461279494e-02
1.586347754508848906e-02
8.560962406935674479e-03
3.197159264267119671e-03
-5.088489930582808587e-03
-9.534546010759533535e-03
-1.061119335814380248e-02
-7.133120796736669433e-03
2.706816175390690596e-03
7.863869508196319122e-03
9.491898601277467401e-03
8.550857919174873617e-03
9.226795665337286009e-04
-8.588365819393161543e-03
-1.559353828830143882e-02
-1.400594679708826347e-02
-6.420531030822094164e-03
-1.900478138225880544e-03
2.836928944196945301e-03
9.701065080256664197e-03
1.428548258289876437e-02
1.570829773602014368e-02
1.295180691904805788e-02
3.340265719656381176e-03
-7.084824091040308955e-03
-1.169490278167015229e-02
-1.412666225297596646e-02
-1.174910123941681241e-02
-3.235240042926058879e-03
3.422969400191500696e-03
8.767552183093984056e-03
1.083980371442333328e-02
4.032388401200407563e-03
-6.870222103044500497e-03
-1.477879645311536497e-02
-1.490439361331835112e-02
-9.003332538822085215e-03
-1.333121696386407786e-03
6.328371268861383847e-03
9.206803783572865829e-03
1.118283078685658634e-02
1.614997421420208065e-02
1.258221494333957094e-02
3.136902168366987567e-04
-7.654432157610191467e-03
-1.053798864665439310e-02
-1.071253937408405202e-02
-7.387372983909183850e-03
-3.052811266564073658e-03
2.295009881838745019e-03
7.972559346512097384e-03
9.645824782084427493e-03
4.575675649936732439e-03
-4.629005646204420107e-03
-1.272487133648717191e-02
-1.661034075085254108e-02
-1.150434007798727815e-02
-1.826284102059511950e-03
4.531409871056765910e-03
1.257069801754132250e-02
2.019916779003482279e-02
2.295347698844182188e-02
1.948347331565358082e-02
7.162710195813278002e-03
-3.085843153470994166e-03
-9.004432415449445393e-03
-1.235410664575509014e-02
-8.719711129711879907e-03
-3.858238147726889694e-03
5.340833952388082152e-03
1.155948869868657185e-02
5.449272661772520260e-03
-1.561442414972491607e-03
-8.878602199945784951e-03
-1.041451037299227951e-02
-7.828914315017093326e-03
-2.071736598647184145e-03
7.973784134145182195e-03
-1.514781516707013401e-02
-3.409992421064057116e-02
7.285391539194052690e-04
2.245953616590899010e-02
1.547369859654391944e-02
8.748812282472017907e-03
-5.019082337944211041e-03
-1.006854438688456130e-02
-1.127385376151652553e-02
-1.189836769613046054e-02
-1.353462574784834900e-03
5.415977320592603450e-03
9.889063568508528468e-03
1.059018079341078784e-02
3.824582897210780045e-03
-3.993818218572378620e-03
-1.100214660283348189e-02
-6.277128791510376213e-03
1.624847183774342108e-05
1.111433273950884325e-03
7.024770987690674533e-03
9.474397035183513074e-03
1.299918634741807633e-02
1.831042172306819940e-02
1.444562598162687193e-02
5.326801530287445831e-03
-5.588427678606083630e-03
-1.180889298395148418e-02
-1.388948401228716489e-02
-1.235305417436375133e-02
-2.214235051300975782e-03
6.808156338315806896e-03
1.103946980106734407e-02
7.958472108851694440e-03
-1.475194678267024995e-03
-8.430792631483318214e-03
-1.488473962335400136e-02
-1.267736022846248367e-02
-5.700049396421874928e-03
-5.832212767896761615e-03
1.632446389468960842e-03
1.020989811340470427e-02
8.492377238598082870e-03
1.187734381303923517e-02
1.537164944534612221e-02
6.542298091291506683e-03
-4.076617161772304147e-03
-9.785627351733241358e-03
-1.462976878928399713e-02
-1.345979099757240935e-02
-3.082487380991674915e-03
8.126108741409274194e-03
1.177682408398422753e-02
3.710316260106587272e-03
-3.590741316742784069e-03
-4.544628353333439973e-03
-1.144853106018466071e-02
-1.388804822769251768e-02
-7.125069155750568192e-03
-4.646081701295321116e-03
1.033799906484575946e-04
9.540171659708069490e-03
1.551469154371179320e-02
1.706501453137507923e-02
1.406611040489683453e-02
6.785083277059004991e-03
-1.501043253898044815e-03
-5.124348980659557823e-03
-7.954207582950022920e-03
-9.316480834090142688e-03
-1.675221571087322572e-03
3.342980123788474867e-03
5.978589016693846257e-03
1.008224848250123713e-02
2.022659694914547782e-03
-7.662625249159395538e-03
-1.176549913943111293e-02
-1.426646323991077187e-02
-6.291754231794641737e-03
-1.057135457941455218e-03
-1.328000425133147623e-03
8.400872543969969963e-03
1.512933052310224541e-02
1.418606592009189794e-02
1.374629577678820359e-02
7.851622887346716012e-03
-3.914401444553091899e-03
-1.457375694200496556e-02
-1.689150717002295757e-02
-1.173093242863864662e-02
-6.172352315608593820e-03
-4.027415804242378324e-04
4.807598005821461969e-03
9.252577528520426753e-03
8.220568223753516729e-03
-3.796964282927902355e-03
-1.252488676979187504e-02
-1.103356100714265181e-02
-7.416479783360294294e-03
-1.741091074261639322e-03
5.101695094276837046e-03
1.204805433876150918e-02
1.498615073882524594e-02
1.299080633774033454e-02
1.488020902525045985e-02
7.720354863333164092e-03
-9.005676039927678136e-03
-1.004762792523033674e-02
-8.617009270441101931e-03
-1.228325781978997777e-02
-2.997128887648060902e-03
3.159909179059975856e-03
3.056511259229533276e-03
1.069044967951671664e-02
8.525042116399116077e-03
-5.096117129326905790e-03
-1.355983867913769514e-02
-1.653398852723751006e-02
-1.155298220020242045e-02
-1.153603169243002866e-04
7.219874262815967163e-03
9.492147884557985277e-03
1.029553910794693376e-02
1.156088946661741612e-02
1.303650736748712159e-02
8.484959283502549812e-03
-2.198537498539336089e-03
-8.635484430390482496e-03
-1.094038102092441400e-02
-1.380365596618602503e-02
-9.546403044621707551e-03
9.831080353434617797e-04
9.030188720492306198e-03
1.235116476046937105e-02
5.778607674318792485e-03
-4.422390691776549240e-03
-8.070448093589930108e-03
-1.245697695407051858e-02
-1.279630138546925498e-02
-3.713417320609871657e-03
6.720384005983921511e-04
4.732446426650592855e-03
1.397255475620054650e-02
1.677502454395932152e-02
1.526455423023636779e-02
7.701278785901994293e-03
-6.168605440406003081e-03
-9.359945597502668593e-03
-8.464124101015661067e-03
-1.043155486302346953e-02
-3.980681991546921629e-03
2.810132253059156870e-03
7.224426621451788405e-03
1.277683710816930260e-02
1.004635543144792066e-02
4.328816349142443668e-04
-1.188595846390940250e-02
-1.789904346398495452e-02
-1.187777675391288833e-02
-6.493411968918034495e-03
-2.974536011749807137e-04
8.664687992838813677e-03
1.099323709900426778e-02
1.119968651056546007e-02
1.211420271735070761e-02
8.619662452916747666e-03
-2.117336145566417038e-03
-1.296559111383310467e-02
-1.137762533625471216e-02
-5.888707204006934579e-03
-5.507559224178896345e-03
1.103622361267783116e-03
1.190681277823242221e-02
1.181942692662376129e-02
1.741147827342050302e-03
-9.582205092756200179e-03
-1.739758092362383296e-02
-1.814234702808032937e-02
-1.327780114655782370e-02
-4.262276168423092051e-03
5.403707325519711661e-03
8.390992226143586391e-03
1.045081813959471834e-02
1.608142410230853012e-02
1.757433408104761702e-02
1.129644897390020240e-02
6.008814525973531998e-04
-7.105655238326671549e-03
-1.118359956398309353e-02
-1.179540365233996795e-02
-3.437915002363526630e-03
8.740963230578383675e-03
1.508358304473334487e-02
1.311855275157832942e-02
8.113838818045518431e-03
-7.237012202993400650e-04
-1.257987471876183781e-02
-1.195412237240825633e-02
-5.574436763566443902e-03
-3.931725172182905584e-03
4.768827207615865694e-04
7.706205877535832020e-03
1.747253238115602236e-02
1.857704840343489885e-02
1.436625859213607609e-02
3.416439630339431106e-03
-3.217408058913660829e-02
-3.699908851888413647e-02
-5.879896980443626367e-03
1.380535199356317704e-03
9.559330618061530338e-03
-1.432925245962661737e-03
-3.422007986936086849e-02
-1.091402293373397447e-02
1.764757337701838152e-02
3.706960915853864998e-03
-4.933944226128025162e-03
-6.347926353968647191e-03
-5.353647516365789109e-03
-1.207314286810565445e-03
1.857325305841997292e-03
9.129504303182449723e-03
1.426305404690828872e-02
1.908903965200869218e-02
2.047096156429472139e-02
1.566382435196451983e-02
8.652800966306231634e-03
-3.541070833192035659e-03
-1.053560605236453056e-02
-1.068987818677676234e-02
-6.898790073335584264e-03
1.972813229069272575e-03
6.394648649638990344e-03
7.539739664574550068e-03
2.392790448289921351e-03
-8.650006680455962424e-03
-1.511026425114546552e-02
-1.903101792851374582e-02
-1.345606214644761225e-02
-8.454858832370791642e-04
5.457915663936546181e-03
7.695303480948752738e-03
6.940791325072062992e-03
1.046253245968662912e-02
1.498010604764914329e-02
7.568961146657604382e-03
5.685290900966891332e-04
-2.399017009335888649e-03
-8.984172344185857237e-03
-1.062504664324659398e-02
-5.139171731567575285e-03
-8.572411468659867258e-05
5.190871906345460168e-03
1.131158095178598499e-02
8.885374235076877805e-03
-1.725288815320791518e-03
-9.506347618178759978e-03
-1.439945719075372450e-02
-1.389430374626988464e-02
-4.749782442224247808e-03
1.322907212919783053e-03
2.033972746798268401e-03
6.999215795923864614e-03
1.140901495104978437e-02
5.724446203334910763e-03
-1.894745155767460758e-03
-1.700155452251278379e-03
-2.012650496470229887e-03
-7.328535718648304664e-03
-8.800495617829967934e-03
-5.544498675420323104e-03
8.276456621422434955e-04
9.300169963703756176e-03
1.022638122845155595e-02
6.302258414594772394e-03
3.897686884141397280e-03
-4.276459079157653338e-03
-1.156654917640263271e-02
-9.324075614371716073e-03
-4.458188491219889499e-03
-6.838259287188870519e-04
2.870831395564224509e-03
9.371882416291841059e-03
1.604864629381150612e-02
1.634907664057514559e-02
1.187887933549301375e-02
2.784323321580728199e-03
-6.418660294207320476e-03
-1.126507292173117847e-02
-1.444536844713977322e-02
-9.338286320642178936e-03
1.217308728306455571e-03
6.627965862054773470e-03
1.140848798764258244e-02
1.134836699509113138e-02
-1.036154659458923951e-03
-1.303781227502519638e-02
-1.642265715938911672e-02
-1.733459140264662079e-02
-1.391511924616023813e-02
-3.253508339215003316e-03
6.040632550452507132e-03
1.193440369114201136e-02
1.768566291088292941e-02
1.974629017522520208e-02
1.404517756586582886e-02
1.877909637469065253e-03
-5.739322116852498858e-03
-7.761192251867873870e-03
-1.359220148734851044e-02
-1.370888514911214155e-02
-4.241186590217443583e-03
4.033664169767576906e-03
9.788226054125943876e-03
8.080351273347177732e-03
-2.415226896931247074e-03
-1.144090799176515454e-02
-1.388464742703917829e-02
-8.071489480111819492e-03
-1.161489242949976467e-03
1.079371643198494008e-04
3.497972619228616534e-03
1.028902297611249995e-02
1.642629075534137936e-02
2.064231117833358747e-02
1.532432450333893852e-02
3.584947489679065746e-03
-3.868600748748835753e-03
-1.157736223394488159e-02
-1.918417070280750703e-02
-1.531897876330277908e-02
-2.961651919403809636e-03
7.091676559601300077e-03
1.000799349895205477e-02
6.911500443977126873e-03
1.714862780348457884e-03
-7.046897187315948226e-03
-1.687999371043564026e-02
-1.834874497781949221e-02
-9.935250115331476645e-03
2.401229455297129375e-03
9.708833155574600124e-03
1.051509630734023641e-02
1.320208667462589337e-02
1.479991334940441647e-02
9.036440600328108155e-03
1.963056990898604404e-03
-4.380938359000260095e-03
-1.131385841938480769e-02
-1.330300906714840421e-02
-7.448745173980152873e-03
7.976792835904067229e-04
7.391140158785013820e-03
1.545381120087603241e-02
1.727965241765884105e-02
3.996052085857621297e-03
-8.141710824983501571e-03
-1.053922430059455601e-02
-1.067320797962695300e-02
-6.003858413381922381e-03
-1.588979645991816809e-03
3.218019087568209109e-04
5.816449878215867661e-03
8.194083461244314887e-03
8.048056098208472217e-03
6.484595662934163410e-03
-5.413053042937793213e-03
-1.848799109887631908e-02
-2.027982539834361983e-02
-1.468815921590600412e-02
-7.189646295730718617e-03
4.258639042843476857e-03
1.599192849552040496e-02
2.344302554651933948e-02
2.744579484948179299e-02
1.953200090646909151e-02
5.344270723521780606e-03
-4.235168866399061094e-04
-2.541262102163314128e-03
-2.620200934531339513e-03
-3.494542777680600260e-03
-8.390713964678924580e-03
-8.801868395322888158e-03
-8.347589140665537255e-03
-1.312231713211484477e-02
-1.853583580447974721e-02
-2.474681841972705201e-02
-3.235575541761588625e-02
-2.924904906764700177e-02
-1.285654435506910880e-02
2.251249252406767667e-03
1.704795624135803378e-02
3.531503837821402259e-02
5.171888169717839961e-02
5.792981608931245530e-02
4.693726149609717818e-02
3.238031031969609841e-02
1.670465028478266070e-02
1.314134848257726002e-03
-3.886351669449624336e-03
-1.541906406369753825e-02
-2.860795524065603071e-02
-3.636090517901197777e-02
-4.525778194061634563e-02
-4.873945720989410202e-02
-5.590255704606233306e-02
-5.589376214977442164e-02
-4.778020531242254537e-02
-4.048567962329962383e-02
-1.993640328598921332e-02
-6.512014251443664498e-04
3.325885994933920620e-02
7.275861717999551614e-02
8.960692237713041575e-02
1.062305357830388985e-01
7.490954116982359579e-02
3.008733387753126029e-02
4.087562648785626057e-02
3.522788914005414024e-02
2.481607983289842168e-03
-5.496565529569213959e-02
-8.142096543614703308e-02
-4.622429444306849072e-02
-8.489190156561468581e-02
-5.960396990344450641e-02
