-1.588632043589515222e-03
1.820013168995843894e-03
3.561767626789269763e-03
3.448654341355078534e-03
7.771753078537810971e-03
1.195189452064098976e-02
1.256617988695900995e-02
1.120661741209529050e-02
6.986016600990930039e-03
1.076466305473572100e-03
-3.411763020865368843e-03
-4.083131475185127618e-03
-5.353349104220040885e-03
-1.164444328207876744e-02
-1.635508959715615759e-02
-1.848786722521346404e-02
-2.078814361513621478e-02
-1.841423938471015154e-02
-1.062785662057150887e-02
-2.282381531451110977e-03
7.110464205266588599e-04
2.676549244256707597e-04
1.934574971390785186e-03
4.452451020289797251e-03
8.809270061677171304e-03
1.051117054964928466e-02
7.948775171592306274e-03
9.303981755517084021e-03
9.324362164548542428e-03
5.181591283890551840e-03
2.001979024650310090e-03
4.554545024261658775e-04
1.899149704161579022e-03
1.191195238079178478e-03
-1.709768336553557991e-03
-2.500326124435859818e-03
-4.390089947530238963e-03
-5.376410786593068328e-03
-5.137221968356281854e-04
7.400779556592576407e-03
4.058028398456803992e-03
-5.586509623342840805e-03
-2.806762684486330869e-03
1.925338563645167611e-03
6.242973899845305659e-03
8.272738286420798504e-03
4.579257202212686688e-04
2.681322663711800235e-03
-3.807899253658238517e-03
-2.536736651380198937e-02
-1.720051992760317575e-02
1.227058651118867428e-03
4.061062431308172169e-03
5.263224806540558673e-03
1.433523249005930374e-03
4.309408092295641539e-04
1.713646873738930909e-03
-1.381190220678015813e-03
2.306054078636350559e-03
4.358039696007768964e-03
1.540565486900600817e-03
1.184317177804161095e-04
-3.396171932648863866e-03
-3.651063854961489590e-03
-8.011320882951508942e-04
7.756477688480184225e-04
3.438969872497163981e-03
5.363307390161384421e-03
2.565371706466941688e-03
-3.135272953580806477e-03
-2.130751291762750417e-03
4.241884690249711140e-03
4.564925862219263927e-03
1.634167813247486886e-03
9.308721172867338335e-04
-5.006582724276091882e-04
-3.328003905934080308e-03
-4.045509495148582810e-03
5.865421555546994478e-04
6.540306333863256556e-03
3.736525827307644789e-03
-6.422505171710595623e-03
-1.077976899761944225e-02
-6.421730134827251420e-03
3.952809906744876177e-05
2.251086360207826473e-03
-8.450846835236056238e-04
-9.504663751495559141e-04
2.163731908809459013e-03
2.595918570878608719e-03
1.191257329378575883e-03
-1.857186405557956178e-03
-1.808129593859490129e-03
1.841879784919045818e-03
1.761696884427659026e-03
8.569419180631492180e-04
5.525783647480460780e-04
-1.356160983684997308e-03
-2.418104465492884494e-04
3.847246158374122756e-03
3.815846674678272359e-03
-4.226348048449149637e-04
-1.120673339967139925e-03
-1.578932353186510000e-04
-1.135021050369275104e-03
-6.666571333088970944e-04
-1.370251471784926511e-03
-8.737800138122522311e-04
1.399424626366736063e-03
-1.766645487166056475e-03
-4.181548490294104137e-03
-1.917258503826379948e-03
1.104102504144807316e-03
1.989514325234194997e-03
-1.896464688407085942e-03
-3.151806176910073014e-03
-1.121906907428745414e-03
-1.309933205355959772e-03
1.263098892485975356e-03
4.223532728538652477e-03
3.575588152307328845e-03
2.081087417392513909e-03
-3.582828208961670374e-05
-1.579189155512837573e-03
-2.364640084433168241e-03
-1.603409583503944465e-03
1.015054032733810714e-03
3.204916087776499105e-03
2.967722866933262919e-03
-2.186908343771558523e-03
-4.592234813947840277e-03
3.228166272713910460e-04
3.853342861360164670e-03
3.522274885456819996e-03
-5.414308231543798079e-04
-3.063494580241391332e-03
-8.540259250441262695e-04
-1.959448345436518718e-03
-1.324388781160565180e-03
1.665648157935973369e-03
-1.997961165608508924e-04
1.152653063776032209e-03
2.983899924258684271e-03
-6.516679350246092593e-04
-2.804708004259310293e-03
-3.388708348921709492e-03
-1.768238771078843021e-03
2.943826735430261042e-03
4.080483004396448683e-03
1.090085282424863196e-03
-4.269255778088580340e-04
-1.404685371647347797e-03
-3.075595011777515139e-03
-2.941882099870130984e-05
1.787217525320502825e-03
-2.247185212897268025e-03
-1.539948744057861299e-03
7.197235131615471303e-04
8.515649893987135323e-04
4.056200310561609672e-03
2.274143064890557508e-03
-4.185023218192464485e-03
-5.701413766330060834e-03
-3.783753573352220245e-03
-1.179493273382685187e-03
1.241167822604407603e-03
2.513283216981298217e-03
1.545522406623913922e-03
-9.662829117531571881e-04
-2.951101463759981617e-03
-4.407797866842278270e-03
-1.319289097823904975e-03
4.541119590752474428e-03
6.090938342422977728e-03
5.185798958727455207e-03
2.342779677359083882e-03
-2.508217612891034559e-04
1.308597248207069149e-03
1.471277790179023994e-03
1.245304593740599033e-03
3.382223585814584082e-03
5.455397357385118311e-04
-4.610128423474447144e-03
-3.959414811472643063e-03
-1.166809267473839073e-03
-1.136612449748340302e-03
-2.678356490864427456e-03
-2.382247168644975252e-03
-3.465596476177788213e-04
-3.164729665501182180e-03
-6.598967978029713494e-03
-2.473561080584913080e-04
5.284362107787916527e-03
3.097209232058164858e-03
2.829957064568014262e-03
1.246860494343307851e-03
-2.292123342900530096e-03
-1.179264253461352347e-03
-9.953268211477907593e-04
-2.632737674284946791e-04
3.954208358967689629e-03
3.226126252818328072e-03
-3.256923976920185156e-04
-2.250421742100607156e-04
1.288554851198951733e-03
1.192825894890306177e-03
2.859805056493889197e-04
2.455845942821959730e-03
2.236547223075802809e-03
-4.967727201600216462e-03
-7.163104009853830424e-03
-2.708041128085740806e-03
-1.003422197741887876e-03
3.920988391563404022e-04
2.821873941227740629e-03
2.086605847088000929e-03
-1.848195067952540255e-03
-4.441989808057061721e-03
-1.747458257245853436e-03
2.810680111956862480e-03
5.366206078998733871e-03
2.994655245356111443e-03
-3.197952702100974147e-03
-3.701997057998780098e-03
-6.011210440676864912e-04
-7.189468937942203146e-04
-5.603369190653468678e-04
-2.875617854273082954e-04
-8.911917812140495582e-04
-1.496619302592307795e-03
-1.940011120681894114e-03
1.222511515715927664e-04
3.044605050940326317e-03
3.748810430772476707e-03
1.175057342192413045e-03
-2.680943787536821431e-04
1.943511087545661455e-03
-8.772088858610469332e-04
-3.062002534412163260e-03
4.824160632682970330e-03
7.757902470901747831e-03
1.684063663117646263e-03
4.084918926718910260e-04
3.774129770487000680e-04
-1.565678775942682538e-03
1.497761626293450709e-03
-9.893511483028115134e-04
-6.962799318370406845e-03
-1.337712641575282933e-03
-1.253062327978965050e-03
-4.562424022805197654e-03
4.411875942932689393e-03
5.711120366360137625e-03
1.931007562869379570e-03
3.313244404546859465e-03
6.082701582005021687e-03
7.003795059452639152e-03
-1.651426006698855642e-02
-3.053186763856384142e-02
-3.689766686682538661e-03
6.005589727187384506e-03
-1.171021756745650906e-03
3.291099999117506631e-03
-4.511459762022558767e-04
1.483424373472643442e-04
3.995726148284797427e-03
1.279267372013709065e-03
5.356045608799112068e-03
4.840781564257333296e-03
3.170977650903469749e-03
4.652520751098548207e-03
-1.371267038829360424e-05
-1.130924368347658963e-03
-2.976643292588293174e-03
-4.313838050427424783e-03
5.220600508348543101e-04
2.140521848690198352e-04
-2.339961597901532315e-03
-4.074128458020054820e-03
2.964554010075461728e-04
7.863055184158978736e-03
2.254160300863728740e-03
-2.549193587465776491e-03
-1.243432936624588913e-03
-3.788487573803309225e-03
-2.417567868096280430e-03
9.019907663142736221e-04
4.816162690893393411e-03
5.688974441711689214e-03
-2.216754524136668996e-03
-4.585506702119599917e-03
-1.009966791272232578e-03
1.055896648794966823e-04
2.543282646238915687e-03
4.633660925280748237e-03
2.578310409155384810e-03
1.046054960342505724e-04
6.313853035291779612e-04
-1.406905611102220221e-03
1.442894551379208471e-03
1.029410623867106807e-02
4.875348050431861646e-03
-3.695196827529394819e-04
-2.908119984356769949e-04
-5.728864956774050790e-03
1.811575694985629540e-03
-2.759360769525856863e-03
-2.440687671251286217e-02
-1.750078357708587801e-02
-4.115136270862386481e-03
-1.044751814950685507e-03
6.741166192658850503e-03
4.889516286672536405e-03
2.113461262807138103e-03
6.301384808663847842e-03
6.461110206198127093e-03
5.625382351189317162e-03
1.971866398329028252e-03
-1.376186139702182494e-03
5.119494655333784892e-04
1.290877606218128817e-03
6.707400773412556519e-04
1.224395688565223152e-03
-1.542723786434549991e-04
-4.990571978772062600e-03
-5.650657801997705128e-03
-1.446477286983370927e-03
1.972860471356482816e-03
4.011152907006139065e-03
-7.172801486327659700e-04
-6.159520123971827521e-03
-3.130757538595718443e-03
8.214629706397010098e-04
2.365129010276575700e-03
2.396651932690120959e-03
2.505369927716992115e-03
-1.095135779222993920e-04
-6.566533680502428978e-03
-2.081054985322480875e-03
7.615789501914094033e-03
6.652377283191363705e-03
3.638350361878829684e-03
1.870509054425593606e-03
-1.839972932452292077e-03
-2.082718818538159457e-03
8.336713687582522538e-04
1.306631476199257048e-03
9.328140671511931520e-04
2.385280854804694949e-03
6.565496063914023472e-04
-1.495654516229534721e-03
3.218852301953610898e-03
8.064515715810833749e-03
2.996432635392980246e-03
-4.131560392079050049e-03
-1.004791122485144961e-03
-7.084250717143029258e-03
-2.468709346913388475e-02
-1.479678032252067753e-02
7.166080697405343564e-03
5.605531197086893215e-03
1.951462284504992860e-03
5.223941703973170730e-03
3.092801665283512365e-03
8.839825238225833531e-04
1.205036131130653469e-03
2.349897157570940334e-03
2.216229423729923226e-03
-9.986130366961877298e-04
-2.634316087677091977e-03
-1.461404259755869073e-03
-2.324624036161552446e-03
-3.118320020801987249e-03
6.592299350382962476e-04
3.357488046566194529e-03
3.613686683623761834e-03
2.333481455846084067e-03
-3.448044877158583984e-03
-2.674733672071718475e-03
4.509150702901807903e-03
4.385467607137622827e-03
2.088066737196809641e-03
-5.137108781897454374e-04
-4.003497065253904669e-03
-2.244093342941052682e-03
-1.107856193714764660e-03
-9.636540460602633371e-04
1.404192527921491315e-03
1.302629314530102077e-03
-6.583071931922850973e-04
-2.266353536399348580e-03
-1.148310647642486991e-03
8.989167054282164214e-04
2.616485952640735385e-03
6.639541226807577599e-03
4.545634004522756087e-03
-8.278202861757401679e-04
-5.413590365060970194e-04
-1.551383900198375623e-03
2.959680593978573698e-04
3.749553500441409320e-03
-1.011027152760521960e-03
-2.887521791267864697e-03
-2.662665518130540466e-04
-2.333578255225997669e-03
-4.974018057318274448e-03
-2.857902031594986882e-03
1.308743005793862584e-03
5.914303547996340024e-04
-1.138559222199880816e-03
-1.039161018006188588e-03
-2.003269792742339451e-03
2.604624311105479314e-03
4.841844365562978855e-03
-1.151443673894133029e-03
-1.831006815589451267e-03
1.072695575391250083e-03
1.972644654034324922e-03
-6.169183659844013588e-04
-4.159946071201596138e-03
1.676085974531894536e-03
6.094581902764057042e-03
1.481665268342158455e-03
-5.265674875039785124e-04
-8.061253092037130733e-04
-2.091486436227734964e-03
-1.654812318887042936e-03
-9.265319240824682837e-05
6.473088899170067068e-04
-1.396440384173580195e-03
-2.761309586733173317e-03
-1.946835863826717030e-03
-2.885518995331225319e-04
1.825272903684540572e-03
2.010834019661671135e-03
1.720246384792887369e-03
8.292375533497944005e-04
-5.883926337976395611e-04
2.161202299760592847e-04
3.028609160555788423e-04
2.455778342006903741e-04
1.381996656191569100e-03
1.439803460198379320e-03
-6.706607577796938721e-05
-3.029177373608944214e-03
-2.408556940497253492e-03
-2.206745304913913970e-04
-1.474957840659187275e-04
2.768996647396806433e-03
2.057121370721142883e-03
-1.861530174466673876e-03
-1.298055028864787295e-03
-1.979361586949415514e-03
-4.818293197154549816e-04
4.303598310525854655e-03
5.084495884179457588e-03
1.078023122565358038e-03
-7.143253670876597780e-03
-9.463646642536073864e-03
-4.803137213149580309e-03
1.957077754339214565e-03
1.053839052489585412e-02
7.413965980933679562e-03
1.468925447077911199e-03
1.363013800000616041e-03
-3.958546488549062603e-03
-1.008591753632608230e-03
3.469172326391829330e-03
-1.029554995825845195e-03
-1.766167875207402067e-04
-3.100952584448586017e-03
-4.290677701520523649e-03
2.715467883404970757e-03
4.877505706638332779e-03
7.618466303846917198e-03
5.027508580452732731e-03
1.203207865364992746e-03
2.546154616530460491e-03
-1.318508109294992897e-03
1.844116237549675271e-03
-4.770355172423891565e-03
-2.172771333687368439e-02
-9.523674503786060813e-03
3.822073302620197181e-03
-2.414141629066697244e-04
1.051849442503619133e-03
-1.110385824264848245e-04
-9.544693944530100761e-04
1.583140287477459397e-04
-3.320300641415826690e-03
-4.016198128752225364e-03
-5.645112857489875853e-03
-5.015157630360737688e-03
1.565630577065941402e-03
4.900015316863192555e-03
5.536984756277956929e-03
4.434480033573511351e-03
9.696856824636333185e-04
-2.386398305972527775e-04
3.104839701893872747e-03
7.503984799847249199e-03
8.672014331287255032e-03
5.978736315786428376e-03
1.178901062039495063e-03
-8.758200925727710907e-04
-1.697629863115925715e-03
-2.796736878052342393e-03
1.972905532829678115e-05
1.473400732174288356e-03
-3.811563959531411592e-04
-2.552203050869921840e-03
-3.674101213560559357e-03
-1.181157117576490815e-03
-1.725917247593697216e-04
1.588222038445013477e-03
4.066912268170641727e-03
-1.371380732709627081e-03
-5.528060046823757984e-03
-4.986537899115817477e-03
-3.533152476007799490e-03
3.180604787498816227e-03
6.985982426182301211e-03
1.705820034627912769e-03
-4.611767139702141471e-03
-5.823204771826660971e-03
-3.152285360792507311e-03
1.769054021084282750e-04
1.970656347728395874e-03
-2.985343151628084332e-04
-2.593163492509419858e-03
-2.474932197745907322e-03
4.653049941453629983e-05
4.367684427631604756e-03
-8.711441664205995432e-04
-6.711657810404570053e-03
1.264097410015997333e-03
6.823676600355931508e-03
3.469589946464141355e-03
-1.713830534798204590e-03
-4.379545648660086894e-03
4.852279606219698496e-04
4.834226910841563259e-03
3.939377288189872123e-03
2.999660427939805901e-03
2.195027770391651516e-03
-1.605501510949494041e-04
-2.083116602632347544e-03
-5.940972420380240910e-04
1.775968690690260792e-04
-1.311461133205580557e-03
-3.201667113048611759e-03
-5.373278427013899496e-03
-2.034508191227407583e-03
1.649458861452364217e-03
3.001040994235683757e-04
3.890106920828203781e-04
1.064046842951762778e-03
3.156793756305188367e-03
3.527275944125027578e-03
3.927402739426438891e-04
1.194710355075053864e-03
-4.715604004952921133e-05
-2.621449741363299831e-03
-2.246206135602247904e-03
-3.127865413296189011e-03
-8.932450470535760727e-04
-2.756277138545045564e-04
-2.299700197306534400e-03
1.029932409766558038e-03
4.159222599123678366e-03
3.431855846456802802e-03
-5.091338000419621959e-04
-9.936475962798168183e-04
4.259025250751831242e-03
3.781665124283951213e-03
6.008646280803715649e-04
-1.006052430587209669e-03
-3.706153752944522928e-03
-3.911412064455156018e-03
-1.638492502946360197e-03
2.523846678754242210e-03
2.350019448755802983e-03
-2.094489420499332129e-03
-2.368383627218646759e-03
-3.995497459403076108e-03
-3.512453946192586971e-03
1.141453231875268074e-03
2.371696030973434715e-03
6.947290403504441728e-03
7.270960616095623226e-03
-1.410927692709656534e-03
-3.949342570026286373e-03
-4.656428639318276920e-03
-4.541324497498105441e-03
2.250573497972608531e-03
3.804470738423900485e-03
-1.086396067628808530e-04
-4.127022765296374930e-04
-7.708920632943149030e-04
-2.067249906531851925e-03
3.175117429484625468e-04
3.564279395635090286e-03
2.353244647768444782e-03
-1.688739282733366315e-03
-4.649361051421813280e-03
-4.530001868750902459e-03
-2.351098771980791608e-03
-4.209452638794818936e-04
2.539957967795030986e-03
2.888888594158687140e-03
-1.442744805080008446e-03
-1.071068477168059729e-03
3.217288852586778960e-03
4.542001110773634560e-03
4.452840997392256903e-03
2.206616145006081581e-03
2.830147655299849411e-04
5.053095016855989980e-04
-1.696549979167341713e-03
-1.231480350887246200e-03
2.403551676415176339e-03
2.040265246298089436e-03
1.062223794655212886e-03
3.811601941899844218e-04
3.441404645753981658e-04
1.317702665814251412e-03
-2.336378160831035621e-03
-3.343509531536626063e-03
1.000038516045812387e-03
1.007575715365028636e-03
-1.939392819404291667e-03
-4.790450526969897323e-03
-5.418087079319640516e-03
-4.300672894005735068e-03
-2.781762582288201720e-03
1.371402342727028913e-03
-3.898956972680783653e-04
-4.482220902193852045e-03
-2.779772198206377758e-03
-3.380792528080493048e-03
-2.094581154924611479e-04
5.449769987549440801e-03
3.842703388622629133e-03
3.171482515802178520e-03
3.077356353705932007e-03
1.782497951844609282e-03
2.549939850756604361e-04
-1.065364197001203829e-03
3.217870530274949230e-03
4.517881747454861527e-03
2.666163214711627424e-04
-2.439532628323543700e-03
-8.579033167295742378e-04
6.275208870573329573e-03
8.904710189632928860e-03
8.258804444323411195e-03
5.910620907236879482e-03
-3.424716784944843023e-03
-5.989730469256816965e-03
-2.466171420130851191e-03
3.069271708565193216e-03
8.344853205875382013e-03
-3.605509590910618953e-04
-7.167792907571598690e-03
-4.951222545902795105e-03
-2.125148332167744146e-03
1.479317468624927233e-03
-1.448195174187717066e-02
-2.865134959449958801e-02
-9.463915424852586966e-03
4.015910816617418791e-03
-5.677752585755080827e-04
2.261918281772235667e-03
5.641027279819773102e-03
4.000412324835238634e-03
4.776413941208819403e-03
4.965077972464993113e-03
9.080530035102413883e-04
-1.235316126110410501e-03
4.631931257436719667e-04
2.525900621348371386e-03
7.227719987697498079e-03
8.723888461908097663e-03
2.167274239159082145e-03
-2.486297866998706495e-03
-2.445763661792440397e-03
-1.564635932715052096e-03
2.829704451561108761e-04
2.089339902270437570e-03
2.836056657052659236e-03
2.676699265098971253e-03
8.215788293636815728e-04
-3.348563205328224188e-03
-5.605936874974491897e-03
-3.129019330934146217e-03
-3.696492465804534274e-04
-1.854192924356645321e-04
-2.184038061913039491e-03
-3.073035617867553998e-03
-9.543884666166419428e-04
-1.081621629812743764e-04
8.693142125715974146e-04
2.301915135387540019e-03
1.853968331618942376e-04
1.475625369749411584e-03
4.532215190681441151e-03
2.357872353180708209e-03
2.589528772842529351e-03
2.946219301153529986e-03
3.183457314426941295e-03
6.295289994290122378e-03
-2.169606684563556804e-04
-2.649741813119813830e-03
1.503427160148805347e-03
-1.261972696724050942e-02
-1.643062109298624313e-02
2.739044118354641566e-03
6.918035297478766776e-03
9.981646472605545679e-04
1.390591807848192904e-03
2.154710656155116137e-03
-9.170295118620349403e-04
-6.816980398489763150e-03
-3.673569428159574428e-03
1.071321471325429502e-03
-2.107435356369334167e-03
-3.902006031576899154e-04
7.809649606281256424e-04
-1.173353437773712489e-03
2.397143273357109101e-03
1.331045671682647754e-03
-5.337060397409900368e-03
-4.276593703740660772e-03
2.605860950035981081e-03
4.061584558490514280e-03
3.261447805466683586e-03
5.055960271499415799e-03
3.731298212036456181e-03
1.459128508196957030e-03
-6.580182223219144732e-04
-1.633520957190798479e-03
2.576962274752276835e-03
2.808732246946861379e-03
-3.872665627822730018e-05
3.364376743144196005e-04
-1.259769089267553412e-03
-2.449351354836063095e-03
-2.925197361585622053e-04
3.146350250087525356e-03
2.412763015986565864e-03
-3.740921887911346794e-03
-5.255818208117372936e-03
-3.240314103769975466e-03
-1.972470322815192151e-03
1.471941113118255913e-03
4.799465649018466729e-03
5.577673859050092352e-03
2.273323936070442784e-03
-2.651999644100901240e-04
4.595467053266305102e-04
-8.239716083955763793e-04
-1.216152307285708726e-04
1.856540126660890817e-03
2.034130286887113337e-03
8.277276855091353488e-04
-6.039517049195202054e-03
-7.856839886252513228e-03
-4.340180667431215453e-04
2.969448467736342679e-03
3.226350176171100936e-03
1.362187866767566955e-03
-3.948194843780897072e-03
-5.916378422956845677e-03
-3.413567456247336516e-03
5.841827194616275743e-04
3.366357010791343890e-03
4.871337040143003394e-03
4.756184094975196217e-03
1.300311800965335465e-03
-1.008858644734796214e-03
-7.615105924590456548e-04
-7.734079129789302393e-04
-7.749911182938088242e-04
-5.495999297779871401e-04
-2.206076151862530754e-03
-6.183844371626018126e-03
-4.388720655324020344e-03
2.140649057716729076e-03
3.327156477439326739e-03
3.509764303971726982e-03
2.358246347616669431e-03
-2.823314231142153539e-03
-2.541768787193187610e-03
-2.126274126527433650e-04
-7.133542691964933581e-04
-1.817256373842038601e-04
-2.670324237527522786e-03
-3.689803701317490806e-03
1.310348468926141648e-03
3.041166241083403769e-03
4.981542689874373167e-03
1.109219953035200761e-02
1.398136923093157812e-02
1.365986233194864397e-02
5.403887608904047422e-03
-4.526294137497459749e-03
8.537064916883043038e-04
5.892876640132286604e-03
4.079900454832653765e-04
-2.678872639173072653e-03
-3.542435741057870478e-03
5.756200862857027527e-04
7.686838647663283772e-03
9.372191039120467485e-03
8.735215334619574404e-03
-3.250544086764378410e-03
-2.835166724088131890e-02
-4.312552656549494684e-02
-4.382818049151093048e-02
-4.849638459721546807e-02
-4.725193229143623969e-02
-2.218901693850992146e-02
7.454941133362630486e-03
3.068656051315021144e-02
4.336562361244107600e-02
3.184601334771829800e-02
2.531722116284433610e-02
3.347739828223243730e-02
2.633949746198310793e-02
1.278419854808012651e-02
6.807448088312868101e-03
4.870241061673720798e-03
7.804402799393734148e-04
-1.650514798049763053e-03
1.195049059733477824e-02
2.077851893189874496e-02
1.267082830087913788e-02
4.268433250565847013e-03
-1.665489552488752913e-03
1.241219656354289715e-03
1.713673907630170216e-03
-7.043873793652555108e-03
-5.570351351570082370e-03
-6.627663431599562296e-03
-2.313695436737910754e-02
-4.686373371546868200e-02
-7.133319274764995943e-02
-8.129291741857874731e-02
-6.711502612883232799e-02
-3.346691267199217862e-02
3.533938355180480436e-03
4.269094045104463581e-02
7.424821424452401897e-02
5.499414258029218516e-02
2.060720201644522173e-02
2.552720456703455598e-02
2.190108215431026475e-02
2.241959026429694770e-03
7.085931487156769959e-03
2.340916069461130775e-02
4.272840271195680467e-02
5.461855422324016218e-02
4.808503344720152506e-02
4.149727729289479083e-02
2.452358240629504832e-02
-1.038961621184603676e-03
-5.641801233452661823e-03
7.157320497355123233e-04
2.952851987763037422e-03
-1.380068279424179027e-02
-5.281786792550004217e-02
-8.822347824563997465e-02
-1.212776261208865086e-01
-1.290816949948981607e-01
-8.694860454007191652e-02
-3.523283454523871983e-02
2.332026684746442077e-02
8.322674652727229949e-02
9.007139559603412338e-02
5.003486671880336828e-02
1.274075603398906048e-02
4.545167906837946012e-03
-2.579306650737521120e-03
-3.162367679231820744e-02
-4.037625793018007753e-02
-2.911039644415880714e-02
-2.938158062364261414e-02
-2.782673241169239531e-02
-3.333880338736807270e-03
5.336716720829644961e-02
9.900404530623842236e-02
8.565131847289131350e-02
3.454271999078236538e-02
-1.229345549852453763e-02
-1.655599885068676988e-02
6.481494527202585378e-03
9.037217995772485468e-03
4.955298774806746881e-03
4.930813039358807916e-03
-6.040613247330528686e-03
-2.355409154244495276e-02
-4.120627630085391124e-02
-4.276663923066269246e-02
-2.438533483710772845e-02
1.135287491886123601e-02
5.813352681989537168e-02
6.526441016728685984e-02
4.011179487832720880e-02
3.853061461058856357e-02
3.802990487579501616e-02
2.420244543152515540e-02
9.260021528852649397e-03
-1.480003277520451979e-02
-2.221365472864101839e-02
-5.313879910588654477e-03
1.047985329845153336e-02
9.256187511703612564e-03
-5.044290100593065013e-03
-1.852352092302626471e-02
-8.450357798581956126e-02
-1.905452923856800762e-01
-2.078335700363838079e-01
-1.401292777019948754e-01
-5.118831274102950829e-02
4.262896239094039752e-02
1.063481994022190819e-01
1.900348826466355945e-01
2.850638472161423631e-01
2.265275912072644560e-01
2.595586238038517096e-02
-1.345931444237228325e-01
-1.926272527704430970e-01
-1.792415209743235260e-01
-1.333590480803288902e-01
-9.412478780122027211e-02
-1.909326623799392775e-02
9.669875142473420560e-02
1.314287889760059336e-01
9.945905992652856464e-02
1.024574897558214875e-01
1.266621983876137780e-01
1.585062020389622628e-01
1.375446302133599696e-01
-8.861359927496295988e-03
-1.605902169620971320e-01
-1.941899285827221044e-01
-1.823951623256589716e-01
-1.775028423029964275e-01
-9.067331629188118969e-02
4.748702532386909342e-02
1.074082878546842867e-01
8.022068225500089689e-02
-1.413614871564382834e-02
-8.932920765276712582e-02
-6.937076686362039779e-02
-4.061009626384987775e-02
-1.075433968971729881e-02
5.385242928683914299e-02
1.207014717014039673e-01
1.721228687191321827e-01
1.542888454474325988e-01
9.322687612247455846e-02
5.643931208178773473e-02
3.292098308538916884e-02
3.608213693325011684e-02
4.920823029873142018e-02
2.555590906187861153e-02
-2.598697497848060853e-02
-6.168685209093082572e-02
-7.185063649970876987e-02
-8.484010233728932204e-02
-8.135890869900283540e-02
-6.458128978075178273e-02
-2.714386667581688076e-02
2.498566238826898864e-02
6.462031363303391736e-03
-1.030161874033342674e-02
7.678951393226974252e-03
-1.929517911492995702e-02
-2.481829610101331240e-02
-8.330795255563527152e-03
1.692093974350974972e-02
8.134301910414443518e-03
-1.570431796442377237e-01
-3.296047199356843538e-01
-3.798774392887147577e-01
-3.551548977197930834e-01
-2.097855317925136076e-01
1.122786300952356014e-01
5.178722954479808571e-01
6.254011589265656701e-01
3.482943811582150939e-01
1.327523107765637422e-01
6.043647997700472146e-02
-1.832128223662137650e-02
-7.345244956509761058e-02
-1.571074011459369091e-01
-1.965485560297307865e-01
-9.146410656618436663e-02
4.463283287450380693e-02
1.449602719064186918e-01
1.676965771286542395e-01
7.735426047596612176e-02
-1.524021550824077899e-02
-5.981025651921902803e-02
-1.012225759873285336e-01
-1.981689583210453909e-02
1.757703725550038287e-01
1.727488970627787668e-01
-3.402791194429634347e-02
-1.596992134761968107e-01
-1.377263994371111244e-01
-2.204836071532642605e-02
7.091467442440112234e-02
2.656156295615156107e-02
-3.215292219244107741e-02
-1.524017011171002224e-02
-5.530402743029754625e-02
-1.512397984549343488e-01
-1.782899918245841320e-01
-1.698265661637951562e-01
-1.573999224931403595e-01
-7.741938933813694024e-02
1.040158960082247785e-01
2.722988547679083271e-01
2.040204164511546236e-01
1.853224207192678830e-02
-3.813678097542314710e-02
-4.424420834794304258e-02
1.364187720981881007e-02
9.672517948153872003e-02
2.788459639796446107e-02
-2.759955890765516603e-02
-1.961515793896652371e-02
-8.601732299280885619e-02
-1.168255362218625776e-01
-7.017790490060432651e-02
1.607427089637216908e-02
1.462093700944587793e-01
2.128340993950294247e-01
1.761968220467292900e-01
1.199908584237433934e-01
6.641567448171703525e-02
-2.464330288575958955e-03
-6.945708369089906298e-02
-1.160207604320579039e-01
-1.261512457490959471e-01
-1.336344982090447442e-01
-1.432817094937612334e-01
-3.299867655273688166e-02
8.816043668933769284e-02
4.106577184116652623e-02
7.294886336366054359e-03
3.938244680989522878e-02
2.279605629821726195e-02
3.060202504967436329e-02
4.020954189183821581e-02
-2.494442182247660206e-02
-1.032683326860567019e-01
-8.597489510745387475e-02
5.025507137273758224e-02
1.263379619068422666e-01
6.046785525011310475e-02
4.445239519259388226e-03
1.095612400639920585e-04
-2.517535900309718702e-02
-4.263034791609692647e-02
-2.478725246590232634e-02
-2.844749618996134100e-02
-1.302273313479340201e-04
7.301950810654997404e-02
4.898765173012795127e-02
-1.228433165726797345e-02
-2.047010815089921401e-02
-5.000305724597594453e-02
-9.656014067132540069e-02
-1.184089821695314682e-01
-5.191225462868762075e-02
6.371520060121979578e-02
8.161601960573983128e-02
6.607271874153321234e-02
6.675531971317420765e-02
3.803241537365563418e-02
2.672628371652981116e-02
1.281742841834253646e-02
-1.107316847887605815e-02
-9.388778526518020556e-03
-6.828422906579948923e-03
-5.257549675248002728e-03
-1.026863644652896250e-02
-1.621461064724241327e-02
-1.112007312103597059e-02
-3.964590156144595992e-03
1.241505451692315534e-02
1.020254992232481721e-02
-2.432000775988751688e-03
4.951448726729538313e-03
3.797703292155096486e-03
-4.111599756463717691e-04
1.910493070572202683e-03
4.431124351426345316e-03
2.493457025221494303e-03
-1.458779452392728639e-02
-1.838777417098666836e-02
-1.885460951288469439e-02
-2.359570044274893891e-02
1.988515309327727222e-03
1.786488290205847859e-02
6.590553676557698616e-03
3.508862818598787892e-03
3.900092494934236792e-03
3.523565050189167262e-03
-2.145437756135561320e-03
-5.131378945851936511e-03
6.969549103798621838e-03
9.458583061399978426e-03
5.537485107800626041e-03
8.923044210636273815e-03
5.164501337726071228e-03
-3.296201575152701846e-03
-7.117943039561257755e-03
-3.997087916764878283e-03
-4.135820248815199251e-04
-3.361438937114969404e-03
-3.812034559278595826e-03
-4.517411305112313709e-03
-7.337522615240268421e-03
-5.134110245501389072e-03
-5.835252786579863717e-03
-6.011950372856637338e-03
-2.334235448019617541e-03
-2.671299009505366789e-03
-1.179083943351644671e-03
1.026668888312084159e-03
3.587700305094253771e-03
9.646562514885156231e-03
9.017790411863303365e-03
6.152652573434789010e-03
7.794519551574699730e-03
6.797285181869956727e-03
3.778955269800323216e-03
3.782631964131633311e-03
5.614334211597802118e-03
3.406159567899267292e-03
1.990686518016344421e-03
4.880800589719148756e-03
2.230179415850217645e-03
-9.773552597296967983e-04
1.121894219255828353e-03
1.129359884258520057e-03
1.775904129007407103e-04
1.387327579694626334e-03
1.198460537964350517e-03
-2.532418237529632937e-03
-2.789873625469632690e-03
6.023404979128104113e-04
-3.104226263421692739e-03
-9.256213779596775271e-03
-1.509089665720093898e-02
-2.370744367173220624e-02
-2.525615268359011900e-02
-1.869893395502380748e-02
-8.593889030700418291e-03
2.394243617314596902e-03
6.959279793770666890e-03
6.643976960592480781e-03
1.144748349234056724e-02
2.385890097022621073e-02
2.586536328156624140e-02
1.170862576018433070e-02
3.782392088661046693e-03
1.915815754711253744e-03
-2.657478795116093202e-03
-3.993301921339642915e-03
-2.980266198759520639e-03
8.173554587180859466e-04
1.979563940724270339e-03
-7.344583650778965236e-04
1.680817530912584543e-03
1.367239070135301340e-03
-2.485553195786514326e-03
-1.629258753657502039e-03
1.481870018362323746e-03
2.768001577346949731e-03
-1.916624083710283515e-03
-5.154901762151328087e-03
-4.188161647282919245e-03
-6.978314874282330778e-03
-8.042673731324655531e-03
-6.092260554204623549e-03
-2.916171310356013412e-03
5.516625853556577893e-04
-1.890235032133676671e-03
-2.029018270505281423e-03
3.713277320288954284e-03
7.535273911163713374e-03
8.178323254379745930e-03
5.245074195305232667e-03
4.463181436098191505e-03
5.593832713721763952e-03
2.557715301246699796e-03
2.492656510807568764e-03
5.961638806974796888e-03
4.782880835238007000e-03
-1.206047093590812422e-03
-5.460805758920022311e-03
-4.706913279365329550e-03
-4.793571129038807360e-03
-3.909143746168832791e-03
9.314259540239093992e-04
5.681966970780080338e-04
-3.732615780415688127e-03
-4.088331838567943119e-03
-1.974380331335442128e-03
-1.541322969834430130e-04
1.583857701766562542e-03
4.898877246347231075e-03
6.132740435799166091e-03
1.687727162962165224e-03
-1.699432364329976630e-03
-1.982102555750292483e-03
-1.801381665991056260e-03
2.084453419595675046e-03
4.274517633045434896e-03
1.276245906268612851e-04
-1.837250237451716617e-04
1.572615348089187112e-03
-3.466113755155159591e-03
-5.493718525940430829e-03
-1.181800239326235690e-03
1.134012400525027313e-04
-9.094696393705562713e-04
-3.876427087156810846e-03
-5.477737219090813084e-03
8.322691045660902259e-05
2.748849836723246069e-03
8.103833836674567692e-04
2.013050834580737587e-03
2.472318256442289103e-03
1.103152748677507398e-03
-1.544120017070572557e-03
-3.555632436575602469e-03
-5.789147432815265311e-04
1.954709628012658157e-03
2.536747760842266580e-03
-1.891071990852979338e-04
-5.906481654849153086e-03
-2.979412311363383720e-03
1.993420997757331704e-03
1.506650459363059313e-03
5.143702163913499957e-03
7.541774133300381371e-03
1.883146610397294814e-03
-2.667121981712340922e-03
2.228136302145394994e-03
8.342157235582027194e-03
3.751721220405258243e-03
-1.195447774708844257e-03
-8.319085498142628210e-04
-3.051581716944021336e-03
-2.136004925745089034e-03
5.016642972317838199e-03
1.131799041078837206e-02
1.117322906772870092e-02
4.877955214835825136e-03
-1.414387197221411100e-03
-6.238217070337389453e-03
-8.981026164907045944e-03
-7.884174586094191278e-03
-4.326955137984047316e-03
-3.382769418987019872e-03
-7.373490052197235155e-03
-9.405567805183923102e-03
-8.875150785771316123e-03
-9.446914542318718411e-04
1.240975929846489800e-02
9.134614967148756148e-03
7.487028678849848686e-05
-2.432700071966920584e-03
-8.837340316509062835e-03
-9.695494987127534908e-03
-7.053223423729262573e-03
-2.180465901230662501e-03
6.847587687449937718e-03
3.326457947644008081e-03
-2.816984954967309898e-03
-3.578419419422018601e-03
-9.092914076742396410e-04
6.642021026643552505e-03
6.863731821660949001e-03
8.346430290634608562e-03
7.162674050492007227e-03
1.422728834908161761e-03
6.681339639811321660e-03
-7.207925847606550494e-03
-2.270064044170305370e-02
-3.790008909020771075e-03
5.931551274866462241e-03
4.311491264117282493e-03
1.066141744022208911e-02
7.715481065135637931e-03
4.666629513295439402e-03
5.034670510554636533e-03
3.483069002851931894e-03
4.058636599189072505e-03
9.011913820404391859e-04
-2.683979944238668123e-03
-9.260266239627819827e-04
9.324434472765313810e-04
-1.768317624067075947e-03
-3.169052135845585975e-03
-1.910573741748227284e-04
-2.161322203372895590e-03
-4.288836737601021791e-03
-1.822829507602496480e-03
-3.030565324831827924e-03
-2.922337964208934161e-03
1.319924663454229586e-03
1.659704914765999838e-03
-1.291635561507589302e-03
-2.522135357668806466e-03
-1.645425901626751831e-03
3.740801219516302683e-04
1.351228657356266533e-03
-1.971183863402670156e-03
-4.629653370072660083e-03
-3.663742177972743094e-03
-3.524021806972409913e-03
-1.003846082774444712e-03
2.653299092349170867e-03
2.843476471603769654e-03
4.529845985570406762e-03
3.896847456027923914e-03
-2.194761509038197812e-03
-2.017345534895618932e-03
1.873816110682593452e-03
1.252951629424903452e-03
3.246079088745620032e-03
2.721589894229336365e-03
4.426408543171366774e-04
3.969439906087021339e-03
-1.026739436652122917e-02
-2.531207805566769789e-02
-5.336766833441692129e-03
8.564059964437929426e-03
1.779810154241188340e-03
4.152062635476578244e-03
4.457021881329879115e-03
3.456142036192305384e-03
5.933394989364624769e-03
2.271951421020223811e-03
2.562302895402807264e-03
5.014527390026635298e-04
-5.784753108746229153e-03
-2.521182191638312274e-03
3.050313860643559701e-03
7.737747127395878249e-03
7.002432609520344194e-03
1.740269755346675416e-03
5.263188517424682335e-03
1.908139120700941315e-03
-8.809883578350694716e-03
-3.404194784786366244e-03
4.326864830124912097e-03
1.122721463995127612e-03
-2.286130863461200476e-03
-3.141296384376405723e-03
-3.410357902240700265e-03
-3.465660136300528771e-03
-1.345754854899759495e-03
1.529144821653510009e-04
-2.463870520582246964e-03
-5.011132462791619002e-03
-7.485953376345309135e-03
-6.492134658504926034e-03
-2.558753790467105382e-03
-1.126681899015686585e-03
3.804663034392350741e-03
6.041792174674928857e-03
1.274073489420703316e-03
-1.823554116644057277e-03
-4.459067160147044649e-03
-1.384369439246203523e-03
7.008872494518344001e-03
9.101043631672044165e-03
2.984234924066363898e-03
-2.930075013565079049e-03
2.248231655532167451e-03
-3.108496092310308791e-03
-2.281326982172364806e-02
-1.613775411820558142e-02
2.515324334482114954e-03
3.374499601780160413e-03
-3.480717751819935009e-04
-1.343177013609534376e-03
3.803042535711616528e-03
7.706916233583703014e-03
4.111602124939217617e-03
1.199678361531479262e-03
-2.462235775846484398e-03
-2.739337466034550035e-03
-2.274334526421883766e-03
-2.258682630931524177e-03
4.649716715613620363e-03
5.157032577668881242e-03
8.056822687565775958e-04
-1.919830241418137191e-03
-6.830906768143413764e-03
-5.564763652750590907e-03
-3.030523274719581963e-03
-3.076100411707746252e-04
3.543344276566851372e-03
-1.438484918477881281e-03
-4.831721496008624557e-03
-3.314780036172288932e-03
-2.359439079395848470e-03
-7.436869743804360583e-04
-1.370692062160008655e-03
1.069732283154677110e-03
2.944842936359885928e-03
1.023313696454605229e-03
1.526069998592467303e-03
-2.089511160309322842e-04
1.091679515760560042e-03
2.011338290595636197e-03
-5.910814898356249111e-03
-5.432158934287214733e-03
1.199405161467973066e-03
1.139860940270094125e-03
9.392795099036589049e-04
1.895481673155944256e-03
4.921445560494347102e-03
5.289724869189008950e-03
-2.791226385340745807e-03
-5.406571045793367135e-03
-1.371926370406873884e-03
1.418183140484071368e-03
5.272560860557738704e-03
2.058601599989851386e-03
-2.739674853165860544e-03
-1.540394297597631268e-03
-9.575439214811068064e-03
-1.126753583245977165e-02
3.823188150017979743e-03
6.401129990824292598e-03
1.641966842621446054e-03
3.213101151721311621e-03
1.223799657041874924e-03
-5.357278913230736732e-04
-1.055382489696592195e-03
-3.944420844204523475e-04
2.120501566291776389e-03
-2.945070503204791790e-03
-8.600617698432613464e-03
-5.140301618151380675e-03
-4.394350361643599824e-06
1.929655672213694603e-03
3.274069510620201615e-03
4.348468349384506867e-03
3.151110106206119789e-03
-3.044093213068326811e-05
-4.045165279845808724e-03
-3.705856481406926903e-03
-4.299537680449839572e-04
-1.807589633686627331e-03
-2.221529474576923197e-03
-1.221557029932398208e-03
-1.124323917089082615e-03
-1.286379668306332621e-04
-2.422022324407802074e-03
1.327706598932250045e-03
5.915263900522956149e-03
-1.938623491352799372e-03
-3.543359439952360832e-03
2.149345736698506440e-03
1.858808164190867921e-03
2.578464848462456039e-03
7.596076226846095077e-03
8.966086138291475341e-03
1.218004335852288216e-03
-2.930954943106154308e-03
-6.273348990010087353e-04
4.545034079413471338e-04
5.911620489990727055e-03
2.853804854025530999e-03
-6.095868406183213746e-03
-1.626316433245575746e-03
4.096191997020617545e-04
-4.881511383890292655e-03
-5.761348463912746229e-03
-1.201996902461285053e-03
2.708118021003655222e-03
2.242869125572072363e-05
-7.276484517655458810e-04
-1.707900960890224636e-03
8.475599160249841990e-05
2.149020950946352228e-03
-1.745262081456220790e-02
-2.433182584963643549e-02
-3.206472263121876859e-03
4.788929657710704405e-03
5.828630458515841190e-03
7.163303412359119278e-03
3.081756492565015850e-03
2.531596587620451103e-03
4.494652961090282142e-05
8.348266843106752835e-04
2.740357529846487988e-03
2.692628743090311368e-04
3.621163964884175756e-03
3.186876424673306882e-03
6.985125551968985832e-05
2.019256327876415777e-03
-6.989554802697999685e-04
-3.471805157493740388e-03
9.399911234966017994e-05
4.948387163107185148e-03
4.433424469560930115e-03
1.554355558854143404e-03
2.771671906050897360e-03
2.975373111311764400e-04
-3.426222449518618110e-03
-7.144989933434166794e-04
2.748725432382938955e-03
3.127117539285380679e-03
-3.447313962925000396e-04
-2.603866399619985793e-03
-3.674695955066954300e-03
-5.239721808605241060e-03
-1.410092236840705410e-03
-8.490750003858980443e-04
-2.555021867860346723e-03
6.379582579983591063e-04
-2.907299451558650622e-03
-4.697588669065349935e-03
2.716987876635256708e-03
4.265373090061104662e-03
2.584290990311343284e-03
1.547639342817200368e-03
-1.582748747759676585e-03
-2.360275585469863349e-03
-3.242030385571359474e-03
-1.046573844786787911e-03
4.688252414792811601e-03
3.341648032390874719e-03
1.373262147729057379e-03
8.730651899153835669e-04
-2.311448690272985707e-03
-4.236238822707286762e-04
-2.534161882545316394e-03
-5.829671986471365343e-03
3.529765948940233929e-03
2.752333433331707793e-03
-8.195217809525437436e-03
-4.935893136893997231e-03
5.908744457525977236e-04
2.245448514344737089e-03
6.979949937700177971e-03
6.164811921921447245e-03
1.081555405104450739e-03
-5.642777162644513605e-04
-2.035338026021966517e-03
-3.161824306735283151e-03
6.478179796984550329e-04
2.656209168744751766e-03
-1.837699887550086090e-04
1.791699534622727766e-04
3.210124776062212503e-04
-1.317982631793364248e-03
-8.813085755114252176e-04
-1.984361349363395876e-03
3.627883745743798244e-04
3.941416166284563045e-03
-3.151602908855956515e-04
-3.813093972846776699e-03
-2.489631102275404687e-03
6.453335020576132525e-04
3.332250115538973063e-03
1.264916933224900612e-03
7.926317760836025690e-04
2.741297783418573247e-03
-3.831739817237075343e-04
-3.687608843334829259e-03
-1.637098017338367963e-03
1.951446734362262967e-03
8.001893358442608000e-04
-1.991585285670875987e-03
-1.074816137914271072e-03
-9.777700797941213818e-04
-1.952455841001490854e-04
1.122198339581791104e-03
1.214834554384667137e-04
2.009762742207167694e-03
-4.413680836368546914e-04
-4.060022344623702775e-03
2.255217576256178958e-03
3.499931443190464325e-03
-2.358048597147156713e-04
9.462340472969467484e-04
-4.091212541490964368e-04
-2.007966227175991911e-03
-1.303771546495871786e-03
6.105783167295169298e-04
1.977481323151693022e-03
1.113009643147590180e-03
3.443624984111499920e-03
2.308734418108452594e-03
-5.293365711080766714e-04
-4.890261869845684978e-04
-5.427546110828467170e-03
-1.854205156606050873e-03
4.676106863251661312e-03
-1.365771883979286037e-03
-3.220383256349441947e-03
-1.168258128691472986e-03
9.294853785448332515e-04
1.819479931691232342e-03
-4.636088598288186369e-03
-2.007870712515862424e-03
3.737003051437665785e-03
5.248372456584181984e-04
-1.507647304128563025e-03
-3.608377692238982568e-03
-2.490037268142632080e-04
4.336201335058751175e-03
-3.449444423486101299e-04
-2.665974281200937743e-03
-2.674034700125406481e-03
-1.381891678413942753e-03
1.445054360778427185e-03
-1.326632328210995606e-03
-1.342523610419885192e-03
2.181538643596745569e-03
1.396350840028952626e-03
-7.768826920302582999e-04
3.605610556683599153e-04
3.783572443222463742e-03
4.103673947291519922e-03
3.970198822408442865e-03
2.458196869895280540e-03
-2.015852352228787205e-03
-1.950931041122799109e-03
-2.444379555406607420e-03
-1.024871899364559504e-03
7.691891450971221483e-03
8.507125770904485143e-03
3.493485272972729656e-03
2.036828553368990897e-03
-2.001267660368732937e-03
-5.098330726413391988e-03
-2.564800749033251115e-03
-1.538668134770147062e-04
-1.884174368918597672e-03
-4.830440519578618926e-03
-4.588585813192467416e-03
-2.559159205916227732e-03
4.273032774763032985e-04
3.008571665417239353e-03
2.120940339382880175e-04
-3.006963175207031259e-03
-1.980199976633595805e-03
-4.001426830598881108e-03
-5.319028334572965637e-03
1.812820246675379810e-05
2.219743545143793104e-03
2.434120277577050441e-03
4.321304632938963164e-03
-6.639022946262629083e-04
-6.266552724623218086e-03
-4.211976374912514316e-03
-5.370745214051800059e-04
1.604841988924632801e-03
1.855788544280113309e-03
-8.496881120957565869e-05
-1.159539486103951375e-03
1.734730272031794959e-03
4.912039118401866425e-03
3.999669746257031831e-03
3.094079376278388235e-03
3.364697047769526442e-03
2.051374520782279186e-03
-1.015190168899185235e-03
-1.539342262319942319e-04
7.606226192745828632e-03
6.514309595389510509e-03
-2.060531341361133799e-03
-7.610067432121592397e-05
1.294050328085277410e-03
-3.826750814361475246e-03
-3.603600001835909235e-03
3.592099671308006652e-07
1.698039585489254013e-03
-2.079097844707932473e-04
-1.585212574568996453e-03
-1.632561357261973515e-03
-4.497445347916202880e-03
-3.321547992014862397e-03
7.626387648765978753e-04
4.283127759479953391e-04
-1.321007854802450521e-03
-2.908640493405982835e-03
-5.292233562876925979e-03
-6.148080634282864290e-03
-8.216000661008510510e-04
3.788797468893441434e-03
1.091510577680557216e-03
9.255156620911864193e-05
-1.628367309942257328e-03
-4.447443626747002096e-03
-1.258298675913221152e-03
4.564756147993663331e-04
1.279508678229290385e-03
1.387711513914242998e-03
-2.231054019019889940e-03
-1.060512017483748173e-03
2.617420109949338772e-03
5.994146953379682168e-03
8.196933470515109510e-03
4.186235028760162610e-03
5.972227208761117425e-04
3.111659049040665752e-04
1.708260648845996807e-05
-4.127204711870005420e-04
9.322069924500139739e-04
4.241666621763346377e-03
2.976685641922479329e-03
1.084085403390759421e-03
1.102583481084308753e-03
-1.728009981852600711e-03
-8.296223334435012375e-04
4.564155350348225715e-05
-1.529006168569903333e-03
1.927089002207621775e-03
1.446963080151969592e-03
-3.844541514003567938e-03
-2.834305880897679090e-03
1.538245453904259598e-03
1.563222969153483122e-03
-1.065919687480728403e-03
-2.155808249721951394e-03
-4.271454006984563151e-03
-4.226426750448456990e-03
-1.040288127289085737e-04
8.805089092654307505e-04
1.036118092691149829e-03
7.818466150640825596e-04
-2.098568469570499979e-03
-3.500277448911270125e-03
-5.736260316042178509e-03
-6.780988530477947106e-03
-3.208030933654167603e-03
5.832584719181278582e-04
2.652012729792666869e-03
5.229759276253656943e-04
-1.532516685435687418e-03
2.453520597109568220e-03
4.860751989724812483e-03
3.465037219920708185e-03
3.050179882684289894e-03
2.021791173765111020e-03
-5.705885328329042831e-05
-2.681998987508598005e-03
-3.871124831603900852e-03
5.999345884690842181e-04
4.557182489333727951e-03
2.150862110570557831e-03
8.499703272287871666e-04
1.186698186199499098e-03
-1.935115976535177213e-03
-2.262548058270650534e-03
2.035900905809372163e-03
4.114774325336459891e-03
4.120387305419510524e-03
4.100780057324769981e-03
1.632545417886498845e-03
-2.370640813779341036e-03
-3.466362916126620054e-03
5.470190949644054140e-04
6.104423210855672646e-03
4.961349350173178095e-03
-2.902036094212244758e-04
-2.084234347544569859e-03
-2.944956504508735445e-03
-8.132968850574994303e-04
1.963223000377360521e-03
-7.413277749574847522e-04
-7.264100528916693760e-04
-2.786401424005702059e-04
-4.121926482761470271e-03
-4.155659318545054833e-03
3.222717962212510458e-04
3.910670105267392664e-03
-3.204768846036202667e-04
-5.642154081882626467e-03
-8.475576726068601366e-03
-2.182805508085276791e-02
-2.239540175483717074e-02
1.569475845818687956e-03
1.218241086419624697e-02
8.502110685170720730e-03
7.450798465517848024e-03
2.688273091673633233e-03
1.904587303329040554e-04
4.055433746039636966e-03
8.019823712548236269e-03
7.944892455383467320e-03
2.568483109234540995e-03
-6.065420111650819419e-04
-4.339361686547751505e-04
-1.732187307346027150e-03
-2.381372583078186084e-03
-1.943479175404197153e-03
-3.744692342814357725e-04
1.974264037449725926e-03
1.265343038109449127e-03
-8.250084068232416655e-04
3.477456731225161664e-04
3.186053353035151348e-03
3.287036407648582115e-03
5.603218436974315977e-04
-1.468978834993747012e-03
-1.107263906915645054e-03
1.719715470837878150e-04
6.197654438600671764e-04
1.182119377299533335e-03
2.902555389267320006e-03
1.771458525826046394e-03
-2.335606520496547392e-03
-2.225364853006262054e-03
8.364983241734945526e-04
1.377348146152312502e-03
1.844956908267403155e-03
3.056879081653654951e-03
4.202479552091804198e-04
-4.438405199749793396e-03
-3.962231239761482456e-03
-2.419948441889491035e-03
-2.077167514916478802e-03
3.488191275517480219e-03
3.447455562054032533e-03
1.571821025231594096e-03
2.765896693002765742e-03
-1.662414305603369599e-02
-2.777834793288162796e-02
-4.163417742610788820e-03
7.125435401359458965e-03
2.177373851983458852e-03
3.538220422240905775e-03
-5.418015119692586121e-04
-6.000516263928448116e-04
4.759388349566397343e-03
3.000354094115853347e-03
4.135617125153157221e-03
4.482623370735510683e-03
-1.538897640199372906e-03
-5.425796562035321423e-05
6.730173878662868044e-03
7.948225714606160439e-03
6.841928474288309740e-03
4.137257735301660792e-03
5.545294338792833072e-04
4.069669630122023504e-04
-2.392688883660157220e-03
-5.729579704436514598e-03
-2.556686722671793789e-03
6.284372177850527149e-04
1.852068741888327364e-03
8.497552313237472649e-04
-3.236839703970699478e-03
-4.397498022022029718e-03
-1.577558362137033857e-03
8.486129237602106851e-04
-1.707167968508886908e-03
-5.644555593917372632e-03
-5.410685429354302259e-03
-2.135252240626896256e-03
3.781014120676276340e-03
4.715866479505757131e-03
5.724059582581556655e-04
-2.282236628399575906e-04
2.220292818564212573e-04
2.542482349254062291e-03
1.750599842926444391e-03
-3.394494837250842619e-04
5.038108428631839567e-03
4.816372647823553670e-03
2.248521328587808291e-03
2.885668469097402936e-03
-3.310083566778708724e-03
-4.390643716578781185e-03
-1.694751123219740384e-03
-3.221444576598497204e-03
-1.156569812686695153e-03
-6.071228125154677548e-04
-1.540869975799474909e-03
-3.859882148356533465e-03
-6.312224165013802062e-03
3.370387135510654643e-04
5.005580111519226938e-03
4.026801581094563952e-03
2.257855343003944710e-03
-2.552703931219969542e-03
-2.724450681030928054e-03
-1.357375371803756694e-03
-1.002994572073518656e-03
3.323112089439171375e-03
3.680995086326926784e-03
1.732065358538117028e-03
8.484183804792765375e-04
-3.212971147818876726e-03
-3.526560926732037228e-03
3.775737480557116383e-04
3.154137860457700967e-04
-3.911593578582340668e-04
9.034017109192994145e-04
-1.872109385172096747e-03
-3.241154568448263284e-03
2.024512347411400008e-03
3.149543603311137033e-03
1.877921229991929425e-03
3.333452359596766196e-03
7.987909920340758316e-04
-1.483059871719899503e-03
-2.122402685743574025e-04
1.958506872091039623e-03
5.333373151760759101e-03
4.668580710440166197e-03
1.585291636112615230e-03
1.108114810793657632e-04
-3.632628189938042450e-03
-5.602597183721478094e-03
-1.513148523945902907e-03
2.645942094696920096e-03
2.680659330159211335e-03
5.973505521909772608e-04
-1.257362658375356119e-03
-3.986201330354055723e-03
-6.257463761420325662e-03
-2.407406349854756666e-03
1.409186620398153195e-03
-2.617499860077697992e-03
-3.580246470973675460e-03
-1.584865148845545670e-03
-4.063799152521690473e-03
1.361844026211558119e-04
4.032788272035642968e-03
-1.277993878941656707e-03
-1.769691126339717003e-03
-1.509291621977004684e-03
-3.308263243130561779e-03
1.269888526543177165e-03
5.410780111516785840e-03
7.061013681896846812e-03
5.610031627720404000e-03
9.766162158240964709e-04
2.871354742315441327e-03
5.714753337500044772e-03
2.765846298677931536e-03
1.068333084224583340e-03
-1.888818582546553755e-03
-6.085568675249887656e-03
-3.845705248057628301e-03
-3.238174128659794104e-03
-6.450584823334833996e-03
-2.358293634987882175e-03
2.297434928102610931e-03
1.573117675383985895e-03
9.683540097037393775e-04
4.059873996485000719e-05
2.638948271107641880e-03
7.022083157792813682e-03
7.173381982770605722e-03
8.292361972875080672e-03
8.699215138301016198e-03
4.148922895222668765e-03
-1.026884519418779732e-03
-2.320549622035559655e-03
-1.216993912184697116e-03
-3.378346239461362151e-03
-7.254181144202803515e-03
-1.021866814989889558e-02
-1.277397108291860803e-02
-1.558494724980621568e-02
-1.617982077059704205e-02
-8.687602377455258887e-03
-2.736193622087658341e-03
-2.275242535345990431e-03
6.040557046050560935e-04
1.900502335457893545e-03
6.178736220724849633e-03
1.111738400111661300e-02
9.679717763217151813e-03
1.172234675737654150e-02
1.238115316886395645e-02
7.706993500884534026e-03
1.199117475742289725e-03
-2.549488445374227877e-03
5.606653474449644139e-04
-7.665096010356385603e-03
-1.087626345802655652e-02
