6.380482294356283742e-04
2.916059601721597387e-03
3.186382088578648946e-03
3.985757877639975813e-03
5.566535331352260793e-03
7.904044830996371368e-03
7.189542649270971343e-03
3.941927134162969380e-03
2.405551121597387671e-03
1.263313398670751425e-03
6.405045351887308895e-06
-1.637340270957943081e-03
-2.057207793559564547e-03
-1.823126299374053976e-03
-5.612905908263153554e-03
-6.366191480741932585e-03
-5.529867195826283083e-03
-9.829948136309562406e-03
-5.668674410742237380e-03
3.251582544867257472e-03
3.137131335010388822e-03
1.525229731423034460e-03
1.930522835471879233e-03
4.443011600382925849e-03
5.926901295608301770e-03
1.631373092225782331e-03
-2.176900570837022241e-04
-1.063075487154469022e-03
-3.790496031828775696e-03
-1.449523496310916064e-03
2.985677311795234654e-04
-2.612275201596349697e-03
-2.160102970582006374e-03
-6.791889164637150873e-04
-4.516505437618817571e-03
-2.176705844667512282e-03
3.654829605526653188e-03
-2.599142072660431090e-03
-3.794955378974567903e-03
2.523897354480593089e-03
1.511847443501639684e-03
3.569046917227764425e-03
9.821927796678639119e-04
-5.329997434127035916e-03
1.092365188464386331e-03
3.545071156597151378e-03
1.446883196182112592e-03
3.808864115037666805e-03
2.701528764293751467e-03
2.521280493826546371e-03
1.137047997632946060e-03
-2.893958019115212745e-03
-1.537117327537407957e-03
1.492415287521667907e-03
1.760903701036179271e-03
9.244929364609042214e-04
4.521215488636884296e-04
-2.882098312960694724e-03
-3.844576844058649519e-03
1.636932487074603104e-03
6.023422408593541227e-04
-2.477193060536997220e-03
-3.491497962168044439e-04
-7.415546350934062048e-04
-6.143156052040625809e-04
6.381030670911208796e-05
-7.220501802891962379e-04
-2.072264066721331462e-03
-2.514268527527464912e-03
2.117628879398957172e-03
1.382227591339670351e-03
-3.873912338601110446e-03
-1.999389747496299954e-03
-6.558748839497643805e-04
7.304107512849062700e-04
6.285179191288837314e-03
5.766361293005209734e-03
1.405261289721100059e-05
1.237259894728738032e-03
4.369286241346683961e-03
-1.147832161735951777e-03
-3.915562866032651877e-03
-1.223990385914292814e-03
-1.396827634712817469e-03
-5.357642518224263982e-04
-2.655003710624504517e-03
-4.675295019077235770e-03
8.062659074668698973e-04
3.084337399522836618e-03
1.748596276819415745e-03
1.355129560565990383e-03
8.748297819563678572e-04
1.072009604894870157e-03
-1.002860014191987595e-03
-1.208970071402619461e-03
8.329884586850479526e-04
-9.607979769062240973e-04
-1.389440573512443948e-03
8.642022681859513151e-04
-8.212020278369818946e-04
-5.013993563941563161e-03
-3.334010530263569264e-03
1.920715949594248859e-03
6.472420780377339568e-04
-2.209898223298069776e-03
-5.458264653060081488e-04
1.523719351309073614e-03
2.781699043120137126e-03
2.316354336842914741e-03
4.459922163438199559e-04
-7.421859577430774688e-04
-1.928107928695467618e-03
-2.271261201101392596e-03
-2.044291784088917655e-03
-2.536817913207148594e-03
-1.896585663170999997e-03
1.236726084829727935e-03
6.293906368454667104e-03
6.757103382763003131e-03
-1.308746933844680792e-03
-3.671470565588295411e-03
3.247075055306406031e-03
3.668664830331141817e-03
1.414462255076214935e-03
3.356641318915404119e-03
1.764312233478352622e-03
-1.459689303360706255e-03
-3.090117037801867403e-03
-4.054743492330541328e-03
-3.277813597601585485e-03
5.572756811456254511e-04
4.652115036978337129e-03
1.074012589436234254e-03
-1.718964684811472628e-03
1.786514229362378380e-03
-1.235233050145353876e-03
-4.547810105352635690e-03
-1.612764542164358151e-03
-2.450054177098975579e-04
1.201179364682704743e-03
1.445126987015423739e-03
-3.807170542656623108e-04
7.862536004151417538e-04
1.678262110326343573e-03
-1.375273827371757034e-03
-3.141198977460504024e-03
-3.136400186013256247e-04
-2.359123881557445123e-04
-2.141349515824975038e-03
6.055745884539264282e-04
7.927236662707784097e-04
-2.782944550271951138e-03
-4.114878335388048695e-03
-5.618823220605115125e-03
-5.848596526651167297e-03
-1.879494135565217905e-03
1.607834786267628956e-03
1.570232468284644316e-03
1.061614910754062231e-03
1.645393779213129770e-03
9.850000381036198502e-04
7.887031184937898405e-04
4.253791614354672859e-03
5.322700508401715346e-03
2.063114848158823997e-03
5.551001036726588636e-03
9.712212414647682091e-03
2.872041069182388207e-03
-1.685737217620792566e-03
3.580969113474375331e-04
1.929853119814500155e-03
2.794578043194737536e-03
7.746562670137463772e-05
-6.695264669858097626e-04
1.128941482355891182e-03
2.969409687602184503e-03
7.390497033029630458e-03
4.485074978662639128e-03
1.212352758083442899e-03
2.262147610115987622e-03
-1.548646255433595593e-03
-2.663398562021649686e-03
-1.710446802454628976e-02
-3.719659398943220285e-02
-2.250096952243414022e-02
1.411918400733052064e-03
6.625273739801936825e-03
4.777277333687362376e-03
1.869835052301903615e-04
-2.924129375961726624e-04
5.812511870154030234e-04
1.951554091420822611e-03
5.336040345373505196e-03
2.221538711431689933e-03
1.189429640233162586e-03
3.770115739675580432e-03
3.100724710494846999e-03
7.650549006382827404e-04
-8.944450587078211622e-04
3.597269907728317586e-03
5.163753512459319864e-03
5.297382205898265237e-03
9.015479392186808924e-03
3.386462618021353192e-04
-4.663456461480771850e-03
3.152392382285990578e-03
3.681027747937942827e-03
4.666490763163718553e-03
5.067121016621792436e-03
-3.772729346244003360e-03
-7.499276795334360035e-03
-4.160358974034493972e-03
-2.616564996254328642e-03
-1.151996337026325650e-03
2.938194938896999519e-03
1.185124940888139826e-03
-5.012495752529649330e-03
-4.840164320679657406e-03
-2.200555263324390810e-03
1.500784071060781840e-03
3.601620555152821213e-04
-6.481543564946044139e-03
-1.682591394566920577e-03
4.725737296687372406e-03
2.704333807653860194e-03
2.368853520447290056e-03
1.190188053404887727e-03
1.507565570356455198e-03
3.013172583704154181e-03
-8.118547364666140213e-04
-1.505060933096410590e-03
3.251016143613194923e-03
8.486251678531703691e-04
-4.637431053069973781e-03
-1.750084794221179536e-05
-2.040647732664765263e-03
-1.082300119148048995e-02
-4.874097186218487657e-03
-1.074422360715972670e-04
1.896078792051253403e-03
6.106425673776303374e-03
-1.384689712277929492e-04
1.662483308525174348e-03
5.457149591038155598e-03
-2.646023616829894839e-03
-2.360244276430917276e-03
-3.591739172259568198e-04
-8.480082228931809388e-04
3.220823457096852276e-04
-1.917720490260286506e-03
5.892577609784289657e-04
-3.264888374501897020e-04
-2.332251842433806337e-03
2.982548128917344912e-03
-2.392228385466948170e-04
-3.283048754664710280e-03
-1.651428071943879597e-03
-2.960176604777573200e-03
3.271306092308457186e-03
5.596662266695851679e-03
-4.728627523557859071e-04
4.958693474524859639e-04
2.087463513367744487e-03
1.535242275613906944e-03
-7.462998351226316027e-05
-4.867194977551003721e-03
-2.618820596261922651e-03
2.074665450395662882e-03
1.542077442630846677e-03
4.768527388632049988e-03
8.931365088132248164e-03
6.443851973507304723e-03
-6.392474867996643948e-04
-4.273046096644079854e-03
1.847462168403317135e-03
6.433297563624741644e-03
3.213118080615167804e-03
9.053542928062355624e-04
-6.550799695199479742e-04
-3.228260280896027516e-03
-1.942331970868902682e-03
4.576255347570836254e-03
7.614696694692787461e-03
5.038578630846000592e-03
-1.795589883412020615e-03
-2.424874177129198935e-02
-3.695773679986773252e-02
-1.247785218401178953e-02
8.003240341547625258e-03
6.613965416758370297e-03
6.432101116501000651e-03
2.516137705760271726e-03
-2.237304769283522590e-03
1.113930293523120532e-04
-7.318709277891252826e-04
-2.420894901791684987e-03
1.299999116481663324e-03
4.520856964963808691e-03
3.541402246066821784e-03
2.125025273767171697e-03
1.699565516462483994e-03
2.478729966039403682e-03
4.311696280057848718e-03
2.637180378312979287e-03
1.148644536679941904e-03
3.112917047379636440e-03
1.083363549146559987e-03
-2.526742911124452151e-03
-1.152276479530287261e-03
1.302734619244875483e-03
9.986632380892038457e-04
6.885482491974964409e-05
2.847416123154991163e-04
7.419249390527027648e-05
-1.632466489356661644e-04
4.112952425403515705e-04
9.134208885714801412e-04
5.469844323467856848e-04
-3.022992963641068370e-03
-5.085126508705433389e-03
-2.320755333238702992e-04
2.444652574402948666e-03
-1.127813272991489004e-04
9.424579292388163797e-04
3.085433817424778746e-03
7.307838212718074369e-04
-1.299104172424726551e-03
2.214221197687141554e-03
5.696586327111294659e-03
4.575294018860063833e-04
-3.790288976156514292e-03
4.779054028270119671e-04
1.156416950591945825e-03
-1.267152389700237696e-03
-8.286187844978119138e-04
-4.705921001981524382e-05
2.350712754198620467e-04
-7.602720308593598035e-03
-1.590531566354430951e-02
-8.247020102446595349e-03
1.216398947452562848e-03
1.745007226702801088e-03
2.737810162464182975e-03
2.629451911238065570e-03
-5.799398114821260886e-04
2.443839853027802642e-04
3.047655378620918280e-03
2.727182335064878491e-03
3.334452746050047163e-03
3.058375554914059043e-03
-1.067632045813881768e-03
-3.098908638565549441e-03
-1.347704923981724165e-03
3.254732787686827854e-03
3.828745595691622049e-03
2.787079176483737378e-04
4.025416140034011707e-03
5.526066338403625919e-03
2.948380233314244780e-04
7.942232662487639641e-04
4.097676302576360417e-03
4.159366218637865903e-03
-5.403503075595605986e-04
-4.128917127050506578e-03
-3.094028054520081561e-03
-5.555270170228179816e-03
-5.194385797018465263e-03
-2.341938673818614030e-04
-1.480852616979574151e-03
-3.778315724189862997e-03
-3.010128906129983916e-03
-2.666949800074540529e-03
-7.484851755528289068e-05
2.419904317885344849e-03
-1.711856950257911736e-03
-3.434292127399185632e-03
1.153581044267252718e-03
-4.267869415409558946e-04
-4.618384093511882600e-04
3.662228947445830569e-03
1.086028379833597251e-03
3.906823934924703867e-03
8.476361569885399252e-03
3.741197368729313067e-03
3.090754996128510000e-04
5.920268739921924473e-05
1.818290711563513590e-03
8.359511396502807392e-04
-1.090375625557057741e-03
2.571247489322842691e-03
-8.465368690886755382e-04
-2.035678490788613276e-03
4.382898335871904597e-03
-1.453671891490152229e-03
-5.975646364325463283e-03
-1.382363631620502379e-03
-1.856969668248083802e-03
-3.415642802884471998e-03
-3.188477642992942635e-03
-2.891758174106891254e-04
1.971578814347055373e-03
-2.393020342829643623e-03
-3.979445888845728647e-03
-1.392308969371855226e-03
-8.675151019079299208e-04
-1.164288542024146571e-03
-1.740523658368104505e-03
-1.947579311311605247e-03
-3.339350798929701953e-03
-2.833676904895866822e-03
4.224996253402186347e-03
8.951283947488695991e-03
5.767810942815439386e-03
1.006766684580243706e-03
1.122597675517065163e-03
2.849724905225838392e-03
-1.087609674322713134e-03
-2.403792635729047177e-03
7.736535488452691602e-04
-9.325884017696429822e-04
-4.566648304027027270e-04
2.100459021802456808e-03
2.769854080532773138e-03
4.146872089835693803e-03
-2.215238888519976794e-03
-5.687585547497681082e-03
1.355968433844585621e-03
2.222681528698586002e-03
6.535903965343136399e-04
-2.785805804173952503e-04
-1.279800122442574951e-03
2.675130991431656780e-03
1.027161658845826813e-03
3.311337851599671016e-05
4.812982431563942072e-03
2.466819074315551846e-03
-1.107059160773004583e-03
-2.813274621412731324e-03
-3.553401472339559695e-03
-3.051635895199582022e-03
-3.831908460154971174e-03
1.737281658661635458e-03
4.103306397565966400e-03
-4.990358387246005088e-04
1.610127963249379662e-04
-2.316778382115893421e-03
-6.031932343579013596e-03
-5.133880525031382473e-03
-3.953997086877689832e-03
6.204956688480695818e-04
2.395067160494085325e-03
1.817804422249047263e-03
2.229612075478766206e-03
-9.175578306943706552e-04
-8.380502984699762879e-04
-5.663108094897442149e-04
-5.061172822688111278e-03
-5.631724782633435768e-03
5.408343351948947551e-04
5.478313455534848837e-03
6.949378087262218589e-05
-3.680579759527715256e-03
1.455176176749800642e-03
2.081130943436433189e-03
1.127234825008910759e-03
1.020043740796799329e-03
-4.596497999826624874e-04
2.809180246815544662e-03
5.198798925432480782e-03
3.074535359266096675e-03
1.497232839944855672e-03
1.247014465544061266e-03
2.499335208311446316e-03
6.312565518720265542e-03
8.914979334638965802e-03
5.463407612019872267e-03
1.946047955564247966e-03
-4.562618537902731418e-04
-2.645532732116480639e-03
2.151752486056530576e-04
-6.062200825175026843e-04
-2.467595539801358505e-03
6.567665441974252210e-04
-2.135648561751181135e-03
-6.028604422043994278e-03
-5.049830758524901687e-03
4.406233886891934744e-05
4.251428854875284949e-03
7.982585599835259529e-04
-1.055538440705724480e-03
-1.479946893795934526e-02
-3.484692868517162700e-02
-1.981759492425671718e-02
4.226839692287868121e-03
6.001424282467507712e-03
6.408358740877656383e-03
6.890119971023094501e-03
6.192951060843296038e-03
6.378904528041675834e-03
1.969186971504860006e-03
2.193042847654949352e-03
4.234457238780892259e-03
-1.681018186485266626e-04
8.545224046646046970e-04
6.878389698200232383e-03
4.210143074970204048e-03
1.554477132663881688e-03
5.818941051471846100e-03
3.418952855439339866e-03
-4.102815964686697819e-04
3.351441758921444927e-03
2.611284231747181082e-03
-2.110686651767714091e-03
-2.026780918676634492e-03
-1.741946722932813732e-03
-2.031815908651489738e-03
1.121467626945384403e-03
-1.578336729954765586e-04
-6.514779907620338317e-03
-5.641535631389111606e-03
-2.908817485673776543e-03
-2.904124383578902263e-03
-1.739013862821356653e-03
-4.916083338488710062e-03
-2.809787476349910260e-03
6.748507606018879119e-03
7.510703480803300469e-03
3.605418912414449541e-03
-1.339754088069304312e-03
-6.713959057681178656e-03
-3.142477452959348272e-03
3.343050849565760377e-03
5.488581159018957913e-03
6.764506419732722528e-03
4.361886228109107706e-03
-2.470410113910492724e-03
-2.995711589927439224e-03
1.199485820445788048e-03
-1.869282898258762670e-04
-1.459490114321137762e-03
-2.979711734441021793e-03
-4.354054006700708128e-03
1.850982630444261180e-03
4.581920224984694571e-05
-5.363908343395952863e-03
1.782466557947828259e-03
2.030912305626598850e-03
-3.074228693754470134e-03
-5.885670923248702334e-05
-1.316732932232151157e-04
-8.247044403543294950e-04
-1.312257521227048877e-05
-9.128270336776356112e-04
1.772177603615621676e-03
3.753269506458066940e-04
-4.160747934828137873e-03
-9.649740179540376240e-04
2.943148784320821863e-03
2.720567945419897441e-03
-1.202927985852939117e-03
-3.831000282993451793e-03
2.764864689678237820e-03
5.065835972252337970e-03
2.810433914455034250e-04
1.841484205694796702e-03
2.061751616734188309e-04
-4.306859605056261725e-03
-1.852694276391607950e-03
-1.063990817667285343e-03
-6.930252311335401497e-04
7.306521569399420908e-04
-1.572136493071469307e-03
-1.775105063824807114e-03
-4.778654549815476152e-04
1.371403336117800031e-03
4.308306938318615109e-03
4.634636037108008644e-03
7.575804041614756998e-03
8.734907582612111421e-03
2.286073561866694241e-03
-1.235142958920201544e-03
-3.657087635597481602e-03
-5.762223477215173105e-03
-1.461037997479510981e-04
7.133584285126420193e-04
-3.669652983998856165e-03
1.282169865452414753e-04
2.605156511478886553e-03
-1.928635063467739469e-03
-4.831510179920331036e-03
-1.228522759996631287e-03
4.789393735112328944e-03
-2.709917940164237316e-04
-8.319061672123829673e-03
-4.905222540919530402e-03
-1.720308746174780204e-03
-8.620234400582935802e-04
-7.090909020707378795e-04
-3.530440606355034032e-03
7.643517201219667510e-04
2.486884936360712894e-03
-1.676510429608929573e-03
2.236813265088791018e-03
2.198245217806437529e-03
-1.519005704344742174e-03
3.750060460005372491e-04
-1.813016605384669454e-03
-5.930819710397452170e-04
4.594719707367051799e-03
4.005722653811980005e-03
5.257140583554251352e-03
4.361147751584734666e-03
1.175946522141878975e-03
2.509968105989328867e-03
-1.366628915165983733e-03
-4.622877963758339689e-03
-2.440664039900189430e-03
-4.501676391364275651e-03
-1.630370637252715567e-03
5.200179015363780646e-03
2.309809827632190553e-03
-2.103099283218474481e-03
-5.434363905314843271e-04
8.312714338925686472e-04
-1.559232865012289142e-04
2.284481985295301284e-04
6.323780692317536398e-05
-2.999125161207655786e-03
-1.856327742006266173e-03
1.719632238938150533e-03
7.648848634573979927e-04
1.180339019261266061e-03
5.809701794312721948e-03
5.829677753191644593e-03
-1.319728210613226342e-03
-2.610289776520911820e-03
1.431311329960577956e-03
-1.992270847792681956e-03
-3.726708448245563514e-03
-6.356695451074132570e-04
-1.941686857862157535e-05
9.198331290933629530e-04
-3.161288809932795256e-03
-6.000467031150293930e-03
-1.819122958363603593e-03
-3.800827197461692942e-03
-2.602790821677369165e-03
3.606129939719042183e-03
7.364641797937865634e-04
-3.226824702871828113e-04
2.758837924725690213e-03
1.293086886007197662e-03
-3.144089720986340594e-03
-4.976686205920530758e-03
2.635655032736859867e-03
7.532182629556146911e-03
3.152785301215779278e-03
3.180825637528572440e-03
3.419977668067088021e-03
6.941622307253963748e-04
2.069805098757412053e-03
2.596179659334617068e-04
-4.558185998159072078e-03
-2.574742905208711897e-03
2.414295138298361103e-04
-1.329643031647583353e-03
-5.328357307672491796e-04
-2.110476741242844033e-03
-7.482373048699705355e-03
-5.642211329309439367e-03
-3.234992617592888191e-03
-2.894772309623312983e-03
2.436934265705627180e-03
4.672156329270456612e-03
2.893040185842587347e-03
1.212022311149751463e-03
1.358923488169453157e-03
3.751565136834358622e-03
1.725600997795137623e-03
3.667440844557305277e-03
8.756976940974815077e-03
4.529975135478664199e-03
1.923268904901057627e-03
1.368254556681520063e-03
-2.991806554939472262e-05
2.503351620184776378e-03
1.027941307870719684e-03
7.655482210738460882e-04
7.134634174388442430e-04
-4.470682914894131069e-03
-2.997820510748333816e-03
-9.710132814006150036e-04
-1.644180187609238768e-03
1.474420243247787305e-03
4.429054525592576383e-03
-3.266082813604315443e-03
-2.831865773948396767e-02
-3.384156942547169450e-02
-5.815977160343249047e-03
8.689310084595485567e-03
8.040893732427046442e-03
8.127800230763539482e-03
1.073304822320243334e-03
-1.749189024172560281e-04
4.284640693728372640e-03
4.916800340565112386e-03
4.968779199339704022e-03
4.506915907113316112e-03
5.343867379161180292e-03
3.288393998206936512e-03
1.548729208997513297e-03
3.705661170946983850e-03
1.324819914284378324e-03
2.632326692772034120e-03
3.886420226236949552e-03
-2.807039798805117860e-03
-1.274170384101249755e-03
1.240950413197337019e-03
-2.264321670883528547e-03
-1.335143950602231703e-03
-4.531158235437630737e-03
-9.559904840733518538e-03
-7.089581832962287000e-03
-9.030918180086300881e-04
4.238417904538369953e-03
7.801584824627969070e-04
-1.649368810171763676e-03
2.279881653475852085e-03
5.491130560244695136e-04
-1.649548880813789991e-03
-3.097345555259374116e-03
-2.471231404313335798e-03
4.064821539454974327e-03
4.628782874995872321e-03
2.614974911424309666e-03
8.292777965861940432e-04
-1.173332360824114748e-03
2.607964703793242377e-03
4.309699586453172651e-03
7.516342388928428167e-03
6.783194117516960775e-03
-1.030349766873069452e-03
3.788653172486255213e-03
7.515850258077294913e-03
6.990410132769260716e-03
6.253944884349016756e-03
1.440499624735249676e-04
9.039402652369556146e-03
-5.247731217450257724e-03
-4.055272007359153608e-02
-2.232901772268851975e-02
1.353098848483777006e-03
-4.015449261031633736e-03
5.195444639350840083e-03
5.620079110687714249e-03
-6.609285253873253482e-03
-9.420312024432169959e-03
-7.368916488517098830e-03
1.560338066430213958e-04
2.058232833545375635e-03
2.085942003112841933e-03
3.911057609346978159e-03
7.759632825546702644e-04
5.538029032085738448e-03
8.621256185642899375e-03
2.951687183203919197e-03
3.402944842920470163e-03
5.203773041083954026e-03
2.521343531815065618e-03
-2.222582070870018477e-03
-2.358167235551667136e-03
9.660155842263937979e-04
-3.329218554713976250e-03
-4.059300341471044210e-03
4.046463765180707134e-03
6.446305142826858244e-03
3.950057877158463793e-03
2.388441056862138957e-03
3.144325164838116145e-03
4.496573222561257854e-03
-1.159747673332600214e-03
-1.109327552313484934e-02
-1.497122128697884504e-02
-1.281367534083942272e-02
-9.298029382930511275e-03
-4.250782277092563129e-03
2.679503013363194303e-04
-1.718789088911634212e-03
-5.238844978207684439e-03
1.452977794873506687e-03
9.414214063009714376e-03
7.933528286229833693e-03
1.192262259170303630e-02
2.296134236271562407e-02
2.732925904647860033e-02
2.649156819010830763e-02
1.896470724187502427e-02
5.209960313730946195e-03
-4.217974143692631780e-03
-3.543536690077230943e-03
-8.788717657367441224e-04
-1.034853184247102285e-02
-1.658930938627879020e-02
-1.612117037299042391e-02
-2.848736521897365578e-02
-2.722751398986392180e-02
-1.035211698097101771e-02
-1.194854480857115292e-02
-1.234103777593482769e-02
-1.214780230422777803e-03
1.516196177523191930e-03
1.076248301719358400e-03
2.675021289194550768e-03
-2.281199936434085470e-03
-1.422580092589016687e-02
-1.728420472903107949e-02
-7.558481379208372743e-03
5.230324337931034780e-05
5.193935249051378697e-03
1.119484138653241423e-02
1.614264841823241647e-02
2.180662033897008342e-02
2.821565962388335874e-02
2.960177875966677266e-02
1.863638766630450888e-02
8.657059457049295914e-03
4.743708154917260569e-03
-6.175191990138014994e-03
-8.403979191984716976e-03
4.287841366118692573e-04
3.020280627864522279e-03
7.604392335252911118e-03
1.603432215874388625e-02
2.514233626206763619e-02
2.345035332672893574e-02
-3.902939429514923429e-03
-2.536343189209349161e-02
-2.110042173931889892e-02
-1.118650104175818866e-02
-3.233237734682928560e-03
-5.585604414446463349e-03
-1.619993028423709347e-02
-2.112027062524945292e-02
-2.805447960748486125e-02
-3.121108770269662158e-02
-2.112661886615178203e-02
-1.586282572032278806e-02
-1.334078557279714736e-02
-5.527023018608899843e-03
-1.587142407013572305e-03
6.902001461246378387e-03
1.643717651870969451e-02
1.243986736901103209e-02
1.021837048097615046e-02
2.027357851075543491e-02
3.351512521815720042e-02
3.924422113701775405e-02
3.494199603991425540e-02
2.643709612203780715e-02
9.987262930079487608e-03
-8.011351195124773866e-03
-1.273462388865011924e-02
-4.709097142787596613e-03
9.520304974188639746e-03
1.259150824861606996e-02
2.401523901080706604e-03
-1.190793281373023031e-02
-3.864963396696809855e-02
-5.742098053481722170e-02
-4.673001286799877835e-02
-2.822871370280187475e-02
-1.185696839261660487e-02
9.864810057989451680e-03
2.704088601169105793e-02
1.959880703476808705e-02
-3.965895919901415122e-03
-7.681774576845257045e-03
2.532227609121406268e-03
-2.005109958744112457e-03
-8.437957251592723487e-03
-4.591309060654659262e-03
3.806097488035801481e-03
2.095348187665226763e-02
2.907650685578065664e-02
2.015599120060171737e-02
3.478742660191611047e-02
5.763042181506434353e-02
4.730719771778325866e-02
4.460351302518527489e-02
5.395275736421266399e-02
3.180100820113503091e-02
-1.526997680216334204e-02
-6.515379861259416872e-02
-8.163853074479392180e-02
-9.148430933242014673e-02
-1.484045903249156251e-01
-1.709718976547547620e-01
-1.247572566706050268e-01
-5.398107089094283939e-02
4.878399476781584976e-02
9.383693088910172175e-02
5.482110785969478151e-02
7.988047191650940460e-02
1.561913126534037743e-01
1.628353684459667161e-01
1.076429159524081580e-01
4.966935341352619188e-02
1.999969198131188591e-02
1.519069862456650516e-02
6.933383672242263152e-03
-2.441003697684701948e-02
-5.233985018838048509e-02
-3.944189154654982599e-02
-1.391328089511980476e-02
-1.032417712897296808e-02
-2.489310855502279568e-02
-5.466760050356513773e-02
-8.526488635447895814e-02
-8.641789029715495063e-02
-4.224323110137056386e-02
1.713179400433253313e-02
5.103837226463445870e-02
2.348599041484118743e-02
-1.018043421910877627e-01
-2.346037775001264258e-01
-2.369882437926676133e-01
-1.254175312126956376e-01
2.718308086691966548e-03
7.835554429061306059e-02
1.193652543915554726e-01
1.673919893710101581e-01
1.792263987359021260e-01
1.505896212089505581e-01
1.262800772947969830e-01
1.072835253379275516e-01
1.011414279666502380e-01
1.019967704476957837e-01
7.929306924591121575e-02
4.585900646696151189e-02
4.256262580225689957e-02
4.498562625701853918e-02
-4.784187414300002800e-03
-8.377864882027971638e-02
-1.497451921604566749e-01
-1.682696635747279179e-01
-1.127516154431718320e-01
-5.031472574953219090e-02
-5.324886664091509764e-02
-1.218039518298054819e-01
-1.661571836357167153e-01
-9.220359904718110344e-02
-7.218861275525174752e-03
-4.367919332915229727e-03
2.157414444011674943e-03
5.440883892802174382e-02
1.356129758815391440e-01
1.562474198455047480e-01
3.926534930352094249e-02
-7.294559382727962282e-02
-7.378924982213598549e-02
-3.023797005762263873e-02
1.752066804481180670e-02
3.522607319361902717e-02
1.866199090999897184e-02
4.364987018542843683e-02
1.139228217080761746e-01
1.618526185676859852e-01
1.569434808361237499e-01
9.879215172328194294e-02
1.194770057098882080e-02
-6.490611520930958389e-02
-1.247485978562744569e-01
-1.860354610326042102e-01
-2.237898778962398305e-01
-2.011356319032166495e-01
-1.399851033016056567e-01
-1.729223303658619301e-03
1.906407940534078638e-01
2.005207932323080089e-01
4.644037428233454418e-02
-5.805113559421092549e-03
9.649393871215558929e-03
-2.750514346693804651e-02
-6.584341250621936203e-02
-3.927675189735677086e-02
6.049002855889937247e-02
1.049176400294681843e-01
4.263761897874292217e-02
8.346552291535840745e-03
1.745297110374996116e-02
2.157285867629331333e-02
3.223627956526792238e-02
3.503021016524955622e-02
2.844711058509299256e-02
1.362630977755202762e-02
-7.232602100507566113e-04
-1.757511568157558990e-03
-1.944074373367817021e-02
-3.439528398082389304e-02
-2.670502805026209875e-02
-4.561515148670611253e-02
-8.017659476036119448e-02
-7.922139176407208550e-02
-3.415751624259643487e-02
2.905530467725385771e-02
4.783780321564817806e-02
1.455059941821945126e-02
-7.208917811097223689e-03
-7.426803285393584683e-03
-6.333159780999016858e-03
-7.856902669905250006e-03
-2.466741544873260819e-02
-2.729771214004821783e-02
1.007317879792485674e-02
2.492391258447155741e-02
-6.884600336476026129e-03
-1.492128908269127127e-02
1.308104858167383200e-02
2.544186755014734777e-02
2.101349940904742933e-02
1.475970953245665102e-02
8.114853446750322497e-03
2.038294588555022296e-02
3.439523352270025536e-02
1.162129526138558008e-02
-2.548081614080911078e-02
-3.631934322731224934e-02
-1.895326416208993267e-02
4.498695251892228901e-03
1.482878669092230206e-02
1.688302667386588907e-02
2.118212751106498051e-02
2.501265301595305759e-02
2.352432176505514158e-02
6.115445474761859769e-03
-2.858439063834703267e-02
-5.432994079565663798e-02
-4.743748152041837168e-02
-6.604095464199207649e-03
3.549736366657738756e-02
3.423693506079122928e-02
1.173245140169278111e-02
9.226234568558162180e-03
7.732391377038437714e-03
-1.875084095526441093e-03
-7.843961220666285580e-03
-1.090479227749569131e-02
-5.188055910334594609e-03
3.579393351350312609e-04
-2.470317520451562575e-03
-4.531856682620894611e-03
-4.432190042935631527e-03
-2.554261761122233326e-03
-2.588733776811959122e-03
-3.584792980345219014e-04
5.742799125280631176e-03
1.751026794712775767e-03
-2.698131584674208668e-03
-1.069208517364082659e-03
-2.921553402587595116e-03
-3.755042711810343409e-03
-6.911574136378539727e-03
-1.011849840638619213e-02
-5.674032374005773260e-03
-3.332265235396419424e-03
-2.995576756469664481e-03
2.493692439723740320e-04
2.489586986370801672e-03
1.116228079964265386e-03
-1.037152386088643430e-03
-1.195351430701009675e-03
-2.085716930478783478e-03
2.878366658999304602e-03
1.034684624028434953e-02
1.019530283196972212e-02
1.228257523608497839e-02
8.858291049130596201e-03
-4.845032286375123252e-03
-1.014114916898692723e-02
-9.081589480413324728e-03
-6.465834292718544013e-03
-2.537932807068424799e-03
7.617989282204888071e-04
3.820891059062006025e-03
-8.743866090480100503e-04
-3.004569145535410449e-03
1.901300967213867023e-03
7.483498762116655477e-04
2.161118969534614551e-03
4.152945457647285420e-03
1.503306582947821135e-03
4.439778745060925409e-03
4.803077331470389545e-03
7.425582685410619336e-04
1.351214936625982389e-03
3.328076395477671569e-03
4.169007023398798271e-03
4.754902467120653876e-03
5.064692234135470539e-03
4.026814189887741903e-03
2.435960993512511011e-03
8.251899382770205762e-04
2.568230320335636394e-03
5.553089475564740134e-03
6.371635462987269025e-04
5.120308433584571956e-04
-5.804859990314201190e-03
-3.375658798396629495e-02
-3.431214617418856111e-02
-8.294628558317123507e-03
-7.968774806699047922e-04
2.875508941808556634e-03
6.658297955396698907e-03
6.601724182610068346e-03
1.064878777705250898e-02
6.401304393099807935e-03
7.226351073567894830e-04
-7.779150796854890099e-04
-1.860504041262770998e-03
1.550534619464204655e-03
7.015660294753226119e-04
4.992277042292942195e-04
6.551970456681099030e-03
7.921004661008642506e-03
4.078080819025148469e-03
-3.157678656878205284e-04
6.121951826004225780e-04
3.398577283336760586e-03
1.595234618267459643e-03
5.493944104598316291e-04
1.400302301097892032e-03
2.942387117387546599e-03
1.862847139425362038e-03
-1.043242020823808604e-03
-1.051613860217169051e-03
-3.870106223081471591e-03
-7.338332005446382422e-03
-7.082670648062055520e-03
-4.738898869199283798e-03
-1.932708404169113103e-03
-3.466439584077185034e-03
-1.574481551951183948e-03
2.473617128786497962e-03
-5.767627326875812655e-04
6.487694994363869903e-04
4.142325216138371610e-03
3.496479973472571903e-03
3.234308140002262796e-03
-1.097972612890951976e-03
-4.026628462827367555e-03
-2.876302597631070785e-03
-3.165880120218504245e-03
-3.037340139663222962e-04
3.919175926726315914e-03
6.855477754537445990e-03
7.565843555431092660e-03
3.914915286479144808e-03
2.306415087185182712e-03
3.400279174502767246e-03
7.514716372083350086e-04
-6.160097244001624256e-03
-8.939284601681819417e-03
-4.174555251416823057e-03
-4.266577907071959720e-05
2.733242927233233213e-03
8.628019842931684098e-04
-3.391554104309950617e-03
2.085150670816855213e-03
5.912741457835643966e-04
-7.919856204649911025e-03
-1.717319639459151783e-03
7.409278531570550426e-04
-2.508351318079226396e-03
2.926361024066766528e-03
1.721546229070916763e-03
-2.732446251114380945e-03
-3.204427916245432533e-03
-1.708854874229501827e-03
5.117521304914768657e-03
3.831239369948630062e-03
-1.030045822360991419e-03
5.827413642996691085e-04
-2.781879333183045946e-03
-1.345884680371701135e-03
5.521657660427688359e-03
2.730868308851283101e-03
-2.994072168775502221e-04
1.073695617275017070e-03
3.535938404280043225e-03
4.651993007103352729e-03
-2.039309717376511005e-04
-2.486143929742141035e-03
-1.064396226543705241e-03
-1.422554358568869611e-03
9.217166554767321869e-04
1.311890616232805687e-03
-2.799694534408822023e-03
-2.688746822520416465e-03
1.686443804976275667e-03
3.432746826934454046e-03
-1.823648897309013042e-04
-2.998992901854275958e-03
-3.745601034540873837e-04
2.109757749328900443e-03
5.528550901063556365e-04
-3.039170718282586513e-03
-3.911298840807658425e-03
-8.254541629912806166e-04
1.866881643280285082e-03
1.530108936442648544e-03
-2.665317012832785996e-03
-2.360131346989431667e-03
6.147622818450887081e-03
5.626116694106119386e-03
-3.529490935573170729e-03
-7.342983143951996999e-03
-8.567150054550564525e-03
-5.096480343212031298e-03
3.924042260329264854e-05
-3.101404620527705921e-04
2.351031495973612828e-03
4.977881102636311748e-03
3.543816339772232031e-03
3.151820682515623067e-03
1.612174711973676268e-03
2.375164233861337335e-03
4.407534600242009153e-03
3.805960671870681645e-03
3.081224460133146891e-03
-1.152659210665404931e-03
-3.311890491540798141e-03
-1.164450863739404035e-03
-2.402482830219751508e-03
-2.528077058100146324e-03
-1.929971700369705750e-03
-2.712603877352085142e-03
-1.158290242708295923e-03
7.796882911090659502e-05
1.240800973571716754e-03
3.000939234636172247e-03
3.231797126460827715e-03
-2.543785687737915160e-05
-4.843538829321620588e-03
-4.502133594367511114e-03
-1.351458929521393492e-03
1.109733405042639303e-03
1.505932861933159802e-03
-8.627745603643847397e-04
1.377095599418023735e-03
4.785422118316164271e-03
2.725431109643763634e-03
-3.281816401127603581e-04
-2.106449125194532514e-03
-1.185166126656752444e-03
-1.769321994692738681e-04
-8.369429767467163016e-05
2.137268080271900132e-03
2.528813699770126808e-03
1.226764414398199762e-03
6.220609869244013782e-04
-6.357552617399409196e-05
-1.962576912334472456e-03
-2.799870460339030226e-03
9.069296692082650865e-04
-8.552052626619719745e-04
-7.957329850606542632e-03
-7.389381265634171331e-03
-2.372998440727358115e-03
2.091715286163922053e-03
3.401153182444975869e-03
4.334959462398871679e-04
-1.952811735941511117e-03
-1.258940801060688978e-04
6.384216277828689591e-03
6.289704457632607285e-03
-8.295385825080290069e-04
-3.788292472794066879e-03
-3.862552893300354694e-03
-2.297955303945895271e-06
1.650736817094001921e-03
-4.857301006318589381e-04
8.103556279639899601e-04
-1.518008591850596688e-03
-1.301612796808351673e-03
-5.403527944368756789e-04
-6.272922035687890363e-03
-3.547261568574279142e-03
-3.364442121158243417e-04
5.796889253762945501e-04
5.628494748685455157e-03
3.186447981989211971e-03
2.031420891080706979e-03
4.604517001713067867e-03
3.968185338505857834e-03
4.796381461367237552e-03
1.788449777724327328e-03
-1.303491622256982207e-03
-3.235967669557269512e-04
1.449012485163375143e-03
4.676784435349055219e-03
3.431573978852990679e-03
1.202112681675516787e-03
2.318065001537063241e-03
1.434688045838344991e-03
-1.589954790186523612e-03
-2.439867250512927320e-03
1.875279740310645997e-03
2.951903056904118215e-03
-1.312724385359408368e-03
-1.899902245706057251e-03
1.773993644242451021e-03
-2.504155452998128254e-03
-2.581420898914382409e-02
-3.241031106073563595e-02
-4.727609276948287892e-03
8.167856105405799788e-03
4.650501992811320595e-03
4.545116152857619878e-03
-4.437169050227824426e-04
3.165362246242925479e-03
6.067447190986461139e-03
-7.042930148337534077e-04
8.134809494630371608e-04
1.531260954011317210e-03
-1.472740668665745059e-06
2.433360841953675913e-03
1.692109864828167214e-03
1.189458147486529074e-03
6.192036160465697959e-04
-9.819038062367036000e-04
-1.699075210494757941e-04
3.423820384461316677e-03
5.447129312746183324e-03
1.471874713764612921e-03
1.735364990634706084e-03
3.046425037118230972e-03
-2.100580365278403340e-03
-8.435180701954791190e-04
2.864798950194915803e-03
2.308697522335108505e-03
6.949419653620589809e-04
-1.874500064933774367e-03
6.095703151329779062e-04
2.123925948973519155e-03
2.541237800103234002e-04
2.156366701313557847e-03
1.643078674889790827e-03
1.984871964716398594e-04
1.777588586348838708e-03
2.844337998858371616e-03
2.746412569992509839e-04
-1.893483571329345871e-03
2.255217879218686904e-03
-3.586128465297639995e-04
-3.293554287556765478e-03
2.983833610547256387e-03
-3.685771916645719953e-04
-3.039588624189425159e-03
-2.004282151230630908e-03
-5.288626224974882738e-03
-1.605765551008161941e-03
-3.899715757365644370e-03
-2.010355973426504027e-03
7.557921597882116100e-05
-2.313108168591775787e-02
-2.161545957041047239e-02
3.904638579716629507e-03
4.459818485750738186e-03
4.208208074921400421e-03
6.707075640423190016e-03
2.956234707463620964e-03
3.440049252386056210e-03
-1.216707366523232152e-03
-1.930584540884500763e-03
3.612150608799123263e-03
4.954684380627439287e-03
4.931348177121972799e-03
1.866321083414757519e-03
2.174401876446953926e-03
4.838390801122137083e-03
4.736536953263564831e-03
3.870026834374807462e-03
-2.589101756919322261e-03
-3.179866524028637266e-03
3.903028189149942463e-03
3.598742029403919664e-03
1.071212361803211078e-03
-1.569309273863008945e-03
-3.280325146355504273e-03
2.297990332347510378e-04
-1.007107028530130656e-03
-3.738969852954437956e-03
1.365319070478373392e-03
4.248103144431965988e-03
1.499683013982281831e-03
1.145903216024425544e-03
4.716758553012376167e-04
-2.254648353377831926e-03
-6.519770590313917358e-04
2.227062429245261002e-03
1.141436952220797234e-03
1.087146658985831441e-05
4.745436519689617144e-05
2.366943993058341872e-04
1.559298984949510601e-03
8.262606590302683934e-04
-1.668295878229348380e-03
-1.928240628040370696e-03
-2.442408312257600932e-03
-3.923586643143200763e-03
-5.280984960283728255e-03
-3.283177295256689294e-03
1.664646613733177655e-03
-3.237328980293910970e-03
-5.517632115189734232e-03
1.701855501227719433e-03
-7.876389471863219638e-03
-1.225519064405925646e-02
3.699698424769120447e-03
3.994321130087387373e-03
5.727946290688062199e-04
6.035201902040129678e-03
2.068123166406202890e-03
-4.686222828060627749e-04
2.865989385640683659e-04
-1.085879690100003282e-03
2.615818415481103304e-03
4.839896280771611471e-03
2.127195955898426513e-03
1.008814462001078258e-03
2.956208017709539664e-03
2.861507584839482945e-03
1.085884360842824005e-03
2.705591330887316490e-03
3.488222638090633307e-03
2.517169490256974864e-03
6.088784257196137297e-04
-1.585779699043416303e-03
4.547374739853549596e-04
-3.445602261762733967e-04
-2.481472111244158174e-03
1.244998147485314090e-03
1.206307110775296483e-03
-1.351349847716807294e-03
-3.313708833868510219e-04
-1.367875001410643037e-03
-2.155579261258984414e-03
8.042110289761523036e-04
9.418243112175065865e-04
-2.944834333396548990e-03
-3.434234964873365218e-03
-1.946223933292116079e-03
-2.409786823071042444e-03
-2.833203639839354174e-05
2.855393373010588903e-03
2.159947059618428852e-03
8.036072428216731883e-05
-2.711581970455858703e-03
-2.147762798163256083e-03
8.057394464811060792e-04
1.674264987406145740e-03
2.069982512119521428e-03
6.387444920955955095e-04
7.031982063370178235e-05
1.690846270157957175e-03
1.124049528027547045e-03
2.025645190118287829e-03
2.614439234438865108e-03
7.640471689432451474e-04
-1.440695109900749798e-05
-3.351272345893181043e-03
-4.732340377873371293e-03
-2.327469980398690162e-03
-2.616252578212082281e-03
-2.085330284088885485e-03
-6.359922524788875608e-04
1.186687355351783661e-03
1.440815336247351706e-04
-4.689462856873657243e-03
-2.647964538438045932e-03
-1.121455702616454624e-05
3.302592349708966240e-03
9.820072078147208325e-03
4.225503567027214490e-03
1.118889708626443196e-03
4.902716696060224755e-03
-1.023795804103709703e-03
-4.336464767467705650e-03
-5.115491257959965676e-03
-6.684060865062254816e-03
-1.487732901522931033e-03
2.744150561550419334e-03
2.158311942388076426e-03
-3.192510307671459456e-03
-4.287721082174409185e-03
6.656629588448192145e-04
-6.941461157266940471e-04
-5.885371591524660064e-05
2.766234025751553895e-03
2.857327986088599881e-03
6.286208161197746717e-03
5.745691340457239477e-03
1.836579596176462006e-03
-6.170777249152819372e-04
-1.590184610521209237e-03
-2.518101533273026668e-04
9.677998762486435041e-04
5.793337944953851244e-03
5.557205075602017659e-03
-9.761473368972809232e-04
-1.035538830455760492e-03
-2.868412604571789638e-03
-2.512166351183245817e-03
5.163138943431132104e-03
5.835611579376885974e-03
2.626164174835429396e-03
5.601218979302033385e-03
1.040864378448164151e-02
4.829223106523949927e-03
-3.312036668068247831e-03
-1.091473940324346088e-02
-3.353201642369789404e-02
-3.761872377826568081e-02
-8.874976461096755961e-03
6.446243937826372054e-03
7.081751016351512003e-03
7.183311652395716826e-03
3.929793071655621542e-03
4.985022564491038526e-03
3.884026967356860906e-03
6.997627605054209396e-04
6.579671971749860527e-04
5.521892600343221132e-04
2.948578741404655427e-03
1.378703148936340260e-03
-2.893989580969099783e-04
6.089408291889700058e-03
6.950697763963505776e-03
1.863066430091885745e-03
7.806100381929217480e-04
7.209482449097660882e-04
1.032304467261146389e-03
2.952570924576572269e-03
3.564771704393157083e-03
2.811612310851537445e-03
8.764640458785641613e-04
-2.848552190199303644e-03
-4.160969222361434426e-03
-1.720701358006344666e-03
3.177451925156079215e-04
9.104009611076222105e-05
-2.791680926346158578e-03
-4.955269431825847642e-03
-4.401685886428979497e-03
-3.776659924211693640e-03
-2.370994437858895375e-03
7.260780560151322126e-04
5.198404450645126469e-03
6.015635676986642172e-03
9.383283228118886486e-04
3.414805126060580409e-04
2.956249517869470166e-03
1.045188495785656299e-03
-2.338776251687260969e-04
-8.828257528051670043e-04
-3.000510523869915399e-03
-2.031905366872934025e-03
1.746769045692587747e-03
2.097856470827550498e-03
-1.882591431800394134e-03
-2.675570866750067063e-03
-5.993147252388715497e-04
-1.926624984291390463e-04
-2.846698846024357712e-04
-1.587751332542828003e-03
-2.363609275774925108e-05
1.222644677830655698e-03
-7.093715016709647124e-03
-8.507373940795410691e-03
4.000018713792324876e-03
8.473396684739724349e-03
3.416892051327187225e-03
1.496966259253266172e-03
1.092297725954179902e-03
7.205071213486188755e-04
1.551527348804151388e-03
1.492247964480153443e-03
4.457060870192788046e-04
-2.701496207460165645e-03
-5.437094990050855489e-03
-2.409188192755226318e-03
2.554600558188344691e-04
2.746642387136273003e-05
6.341948838158509424e-04
-8.188210133137358146e-04
1.333181620844209282e-03
5.281938888161921523e-03
-6.193373840065780241e-04
-4.030850145063711795e-03
9.723621045434246426e-04
1.156671589656426509e-03
-1.210138295172876518e-03
-1.231480467482502002e-03
-6.263546865551814944e-04
1.267095891626585482e-03
1.303386588202753559e-03
-5.082068336451287102e-04
4.821494551237159713e-04
1.749616040929473631e-03
-1.779899711594286793e-04
-1.474549120302121909e-03
6.188066705857617894e-05
5.641127632687180544e-04
-1.265674931584783542e-03
3.714525231994209422e-04
5.642439780313267955e-03
3.068956145589833880e-03
-5.164489157334535563e-03
-5.086860653380747416e-03
6.530201983587635836e-04
3.256063680336975137e-03
1.156066089029713371e-03
1.131029355088429881e-04
4.100754501918886519e-03
4.425172654819693914e-03
5.255764026427778811e-04
-1.645465463484770347e-03
-2.563917548838607133e-03
-1.294715548919383574e-03
-1.282933789138681474e-03
-2.416394690484513410e-03
-2.364795072743917058e-03
-3.415402628478354102e-03
-1.479873459839413982e-03
1.278309629807320488e-03
7.433980012569674440e-04
1.016919876461013601e-03
2.170607877143723718e-03
2.191432226031709077e-03
-2.872280088172969581e-05
-8.292202128596088241e-04
-1.375512093229803610e-03
-5.876537902978658245e-03
-4.462573789719298696e-03
1.191015735276049160e-03
2.077529521157305079e-03
3.285652946360848210e-03
4.253670123139695683e-03
2.940822468920275493e-03
2.505528395708958578e-03
2.570314957398839653e-03
-2.883554672369284210e-05
-3.270199926728105388e-03
-8.115476575678173907e-04
8.609927846570797480e-04
-1.385171707990844265e-03
9.053283806141714494e-05
2.077305209192883279e-03
4.287681608097973886e-04
-2.136043315766590189e-03
-3.154732386632439867e-05
2.934393291212952174e-03
-2.348651864272812383e-03
-4.615166146617779089e-03
5.901577432698074718e-04
3.640648128743161332e-03
4.458928513953575902e-03
-8.213896376750848879e-04
-6.216249168736462383e-03
-1.266402878072143664e-03
2.226490907911134534e-03
-3.370618316699914912e-04
-2.104083840401351890e-03
-2.550398774082073775e-03
8.419172430087075269e-05
3.083898711881867972e-03
3.034075912967713808e-03
2.358011668196900289e-03
-4.668608469340706038e-04
-2.423155059626839677e-03
-5.313692444161722660e-04
-2.846120348476566773e-03
-4.778628535618121079e-03
4.841544926893066566e-04
3.037257443889266727e-03
2.301700563003931076e-03
1.562163733363055272e-03
1.215941626707706244e-03
3.767268891720813341e-03
1.115425770678701379e-03
-4.691755003074507373e-03
-5.276643055993826895e-03
-3.422471403906654497e-03
-2.059786576121588452e-05
-1.061679855344434655e-03
-2.547791369160719559e-03
1.945554297148332796e-03
2.878427813399609520e-04
-9.628147353615769573e-04
4.766297871780419623e-03
5.658522546314959448e-03
2.628740120320922132e-03
-4.666260121655686158e-04
4.753204267609390833e-04
3.347855672779727603e-03
3.253269914785271444e-03
7.067658002366012868e-03
5.104400044294582148e-03
-4.547776778005385712e-03
-5.644824169066470568e-03
-3.876775235384015937e-03
-2.264376880566680572e-03
-2.975924929221227216e-04
-2.304735750941034212e-03
-7.050417409960365580e-04
4.175320413447988679e-04
-3.685992597062331348e-04
2.147091582544103944e-03
3.305292152396964011e-03
7.767675961699693765e-03
8.155272535738906231e-03
1.532804214158747834e-03
-4.345053252403431251e-03
-2.536197441005066250e-02
-3.539720910878001864e-02
-8.875839837925626405e-03
8.126750451824246713e-03
8.560649972349681711e-03
1.179870833917840908e-02
6.707277812369080196e-03
3.393792152913824908e-03
2.502622771927641519e-03
-2.447146468325343653e-03
1.331688820945673129e-03
5.416951576746934643e-03
2.524083473974825850e-03
3.452598860532380461e-04
-1.066566874057826083e-06
5.894218756236752586e-04
7.919609477376874014e-05
1.161358272288782372e-03
2.223314222406935856e-03
-3.063805976275242138e-04
-2.765167569690457476e-04
2.231715254544857984e-06
-1.909999420051791642e-03
2.203689115555085678e-04
4.970505037442316670e-03
3.466334423548025380e-03
-2.841955257938653685e-03
-1.499296640706462716e-03
3.738928540721511273e-04
-4.476632691140041385e-03
-2.797766780943868308e-03
5.660761305995347869e-05
-1.984918760399721066e-03
-1.978349285101866555e-04
1.566118246271645895e-03
2.391906849347869880e-03
3.924594088935425863e-03
2.822157817641128032e-03
5.659624334196845146e-04
-1.951949860232497997e-03
-1.191342693197547072e-03
1.751729731936313471e-03
1.781098885776474143e-03
4.415794569140918434e-04
-1.663616504303412538e-03
-8.332800256609251442e-04
-4.044447248230889245e-04
-3.624264128609377359e-03
1.670221955148234484e-04
1.839607247146435092e-03
-2.787996328023881979e-03
-1.985236079747412807e-04
-5.016214263527568433e-03
-1.482810876754315707e-02
-6.805866266688254639e-03
2.168921100330904912e-03
7.085559567619873801e-04
1.998468556498127300e-03
2.989727282057852518e-03
-4.309034305334426143e-04
-6.609910293117240423e-04
2.788110252080055074e-03
1.972326541834344693e-03
-2.942883707822380006e-04
3.074881341676921360e-03
4.943914648344929601e-03
3.848855245462526591e-03
4.259054061326623432e-03
5.767176936463885113e-04
-3.977107148404488909e-03
-8.963222233900595580e-04
4.310214375538496713e-03
6.157068797502325379e-03
5.629043750825428113e-03
1.301703637433084589e-03
-1.796985750269467288e-03
1.664843202638647233e-03
4.013611614442180557e-03
3.399192493593059753e-03
2.201094978451251238e-03
-2.211183500387813462e-03
-4.412902494260358133e-03
-4.799939864194943499e-03
-6.258686697254095890e-03
-3.563781459613607830e-03
-3.932404293229337100e-03
-7.754187360425882775e-03
-5.650225582786956753e-03
-3.264024451254268246e-03
-1.346073803458713554e-04
4.874502699638154010e-03
3.856229656895420951e-03
7.883691217407893517e-04
1.712416305124278408e-04
1.037449145036315173e-03
1.432836886788391682e-03
-1.492742682332838479e-03
-3.456741982857994798e-03
-2.328701911151765877e-03
1.898095978476462920e-04
2.065588056522340340e-03
2.055141634080881029e-03
4.373883785143465285e-03
4.217420511350938525e-03
5.046284818806443494e-04
3.365671414126447311e-03
3.961147809020684578e-03
-2.619681392972552942e-03
-2.708790124194724799e-03
1.116178844236018338e-03
8.808641316362607852e-04
1.944328525008842819e-04
6.950348859184831861e-04
1.803009021448269975e-03
1.063146132305883753e-03
-1.769965866400041200e-03
-7.438217184662162954e-04
-3.907786827719951424e-05
-3.096676036558957280e-03
-3.293949521400559645e-05
2.224301077442003907e-03
-3.673733821154693061e-03
-2.031562718404658456e-03
2.948611809307184924e-03
-1.277714437920051673e-03
-3.027997710855315737e-03
7.903986523099523548e-04
1.421734632986596317e-03
-2.382571541092423899e-03
-4.697360458950800358e-03
1.137729544731010410e-04
2.485831835303886801e-03
-8.625763510491832016e-04
5.597672248723048818e-04
1.679157296785469596e-03
-9.486050342721586131e-04
-1.162082057757246297e-03
-7.871113648280317777e-04
1.689306099844357836e-03
3.466840159757381915e-03
-1.554638907934132071e-03
-2.212244960726924160e-03
4.819672345871744978e-03
7.271366324237768172e-03
4.677917395586789207e-03
2.131633126426132549e-03
1.098412803033763156e-04
-2.055141883407137285e-03
-3.125440184991507084e-03
-1.718621172533902350e-03
-4.959219474927873891e-03
-9.474402070767688408e-03
-3.398331782583978184e-03
2.912195733476466430e-03
8.763752823347625408e-04
-5.284179910116123917e-04
1.316724453330629348e-03
2.677835763243772808e-03
9.413571084561199323e-05
-2.681780436402086704e-03
3.557726354521434549e-04
4.159346485410082318e-03
5.951414254042373432e-03
4.999765259028695827e-03
-3.598309565645131484e-04
-1.606306161590674055e-03
1.148624730207367878e-03
-8.640835383631648940e-04
-2.687217058233200805e-03
-1.317082400264838653e-03
-1.334933964332955889e-03
-2.262276668270623322e-04
7.841204834754833021e-04
-9.808030041518183556e-04
7.850952756594986766e-04
1.703875930207236419e-03
-4.452059220213416477e-03
-4.624939311862220730e-03
3.243057361774457107e-04
-2.968124497383159768e-03
-5.479603804542470397e-03
-4.616676525562636926e-03
-5.685596245233024218e-03
1.411505576519787386e-03
8.299529811216038722e-03
5.087710796509500345e-03
3.278391926397123800e-03
-5.971631853668755508e-05
-3.872240284294027439e-03
-1.002517579544349871e-03
6.286071940970198091e-04
5.075263792448850460e-03
9.449820153161932190e-03
5.001398736933909510e-03
4.377732623072682488e-03
6.077723090420947792e-03
3.658676818592442558e-03
2.506950999217978301e-03
-7.262915732714989589e-05
-2.868475272217846025e-03
-3.324986545231979184e-03
-1.602885199304922466e-03
1.843966026274471799e-03
4.989451478178673523e-03
3.424512025568256061e-03
-1.567060601559702379e-02
-3.114665069218870361e-02
-1.619638385946140999e-02
-3.262562320775219422e-04
5.691640517123847630e-03
1.318043070245192294e-02
1.007901714562937576e-02
4.321845726812266995e-03
7.410725053656726583e-04
-7.495161742688679837e-03
-9.040588108833652603e-03
-3.596508466035780276e-03
1.518073767022727442e-03
3.553772491619847009e-03
1.563178273524191714e-03
2.024540842831414490e-03
4.710414292503897413e-03
5.463347593448782645e-03
4.368382376466949275e-03
2.287279925128844760e-03
1.458828769572594357e-03
1.406672648743129616e-03
1.788225657979878322e-03
9.020475989000402428e-04
-2.513283715859944076e-03
-2.217385608074416443e-03
1.812504016539482829e-03
2.314578589543259558e-03
-1.000058660430241161e-03
-3.078762549274425935e-03
-2.834842041944376102e-03
-3.150026334906584451e-03
-2.811808494982710478e-03
-1.860903223300509283e-03
-1.853772704953757754e-03
-2.851665259885617881e-04
-8.087489400712754651e-04
-2.569744520911640753e-03
1.097370716629653261e-03
4.315011975352486817e-03
5.221118429501888335e-03
5.741784479334221397e-03
2.679793938535413207e-03
1.445855453116801255e-03
3.108072952373028448e-03
3.274191738753550168e-03
1.110163487094478199e-03
-2.072338883150947730e-03
6.051704013208926772e-04
1.755564681799793528e-03
-4.557225093019394088e-03
-6.170964339880369645e-03
-5.089957957901737953e-03
-6.565994638690916471e-03
-9.914851569330220687e-03
-1.019892629290307905e-02
-1.081561655456624504e-03
1.675647064804056813e-03
-8.601436376166756662e-04
3.963233282578221273e-03
4.437184394557204016e-03
4.064820668046002436e-03
5.269859431541711221e-03
3.078641180577680429e-03
3.634743118134057399e-03
2.161593018320313864e-03
2.372125809153538111e-03
1.395844936099953663e-03
-4.170056617751453400e-03
-6.213714772176177556e-05
-1.720650767840023986e-03
-6.348560911813462028e-03
