-2.726782435780190222e-02
-4.594599233911338121e-02
-3.679447892188428965e-02
-4.303346818194316720e-02
-1.875813656588026443e-02
7.107795825011001224e-04
7.194062542495053419e-03
2.131802174147411078e-02
2.186088677069144073e-02
2.955495076318946646e-02
3.946732442788901396e-02
3.639612501687300439e-02
3.998368043801067695e-02
3.673501780830406432e-02
2.034709791025233680e-02
3.035279219350948098e-03
-1.262851356740440564e-02
-2.185554670773027369e-02
-2.499808448474157702e-02
-2.032406903744944648e-02
-1.654848755219248679e-02
-2.115416670173531771e-02
-2.189170209589754584e-02
-2.044107512329194909e-02
-1.478761708396347796e-02
-3.461695657280566439e-04
6.810034648317191130e-03
1.029355790605471395e-02
1.526429635818427402e-02
1.527293290450582562e-02
1.884840833720019190e-02
1.202952621259292462e-02
-4.913615509744249932e-03
-8.236865124936869342e-04
4.469777103234158500e-03
-1.111610256651602603e-03
3.167873731705853763e-03
2.285214368053440845e-03
-2.298847384200608090e-03
-2.194110361118902994e-03
-1.080721728950385062e-02
-1.365729940629056664e-02
-1.051955535711455135e-02
-1.312397672883089741e-02
-7.586972565274974385e-03
3.345299229019569730e-03
9.582425688555867155e-03
8.797614211352354496e-03
2.543004984826510023e-03
2.112950899974699957e-03
3.704454458144007360e-03
1.619428235154329399e-03
1.609591898183781317e-03
1.075696614225208790e-03
-1.431592688813447772e-04
-2.096810337842351917e-03
-6.184904973113648438e-03
-2.109651705321898690e-03
5.419859811613850741e-03
3.252164349692161175e-03
2.157246815349918041e-03
3.220273742078038400e-03
-3.888172116840934566e-03
-6.541244424392014464e-03
-7.382990288007445449e-04
4.036847660216593726e-03
6.407853059997047074e-03
3.403063705900831286e-03
-1.512918369870247526e-03
-2.885400038956805434e-03
-3.566115315039941527e-03
-1.871619687738070633e-03
4.009282859295519585e-03
5.360304639413020558e-03
-1.888104743723853160e-03
-2.722103965860748175e-03
3.878937999549743592e-03
3.555455520779484541e-03
5.466374576339077564e-03
7.612509264171872687e-03
-2.812203663222050728e-03
-9.112514120878933976e-03
-6.970489562758635550e-03
-6.868944774224891754e-03
-4.239508535761852756e-03
4.586408031169400979e-04
2.468501035159408486e-03
1.892054487968685209e-03
-4.493045772042668926e-04
-2.985983765256618270e-03
-1.530393458596738176e-03
3.328473215945248857e-03
2.371484331923982749e-03
-4.991874112976520811e-04
-9.248542378555740687e-05
-2.532847087060662028e-03
-4.119748438944170407e-03
-1.855897181369072554e-03
3.285151932904061337e-03
7.587243939259600244e-03
5.944010558090970578e-03
3.556194986915939531e-03
-3.103462513265976136e-03
-7.291573785599576689e-03
2.109120704243439524e-03
5.942461197877045923e-03
2.603383745620922556e-03
5.993127896947664582e-04
-2.249629203793021906e-03
2.092183744296886340e-03
8.833721905980305208e-04
-7.158074335792260698e-03
-2.893718781373995873e-03
-2.023388110212625580e-04
-4.413705270064590888e-03
-3.911588529275979512e-03
-1.648351161709435062e-03
1.894365356821657576e-03
5.133575916759769257e-03
5.127895496930772075e-03
3.202611343080420583e-03
6.264392252118605644e-04
-2.861749799950060857e-03
-6.010836454668469844e-03
-1.683218016506887217e-03
3.520348569224913265e-03
1.902022638408268481e-03
1.234189918366891551e-03
-7.631106540432309277e-04
-3.722616016953377276e-03
-2.515842204359743876e-03
-1.470361780585971185e-03
4.799283090672012107e-05
-4.103659340509987021e-04
-3.333277441242742372e-03
-4.155455340567627658e-03
-5.126070853651336183e-03
-9.816242705961522076e-04
6.855307674610293563e-03
7.317323920906875639e-03
4.476808615154730629e-03
3.909590222515269345e-03
3.523563480933237201e-03
-7.514910909061070423e-04
-5.173024961468347671e-03
1.269427564169295537e-03
8.579781907351707523e-03
4.422848493748193430e-03
1.466092894586677742e-04
-1.245720782471785573e-03
-4.631754088405053323e-03
-2.112814650474356421e-03
3.614979945968144898e-03
-9.301823097419134254e-04
-8.046230002538281786e-03
-4.808471717312627625e-03
-1.187905417701169610e-03
-2.056534344678182750e-03
3.189040604757127379e-03
6.527998412919030699e-03
-7.045174046548658125e-04
-2.434795709712271605e-03
7.383664815750988746e-04
-2.654736364072456199e-03
-1.774572857095768792e-04
5.994764574103183911e-03
3.917518038714723309e-03
2.130910193215557885e-03
-2.976885538266236565e-03
-1.013185463345499769e-02
-6.853546130654395580e-03
-4.641281753816932192e-03
-3.244121062901645682e-03
2.483232143879640988e-03
1.968020368115206732e-03
2.472290291244584257e-03
1.970205086769824879e-04
-6.304499354153529286e-03
1.932084479778578123e-03
8.420011550355727820e-03
4.445791445604183045e-03
5.157487374924270979e-03
1.143870210042534320e-03
-4.582961869555201261e-03
-1.997936804371371663e-03
2.144727601390989009e-03
4.271390728575004923e-03
1.510101092434554607e-03
-1.216284772763265472e-03
-1.685985446166361973e-03
-1.905975212246141526e-03
6.777572033608975349e-04
-1.050857428490909080e-03
-1.496438330042684697e-03
3.413346976994844663e-03
1.765216789977984294e-03
-1.160910736930434450e-03
-5.627620079400958092e-04
4.828298408193424339e-03
1.179015523778764035e-02
6.651026298998987882e-03
-9.505384370325985991e-04
-2.569277838295296480e-03
-3.267563348638923525e-03
-1.043614471977134892e-03
7.472292762121732212e-04
3.913796126030395089e-03
5.019984344009392925e-03
-3.837819324284171257e-03
-8.228055947550385121e-03
-2.127380108116169125e-03
3.191702194059961063e-04
-4.292702982824199431e-03
-4.943082260173808397e-03
-9.357552520952621203e-03
-2.716396641206856796e-02
-2.430907430166664648e-02
4.359831481341910550e-03
1.581714709289996912e-02
1.099729343562828171e-02
8.213685476760785448e-03
4.583529560246686965e-03
2.005390124758252898e-03
-1.077060245786348432e-03
-2.657943325104882536e-03
2.375777716861616866e-03
5.763222930860309977e-03
5.208961372504853152e-03
4.272624738601637356e-03
1.465495268877008584e-03
2.222344895428345415e-03
4.376606337641504932e-03
1.215682119136638102e-03
3.010373630515275189e-03
4.176165807965880744e-03
-2.888457232330872079e-03
-4.014426666158817103e-03
-4.274823885908506788e-03
-3.453999436489332223e-03
2.433341113050243101e-03
-2.456410712592979433e-03
-4.662832915227511400e-03
1.150876330342098406e-05
-3.134169728566128452e-03
9.749632418711750214e-04
5.888886782359027683e-03
2.035617277344569168e-03
3.242396779634890754e-03
-4.679545337500686376e-04
-6.442186786192740169e-03
-1.105941949391228219e-03
6.580546871966677733e-04
-1.313349450262360930e-03
3.158496374704813838e-03
2.878342833788286557e-03
-3.318188009449124336e-03
-4.679231586403582652e-03
-2.856642314723613438e-03
8.542077660138400891e-04
7.333454235865288773e-03
9.931008764163241215e-03
5.180221917789465565e-03
-1.997468180994305554e-03
-5.315649561832370973e-03
-5.298748089146010712e-03
-2.333605733409632385e-03
2.277920285385991433e-03
-1.695493455581209867e-03
-7.515983751093425688e-03
-3.841406030664230604e-03
-2.859799264331202868e-03
-5.894644527721489002e-03
-3.577072198692195660e-03
-1.380657747350342831e-03
-2.170482860213228393e-03
-1.161698490913544045e-03
9.526203846167707748e-04
1.740988019577554592e-03
4.486374873549508341e-03
7.373637343663925169e-03
6.602813944025578974e-03
5.600228688633392127e-03
3.976550497474454346e-04
-6.605963174917329171e-03
-2.214494910906784474e-03
6.419880088592165926e-03
6.060663566847345092e-03
6.201004246953714834e-04
-2.421338079445007306e-03
-3.635093543073263274e-03
-3.281822903075109262e-03
-1.191782323217738010e-04
7.760619902563120447e-04
2.164091779752487336e-03
5.012552535506031859e-03
4.744758174532001009e-04
-3.503040097592982106e-03
-2.183245328688633059e-03
-2.656565123010518926e-03
-4.346884850692990954e-04
2.848177182775412340e-03
3.212058074356194653e-03
4.636073318574546187e-03
1.910798818865971352e-03
-2.357852330704469142e-03
2.542118090723631627e-03
6.283916124325598929e-03
2.002455554465454660e-03
8.137767130468743625e-04
-1.005830583143032435e-03
-5.780214702637420134e-03
-5.414823848109216568e-03
-6.907112398575705400e-03
-7.920482081950511871e-03
-4.772965053310937802e-03
-6.513286697678864409e-03
-4.422382191232862754e-03
-8.273794872590287466e-04
-3.443339694550998000e-03
2.439247064304868578e-03
8.329242743636966831e-03
5.407055266702883757e-03
5.793211230568423228e-03
1.357820216285607080e-03
-5.222682913182632135e-03
-1.293329797915031753e-03
1.730479777750830363e-03
3.012938480112365390e-03
5.724894101653829788e-03
1.882760355286943561e-03
-5.639483972758372156e-04
1.103551526875690136e-03
-1.694497066935843040e-03
-2.780095316886269617e-03
-1.044389790361700517e-03
-1.591954896937411955e-03
-7.298918185583878285e-04
-4.615256512147851778e-05
1.294175326340375135e-04
9.216420693103090887e-04
2.676877982394536629e-07
2.280405711863537840e-03
4.370216662008351467e-03
7.537480268230461111e-04
-5.250297950526710417e-04
2.388329789025550858e-03
4.297042619031536149e-03
2.130133069835688647e-03
-4.033747981045605934e-05
1.599141372976167633e-03
-1.446556260359062318e-03
-5.813764384663134589e-03
-4.027087059603083261e-03
-2.659475835276836533e-03
9.802499643226238006e-04
5.083654091702500578e-03
1.854288057290640491e-04
-4.747308443589933445e-03
-2.185053154612244617e-03
3.135027043202327432e-03
6.644282178572166221e-03
4.046521595388207458e-03
-2.088578004664400599e-03
-5.240388234575873820e-03
-6.836880229343487818e-03
-6.326251017365324206e-03
-3.094163826525732222e-04
1.309655039252045254e-03
-3.283793482335472906e-03
-3.345630318080474765e-03
-1.560752489948232262e-03
-6.790386289007518689e-04
-3.129647229225358904e-03
-6.828116405059462928e-03
-1.047526327129135642e-03
1.590737846947015829e-03
-6.277934627922485047e-04
5.428018745222450321e-03
7.616245208745592646e-03
9.013370198460907146e-03
1.233153342418249511e-02
4.272437939341725520e-03
-1.384122878952393290e-03
-7.159977132451143464e-04
-2.070911879012976922e-03
2.074594548078009543e-03
5.052272110975749436e-03
1.314628312140295142e-03
-4.711275585512890462e-04
-2.260955880679438919e-03
-6.327584779818869881e-03
-6.996449054476019253e-03
-4.605857874488118731e-03
-1.977637803470415605e-03
-2.662914519278057406e-05
-9.304404464639202390e-04
-2.183040716627803780e-03
-3.067993460606531411e-03
-1.981441255931016415e-03
4.687926790922053791e-03
5.993718445610029220e-03
2.343291161038795097e-03
3.055009074513743723e-03
7.586788206564056133e-04
-4.666819781161938197e-04
2.645176028406544862e-03
4.295737164924536694e-03
6.880995014367724018e-03
3.188574929562139944e-03
-3.989420099799221436e-03
-2.058458675978412124e-03
7.029491727496061998e-04
-3.112617304398568666e-03
-5.464957411760598162e-03
-2.403398119038731295e-03
-2.730785536812220873e-03
-5.860727194074966638e-03
-4.352723608880688239e-03
1.067552030326762410e-03
5.296898305662726437e-03
-1.072573874047798130e-02
-2.789363405419916994e-02
-7.083485660437873269e-03
1.224896549147525514e-02
5.616426552019604390e-03
6.209532294230642700e-03
9.979275859195854345e-03
8.089953942750374716e-03
3.135583450423662290e-03
-2.671844006148949881e-03
1.856250989950785236e-03
3.898963323098402715e-03
3.482214436898129297e-04
2.685960174354514590e-03
1.241725213747404055e-03
-1.329409473552425718e-03
-1.600994502954140473e-03
-4.666241506025933621e-03
-1.030812651448148988e-03
6.280082949023208308e-03
6.254619002292239639e-03
3.300097216926255704e-03
2.491545184562133329e-03
8.500518319923570584e-04
-2.314346335642063299e-03
-8.732327946099415839e-04
2.067647703983146231e-03
-2.002245413311307316e-04
-3.175974533610683662e-03
-5.465160514513392985e-03
-7.054254643335108529e-03
-7.272701914327849883e-03
-7.614991873503717049e-03
-3.278725968731637137e-03
-2.796194493675168238e-04
-2.756645058519485974e-03
-1.623991317262932590e-04
2.407086677310657334e-03
3.914364602886854193e-03
7.726457331273429638e-03
5.547257941027404320e-03
5.461357850410777405e-03
5.964222120806265959e-03
-1.380263424215317667e-03
-4.969644252024483372e-03
-5.060386747014248253e-03
-1.791477734369232829e-03
4.942798243828642156e-03
3.391098772164908345e-03
-2.389899239012109600e-03
-4.561377039788458258e-03
4.291393370104946373e-04
3.556972807744432797e-03
-6.356639896635552130e-03
-8.865165704600264790e-03
-9.427840995208890389e-04
7.466748493342011551e-05
-8.177383668365425162e-04
-1.724990790023776029e-03
1.254239157339966017e-04
4.352224803595034289e-03
2.410747468397217690e-03
3.386846086051811724e-03
5.357732011641880635e-03
1.870274507934928171e-03
2.042870808643967775e-03
2.034262065323238795e-03
1.330420745522260806e-03
2.074555480067049110e-03
-3.876200949894136223e-03
-3.654369480973055414e-03
5.440013199566073356e-03
1.973141664131815819e-03
-4.146235004183484139e-03
-1.557053036658975200e-03
-3.468693084133273822e-03
-6.246176827751048245e-03
-5.911179738118354544e-03
-4.786367800588982833e-03
1.534574865490623968e-03
4.859622657692967002e-03
2.172538710092584893e-03
8.914764978325739799e-05
-2.316214581139873670e-03
-3.910332519821735006e-03
-2.270262958940293813e-03
4.568350719254706677e-03
9.997639489129014206e-03
6.592985400414129796e-03
2.814251312259755198e-03
-8.486316356208396805e-04
-3.791420904710519381e-03
2.704305982689955397e-04
1.080659906482240923e-03
-6.022998423738491021e-04
1.657417707270216790e-03
-2.216732789636332353e-03
-8.482576241780984475e-03
-6.154673968858504103e-03
4.342120873982596458e-04
5.574642278220614394e-03
6.780319518897242811e-03
2.804349347642049513e-03
-9.989610603125574986e-04
-5.651401906154559281e-04
1.216461723047570446e-03
2.101831007997708584e-03
-1.554044029772235543e-03
-6.660646095275135972e-03
-5.705461587204281940e-03
-7.899914119373940488e-03
-1.083952311540350294e-02
-5.707851910046921832e-04
9.615686205229772437e-03
9.691090430522948315e-03
4.829295202308199648e-03
-2.907199030803461412e-03
-3.982664110634721345e-03
2.067949003072595154e-04
6.996133200671834484e-04
2.600039616445676358e-03
3.573936353870739782e-03
2.305916598923987964e-03
5.017400935472228311e-03
3.387881531961741289e-03
-1.511479372128788539e-03
9.008758617084333242e-04
1.807653304980137276e-03
-2.407727021359838942e-03
-3.640948671167791237e-03
-2.762321426781027926e-03
-2.094362617671219513e-03
-2.517622894120707770e-03
-1.936821278056826074e-03
1.635654293458446186e-03
3.306676666771545241e-03
-3.923091502183151912e-04
-9.270381924522595046e-03
-1.076709994562288948e-02
1.327833903642609142e-03
6.996462437011695228e-03
3.615317457459318960e-03
4.249052035445095334e-03
4.204875199890475111e-03
-2.174823892015195802e-04
-3.538511919762087933e-03
9.846284883197708830e-04
6.443377182328477101e-03
1.128322248582920486e-03
-4.897811115146233005e-03
-5.150257129288882650e-03
-3.178467649231409443e-03
4.995564053365069389e-04
1.632727583106019682e-03
2.537905407096728745e-03
3.060024360782029416e-03
-1.061769549851632492e-03
-5.029408388949151501e-03
-4.440049055841106644e-03
7.058353708605962819e-04
3.553406734138930476e-03
3.941784879540491046e-03
6.113258175148916090e-03
2.641900689549745405e-03
-1.653761629861766162e-03
7.956258073640395554e-04
2.590903517715719123e-03
7.498311572771537139e-05
-4.891321185475973679e-03
-5.020476029961961142e-03
-2.057371923604496382e-03
-3.742534666131884947e-03
-3.161580817504321822e-03
3.347701499881624828e-04
3.555930320261036989e-03
3.966694939156785969e-03
-3.087293548755214081e-03
-6.183765765648089989e-03
-3.560357288148333858e-03
-1.029824419440294059e-03
5.854780567063239648e-03
6.859431041784574100e-03
2.146780395326798249e-03
1.498623953337464669e-03
-1.599024358359220225e-03
-1.378610444957715370e-03
5.129965138311633199e-03
7.107080705264975755e-03
2.902655725092581109e-03
-4.218824432943500853e-03
-6.096886802042012811e-03
-3.557524712738833073e-03
-2.012370719574734304e-03
1.198460028972267444e-03
1.664509672083456810e-03
7.043166490063614265e-04
-1.684910930270791573e-03
-7.014610513526376920e-03
-5.016009020035055305e-03
-2.065269071305068840e-03
-8.532797629890889832e-04
3.644904563654261312e-03
5.093487436096261374e-03
5.957107417651585739e-03
-1.958238399857293276e-03
-1.225847927821077654e-02
-3.755216202081132233e-03
5.163691884001690192e-03
5.406528670311791171e-03
2.513793209839465959e-03
-2.418187572244904701e-03
5.878380123221112457e-04
-2.285539227941815656e-03
-8.698290548232895728e-03
-2.168155042195305578e-03
1.630915343782711425e-03
3.967741962964359942e-04
-7.563342396438448067e-04
-4.401476409222753209e-04
5.541639637773669060e-03
8.109685984065508058e-03
7.756799829213437483e-03
6.114192288473053669e-03
1.876593087282597784e-03
-5.169619573162392194e-04
-8.638954251343777292e-04
2.821670354595622043e-03
4.264955424628358478e-03
5.373731706604497650e-03
7.300466051321400501e-03
1.844927427356416860e-03
2.010722983460940232e-03
-6.548040184456784679e-03
-2.713494434981186809e-02
-1.744322544233690292e-02
2.475719623122072093e-03
6.196046971989618108e-05
-5.226811082699256775e-03
-4.876264313125843776e-03
5.489869598913527148e-04
6.505275877989839285e-03
6.850908552170189951e-03
6.502460837213328015e-03
4.107284641570076687e-03
-1.902291524665086515e-03
-4.239439002621406792e-03
2.326193298718340699e-03
5.999553967050787889e-03
2.240730630540469035e-03
3.176197978665249496e-03
4.391867250911670600e-04
-5.201824968156382178e-03
-9.133016632891609440e-04
4.870180915652442427e-04
-2.786828017018810714e-03
-3.755645469622751441e-03
-8.316883113484541817e-03
-1.202237259324110200e-02
-8.725130093050032301e-03
-2.302465414277300466e-03
3.502857595969802867e-03
6.164399725458842398e-03
1.976151419218491728e-03
-4.675788882776099782e-03
-4.489694567971149082e-03
1.015737303783342512e-03
1.012758065645209815e-02
1.755318213872287397e-02
1.397338734979052845e-02
7.989303131795522095e-03
7.243700698548338583e-03
9.447471060448207891e-03
1.036202962243340173e-02
-2.375791997781419155e-04
-1.389912814692304335e-02
-1.442930826060307391e-02
-8.311032192424783888e-03
1.904483710864635602e-03
1.407704608198482969e-02
1.142561487950295197e-02
-8.101223103229035841e-04
-7.232016643556946414e-03
-9.911475804425832689e-03
-9.661782650174500012e-03
-1.463932590539065819e-02
-2.333855308025731615e-02
-1.609990986734599269e-02
-7.739588334672629390e-03
-1.077154363208213811e-02
-8.906138243571636026e-03
-7.290402324551033264e-03
-5.283691326846154390e-03
3.494992619059499126e-03
7.398985634781112507e-03
1.243582670056374122e-02
1.964884380167599559e-02
1.685499725542290855e-02
1.233068394109488632e-02
1.199617103538542888e-02
9.027158696271389907e-03
6.516152784082935613e-03
1.526968411087252682e-02
2.363411131128487566e-02
1.258222344545498021e-02
2.247324890584779730e-03
4.891986972757361718e-03
-5.769049376865617975e-04
-7.643321803055012909e-03
-1.509839183956052881e-03
4.657022179916909740e-03
-3.226639246030658416e-03
-2.210678128347353180e-02
-3.384076715382850625e-02
-3.093187987050352236e-02
-1.947649517974254021e-02
-5.002921313388432843e-03
7.143251608425565339e-04
-1.092990826966250750e-03
-3.866572010504329155e-04
4.293755825870353236e-04
9.668646936700272393e-04
1.608116695959646396e-03
3.747491217104271122e-03
6.589162068876808741e-03
3.376599551096510967e-03
1.524819294787701151e-03
4.988362565461418666e-03
6.637521264416132612e-03
8.072253952514523573e-03
8.285876098977089724e-03
5.447010234220228675e-03
3.884791198111259020e-03
6.184831169449980098e-03
8.445940106638141764e-03
7.349670593884589931e-03
7.882884014089305835e-03
8.569876572295984617e-04
-1.953600071370244218e-02
-3.109243454481043153e-02
-2.436106355972358223e-02
-9.453332629757464980e-03
1.072607606017055275e-03
3.853938432190230114e-03
8.393109260469227076e-03
6.699770480798276050e-03
-7.119530746945304869e-03
-1.488231954637618364e-02
-5.732007293078883979e-03
1.009021268124674769e-02
1.378189355119454305e-02
8.538511990123561629e-03
7.368194814436282089e-03
9.710107954057932422e-03
1.172818178916523214e-02
3.258289107661832724e-03
-5.075927456834443581e-03
1.168000357820399597e-03
8.950824525100159121e-03
1.826697639351912775e-02
2.029325994157210253e-02
6.520222617936792878e-03
-2.219727407368267055e-03
-8.809074349716308067e-03
-1.493085732978615375e-02
-1.354516177391284354e-02
-1.436931960070909030e-02
-6.169655583891272589e-03
1.421352792925436280e-02
2.667434171930388800e-02
1.831258131146859189e-02
-9.521065359431956851e-03
-3.191252217140715802e-02
-3.303035427531161861e-02
-2.075130934679178876e-02
-1.018119769707099588e-02
-8.292882168637194171e-03
-3.590786263263536730e-03
-3.311751882836153071e-03
-1.045916740154419558e-02
-5.199640848520020904e-03
4.328596698673176264e-03
8.451032468257985153e-03
7.985065062806839115e-03
2.237502580737937927e-03
1.838364523827823449e-03
3.119598379206394052e-03
2.399756985319210188e-03
5.964626300716101108e-03
1.138206439554659277e-02
1.496032485474539653e-02
1.001718410371758676e-02
4.017348876771137910e-03
7.311972607138443603e-03
1.101614143576183993e-02
9.530441851577873061e-03
4.932895437756854712e-03
4.391877109852097665e-03
-9.340705694414028920e-05
-1.166958980102068659e-02
-4.097217017383943463e-03
8.828965090817160466e-03
4.894308567294136138e-03
3.959907833600383523e-03
6.110025338017985828e-03
2.989717284112395745e-03
-1.151874378092922202e-03
-6.562731552833777487e-03
-1.502570209660634634e-02
-2.569734367399434394e-02
-2.745658102380013968e-02
-2.419260631999144498e-02
-2.014544378581870424e-02
-6.920108888661388735e-03
1.745452605709278075e-03
5.397871689481227586e-03
1.130940324279619720e-02
1.024076265369321982e-02
8.550531902291477748e-03
9.131985576058269244e-03
1.090661134441112644e-02
1.545173122406579697e-02
1.636622340483225371e-02
9.406962055008209408e-03
-4.949378443697035647e-03
-6.981480203686664734e-03
4.237654182536809873e-03
1.037825501013579961e-02
1.893823377618200979e-02
1.729584335629794772e-02
1.031639843634221503e-03
-3.464999668957995192e-03
4.119408100762431135e-03
1.028628326989105592e-02
-1.065925365113974156e-02
-4.401280595518917288e-02
-3.714328052519093315e-02
-1.288543666386617048e-02
-3.435877732945979892e-03
1.939008492353196719e-03
4.372657902273043885e-03
9.077590046377519845e-03
8.406480592856504369e-03
-3.027258181850935037e-03
-1.002117894962647332e-02
-1.354718002733421890e-02
-1.271961621205822471e-02
-9.367883385866346280e-03
-9.906205488342796281e-03
2.781148560496518336e-05
1.667107628420187726e-02
1.914931892068185218e-02
1.658348126600792116e-02
2.073476447837879766e-02
1.728527297497484821e-02
3.431334126958363821e-03
-5.591470675345545406e-03
-5.520612139025685323e-03
-4.084713628348078662e-03
-1.104864261539887163e-02
-1.400767699063113630e-02
-3.062062993625380702e-04
8.038006626645622862e-03
3.547515081524340447e-03
-8.275980096900376450e-04
-2.788870397939334847e-03
-2.953028744543050380e-03
-1.591032675882023129e-03
8.320129059341959191e-03
1.637019268301839747e-02
1.077438617242141260e-02
7.381482936427368781e-03
-8.309604076188810851e-04
-8.953666447828599606e-03
2.464539799962938739e-03
-2.176838495749308742e-03
-2.470414353560813556e-02
-2.028710721128871089e-02
7.672720138474419058e-04
1.603136718420490950e-02
2.525480060626420636e-02
2.584465613034361495e-02
2.533862062159454240e-02
2.129674050985461489e-02
3.966294199354731057e-03
-1.796149762508159400e-02
-3.225995953742041844e-02
-1.923920910276124413e-02
1.755184051157373387e-02
3.339906481157933760e-02
2.399375704917540084e-02
1.690795772353232904e-02
8.123981830277375235e-03
-1.178593957548515828e-02
-3.563800613179014809e-02
-3.765573722742993068e-02
-1.051618316217691439e-02
9.498131054313270830e-03
-5.916453427781900518e-03
-4.372098890021325346e-02
-5.159032774480294681e-02
-3.150541988402268817e-02
-4.350083929220713991e-02
-5.680580809091850814e-02
-3.844529824864965223e-02
-1.342739231228799041e-02
3.193201344712522788e-02
6.048084229472706908e-02
3.222390337726473153e-02
-5.299314086409107581e-03
-2.204373704402808401e-02
-1.535789549511441116e-02
-1.288273218459556370e-02
-2.052648608598063931e-02
9.978869209209300511e-03
5.068443233427270128e-02
7.163098738008709387e-02
1.018245135895353981e-01
1.059024660736598705e-01
5.605617854947863438e-02
2.476629840336693963e-02
3.856581334999605731e-02
1.887087309221676182e-02
-3.229822882363547060e-02
-5.253130272044653770e-02
-5.999814837678164176e-02
-5.762342729461860519e-02
-3.583995156164815343e-02
-2.155480462554593482e-02
-1.051988171055064612e-02
1.664407926420784570e-02
5.512366564822673842e-02
7.790383600901330807e-02
9.448489702115613065e-02
9.197840825217590277e-02
3.250792731421452142e-02
-1.117287169353393516e-03
-5.199063300812135913e-03
-7.665056185685641121e-02
-1.717222569253181175e-01
-2.182003246336357560e-01
-1.808102075177462353e-01
-9.283630851881562174e-02
-7.994200129797823448e-03
1.028651848813812858e-01
1.678952944978289730e-01
1.301033645137985584e-01
5.354945302279747604e-02
-4.535989945859214556e-02
-1.267999720342670167e-01
-1.580713086750136775e-01
-1.584934235540476910e-01
-1.402470034596332571e-01
-8.138129770763564974e-02
4.880449990195961929e-02
1.306844144226294857e-01
9.371371623631055692e-02
4.097482835087709607e-02
3.030574633174613203e-02
9.114099934405137104e-02
1.548078133146604807e-01
1.527639822237815137e-01
1.632430361446322586e-01
1.685142263084795089e-01
1.167774066500299329e-01
2.999002135775612893e-02
-7.346608568567655762e-02
-1.446849126471572988e-01
-1.396707383230747501e-01
-6.927286926271165879e-02
6.780545532674255634e-04
6.436795436651024382e-02
1.090123718611635262e-01
4.601359892886055375e-02
-7.418113022863660755e-02
-1.971388694889914250e-01
-2.690659212479223350e-01
-1.969459367342965839e-01
-9.110543780086005627e-02
-6.179551816959403046e-03
6.005938790259190974e-02
8.374984733090623523e-02
1.640471908525352740e-01
1.887894280917335466e-01
1.018169562021316310e-01
7.959725313850175843e-02
6.656299155788089617e-02
3.828913710938107451e-02
4.089286417445967686e-02
3.427479683385325528e-03
-5.254836313002194531e-02
-1.046194015273074762e-01
-1.127385285485516392e-01
-3.308797919976747687e-02
4.887807184280963668e-02
5.532033736200565877e-02
-1.904959731514037705e-02
-8.158950160192766921e-02
-1.054554420189724034e-01
-1.587130366963412365e-01
-1.604187906852793943e-01
-9.754254049900340506e-02
-8.403692030486489828e-02
-9.731918440157069639e-02
-8.712454062305921565e-02
-6.039716854968937149e-02
2.113219440015085947e-03
1.263852244908052758e-01
2.461662518157104185e-01
2.403202232702035257e-01
1.468789356900899734e-01
9.584358131222894817e-02
8.250779513631027740e-02
5.965761408232356927e-02
4.248859766978774211e-02
2.409727095882872178e-02
1.071009255245269041e-02
3.700480275883218789e-02
6.302143432410460544e-02
5.731243477373444001e-02
4.101636152852055489e-02
9.864584341064118814e-03
-2.459899589972612544e-02
-5.254838922431976506e-02
-7.830989979839858561e-02
-8.333022140578519310e-02
-7.051284591503906296e-02
-6.519589453888244290e-02
-8.244374169720579404e-02
-9.545073006598965570e-02
-8.749369008809611270e-02
-7.814453687287230277e-02
-2.721383762029456338e-02
5.244011984574286495e-02
6.658146522584827698e-02
2.984871023328638032e-02
1.032162589467600089e-02
3.812980330118764111e-02
8.152551425325046952e-02
5.935686757725645857e-02
-1.553918061095805117e-02
-7.710546360723662118e-02
-1.019873738400153829e-01
-7.404677783923570289e-02
-1.345112022256233879e-02
2.739171612250338589e-02
1.277214573475899360e-02
-3.092755032115018787e-02
-1.880352714823275984e-02
3.828386994890543155e-02
4.284243000211755692e-02
4.978069257434118190e-03
-9.246425287205191010e-03
-2.728089047674580377e-03
7.950040700093483417e-03
2.434659798734895714e-02
5.677293887412716844e-02
7.809281037134306602e-02
2.722948772435946144e-02
-4.348330012129985461e-02
-5.937556694107883754e-02
-3.322186184090625966e-02
5.421445439805999689e-02
1.364614470510263633e-01
9.965524171614142945e-02
2.050016915538272616e-02
-2.606487972973218353e-02
-5.470119194466620260e-02
-3.819228267736594212e-02
1.900580210452963888e-03
9.281572573126237527e-03
-1.141551039594973331e-02
-3.405705254571706614e-02
-4.424212517860216798e-02
-3.846796018504752834e-02
-2.188805561953863568e-02
-9.745448246622342645e-03
-1.162638844408767861e-03
1.604917175172123484e-02
3.015298439267351596e-02
3.261500087560011835e-02
2.136087053367745694e-02
-3.688585210575860869e-03
-2.496339294980618254e-02
-3.288230508251398232e-02
-2.907529073892690941e-02
-1.897033358694441910e-02
-1.241472474822752012e-02
-8.320310436354593983e-03
-3.831843742758504583e-03
1.517899639257833805e-03
9.446000453777827349e-03
1.033480869373898034e-02
1.800913388436840758e-04
-6.867607128877403072e-03
-7.379432555557844525e-03
-6.441277234727004787e-03
-3.442229778903689152e-03
-3.606291924221850711e-03
-3.826942284839929698e-03
1.198708252939898996e-03
5.839624804106750659e-03
1.228636952338026979e-02
1.815694134178169258e-02
1.926534801367794925e-02
1.769923356737952702e-02
1.173550265646527285e-02
8.552074088674964727e-03
7.635136979562974838e-03
7.449297546020825465e-03
1.222703544600218031e-02
6.724596862244091450e-03
-2.712575849358397038e-03
-2.615081348527653789e-03
-6.643128209592904544e-03
-7.830772026766755212e-03
-3.605012166709992919e-03
-6.433370411392944771e-03
-7.811965653043757667e-03
-8.266386618234682765e-03
-9.351726874751817298e-03
-2.822442554810836689e-03
3.138028533056870951e-03
3.882876172861358856e-03
2.430699271337170321e-03
3.483988573991268290e-04
3.693934912954950959e-04
-8.551844608170610946e-04
3.256391497002910805e-04
4.222222780648142784e-03
2.769703581541311729e-03
2.288886724449758821e-03
1.408346843046428881e-03
-3.422771813088188592e-03
-4.101675581233773724e-03
-6.431352555800297702e-03
-9.162110045891500021e-03
-4.421576645281730805e-03
-1.754542302323485034e-03
-5.625584292119835579e-03
-9.405257209267756102e-03
-6.493580991332075988e-03
-1.031419750469544146e-03
3.424462275550980549e-03
1.064884302218290640e-02
1.074121173478998804e-02
6.933810746823413328e-03
7.472671888308237906e-03
2.787493681749317418e-03
1.598138143860486273e-03
4.384026861714784666e-03
6.300099170854097340e-04
-2.142200793790381003e-03
-5.696569551909527046e-03
-4.080733324207714945e-03
4.683254849327364057e-03
2.368635317726051209e-03
-2.395671949740398998e-03
-1.155009452359535843e-04
-1.332678657849704299e-03
-5.798540335954401048e-03
-5.761287346582068952e-03
1.477772903548073627e-03
5.337337394770091774e-03
2.264755876136689914e-03
2.400084828471226329e-03
1.951927995123439816e-03
-3.380758401205623178e-03
-4.917567757927489291e-03
1.930770983668900296e-03
9.074829420307425551e-03
7.103792801796701348e-03
-5.704457535837248721e-04
-4.714692351109457842e-03
-2.984655243076370784e-03
-1.807880940813809227e-03
-1.147823105625326049e-03
2.016933951962454445e-03
-3.581210508056101348e-04
-5.735088769954761571e-03
-5.638117026367848658e-03
-2.128568505583284393e-03
2.390961284477621947e-04
-7.711294028357332589e-04
5.095470366395288189e-04
2.251658090994086096e-03
2.427464072387205875e-03
3.774687659369791934e-03
-2.019145938171144038e-03
-4.158451273706616040e-03
1.175900993123332608e-03
-2.445785464990542397e-03
-4.247793998927551495e-03
-3.337875226352623407e-03
-6.788893827664906067e-03
-4.584649040733056354e-03
-4.482268495144893267e-04
3.265006606160305528e-03
2.948442032349429028e-03
-2.306722338399564646e-03
-2.455610178977342276e-04
4.049675336984849723e-03
8.425896859130753078e-03
1.312816333835311808e-02
8.923130302184655374e-03
4.067475644593831520e-03
2.718289672399318117e-03
-1.290492916635010588e-03
-1.966354904688081846e-03
4.595461692969137271e-03
9.434915005242348537e-03
6.277391002211436984e-03
-9.480881408230903105e-04
-7.748657161153546177e-03
-5.371817279425807230e-03
1.948164414787293330e-04
-6.187101043786656131e-03
-6.423404200721152119e-03
3.800238030252357530e-03
5.553364198888822816e-03
3.919215168220495024e-03
8.703719055860630526e-04
-9.782980659216785474e-04
-3.632485953640193690e-03
-1.850962911989917706e-02
-2.181402479495666430e-02
-7.735581827130081495e-03
-4.054097104539460851e-03
-5.838343830637962237e-03
9.902999191769828319e-04
1.048377167191238794e-02
1.058359603767003269e-02
3.246167589482411558e-03
1.816703493344460144e-03
2.783716649054228214e-03
8.050522679100397504e-04
1.997019855549400039e-04
2.563489672243730259e-03
2.577367889771604598e-03
-3.954654574299131843e-03
-3.160298423395009344e-03
3.946480359263765045e-03
3.329774841387745255e-03
6.512195032069478286e-03
1.065355985338763307e-02
4.855851987538723109e-03
2.226807888687913108e-03
2.344982389266874931e-04
-6.835192308680880686e-03
-4.750582460663921661e-03
4.139098187792593017e-03
5.615024218733799879e-03
1.576203388876314376e-03
-3.401010308453400292e-03
-5.711152409350511543e-03
-6.725074700329521527e-04
1.351253724034617376e-03
-1.143763524124648094e-03
5.081941398990316022e-04
-2.223119795753309563e-03
-6.614050907148869701e-03
-6.319620609703589451e-03
-4.483056941083801185e-03
3.503971144814347835e-03
7.051524740173346212e-03
3.090552098018703713e-03
3.611021488092047965e-03
4.362673093265177771e-03
5.043102980603290236e-03
5.561545941991556143e-03
7.457764223492603303e-03
8.148999094555119463e-03
-2.638047423053843394e-04
-1.581068204354702357e-03
-1.088514162754719919e-02
-3.249893123339175210e-02
-1.920850399701765077e-02
1.818817314086040946e-03
-2.727766365899328589e-03
-2.126546782034251151e-03
1.013341236160114048e-04
1.064814147344706613e-03
6.870428000137703689e-03
7.170891956093980446e-03
9.211220341095968309e-03
9.780814551339871848e-03
7.118962583032174135e-03
4.487834924007353711e-03
-4.542169365705187034e-03
-5.735822908012207753e-03
5.456499636809801143e-04
5.990579894346299925e-04
-8.783587827522086264e-05
-1.263208424060086998e-03
-3.068446085209984749e-04
3.249038055265607728e-03
3.107666570224858031e-03
5.847105765284659439e-03
8.206109131800684575e-03
1.194491071119105287e-04
-8.915758329597739049e-03
-9.648595906569154210e-03
-6.498249264007239026e-03
-1.835817438681890731e-03
2.276262606906666666e-03
4.882609122314624135e-03
9.832100864220141498e-03
5.746903237609815758e-03
-6.457040333859344512e-03
-4.908724176678087685e-03
2.338729763437317165e-03
3.645176128243822217e-03
2.974801269368538767e-03
-2.264929814609187558e-03
-4.815226930331270930e-03
-3.577292925008389041e-03
-3.906930222622863151e-03
-9.609593911187910538e-04
-2.887210734781192893e-04
-2.450197321408101835e-03
-1.893548530398911746e-03
-2.070201065929173825e-03
1.081430759106653816e-03
5.596111707712249014e-03
3.445884468068268792e-03
2.151112366764285772e-03
3.242678407502345376e-03
-2.568797229767699926e-03
-8.391151969991234374e-03
-5.771343098343682115e-03
-3.457067865246577377e-03
-2.742813227659836491e-03
1.495650180989180084e-03
4.098391201693043183e-03
4.554369603036573753e-03
6.029543088140720472e-03
6.684183531476109441e-03
4.006644783377103815e-03
-1.109760929808863150e-03
-3.046947156707358832e-03
-3.853452972327053340e-03
-7.554818481521096037e-03
-6.275644845902211486e-03
2.036891513192240315e-03
7.612832678940898226e-03
6.558414194739009898e-03
2.030187074848815651e-03
-3.630259897049669185e-03
-3.731591427663932727e-03
1.960284275336764744e-03
2.709200015708464627e-03
5.086809317031700667e-03
1.019244276953877593e-02
4.916875193671801925e-03
1.210862021614135878e-03
3.171838721378029101e-03
3.716602682785679831e-03
6.133141657221607805e-03
-7.316351642276685413e-03
-3.014065633069991021e-02
-2.819153962779430075e-02
-1.150452281312152811e-02
1.174857032387858526e-03
1.091331327555625751e-02
1.496382860068983661e-02
1.249984540536486048e-02
5.206265935833610109e-03
-1.732782671081603467e-03
-5.180412115475784875e-03
-6.912370784865506934e-03
-3.936434418975681346e-03
2.646554518835169127e-04
1.454694332852410322e-04
2.558963130779262456e-03
6.768366798490077496e-03
2.204871061551514494e-03
-5.338905863471472835e-03
-6.708050247655007736e-03
-3.643816883025673657e-03
4.761483812785782636e-03
8.035672834927266861e-03
-2.028458121323091024e-04
-4.070619178468585868e-04
7.730186854825155107e-03
8.787214952475527058e-03
6.655479685680365520e-03
5.526925272879909014e-03
1.862393620317918290e-03
-2.760069216008816280e-03
-8.709377023323490842e-04
5.096273762245511624e-03
4.520904200993046060e-03
-4.571203969953341849e-03
-1.573431351355890351e-02
-1.528425500657477377e-02
-8.287039056218116484e-03
-1.259446759135185792e-02
-1.621283015573409328e-02
-5.581786475987176796e-03
1.175069099146503621e-02
1.888061886034760398e-02
1.031464650127336680e-02
8.118995891393395239e-03
1.093304846772864478e-02
3.637648570971579315e-03
-2.509467356251561705e-03
-5.459957558270583933e-03
-5.198396066255862868e-03
-1.923237112797212926e-03
-1.817997108790121458e-03
2.595970938442465192e-03
5.970328363982610118e-03
2.895710137258908790e-03
1.128330080458842585e-03
-1.772520424875979536e-03
-3.391227476018813906e-03
-1.169255244923319810e-03
1.352648933958979513e-03
8.048328971584827124e-04
-5.415464456067207479e-03
-1.056171731748481273e-02
-1.265931091481636850e-02
-1.010566997191391335e-02
-1.941157291408384397e-05
8.369143948364307986e-03
9.326873606805993755e-03
2.700166786770295119e-03
-3.745209707452206837e-03
-2.373655993052011838e-03
1.347248351279370501e-03
5.961854315925353524e-03
7.592494690150756835e-03
5.980027903587183113e-03
6.698504850066692475e-03
3.523414616012767592e-03
4.834679660484199814e-04
1.333698819599105079e-03
1.045638908416038891e-04
-2.119996497311130287e-04
-2.757671345918212211e-03
-6.808408567878474447e-03
-5.598674584892802258e-03
-4.508587627693981525e-03
-4.422544997615258239e-03
1.271097335035510298e-03
8.802424467801588798e-03
5.763673088749956576e-03
-1.624246675925747427e-03
-5.493050563580708658e-05
8.899662604581716962e-04
-6.067917575971968616e-04
3.511465686194450726e-03
5.197366121760905316e-03
-9.022803834972314627e-04
-7.271944639247323282e-03
-3.926229374943119785e-03
2.308282626054941871e-03
-1.593045992440400441e-03
-5.327111922356377732e-03
-3.672094149058381836e-03
-4.576647625182137490e-03
-3.475251635873225550e-03
-2.031372831510155907e-04
5.218943053268931776e-04
1.938332757669790265e-03
3.037306757166033898e-03
3.598259970250843563e-03
5.108247437886074410e-03
1.714559175593250058e-03
-3.416039674554623151e-03
-2.729268289882003356e-03
-9.171265075249520650e-04
-4.688646360665997158e-04
-2.130572043140648887e-03
-4.408027562655267122e-03
1.866501887888031772e-03
6.730313735764485716e-03
2.501143662863952147e-04
-4.971077333216742137e-04
3.699476882563229683e-03
-2.403031532082642186e-03
-5.318430056286063343e-03
2.818843542818195470e-03
5.727076129553415086e-03
4.832851317260510385e-03
5.955134708786211963e-03
2.289122398293381121e-03
6.292927521600121627e-04
1.552829835458446493e-03
-2.104423536019433931e-03
-6.664104419102154361e-05
4.521400266255055402e-03
3.438211007642322042e-04
-3.122331921615395436e-03
-1.222240833846343841e-03
-2.336284630201483116e-03
-6.180581466334942112e-03
-2.960348321217850728e-03
3.146174170447680555e-03
-1.420059405855672629e-03
-7.679112028929688596e-03
-4.883577986964409562e-03
-3.437330438391101792e-03
-4.173375614377374497e-03
1.654047857382306063e-03
6.591342404896232895e-03
4.157919881677044245e-03
2.874523025201140467e-04
-2.521629517988612998e-03
-1.288017775869019013e-03
3.022242384510727582e-03
3.805201072586752824e-03
2.679918942862295934e-03
-2.380840837631716111e-03
-7.352434988880564813e-03
-4.502409485869300274e-03
-3.444747825534182854e-03
-3.577736578013923272e-04
6.728896149169247970e-03
4.040562835327238950e-03
1.109088037930427723e-03
1.848936012338846984e-03
-4.413811789827300799e-04
3.760748439473267412e-04
1.920933757568145904e-03
4.037008051647139606e-03
4.728727725858903642e-03
-1.586388713602180159e-03
-4.731407337080652427e-03
-3.462353286827935146e-03
-5.618103683967367711e-04
7.259622430005754391e-03
1.095829086649978933e-02
3.886205523365526913e-03
-4.345863205661511415e-03
-2.547312974215829029e-03
2.707420975783079325e-04
-4.355737462785532269e-03
-5.266223876147301843e-03
-4.564954289044798920e-03
-6.001663667221747434e-03
-3.350574942442448561e-03
-8.105697618587650102e-04
7.993998579208779019e-04
2.073157908828049227e-03
3.325299184645807201e-03
5.439974455998844785e-03
2.499673698773790132e-03
-2.039325738397946338e-03
-4.707964764556456586e-03
-3.027759086309606256e-03
5.084406702798503937e-03
5.201530052407742424e-03
-5.796810261406162238e-04
1.881311674129172067e-04
-2.410054981585038961e-06
-2.676814260584740434e-03
-2.341224000020626986e-03
-1.019198456987476962e-04
-8.701144594803079252e-04
-5.122571488702209151e-03
-6.045411033284517170e-03
-2.259164877676419526e-03
4.914141390496461030e-03
7.112630414590951841e-03
7.020935703438603440e-04
9.991773125354070240e-04
4.513055269380563186e-03
8.373214819639915318e-04
-3.332840664651599166e-04
1.352488219378864247e-03
1.409456280845522739e-03
2.556135923254370269e-03
3.333533085732953358e-03
-4.041052401656261908e-04
-6.437005643175045325e-03
-5.341137046360115541e-03
-4.506500058971438065e-04
-1.127692390800358021e-03
-8.451134327045171663e-04
1.951415247736260506e-03
-1.946393695740207671e-03
-6.429747001886552960e-03
-1.163822864366628089e-03
4.898324170483475334e-03
5.685715559605083666e-03
4.724978346075060440e-03
8.831206026356167981e-04
-5.090478926004848382e-04
-2.748847157214007989e-04
-1.599586715615517428e-03
3.706256217416614880e-03
7.573664613203361269e-03
2.700531155088307152e-03
-3.216293915266602368e-03
-5.638365129976577461e-03
-2.158471343855397628e-03
-3.059731900451187567e-03
-6.391553433144555284e-03
2.716138843551268111e-04
1.095161154718513052e-04
-6.831096721787478787e-03
-2.601634637055058250e-03
9.061637704908111039e-04
-8.187433156380107685e-04
3.231873166954829426e-03
4.684327712352347531e-03
-3.031616786875489244e-03
-6.564861610484106803e-03
-2.290507730565708843e-03
7.915000480490698171e-04
2.900930385274868781e-03
4.267893079586217858e-03
3.597342694907614859e-03
2.324693701720372853e-03
-6.510873881405011398e-04
-2.144369576618995309e-03
-6.688114825834164286e-04
1.865670348209674898e-03
2.913178155103010938e-03
-2.561231751289261049e-05
-7.260942129673902956e-04
6.493906942180746426e-04
1.175818523433670888e-03
4.017325110701425867e-03
5.701350722248634158e-03
8.041458205203612375e-03
8.845602419426858848e-03
3.693227197074364088e-03
2.158393518733431847e-03
1.298197939228689464e-03
2.174018290475314592e-03
6.842865856093164299e-03
-8.378400409131778193e-03
-2.918980567110086161e-02
-2.080521824259598182e-02
-3.170693480887578491e-03
1.741835933022736933e-03
3.498064361768423759e-03
4.801583355149457479e-03
8.567503043549049751e-04
-5.843233380023425683e-03
-8.039685345748873516e-03
-3.590247447098921657e-03
3.412279471243733972e-03
5.434470950133567582e-03
1.221835767411774427e-03
9.722873525695095677e-04
2.016832474975293341e-04
-4.924234362787583384e-03
-8.759308125629193184e-04
4.934460059578856493e-03
6.738057120447623650e-03
1.074956539739727393e-02
5.869895675537500912e-03
-1.166084184079208864e-03
1.355425803978575934e-03
1.033180904008567302e-03
-2.262671829506505972e-03
-8.783869138320679485e-04
2.096214334514456823e-03
4.226971679090644552e-04
-6.491246092201818224e-03
-8.801490879133068782e-03
-2.334410587427510585e-03
4.985929456848768072e-03
6.699880293236156782e-03
6.057879063798947417e-03
4.015753790684096700e-03
-2.667390658872747112e-03
-5.874832627225300315e-03
-2.958307704002547528e-03
1.802615981943095878e-03
5.893338142804883072e-03
3.701109242056176271e-04
-5.667537273790271973e-03
-5.970133283907171507e-04
1.228641327921095377e-03
-3.529300196043718991e-03
-2.660798762525274069e-03
7.462567174851695217e-04
-1.494949995154880350e-03
-3.077609606722664544e-03
-2.357961491751170164e-03
-3.847746272036768958e-03
-2.488512758850512608e-04
4.310227452196499671e-03
2.505328820377151870e-03
-1.808076753339183393e-03
-6.895662801315498650e-03
-3.370709013577204410e-03
3.130793996717947097e-03
2.979715724279520875e-03
5.698444051967700534e-03
3.999971422254834132e-03
-2.645383824023739283e-03
-1.996065760468747428e-03
1.714311661440491401e-03
4.051460582580198276e-03
2.805461092763044187e-03
2.338857952415916274e-03
-4.970206141558051322e-04
-8.913546104290450897e-03
-5.035400856905919258e-03
4.324385093802292357e-03
8.174074791092146575e-03
1.109054633161590808e-02
5.870727955068879081e-03
-4.917752799474847496e-05
-3.313024048805775310e-03
-5.532444597779823982e-03
-2.206485272944367845e-04
1.618533836586204407e-04
-1.576613342839121822e-03
-1.431599332102912207e-03
-8.059033106985774575e-03
-8.461877382172623002e-03
-7.161836695640895131e-03
-9.144803219733734639e-03
-7.014004978684859398e-04
5.029907108734994227e-03
1.488317197392214405e-03
-3.893954794353947672e-04
-8.192980235304857077e-04
2.324237576384961292e-03
5.941466654202961183e-03
2.826989621166883793e-03
1.103586369341528865e-03
4.936551189908211512e-03
2.543433754902559192e-03
-3.145826257145819399e-03
1.653480384668175492e-03
6.371149181371504183e-03
3.290160344171321957e-03
2.620369498792578418e-03
1.073165079414253875e-03
-3.131898237992364678e-03
-3.142534514187170051e-03
-1.167516269722152335e-03
6.333918636290661233e-04
6.850524444452837577e-05
-4.909761135814692291e-03
-8.088639380470585491e-03
-3.670702662710971249e-03
3.984997418983849890e-03
5.954158248026397357e-03
3.612025073974018362e-03
2.695246346010594842e-03
2.157121598510976473e-04
-4.347349781066205988e-03
-5.617003584462754856e-03
-1.917621983332446498e-03
1.843279223469826813e-03
8.931373887716489990e-05
-8.555882788283640517e-04
2.783690648949991089e-03
2.156633503704509774e-03
-8.431569128367826871e-04
-6.602880635333557456e-04
5.084509330135130465e-04
1.246399605690247988e-03
-3.587365181450515115e-03
-7.922409479542447466e-03
-2.504471007733352021e-03
1.761231428716472300e-03
3.529850961050452936e-03
6.854628251181848521e-03
4.009264969603914749e-03
4.738335541646969342e-04
6.615063842260782189e-04
6.860423439666856350e-04
4.276798095793378496e-03
6.159128364256849335e-03
1.062955714634640178e-04
-5.013429837940576971e-03
-4.711246390908406002e-03
-4.722641006214422718e-03
-6.300834224488353202e-03
-4.015584486941027424e-03
-5.910306177105747322e-05
-2.207607343316446771e-03
-6.338354672737657285e-03
-5.694331545896473383e-03
-1.630676202478536715e-03
4.686020257774124904e-03
9.533656829029022242e-03
8.351848956296674051e-03
5.536921712187991076e-03
2.732175512474321107e-03
-1.421402918199394768e-03
-4.287572667409709332e-04
5.308014568009905391e-03
8.701095168551884959e-03
6.939260415199239619e-03
-7.618902709479247800e-04
-8.569208049032567970e-03
-8.951368177488124370e-03
-3.155061420932265843e-03
-1.071500995281726362e-03
-2.978591976827107968e-03
4.802225639652295215e-05
-1.139335530976336684e-03
-6.439650261951335511e-03
-3.441830017344796495e-03
-1.564413834707996040e-03
-2.460149324400856671e-04
2.190981835136031342e-03
-2.914807940095250072e-03
-3.091602945321478366e-03
-7.719116790687100254e-04
-2.595538715266449900e-03
3.077160708092895307e-03
6.307905722601033632e-03
3.155739717129885276e-03
2.861687478294047075e-03
5.470392468981356490e-04
-2.764923731157257862e-03
-3.907818355068326706e-03
-1.072967819005447854e-03
6.395896376618333615e-03
8.285784647710089587e-03
3.198624684877873769e-03
-7.388830831248447556e-04
-5.096349705474940636e-04
4.154550514224386940e-03
6.979236831460559898e-03
2.280865388109789942e-03
-9.429546882213279881e-04
-2.631950132042553195e-04
-4.145600506189795094e-03
-3.252819234779864063e-03
3.946779474369497762e-03
3.045350470988505195e-03
-5.373324821656168520e-04
-4.246895645010310559e-04
9.883001474549541789e-04
1.652229771461159995e-04
-3.313005084841048626e-03
-5.380241908554394929e-03
-1.813176095686178102e-02
-2.672758974362171580e-02
-8.770732730691861018e-03
2.834523132504419146e-03
3.527509824596520259e-03
1.084903378694691660e-02
7.556947846151932865e-03
2.660159995190173373e-03
4.646620179576643229e-03
1.486387078826225316e-03
6.527040349849349155e-05
5.742979141522290196e-06
6.710471231666443378e-04
4.393487378800636431e-03
1.206292372761846865e-03
-3.315578193211096442e-03
3.852944459702789363e-04
2.992690777233368918e-03
-6.690574160338753473e-04
-9.076783743776334736e-04
3.776716535154408041e-03
4.243593463659654438e-03
7.732646175113064811e-04
-2.124667237604320122e-03
-2.361641815227677292e-03
7.992784475126695539e-04
4.156510276148228829e-03
4.625992464771157102e-03
3.451537908947559328e-03
3.352488217303445893e-03
-1.787731335165164588e-03
-8.999725723227502278e-03
-3.555514666612137956e-03
5.921483599903032587e-03
8.187258903582229214e-03
4.689834113245416013e-03
-3.617557057597094606e-03
-5.787110983727181135e-03
-3.359073052659661534e-03
-4.061977405336127979e-03
-1.096881774940222090e-03
-1.332099375098603870e-03
-6.259911843888249158e-03
-4.734576886775105492e-03
-2.716463942858965072e-03
-3.589415222245009168e-03
-3.720678957812183565e-03
-2.586884219254665437e-03
1.643634226572835083e-03
3.558755765654289353e-03
1.175670060515781592e-03
5.122034850087625645e-04
2.013379379911125707e-04
-7.883412312543122691e-04
-1.426090710035992975e-05
2.585112817104179977e-03
6.130285561022008438e-03
3.948449465556273796e-03
-4.214653446768129065e-03
-5.993681010008224987e-03
1.129100958311143941e-04
5.848109755855753628e-03
4.782731790067394455e-03
-2.512817660552342947e-03
-2.723544996051054622e-03
2.047290945308474948e-03
1.040324517594822494e-03
3.391912726752174898e-03
4.537614588154212543e-03
-1.938479832828891901e-03
-9.872816348475716569e-05
3.116977082051664450e-03
-3.372592261088428215e-04
3.411148480283320190e-03
6.308725145755020303e-03
1.268700813601261659e-03
-2.716052289677133892e-03
-5.216268782820302104e-03
-4.914372708448858790e-03
-4.680965914377199430e-03
-2.686778342790491648e-03
5.595296068216912624e-03
5.524270714238842077e-03
-1.338347249449507422e-03
-1.789674841115034606e-03
-1.099779362195556697e-03
-1.563837555578075078e-03
-1.929658102619286443e-03
-4.892056299105738970e-03
-9.437960066370805132e-03
-1.265095601831586931e-02
-1.155077638613184743e-02
-7.654166756776693836e-03
-1.399342616350479802e-03
5.316834282595968644e-03
5.261181261732949740e-03
2.810716723071337610e-03
3.129435449481000452e-03
4.298479083465929496e-03
6.058397370458705467e-03
6.370952535522837051e-03
1.049467274581574253e-02
1.317708381709310241e-02
5.171569658766285438e-03
5.518983261750930701e-03
1.191477988817605214e-02
5.717797909468805111e-03
-6.697773359165126858e-04
-4.461897236233167835e-03
-1.115514832680137257e-02
-1.585676209675274811e-02
-1.849423752894882936e-02
-1.653860182965718323e-02
-1.189996142000231995e-02
-4.913197661746191054e-03
2.407527153072304416e-03
3.602866686906033931e-03
8.688411162322336179e-03
1.622517935546831033e-02
2.001221488178859045e-02
2.689768932902411938e-02
3.138199507891931833e-02
2.793327840436399256e-02
1.471396732172182420e-02
2.830896301209201091e-04
-4.927915615012887565e-03
-1.150461923596613617e-02
-1.919474212129681015e-02
-2.652518443152850763e-02
-3.443987100270595042e-02
-3.871412657038671851e-02
-4.367223714295291603e-02
-3.706880858405476459e-02
-2.429436910886220713e-02
-1.361582174857160071e-02
2.303617310263338883e-03
5.861740900435093507e-03
1.929971800033035423e-02
3.855239602261622406e-02
3.450788389486447727e-02
4.872797618199214975e-02
3.090242529925461834e-02
