1.750104899089036797e-02
2.091724701275081075e-03
-3.170028291957633498e-02
-2.839028388373953174e-02
-2.319272747273626659e-02
-2.803556676621439536e-02
-2.435478007162072620e-02
-2.120515929976494671e-02
-9.805324463159811529e-03
5.149256758351786374e-03
1.350904424892658030e-02
2.124967395937273074e-02
2.880965258599425816e-02
3.813542147009337663e-02
4.092015588467184245e-02
3.942979153048830482e-02
3.729351888525789249e-02
2.421195791640891673e-02
1.933766628608962410e-02
1.916789947474168213e-02
1.070286657514653121e-03
-1.098620034983742270e-02
-1.354508569069227605e-02
-2.357415429262635018e-02
-3.003283051752099128e-02
-3.248007510087463218e-02
-3.445816142470583404e-02
-2.747574115044356183e-02
-1.283327325248696284e-02
-2.423715427027317917e-03
-9.217792550976577990e-04
3.395875308229695261e-03
1.299646872772691232e-02
1.787257371627470545e-02
1.890896357291491775e-02
1.817938030804078231e-02
1.387042693865821706e-02
8.174388190764192083e-03
6.025063677731720344e-03
7.507045493473334628e-03
7.991691724864273191e-03
8.938027167562047001e-03
8.318508366609855820e-03
2.385233414220780564e-03
-5.486391966040463954e-03
-1.467462812029656470e-02
-2.006299332702103644e-02
-1.984452176009860944e-02
-1.638269047192082023e-02
-7.077700793089778883e-03
-3.097346614113935873e-03
-4.166764776269717661e-03
3.899660029212945536e-04
7.836080878122791320e-04
-8.046651473920076510e-04
-3.931055226746810703e-03
-1.471952938126636946e-02
-1.504063955820747304e-02
-8.084468111044015165e-03
-7.520857305789780366e-03
-2.360665187854535602e-04
1.073832747659162964e-02
1.304016967747933034e-02
1.155534931272184790e-02
7.805750349233822605e-03
1.550199533392649211e-03
-7.995339320229739389e-05
2.472097489777298936e-03
2.646092920182247735e-03
4.532291767343345906e-03
9.639458136813395736e-03
1.066625837778872529e-02
8.052790339765096908e-03
6.158318998416033307e-03
5.850884288344015971e-03
5.624753780714441577e-03
4.884161354451985702e-03
2.722585207201836006e-03
-8.819416630632398034e-05
5.035865951758387209e-04
-3.856931343797921196e-03
-1.064137510615323703e-02
-3.643277006999923531e-03
2.370640659520687008e-03
-8.725191560402106861e-04
-1.773907440551670146e-03
-6.369258415453634206e-03
-6.399913678785999760e-03
3.759419428521646941e-03
4.200758514477257420e-03
-1.428355122471906824e-03
-3.088728604401711625e-03
-6.041224973585823492e-03
-5.711956301796555432e-03
-3.631101202347966801e-03
-5.717904034173424722e-03
-4.020761295239382721e-03
-1.066817816387044624e-03
-5.528683671328403840e-03
-8.818293836126412516e-03
-6.318232947959811358e-03
-3.966098999735377315e-03
2.991373245062483623e-04
6.975150360629980145e-03
1.060070868354729898e-02
1.003949270079971048e-02
5.167847053644068940e-03
3.536860049500325999e-04
2.501117135066277357e-03
5.672064656662159643e-03
3.686126496120864949e-03
1.957093242223662596e-03
-6.510992840148095359e-05
-2.218838973529686006e-03
8.344613060706642478e-04
2.095391333262862235e-04
-5.324666685681265707e-03
-6.398492812084015900e-03
-8.514925044021464870e-03
-7.442260944135612594e-03
1.807024211542771971e-03
6.755687131413843152e-03
9.728726639960454461e-03
1.240721059716675886e-02
7.059423234535112252e-03
-7.273505660598557614e-04
-5.309131690870549057e-03
-4.117287797953094949e-03
8.978836779583501942e-04
4.743220059090056881e-03
5.691289099849365304e-03
-1.326696897436303261e-03
-7.538208554006588236e-03
-6.059317581088850477e-03
-5.094328050633375495e-03
-3.213675839798898646e-05
4.934831045628153799e-03
7.363817398559678682e-04
-3.010554573622055159e-03
-6.050070305887438916e-03
-6.762426487777436698e-03
7.644161758740490153e-04
6.259501809632542213e-03
4.832375679106963237e-03
1.307413855944102813e-03
4.184419631877649257e-04
-1.257615976523482641e-03
-6.516187460681584567e-03
-3.638341459512242290e-03
-2.097022597571294132e-04
-3.395204538510155062e-03
2.430209421776306170e-03
6.748355477318675189e-03
2.498854525132558103e-03
3.531650166540807514e-03
1.853758921830960795e-03
-1.566216327565162544e-03
7.011757756936232199e-04
-1.140592329058899871e-03
-3.059867004864024517e-03
-9.599045517460281281e-04
-1.260111841446363281e-03
-1.489268803409611597e-03
4.893093886856031806e-04
2.886373530869712142e-03
4.577636213081808653e-03
3.838488434639971726e-03
-3.411786014940459554e-04
-1.921572246946811387e-03
7.015703783221371743e-04
-2.392481849176583339e-03
-4.602809524902556557e-03
-2.401330570637918559e-03
-6.514055740900180982e-03
-8.590750591138368586e-03
-7.263259091618552363e-03
-4.369435123233816887e-03
2.908762293819201240e-03
3.697242201181269450e-04
-3.448815586251539975e-03
-1.906355399264164359e-04
8.049903247186933428e-04
7.494306513123485600e-03
9.720913422068454268e-03
2.614988359493783214e-03
2.520001982513943913e-03
4.756021968729881935e-03
6.170114494921210765e-03
4.471281419982368888e-03
8.684798761262975050e-04
3.484370693903252655e-03
5.138335132830414154e-03
3.831617926828960637e-03
-5.557584111909761801e-04
-3.010823482502462175e-03
-5.957817561011021727e-04
-2.842298438885934586e-03
7.402983929694984325e-05
3.101338853506387561e-04
-8.692841021048775332e-03
-5.669880805162952342e-03
-1.614097624639966371e-03
-9.842675504266131838e-04
2.468686165334015026e-03
2.767055256252068645e-03
2.736454763450895094e-03
-1.094024611853109188e-02
-2.201717506605635477e-02
-9.948858949360510004e-03
-7.544119168001594145e-04
4.588781530441980380e-03
5.808877221428681431e-03
9.389497256304794350e-04
5.561429086994098235e-03
6.924030938676154455e-03
4.197580636411277211e-03
2.708980539470662741e-03
-5.755739230910056651e-04
1.429238997912300746e-03
-2.432145793401691274e-03
-5.141098457190219906e-03
5.154749508693297691e-03
8.722105554334468047e-03
1.693254245105930934e-03
-4.054722726736664090e-03
-1.855101596178444561e-03
-1.799548954880288273e-04
-3.012092652931332333e-03
8.115872515810869164e-04
1.999989866076714012e-03
-8.595348881907771254e-04
3.285563705418681067e-04
7.896437332676557166e-04
3.619379823420447537e-03
2.636218444080743167e-03
-4.587016083052179033e-03
-9.524422405687925364e-03
-1.003515370659434532e-02
-2.214546379676083504e-03
6.543628987172611135e-04
-2.674092597143686370e-03
4.376850020936721812e-03
8.112196334464331568e-03
2.782222060762720370e-03
2.747575333259334122e-03
7.427793178815407169e-03
6.643739347893708701e-03
-1.241184157171225030e-03
-3.073394673649810539e-03
-2.634307959698478576e-04
-1.191186471944326178e-03
1.225756140622928604e-03
1.129401635142623971e-03
-5.128583818273075960e-03
-4.057063880098526684e-03
8.203836925063964607e-04
8.488254503548727436e-05
-5.927817960364868514e-04
-1.613798366805356110e-03
-5.912284131059985202e-03
-4.540476268462170784e-03
-3.753103012279319309e-04
-6.559280028688770775e-05
2.551143585108226700e-03
4.604238213259339955e-03
3.525923489256595992e-03
9.731354716366046346e-04
-4.196720983256840777e-04
5.321998087151279776e-03
6.504188190319681179e-03
2.614534150006341505e-03
3.174074063862500610e-03
-4.311014019975432064e-03
-1.257667970781263869e-02
-8.402868534046713939e-03
-6.721358231734398357e-03
-1.033975680954476138e-02
-7.403187804623223393e-03
-5.056092136240677255e-04
1.589908600303625939e-03
1.620539025987566533e-03
2.254536548078939998e-03
2.781626570765998417e-03
5.592512095389651910e-03
5.036550724763548537e-03
2.493306255755740192e-03
2.593042891966036451e-03
2.250192041799525464e-03
6.481543349112877696e-03
8.277895077229591170e-03
2.684384045707989205e-03
2.576043097708639873e-03
3.996071096057071496e-03
-9.118905978077803277e-04
-6.612946135303338600e-03
-4.266255715464425599e-03
2.171933812528844578e-03
-1.000431663171762707e-03
-6.081714860787722568e-03
-5.608503795515553531e-03
-4.885311980532364325e-03
-2.505152233031104902e-03
-4.246424014833664949e-04
2.572718961380054004e-03
4.908030240251472220e-03
1.396869508507362755e-03
6.117988102110028751e-04
1.934685662970495133e-03
-1.488964663348528623e-03
-2.224978330062010127e-03
1.550332410349558121e-03
6.967530019341758437e-04
-1.888088083597719465e-03
3.164488211034008651e-04
9.845152260858558088e-04
2.146121403715568754e-03
2.854278691423356960e-03
-2.434406570101108752e-03
-1.552418772340023820e-03
-1.255799465740436386e-03
-6.977377108808845499e-03
-1.438118105280424084e-03
5.315059288582880265e-03
3.438339232378523867e-03
1.909869542285829542e-04
-1.993389981402209857e-03
1.034614790796956779e-04
-1.890421734149252877e-03
-6.024886008600948209e-03
-1.443119128052575573e-03
2.415857964628216701e-03
1.505438634600064773e-03
-2.033001931037450687e-03
-4.345250998154328442e-03
6.959747261359828597e-04
3.636133290021621462e-03
5.967259782615676623e-04
-2.004618898968124445e-03
-2.720866259674368549e-03
-1.018215838174091434e-04
1.801780251677526697e-03
2.069851032575941666e-03
6.769947583227655524e-03
9.320672874571118982e-03
3.731409843991136295e-03
2.649462968160257691e-03
7.338340150599256644e-03
2.259048028642004179e-03
-5.100034927974722923e-03
-1.860782074353700775e-03
1.515396328819579221e-03
-1.001676405256788152e-03
-3.698080293374021981e-03
-2.632965390640973694e-03
-7.339485973711422449e-04
-3.340450612308532453e-03
-4.169555834208039588e-03
-3.014081606127490373e-04
-1.816887131873899707e-03
-7.814155827965902149e-03
-7.085113598170815485e-03
-2.229581502294983829e-03
-2.306492965094854991e-03
-1.773236648597470953e-03
1.057190187370451572e-03
-5.452470842049713436e-04
-1.884727663176695087e-03
-1.358116153392476596e-03
-4.959520780196958719e-04
2.706866902409249369e-03
5.275041226089450391e-03
5.096575594423217136e-03
-1.389613920758152495e-03
-6.353545264287491570e-03
-1.986029058887579758e-04
4.270770483643621801e-03
5.356192401190779454e-03
7.483078425957107906e-03
5.765404771057923254e-03
2.933820221661454127e-03
-1.882652703750310481e-03
-3.170130529193373645e-04
8.132226405669266620e-03
6.391501685738426065e-03
2.972817122462524490e-03
2.035703567874504183e-03
1.190104386192161572e-05
1.710136746758971838e-03
-2.651450506561515898e-03
-2.766301494516893670e-03
8.970779778604416957e-03
9.178840490182086503e-03
-1.603769627632795894e-03
-5.750105294832634148e-03
-4.785470735124143851e-03
-1.628682724617872696e-02
-2.897949041698888104e-02
-1.514120124898059305e-02
9.174507058786701783e-04
1.359752690430161056e-03
-2.737227209353009384e-04
-6.970983619380607607e-03
-7.349473839218628214e-03
2.168422511727780087e-03
6.979863099516725802e-03
9.827060335811826572e-03
7.431600560181803733e-03
8.409699362986454993e-04
-8.449836878385037081e-04
-1.722890881118183278e-05
3.590798719890676231e-03
7.291749564654690340e-03
4.996621518145243426e-03
-6.868716786072395514e-04
-1.357959580034662174e-03
2.391138123253962276e-03
5.057406297952846824e-03
8.189249541061068352e-03
3.605034326644069014e-03
-5.380487058114704658e-03
-5.069967221767063791e-03
-3.592962571387409067e-03
-5.966768584786895889e-04
3.612763044985054916e-03
1.964689131833216584e-03
1.683984596952846444e-03
-2.109628348033254670e-03
-6.175721320422098044e-03
-2.101491737757501610e-04
4.513972132009179405e-03
5.043783409890678290e-03
3.940599689457215636e-03
1.427886967489230613e-03
-7.517420463130350177e-04
-5.013934858127656012e-03
-7.374222064054442027e-03
-6.945530298362915210e-03
-3.162665893462199024e-03
2.270416465480747624e-03
5.748042788354725549e-04
-2.314916176010278596e-03
-2.768447493103441161e-03
-1.551458562848410591e-03
3.902228471949261996e-03
4.753565796841805607e-03
1.969649638536195239e-03
1.447135400041214565e-03
-8.184403257313257324e-04
-5.220150277790039893e-03
-6.294082402579670443e-03
1.308192079991387985e-03
5.157642258974658167e-03
6.149790156825328362e-04
7.021060755585462661e-04
-7.768235431361205506e-04
-2.805531971275535257e-03
-3.739858570258605621e-04
-3.248174853563792503e-03
-6.967478161105758114e-03
-7.170420390670393870e-03
-2.325991094361803870e-03
6.815729427819775671e-03
1.021626750763593092e-02
8.655501712022718036e-03
1.475200946602166305e-03
-4.885515710667198697e-03
-3.844568535854152205e-04
2.468422435681366049e-03
1.074098807902562885e-03
2.495628597558545783e-03
5.246309341315379821e-03
4.264367665744958971e-03
-2.041502420098220260e-03
-2.854294030246839163e-03
-1.698289513879607448e-03
-3.923339808697553881e-03
-2.557499628854107646e-03
-4.769485284376267066e-04
2.200988475941701057e-03
-7.336409871932189110e-04
-5.311523867473857789e-03
1.715964618069674378e-03
4.196025165067594938e-03
2.930446622109810027e-03
5.005708184109666954e-03
-3.844071461031096665e-04
-3.414515675179960463e-03
-1.663579735037223895e-03
-5.244285442359915197e-04
-1.086380890238194214e-03
-2.370635187826822515e-03
2.915448002678677764e-03
-3.559889961906940168e-04
-7.212875967212199757e-03
-7.966892004702486388e-05
1.441198946449626442e-03
-2.454203935410157605e-03
-1.692363602973060051e-03
-5.494803079289927198e-04
6.633506792567834122e-05
-5.668310229909182159e-03
-4.767785811357032853e-03
3.796335504294767477e-03
3.384995414873655847e-03
4.043372184632467239e-03
4.344705549004208335e-03
-1.860888553879005590e-03
-3.804829174523261318e-03
6.045771725605965851e-04
7.514543830131105613e-03
6.886698730188899921e-03
1.171567806811013926e-03
1.835427208859778583e-03
1.477230083225549665e-03
-1.654252940885923579e-03
-2.411968952388045175e-03
-2.294378376793388720e-03
-5.363570324139717901e-04
-5.883194559789242314e-04
-4.828653656586269320e-03
-6.581680026826241224e-03
-2.683884636928399008e-03
1.447622387168387599e-03
3.580141504808946606e-03
4.910604083528422731e-03
3.709334496174917888e-03
2.160118923142691563e-03
-1.264093354073690494e-03
-7.381659196258954884e-03
-4.730541458397762890e-03
3.696166287186142783e-03
3.440043297156145877e-03
8.434138646071093204e-04
3.038005723280336103e-03
2.104830701626871428e-03
-3.884546887679001274e-04
-7.317123740643188302e-04
-2.813477967677636797e-03
-3.215133785960688252e-03
-4.321109080250315135e-03
-8.456546207582708516e-03
-6.601848943079707648e-03
-1.538991185043175631e-03
3.331632543679014305e-03
7.671528567689239742e-03
6.632886103343242981e-03
6.327672096589421688e-03
4.717757270975560940e-03
-1.321952593159507775e-03
-2.005249256822694368e-03
-5.951541713318530841e-04
1.778633524294465215e-04
7.925033349320243468e-04
-2.248047405709157655e-03
-2.075011570035469217e-03
5.836973422383123344e-04
-1.737855918688538176e-04
-1.615913018158227814e-03
-2.791999783613749279e-03
-2.196294958117990873e-03
4.859375809276806680e-04
2.642370444649812418e-03
2.233684458221692030e-03
5.896406480752858182e-04
1.428934416709454463e-03
1.998548083793499214e-03
1.314977539251919103e-03
4.037215439981890579e-04
-1.251751009867394177e-03
6.806738537335373356e-04
2.444712825091484645e-03
-2.136976558121385058e-04
-1.717095470758610559e-03
-2.664462564559752934e-03
-3.968406690682107704e-03
-3.559955658197161768e-03
-2.699008667079188031e-03
1.140940773563822275e-04
2.845185657302468172e-03
3.393414775516119183e-04
-4.249211832527990257e-03
-5.436150060042350268e-03
-3.310564813166535190e-03
2.515906627803473749e-03
7.942615985859623196e-03
4.816455947633167985e-03
1.423083302683840132e-03
2.622995846530248171e-03
7.201406471188694222e-04
1.249569439764035587e-03
1.344076224684405234e-03
-2.067122902845874681e-03
1.731200543230082458e-03
2.204653681045701599e-03
-3.294174474268244009e-03
-1.702090792780813506e-03
-6.503592138536581826e-04
-2.640746000279266432e-04
2.929026108057009459e-03
-3.197556293253457377e-03
-1.078012302371194470e-02
-3.646798707167153535e-03
4.020886218689889539e-03
9.830963857717404334e-04
-8.480990918369115013e-06
-1.378105928136161154e-03
-3.703690597903111503e-03
1.389803659327043268e-03
7.638223704920417152e-04
2.750327254790745795e-04
7.682690590985523371e-03
5.343108575291475107e-03
2.330673648669116371e-03
3.736934745969693050e-03
-7.641729894649880537e-04
-2.042327731363362698e-03
-3.234711854397108975e-03
-6.567790840693666157e-03
-7.895440640888474982e-04
4.899933667530492233e-03
1.049185471104877986e-03
1.221976867040459012e-03
6.816980390119842942e-03
1.369018222548520469e-03
-4.710374485236167898e-03
-2.048221378568854459e-03
-5.018205238126787144e-04
4.218251927607536908e-03
3.332707295811461554e-03
-2.588267838221530812e-03
8.759190485769434258e-04
4.191309323893810911e-03
1.030701606975846160e-02
2.322932565031655787e-03
-2.617524667336285776e-02
-2.421579532612928159e-02
-5.280012260562931201e-03
-3.643251367716968548e-03
8.878830802197101163e-04
4.681430586124089681e-03
3.238222449878125440e-03
8.313158458377824158e-04
-1.631319278558788447e-03
6.916708248530183990e-03
1.270269319925975901e-02
9.811499574312012445e-03
7.190046650712228309e-03
3.097950023593386065e-04
-3.885375625860708251e-03
-8.024426340340292708e-04
6.365410851266507970e-03
8.712046047999416273e-03
1.728753085591258555e-04
-1.961199205490907552e-03
2.949821428155428252e-03
3.123680061974671695e-03
-2.459380015243972477e-03
-1.321367537996578564e-02
-1.440265739017972633e-02
-9.797208276531813032e-03
-1.232332029023358241e-02
-7.479344220169785798e-03
1.454387538909954116e-03
3.792866872800107134e-03
6.146150675859786937e-03
6.943816848615780302e-03
5.352786928408049226e-03
5.482213039417500183e-06
-6.607104995091738972e-03
-3.129375674301122529e-03
7.716788072583993970e-03
1.679050820939677335e-02
1.306824846368418065e-02
-2.857487625523328148e-03
-1.226530932414617893e-02
-1.084549798571194691e-02
-1.269073366888593193e-03
7.086044207189845685e-03
7.453193082836075123e-03
1.194999145117256294e-02
1.183565094215952018e-02
1.341148979578790819e-02
2.470390663587167593e-02
1.092602782808129325e-03
-3.268944373185428409e-02
-1.890962814245761986e-02
1.698994571171971810e-03
3.434685636215471186e-03
9.671906587589589911e-04
-9.174661037830820695e-03
-1.285009928255990280e-02
-5.403417745659689145e-03
6.493486807418769567e-03
1.519151130325076433e-02
8.647385457654687205e-03
4.490143236794022150e-03
3.400820090042166576e-03
-6.713466727820345190e-03
-1.254919032392862524e-02
-2.094294028018781409e-02
-3.142506911808730374e-02
-3.089869488633637321e-02
-2.732817619465572126e-02
-1.658651254538483916e-02
-4.277276128614431600e-03
-4.526759073640335140e-03
-1.077553896019391036e-03
9.911536794036283210e-03
1.710606623870436147e-02
2.569527642822560728e-02
3.523670216974597591e-02
4.115624620792909805e-02
4.573909495744168940e-02
4.196437440792001594e-02
2.876102734428077207e-02
2.127686325068527118e-02
1.654356783713390594e-02
1.186170096324602437e-03
-1.216858889102509153e-02
-1.252152106350075227e-02
-1.917835735655713802e-02
-3.461789422033471897e-02
-3.667321537276234389e-02
-4.197012142911047544e-02
-6.150102293391539882e-02
-5.862559062306496593e-02
-3.377782628561035866e-02
-9.023896227988829205e-03
1.171484391922171520e-02
1.159847691530753976e-02
2.900099427587937012e-03
8.088390758908412664e-03
1.444299636025566172e-02
1.732829140459468328e-02
2.196089028224726056e-02
3.100894967571960273e-02
3.330905455396488551e-02
2.290868498530209893e-02
2.815589671854047682e-02
3.603493132137496752e-02
1.310733204385393542e-02
-8.710401427351124534e-03
-6.277962345883414570e-03
-1.151408519668308634e-04
9.337223348691218658e-03
2.336941726352152748e-02
2.391950272439412675e-02
2.302732901158612011e-02
2.854834179693439833e-02
1.577505879676098510e-02
-3.456504233666471589e-03
-3.063367219090215587e-02
-8.014693405267307724e-02
-9.799482675056200853e-02
-8.086284607923875656e-02
-7.490704287082990132e-02
-6.007395784573011516e-02
-2.614339820612182966e-02
1.071124717821400271e-02
4.829950201337719629e-02
7.887461953164716377e-02
8.632825888383462154e-02
5.320810891468867598e-02
1.176427645816316425e-02
2.922598870990776674e-03
1.117179319973704218e-02
3.489187000395201077e-02
6.043561735999782719e-02
5.160852608918787415e-02
3.591155338162228122e-02
2.555540373822241806e-02
-1.406219320833134584e-02
-6.980238632114979525e-02
-1.130899028488273617e-01
-1.403207619531243178e-01
-1.380693696984863772e-01
-9.195936933454487705e-02
-2.686350197011291158e-02
2.164324923304964191e-02
6.029009746008219539e-02
7.988125807088322650e-02
5.275348456392622148e-02
1.289567860825357494e-02
-1.174823646036773570e-02
-2.428588034691260902e-02
-6.259510060847191248e-03
2.493088123209067850e-02
3.504553473738587083e-02
3.956436647212485669e-02
5.347255925434309803e-02
6.234441326273135187e-02
6.115204143032870049e-02
5.647152351963669048e-02
4.472818377290748576e-02
2.908816751458818267e-02
1.406528229984365178e-02
1.750152182361435242e-03
6.009516119499523461e-03
1.134931213714939977e-02
7.316435497029752030e-03
2.532943200487466212e-03
-2.304669732752231970e-02
-4.614983586454049491e-02
-4.661406678220281902e-02
-4.498904043009163689e-02
-2.544614093219645101e-02
-3.991922994585544310e-02
-1.240515868417903511e-01
-1.648139302239809145e-01
-1.227834234617629083e-01
-6.888993777313250078e-02
-3.040414301567637145e-02
1.379331613039287523e-02
7.927739751636188326e-02
1.277104701064729897e-01
1.224693183759085757e-01
5.969783837340236071e-02
-4.576154725479817525e-02
-1.082323155593749309e-01
-9.118558227044316900e-02
-7.948106713744730600e-02
-6.948180076384009862e-02
2.112564802855556451e-02
1.650454518300450701e-01
2.879589132468667878e-01
3.397667553196980217e-01
2.782960765236486833e-01
1.272246760719986658e-01
-1.336201220775211536e-02
-7.306357504301329298e-02
-1.273877200219626082e-01
-2.255364921803890699e-01
-2.434366693117953062e-01
-1.708049437270380277e-01
-8.860139336831841794e-02
5.493570992064147548e-03
5.528299653214492626e-02
8.151604031792450411e-02
1.251039311299106116e-01
7.986489235309136847e-02
-1.564697479089401100e-02
-6.592822123353969666e-02
-1.031129204162978125e-01
-1.431886471793121229e-01
-1.899088041721232745e-01
-2.243140353211029447e-01
-2.343190634656891758e-01
-1.979175429586147450e-01
-5.537864307637974798e-02
1.403961273157667555e-01
3.072696191243201591e-01
3.837925510244254990e-01
3.279899884862616521e-01
2.245327716444521782e-01
1.334903690173074586e-01
6.771411536179804125e-02
4.531247702497041147e-02
3.105238216665404116e-02
2.837474889729498309e-02
3.316823231088467799e-02
3.730047625857207862e-03
-6.449465344149354906e-02
-1.436305397344287138e-01
-1.767346568075633118e-01
-1.812268903658376396e-01
-1.977353749795992544e-01
-1.789627035571549618e-01
-8.147562837093966226e-02
6.271465870257220132e-02
1.414230274593779313e-01
1.434756216017007147e-01
1.374299014538640784e-01
6.059591623176395492e-02
-9.427839979494244405e-02
-2.419667023765289249e-01
-3.152618428057048505e-01
-2.672259801293980774e-01
-1.641071518490995196e-01
-1.659556708657442675e-02
1.772402082146879998e-01
2.700231389047160202e-01
2.568525252144032711e-01
2.237249624122075176e-01
1.790827156435352285e-01
1.459043886724653571e-01
9.276274498479224195e-02
1.767667498171923701e-02
-3.080094546467198463e-02
-7.646631404105633245e-02
-1.203357830883529517e-01
-1.495287737754805724e-01
-1.590862958324542054e-01
-1.268867231108025129e-01
-8.051104023790221775e-02
-2.267884250658554202e-02
6.445228626779254955e-02
1.296936580313975684e-01
1.370540723245612658e-01
8.577557030109375646e-02
1.224372690632102335e-02
1.000176926734840099e-02
6.336642087461129280e-02
5.579702262142013230e-02
-1.244823767950417083e-02
-8.799572253492328466e-02
-1.432757779943400755e-01
-7.937271612801295728e-02
1.009740220747726708e-01
2.056741724669075011e-01
1.688902498559702037e-01
7.140287052642592391e-02
-3.516863251344029551e-02
-8.410051899839608713e-02
-8.490847866763130691e-02
-9.874158102829776185e-02
-1.199711439615021996e-01
-1.946992078862643805e-01
-2.676707614586973372e-01
-1.891476278992318127e-01
-2.144635421501331352e-02
1.390174363722281314e-01
2.007395183548249251e-01
5.171215944921052354e-02
-1.423120192752217184e-01
-2.141349846468126317e-01
-1.927298336012023827e-01
-3.277994710600500711e-02
2.068983837868452191e-01
3.387240507004754542e-01
3.169912606319729709e-01
1.673134573825864613e-01
-1.887052162977771383e-02
-1.073145629182739175e-01
-9.765712393899729504e-02
-1.401352005355020920e-02
1.183866816237733877e-01
1.569797063247718449e-01
7.397721735988345426e-02
8.718657568074720393e-03
-3.115042351351801110e-03
6.266376764839511754e-03
5.086542682752073774e-02
9.782015957440111376e-02
6.464153336764329183e-02
-3.357523330967109899e-03
1.298253355554449678e-02
1.098093461728308004e-02
-1.124678989925320394e-01
-2.125035947234228673e-01
-2.287380488307792503e-01
-1.694667001667773398e-01
-3.284056690349872187e-02
2.532876417200786989e-02
9.838541622484944793e-03
5.353415500590193860e-02
3.743356226474366111e-02
-7.726415835537039922e-02
-1.311040217805380659e-01
-1.105321488334820024e-01
-4.925185068248769116e-02
5.283031736073462437e-02
1.075284678551466366e-01
4.208399699948085076e-02
-1.099166303037644871e-01
-2.377631765721401058e-01
-2.667080119076015166e-01
-1.638568558779391615e-01
1.260188429586640013e-01
3.898332196083494905e-01
3.515072218874206733e-01
2.155622221605426048e-01
1.680033598307537623e-01
1.119188302664639728e-01
8.129842564578156072e-02
4.870879503110517317e-02
-4.729328457419314236e-02
-8.272490866954665401e-02
-4.445055418847646683e-02
-1.273454442492911488e-02
7.419636298544818277e-04
-7.440371260374392497e-03
-5.697641204622388295e-03
7.668835481816902930e-03
-2.663221230049865260e-02
-7.280742653464994385e-02
-6.723680511887110411e-02
-7.889825904537081658e-02
-8.848801740208794842e-02
1.221242570469953815e-03
5.657735631597503312e-02
-1.242130729791226379e-02
-9.358539338522585405e-02
-1.133634657114259287e-01
-3.773271018992634812e-02
2.574662182546401737e-02
-8.132412727331341309e-03
-1.217957983947463201e-04
3.972803743293348844e-02
2.298333082103187763e-02
1.730747140488717375e-02
4.431260596345719394e-02
7.605559108709136762e-02
7.617243622520800117e-02
4.038484043593553591e-02
1.496679743689341945e-02
-1.697536228777512396e-02
-4.265609706642497362e-02
-4.391663002108163461e-02
-5.579017415470331753e-02
-3.460730451996646417e-02
1.912431220267462456e-02
2.453182707956956185e-02
-3.630884127774570026e-03
-1.561301450135939642e-02
-1.093496119702896778e-02
-4.675274421848433885e-03
-1.583757923723470851e-03
6.024938076969472978e-03
1.475684987217851241e-02
1.895128797463665332e-02
2.269330132759442634e-02
2.812165946222855081e-02
2.891885876709185746e-02
1.834247937890763971e-02
6.748538249363232426e-03
-5.456649513068929404e-03
-2.240186926073986506e-02
-1.919893084816319193e-02
5.964040945732379875e-03
1.759645581281953086e-02
-1.279969522301071475e-03
-2.859412323321239291e-02
-2.927481582855727404e-02
-1.089313034414799049e-02
-2.785894691731300409e-03
-5.257935645402763390e-03
-7.560885894242378759e-03
-3.966965591229399020e-03
3.019303507788914523e-04
-1.074880586761950505e-03
-4.154675231969159194e-03
-3.909879615781622526e-03
6.167544166922175365e-03
1.798646451980404071e-02
1.847409722355167205e-02
1.427843682851939050e-02
1.179315994726862910e-02
1.137496793275720973e-02
7.771860058314310205e-03
9.723201400387510365e-04
1.890984841446523420e-03
4.452269907928085163e-03
5.692922339424158484e-03
4.282890948670272681e-03
-1.076524269317413740e-02
-2.160868557994758896e-02
-2.071836683069043158e-02
-2.550926687869576118e-02
-2.623242870353664769e-02
-1.762065542713646404e-02
-1.195259844970556276e-02
-6.150740041631456989e-03
2.986495411785073414e-04
5.108783831003639586e-03
1.830126395044760768e-02
2.984585941068153975e-02
1.918778415773995244e-02
3.143057368713063435e-03
-7.707586895726100274e-04
-7.399593245133733073e-04
2.420802291006689342e-03
6.102201640788383098e-03
7.408928889347458045e-03
7.720714426107110583e-03
2.154838491005186228e-03
-8.830691601454190593e-04
2.317704767586126029e-03
1.875989773948943994e-03
1.103650264315419668e-03
1.772186400199987112e-03
8.607987149161480851e-05
-1.043187759445001351e-03
-2.509056446613832682e-03
-9.961525537944786526e-03
-1.485466534898183082e-02
-6.064691108325174010e-03
9.306579705715167013e-04
-3.082624217130120695e-05
6.191426812114377790e-04
-5.414681266510327877e-03
-8.675326074444397392e-03
8.032721146709967137e-04
4.220735412471680707e-03
3.341139918270226265e-03
4.314803010662177606e-03
-5.485573692708260209e-04
-2.453089635509977853e-03
9.544690075635594781e-04
7.070184307693442530e-04
2.509803597652554953e-04
-3.151130277169246247e-04
-3.877581666496890400e-03
-2.107177689044643833e-03
2.339226665041212877e-03
3.022515475860179960e-04
5.039305704820377842e-04
3.324814564535631071e-03
1.492160635464805747e-03
4.507021647319403102e-04
-2.102625074497220352e-03
-3.854122828970114965e-03
7.155395549153716365e-04
1.519915075256551579e-03
1.993688771510095364e-03
4.326486054974871924e-03
1.133074685775517509e-04
-6.653154768227117219e-04
2.025127855457691493e-03
-9.532936503528954744e-05
1.047105056465259169e-04
8.168876610328422612e-04
1.250415699750265274e-03
4.852821501876408705e-03
1.168562866201904526e-04
-7.047525624320923748e-03
1.667457029560832525e-04
6.383050498697853334e-03
2.196230134666774230e-03
2.946073942585732998e-03
3.296699310880567540e-03
-1.885400608798462998e-03
6.979612850377328722e-04
3.427201193692151239e-03
-2.685527077696253130e-03
-4.514186894448515147e-03
-1.327223235576661031e-03
-2.088919325964841336e-03
-2.551074370997532571e-03
-2.359224736639942664e-03
-5.406294920591951485e-03
-4.822502784918341473e-03
-1.631604196350226483e-03
-3.194548325341021663e-03
-3.098802697858742475e-03
2.846015590632884097e-03
9.317294305273920996e-03
9.611133978832984287e-03
2.001616571626637850e-03
-3.372748160661005398e-03
-3.900436907807665592e-03
-3.139096676646517103e-03
3.388293179352604937e-03
8.512533809122348194e-03
3.993195021288383113e-03
-1.521318097515849798e-03
-1.635088152308641863e-03
3.297078310175141809e-05
-1.171326863730210929e-03
-1.918457577306845272e-03
-8.106818372226847879e-04
-2.185709867430266160e-03
-6.164254805291948663e-04
1.873469438181477650e-03
-2.195386029237360922e-03
-1.789271963714426667e-03
4.599162621134491452e-03
2.039938257245960031e-03
-2.773871190222076174e-03
9.569643448684693205e-04
-3.248826835252298763e-04
-4.815530772905833243e-03
1.932425166932468918e-03
4.850111054188184154e-03
-1.278597676854110327e-03
-1.348012631767255150e-04
2.898065255032454806e-03
4.835386284014529888e-04
-1.341300795211380383e-03
-1.874776440331796723e-03
-1.739533783742869787e-03
-5.781601693871067519e-04
-1.184483992982375642e-03
-3.505376781847762899e-03
-2.088788944243255910e-03
2.560535583661592215e-03
3.459889016631489435e-03
1.298192003257664200e-03
7.802874785184999492e-04
-2.010181793768033064e-05
-4.666582688179351894e-03
-5.413133477476324631e-03
3.524755537177309654e-03
7.965232147029139773e-03
4.541413272994927232e-03
3.702829725550164149e-03
-1.497513877133003612e-03
-8.380805499078176207e-03
-2.899133044477972872e-03
2.373084138766662354e-03
-3.597924387517870181e-04
-1.666362079584990895e-04
-7.544589903018461205e-04
-1.966374008891655541e-03
1.459231914337762474e-03
2.143065658276854454e-03
4.501762184693326903e-03
7.486811134203869705e-03
1.935964498475213017e-03
3.041180114638017819e-04
2.899242198338579293e-03
4.691774363870392811e-04
8.816731960910518433e-04
7.084868452078093085e-03
9.634609770788601923e-03
1.405853245845628020e-03
-2.158690647548134906e-03
-3.666994311461201257e-03
-2.419234435567722136e-02
-2.925568284355806181e-02
-7.328829434509733128e-03
1.112890940379158066e-03
-5.112229578217592765e-04
-2.263024898995448595e-03
-2.772752831042663360e-03
4.931405407049998559e-03
7.523131288046254125e-03
5.848391139001670076e-03
3.590437467206063910e-03
-8.507677835629675429e-04
6.129535163387999069e-04
2.761538940713131537e-03
5.633625118065947388e-03
8.264029510800898967e-03
3.322481192464096702e-03
3.861753989576769482e-04
1.241549280714919837e-03
2.000903863544319441e-04
-6.982850232311664344e-04
2.217103028314375366e-03
5.101451301396771158e-03
1.306343122963552275e-03
-3.355113012773087988e-04
-2.141292397400993558e-03
-7.619947022250613856e-03
-2.493668373336159396e-03
3.356167178114329019e-03
2.265111833457782598e-03
2.210258249269061656e-03
-1.316857997756484908e-03
-5.004101865201633810e-03
-6.253915656549932124e-03
-3.495127461649970204e-03
5.703555422219777279e-03
6.995521026082135788e-03
5.623359929235767626e-04
-2.040826301244408683e-03
-3.530630114521730520e-03
-5.127983274568626536e-03
-3.529254528157779562e-03
-1.076735047004156532e-03
-3.557074319417970285e-03
-3.095665602989502128e-03
3.617483580336163570e-03
2.086309734237124392e-03
-2.322585265102472367e-03
-1.471797682573174147e-03
-3.569460296513521412e-04
4.220672813060775790e-03
4.597888362826180186e-03
-4.571278421431072131e-03
-8.518715799612542466e-03
-1.797885225413774169e-03
5.545666149249471599e-03
5.786366861403968373e-03
4.415701576886301057e-03
2.768519386512521309e-03
-8.956806396235474218e-04
2.424473935850187615e-03
4.892815548329337676e-03
9.718242805653476857e-04
3.176706743512614818e-03
2.538247161437340478e-03
-5.420628504006961418e-03
-6.039948592434940360e-03
-1.869580143537034498e-03
1.495417370161532906e-03
4.616515076075019403e-03
2.708911031144609939e-03
-2.418563552748741186e-03
-3.790215239274068865e-03
-2.701510277815362578e-03
-1.676274997447111347e-04
5.117701987025423740e-03
4.591540053981798923e-03
-1.934516951857193166e-03
-5.540576038740299344e-03
-1.054856874402985284e-02
-1.339312078033070078e-02
-8.673532937172580282e-03
-6.299193201312634771e-03
-3.822055232376710739e-03
3.710166542381304784e-03
1.074098589405930899e-02
1.259996311932896212e-02
8.105329452262955911e-03
7.583711668834388839e-03
8.077759031526226402e-03
-1.124338765986686740e-03
-2.811281066016637579e-03
3.241592290877184923e-03
-8.228764328997441009e-04
-2.817660212124208866e-03
2.953838338802896625e-03
4.925735772114523021e-03
2.961751335758210611e-03
-1.953537029215065678e-03
-5.577456954130576364e-03
-4.648328906638197859e-03
-4.825899439956824258e-03
-4.598746435095262680e-03
-2.677474123272833781e-03
-2.007663372341832522e-03
-1.025409138518008391e-03
-1.609858778516694722e-03
-3.439420652524670906e-03
-1.240686304364744088e-03
9.541343249909482521e-04
-1.040143841763863791e-03
4.231190252896983536e-04
4.769005572741302941e-03
1.599718840707440703e-03
-1.421853879377815190e-03
2.944998286233856382e-03
3.875065900628575644e-03
1.550299361989446656e-03
-7.505335371216649131e-04
-3.988398025100917642e-03
-1.006275876443172646e-03
2.874526759300659751e-03
1.819774944914562742e-03
1.088539868597804055e-03
-2.379420422448125672e-03
-4.291489175343455795e-03
-2.289956874036018801e-04
1.054236247284272765e-03
1.611104762037247895e-03
4.698630673256674883e-03
5.232275062177010709e-03
3.870221700518358676e-03
2.174100317437701116e-03
3.983049137320232450e-04
9.770452067108335165e-04
2.926904177377457044e-03
1.011825181922651256e-03
-1.075601140142324426e-03
1.992858678510317505e-03
-1.020198430810240284e-03
-7.825663739058711862e-03
-2.412395641073786842e-03
1.479962743477888443e-03
-5.797770809988736507e-03
-6.889732993457055310e-03
-5.561177052044215773e-03
-1.152670285427969711e-02
-1.077321368494487362e-02
-2.754616918759334333e-03
-8.792735956320080941e-04
1.016048943783395483e-04
6.768992674105469079e-03
9.003335982654528391e-03
4.374713475348629074e-03
4.576966063840741741e-03
7.965436927452246296e-03
6.798334204473521075e-03
4.318836417911269335e-03
-2.276010441351121417e-04
-4.358874064293929117e-03
-4.284266521121456867e-03
-4.914849396895993282e-03
6.654611553305015033e-05
6.822976551014183627e-03
2.870151354211152202e-03
5.940585025106422112e-04
2.737694656843605266e-03
2.058074845065145046e-03
3.065557940803985068e-03
2.586434998674447261e-03
5.373201045871283310e-04
-5.302759583662773699e-04
-2.192977449271820301e-03
-4.177474905836343032e-03
-7.472079586526598517e-03
-3.579844982955446633e-03
1.862084973993515576e-03
-3.866427838729430064e-03
-5.831601957502119751e-03
-5.812055462292573579e-04
1.432064529827741396e-03
5.192342980169400470e-04
-1.576124077934115252e-03
-5.993801135834432667e-04
-1.848955086771101588e-03
-5.906314210249077011e-03
-2.596571532313350292e-03
3.233139061543004525e-03
8.010906758066448086e-03
9.690276569802905651e-03
4.604119599446146634e-03
1.522654540710431312e-03
1.077452213190061535e-03
-1.357277303906463412e-03
7.372873438934744511e-04
5.704847460739117734e-03
3.346205880109957235e-03
-1.701453347396867256e-03
-3.690697858789867072e-03
-7.456593890088311291e-03
-7.350254167119248637e-03
-3.238561752965088327e-03
-8.359396539502974037e-04
2.708432760742829175e-03
-4.049847395832911236e-03
-1.304814919111109764e-02
-4.951569646521511089e-03
3.620699366308181713e-04
-8.692308844714549763e-04
3.594930247972518041e-03
3.905425414522217462e-03
3.660787604650966431e-03
7.939105051558115536e-03
8.157957085399923647e-03
4.094125899753952441e-03
3.147233813734327031e-03
7.700366846658807454e-03
7.195395173242449295e-03
8.467348000386158962e-04
-1.245949778097490837e-04
-1.707156017900872120e-04
-4.435469467785652271e-03
-5.774222567874755761e-03
-2.577316394111014725e-03
-4.868203971226377029e-05
-1.009170767862499919e-03
-5.258240070548769046e-03
-3.108294064123428950e-03
5.011897880645802342e-03
-3.937431238758469509e-03
-1.538715382759239629e-02
-2.250987531241321199e-03
5.503918489325459497e-03
-4.366030934706563796e-03
-5.555348335752122169e-03
4.224655730067860236e-04
3.124527351150627880e-03
3.241190795064353460e-03
3.056448935743623016e-03
1.457328678967708367e-03
-2.278058890478590510e-03
-8.356346936023461604e-04
2.238760310859176737e-03
2.237496444699366583e-03
3.711261438745460089e-03
3.797730869814241496e-03
2.107235935687025094e-03
2.271327085227705170e-04
-1.118968598352904249e-04
2.406319955258455750e-03
-7.308703943508106874e-05
-3.006027141716075164e-03
1.253887304276367744e-03
1.782568693477649003e-03
-2.736175519999837439e-03
-1.306465404086037995e-03
4.105946473936096172e-03
5.012775840934536112e-03
8.728738458861095596e-04
-4.632782572306991080e-03
-7.373725396919723896e-03
-6.289026850968964209e-03
-4.312563565865529941e-03
-9.147556519789998199e-04
1.264583383558304697e-04
-3.916835338289454196e-03
-4.194960895716005021e-03
-5.171736736824810061e-04
3.998008696170444153e-03
1.031220549033164818e-02
1.013790486819286622e-02
3.079890607098250636e-03
-1.486026461032002605e-03
-2.215383078725857453e-03
2.823894213492849129e-04
4.472612513270373194e-03
4.848860072891176577e-03
3.090247560215351932e-03
2.680324114088380658e-03
-2.765830971055978620e-03
-7.629419996803595526e-03
-3.687956306545722013e-03
-3.758345728596660610e-03
-6.380996601976940408e-03
-6.126299534914027116e-03
-7.634744886673996977e-03
-2.029631524233286612e-03
1.013639114977596661e-03
-1.080028158219330237e-03
6.087730358216875831e-03
5.221024097297358862e-03
2.507781514158623822e-03
8.004570241811176032e-03
-1.264819212540217123e-03
-8.685482892895713541e-03
-1.614370315710374898e-03
1.527833574261080454e-03
3.262711016755535497e-03
2.739939092102356821e-03
-2.028610220840595512e-04
-3.746192706941322290e-04
-1.084398080267466374e-04
3.675058107304489657e-03
4.566977531406757849e-03
-1.878351397320142282e-04
-3.144379783468109497e-03
-5.570426088017142036e-03
-3.947783839699675092e-03
1.386840854055570700e-03
2.542573131403397073e-03
2.604727055464550745e-03
6.148156697892669977e-03
6.337991705963771233e-03
-1.094280425763504956e-03
-4.655459042410884513e-03
-2.266450355385348468e-03
-1.090842226640971468e-03
1.460312151119085196e-03
6.108828274768188194e-04
-2.081716771163795096e-03
7.657142871142378964e-04
-1.542624065796705576e-03
-5.994442837278471381e-03
7.481057960784528267e-04
6.122914878033254744e-03
-1.166981928762460209e-04
-4.932813653214356171e-03
-3.769314054290069139e-03
-2.731598879449024034e-03
2.032513913261907402e-05
3.054509703786255793e-03
6.021955758006587028e-03
6.053711908748519825e-03
-3.846771320509533975e-03
-6.587655572177778668e-03
7.079616816175111655e-05
-1.811718759144364697e-03
-1.227834257710629443e-03
1.073131523248142469e-03
-2.629188893416171090e-03
1.729649791092064889e-03
6.893095770287017456e-03
3.325817609616653608e-03
-5.424462816927506448e-04
-1.991801182248892702e-03
-2.677749596452647356e-03
-4.308784807492924487e-03
-2.480517174723791650e-03
1.794234139919467308e-03
3.357953715257300763e-03
5.129942731506621952e-03
3.428286090046284238e-03
1.816716688221984947e-03
3.481342526042200368e-03
1.197292916091214173e-04
-1.175754750674313934e-03
1.211026514953892491e-03
4.834868629382191307e-04
-5.055564294658167462e-04
-2.034472909447390503e-03
-3.210345121798100984e-03
-6.549004646762345699e-03
-8.391408794568179855e-03
5.047355072460370283e-04
4.653524329464002983e-03
-1.566868166555315887e-03
-5.322745707229423716e-03
-5.983292942141734717e-03
-2.335542197054101899e-04
7.908671706477150148e-03
9.990370400877109439e-03
8.204856970906461086e-03
7.421379625239979232e-04
-2.797902891308553987e-03
1.745116107569863722e-03
8.985533870289775116e-04
8.498563222889345429e-04
2.685560337461390026e-03
-9.798199839796803336e-04
-1.374576794630257177e-03
-3.424857158716770530e-03
-7.107268097209132156e-03
-2.845549482237133641e-03
-1.858020209914681715e-03
-3.751166790845514298e-03
-2.275312909880808105e-03
-2.923136050982202191e-03
-2.709631064807939936e-03
-2.310628562929910486e-03
-9.856706976972815816e-04
4.201494311430103989e-03
6.867844413896722136e-03
7.323912544320723174e-03
4.585075233232656366e-03
1.336543633431797127e-04
1.997108284203345796e-03
4.185122300387385426e-03
2.867152999029958134e-03
2.848986740996775624e-03
3.875608470037363636e-03
1.682044080284790478e-03
-3.077856279348879006e-03
-1.559030146611724158e-03
5.001361253310935770e-04
-5.676069383012654311e-03
-7.291743326437374363e-03
-2.588660271405819700e-03
-4.358970582677684953e-03
-4.593883487269777473e-03
4.726017968342323752e-03
6.732372464166230981e-03
4.060010966107277693e-03
6.055901447400720457e-03
-8.976746915562537968e-03
-2.170417729174560495e-02
-4.900912576340636997e-03
6.309433481950680461e-03
6.118037866488353071e-03
6.541446517939912553e-03
-2.163257544058136243e-03
-2.891264634123198556e-03
2.694076690072898673e-03
6.148743740468087804e-04
1.662045942800772363e-03
2.499617352109587565e-03
3.736087396850139688e-04
-2.085597751204214083e-03
-4.219760455973443382e-03
-1.396572502309612312e-04
4.883265638031306956e-03
7.332867977126950390e-03
4.653612450790157486e-03
-7.631753456418231569e-05
3.144927816696773196e-03
1.638070883797988287e-03
-4.420897863278571913e-03
-1.604588197302235205e-03
2.013061557562346787e-04
-2.187277129690047821e-03
-4.883627299401734068e-03
-3.453320750554693657e-03
3.013315766434146968e-03
-3.939100173644383661e-04
-5.725360336165774555e-03
-9.346657501633375865e-04
1.982918110170276132e-04
-2.509402498400137987e-03
-3.048096129433657941e-03
-1.880372196632593184e-03
1.808186330045539547e-03
3.636255339899265981e-03
5.883735010622840461e-03
8.602493836025675022e-03
5.050177051632777359e-03
-8.786819732923266965e-04
-8.662367003659061579e-04
5.079271846079973229e-03
5.753876062659347111e-03
7.556121977841852039e-04
-7.861158126773722197e-04
-2.888096828526949891e-03
-2.082627854686188665e-03
2.620478077930244159e-03
-5.477492771694377274e-04
-6.203254024264040489e-03
-8.859405921127362638e-03
-9.649228451438429319e-03
-6.043294341852333169e-03
-3.069209814877094447e-03
-2.153616065139347599e-03
-2.090921775691703070e-03
-3.541829612421374274e-03
-2.819268395582436373e-03
-3.055086748982934960e-03
-5.063658085903134827e-03
5.457869839061552618e-04
1.004324917666955114e-02
1.133571829387567710e-02
8.226961837921126230e-03
3.803646589655713950e-03
-3.215599842655265418e-03
-1.947484144927146867e-03
2.998327069211903853e-03
2.818954878475978410e-03
5.698713099106147983e-03
5.923027841987817989e-03
7.330309051072443280e-04
-1.976511007102327647e-03
1.118151682646120683e-04
8.556388962512160093e-03
1.068491303725854769e-02
4.345648944949938308e-03
2.089531958895010644e-03
-7.536726275571295703e-04
-5.508152704456181423e-03
-4.678668235497348594e-03
2.415804636734883697e-03
4.523083815269435086e-03
-4.812726006996512988e-04
-2.934251437865477950e-03
-1.808438845536101958e-02
-3.249087466197930069e-02
-1.537086561354098282e-02
1.656481405155630629e-03
4.572097545761101903e-03
7.564182626986429812e-03
9.239619300430516316e-04
-2.498316630218577836e-03
2.230505850712273443e-03
1.099155561658349701e-03
2.535369260858023541e-03
4.513613018901158937e-03
1.557528821936534540e-03
3.822400742057898305e-03
7.478185753750218531e-03
5.471282025984731782e-03
4.468875413113825024e-03
4.734429795897012426e-03
1.935848256954445130e-03
-6.604535682023047333e-04
-2.876307370443568871e-03
-3.935520296603373450e-03
-2.281505746683358017e-03
-7.112367360286389346e-04
1.936919810842655876e-03
2.614352067405158620e-03
2.680283104683631656e-04
-1.938085743987370390e-03
-5.735187020137776093e-03
-3.863234008652279092e-03
2.897679572723373294e-03
3.532032441096675298e-03
8.998914609237422015e-04
-2.197950797892749431e-03
-3.487750922334231524e-03
4.624012533759938311e-04
5.385722578184142829e-03
5.216499409165666935e-03
-9.714095774383958281e-04
-3.275854599616792769e-03
-1.631604382210260443e-03
-2.082817839801571862e-03
1.003586096655687248e-05
6.288257815788656033e-04
8.624406935644870001e-04
3.497422866871230211e-03
-1.281977518074898419e-03
-6.901483307802747623e-03
-5.385114632009512306e-03
-1.610107668021067660e-03
1.086241079640916634e-03
1.011426464284732353e-03
2.717929448914782956e-03
4.030961520098506369e-03
1.957649123965108252e-03
3.161454020933819956e-03
3.616398486447238228e-03
8.484692990027548716e-04
-9.413128520053126854e-04
-2.548869575416052528e-03
-3.300632942296908429e-03
-3.360648710860660634e-03
-1.399618886711157884e-03
5.658436455345462919e-04
-1.000790040018649085e-03
-4.388354488763832701e-04
3.575677175921775607e-04
-3.685668356080353154e-03
-3.944973616412090697e-03
2.734897879831679757e-03
5.602333246757654379e-03
3.886117321461993873e-03
6.221301652619287866e-03
6.377605536754436637e-03
3.672232565161853181e-04
-1.091003738013784094e-03
1.442301052350331535e-03
7.398403546162232855e-04
-7.270198895562220587e-04
1.150597952854713482e-03
1.593821026453772372e-05
-7.826421547215082347e-03
-1.026240869404686402e-02
-6.530218399596138257e-03
-2.659842946620901392e-03
9.843122349741009313e-04
-3.652733264873187641e-03
-9.266227359605076763e-03
-3.881443897514503302e-03
3.259123442047274274e-03
4.179270267740646180e-03
2.076987606307641003e-03
4.095989488249136834e-03
6.867580560164752990e-03
6.032635761178815892e-03
5.265920617169753126e-03
1.666500014255924795e-03
2.713727903442363001e-03
8.567970709111537991e-03
4.526096114551944605e-03
-1.376946753738718344e-03
-2.973250842838236901e-03
-3.837048194792508967e-03
-7.697776936160594715e-04
3.202324543501527086e-03
3.326116677341773437e-03
-1.841031764584587400e-03
-5.577648233720641953e-03
-2.710106282156676382e-03
7.496071922447771797e-04
1.309798609809724457e-03
6.666168814387683035e-04
3.440045527236909595e-03
4.477037025441023103e-03
2.171866516004817595e-03
-1.356219686594502477e-03
-1.794718675254351054e-02
-2.501688704628260776e-02
-5.799024558220119280e-03
5.226437201582861958e-03
4.606673591705618895e-03
5.187027602942209485e-03
3.111161810640357232e-03
2.790005261191059582e-03
1.398029081784392478e-03
1.905501942773638654e-03
5.103076266956909496e-03
-7.780322595375309055e-06
-4.627773936909762402e-03
-2.559034226526058723e-04
2.539345323278434114e-03
-2.047584403192316202e-03
-2.355773634048702672e-03
4.338795773284757733e-03
2.991688183952000927e-03
-2.418436841313881779e-03
-1.872790118493642840e-04
4.846336593812997605e-03
3.715930960697462222e-03
-4.111171733561092348e-03
-5.936484471306971433e-03
-6.636810246947691828e-04
1.993464765521603052e-03
1.639042733718020645e-03
-1.091427667734399956e-03
-7.101529966070373743e-04
1.539428074047343581e-03
-1.004547568811584371e-03
-1.959895630430395948e-03
-1.435696833068973157e-03
-3.776808169354096490e-04
5.544425295063578132e-03
8.521984189551827168e-03
5.820644333156361691e-03
5.616590471079524645e-03
4.383939331813373544e-03
-3.086618022162562758e-03
-4.090839638603367863e-03
2.555891455366897640e-03
2.768394864461550496e-03
2.766700567162635408e-04
-7.122563100701016260e-04
-2.976880806142832066e-03
-3.700700667831581612e-03
-2.300478172466808528e-03
-2.478395990292715876e-03
-8.946712469816401822e-03
-1.213502766467156394e-02
-8.858709613934602142e-03
-7.540128650346498984e-03
1.249796334152454037e-03
5.634125839720238900e-03
-1.275429242385884166e-03
4.807060525990388550e-03
7.495761376856268504e-03
1.250894858775354113e-04
3.762341213151569087e-03
4.270456632561610462e-03
1.336854569997152076e-03
2.685456268553820369e-03
-2.215316370819974713e-04
-1.599699367885459508e-03
-2.703951194940308698e-03
-1.223398749835282948e-03
6.689271894048992063e-03
3.872120386791334801e-03
-4.445685636459675329e-03
-4.527256900748252363e-03
-5.698927982285963839e-03
-6.286704091044912658e-03
1.508966951875511178e-03
8.960691890768113579e-03
1.076633882745750559e-02
8.944596124144974653e-03
2.344646823298150555e-04
-7.150661631069130976e-03
-2.970926685007061960e-03
1.301509185039601869e-03
1.104861689331716659e-03
-6.910205888119801652e-05
-4.228796656186888624e-03
-3.898823958137973521e-03
-9.874906159519838012e-04
-1.570618125030209897e-03
1.562277396074316727e-03
3.547344008500218342e-03
-6.615295561812831052e-04
-3.365047142206171668e-03
-1.908154191464218408e-03
1.998372730592677064e-03
3.099530174287683758e-03
7.126297947347870910e-04
-3.559271610279397574e-04
1.150840999180837874e-05
2.330242657312452895e-03
2.684463828472688669e-03
1.331771352553643437e-03
5.213242135439356655e-03
3.959793521053052781e-03
-6.689590564795931844e-03
-9.955083936459475924e-03
-3.472296635603530027e-03
2.587785142692472853e-04
-9.249363373496383590e-04
1.665849851572397946e-03
7.825410456349983501e-03
7.124108615837683456e-03
1.322891169795905935e-03
-1.102689830151212569e-04
1.690386895691042054e-03
2.046808063509334731e-03
-1.861932786710889095e-03
-6.030101360799658763e-03
-6.892474142667281631e-03
-1.042088549888988899e-02
-1.086066353957998443e-02
-5.605958005076860234e-03
-3.571427587301244377e-03
-8.474072944564140040e-04
-1.045003806483186300e-03
-3.279124918361617669e-03
3.549353729129810665e-03
8.612472238390329535e-03
1.146194531610584579e-02
1.815211938574017025e-02
1.685405093295799100e-02
8.797230882854637987e-03
3.752738780323119309e-03
2.648419196101234156e-03
2.142092176490254657e-04
-3.836596589220016805e-03
-8.126027365037266983e-03
-1.628370862693774568e-02
-2.139886184544066011e-02
-2.421977430051346081e-02
-2.451162721488434060e-02
-1.366145421590906836e-02
-6.457242143977118612e-03
-5.911772203993991004e-03
-6.752604283728726653e-04
9.316008292530288809e-03
2.010130125121148068e-02
2.201836961668238168e-02
2.640818335588410171e-02
3.684345405663674161e-02
3.636242697774084986e-02
3.155463540259236671e-02
2.526633336989745487e-02
1.387519303914465721e-02
1.187940763810611724e-05
-8.529203641949673065e-03
-1.149897849907326533e-02
-2.561464333861333126e-02
-3.455838981753202310e-02
-3.446006538002042291e-02
-3.731267617051581276e-02
-2.798048716393945062e-02
-2.076093873144315566e-02
-6.814180391885383062e-03
9.832238927838889142e-03
1.088920613579521732e-02
4.451406871876600196e-02
4.243231782520358319e-02
