-4.359809625500670610e-02
-6.004969071636592770e-02
-3.041761496597709946e-02
-2.182987188075106305e-02
2.507474784283038674e-03
1.645117939382718594e-02
2.438252170863962690e-02
3.790711374883160706e-02
4.128216498720675004e-02
4.822384815533314883e-02
4.472389922242035742e-02
3.420247998562649799e-02
2.493823991968747988e-02
5.914964958548298880e-03
-4.475956725314023804e-03
-9.886593756246399647e-03
-2.228914266936170979e-02
-3.168926207203139750e-02
-3.512321380129537068e-02
-3.428366600732060676e-02
-3.459268019967045443e-02
-3.468626522513591076e-02
-3.008918680249843269e-02
-1.782711894927137969e-02
-1.367241675686252768e-05
1.087287248756938982e-02
1.539543798702766933e-02
1.680627564230215490e-02
1.815178516221060967e-02
2.222364510418862321e-02
2.005571632955397213e-02
1.757396658281260016e-02
1.519064591434343518e-02
3.784019716636942074e-03
-3.050771348379601507e-03
-3.009386307944120469e-03
-6.354334553454320245e-03
-1.007375952079450458e-02
-1.243233769014894657e-02
-1.350094545075605258e-02
-1.211485519912394899e-02
-1.185077493740177568e-02
-1.165719606673352830e-02
-2.616617764664912887e-03
8.675147444699908214e-03
7.509289796793928301e-03
2.818738674875601903e-03
2.417152335202497372e-03
-6.124136802305906249e-04
6.197278149806090784e-04
8.290015920576048955e-03
8.880860606464520066e-03
6.064254664896623695e-03
5.824128099668171750e-03
2.690139651452077424e-03
2.160930310185315943e-03
1.443781219188327745e-03
-2.980012317482257263e-03
1.079793432577651332e-03
4.715944617508237811e-03
-1.160011557251454145e-04
-2.413918172041530467e-03
-1.046405696312865908e-03
3.025251344409151440e-03
5.204673330771513416e-03
4.497817324436587279e-03
2.206850190563160955e-03
-4.405145802716923381e-03
-4.460927038882228982e-03
-5.501026073775343479e-04
-6.796470799755119103e-04
2.256165413750180898e-03
4.153565591374728388e-03
1.824655335664311347e-03
-1.260321214651365616e-02
-3.230438924862114036e-02
-2.096223086513262016e-02
5.577106684620588596e-03
1.091302037833591018e-02
8.202400635574707763e-03
4.419614460218054298e-03
-4.609094120059147731e-03
-6.071524671827661229e-03
2.080816562553392413e-03
6.271908167314837849e-03
3.595244630699631454e-03
3.155949733159352580e-03
2.224030698202024946e-03
-2.093381655616842127e-03
-2.280754828900676684e-03
2.090265536382495716e-04
3.098125923611194221e-03
2.694012038146573976e-03
-4.340007717948526911e-03
-4.600521394107551926e-03
2.129902279651128567e-03
4.318979553990611765e-03
7.678664821191684073e-03
1.006308016314886623e-02
6.047518977494358017e-03
2.500342059103896272e-03
-2.961686253747126442e-03
-6.193443516919468900e-03
5.799731127491251524e-04
4.865588081840348418e-03
3.339162295854487296e-03
1.477364362707784921e-03
-3.175058283426016731e-03
-6.030787599894546491e-03
-4.784053173819348588e-03
-2.873592482496799792e-03
-3.184880742207318351e-03
-6.304619489054186059e-03
-5.634723724627305544e-03
-4.529847324462673783e-03
-4.442286240446238592e-03
3.677067905107547514e-03
1.078649941934573496e-02
8.579083025386253364e-03
4.162911422902660849e-03
3.450413369907498451e-04
-4.591109071528823998e-03
-8.215343606488532957e-03
-2.426380261140340805e-03
6.027860465214322262e-03
6.027082624108393016e-03
2.775533213290994408e-03
-3.601293198956641295e-03
-6.725698415630222519e-03
-2.113249758529572690e-03
-2.566028622287557133e-03
-2.005018035302759752e-03
-3.126685228146956248e-06
-4.558827448758130153e-03
-9.178758762088731066e-04
5.821137844717195163e-03
4.724106405411748061e-03
5.088393961471218696e-03
3.430850614912226652e-03
-6.879487230291495394e-04
-9.579470363776368055e-04
-2.651335401949575076e-03
-4.355614854906262809e-03
6.313985677979777177e-04
7.382864561908623197e-03
7.374953873935527308e-03
1.888395452679593207e-03
-4.402423444392365715e-03
-6.772167852584868100e-03
-2.049580774154079015e-03
2.072772929100427305e-03
1.057069040006048061e-03
-1.589464301500405222e-03
-3.048198928656895533e-03
-1.697243742094066508e-03
-1.856212645516225421e-04
3.898709687136801220e-03
5.879281261432719313e-03
7.167333109231964743e-05
1.829025613509797400e-03
5.163821692634543332e-03
-2.154351027712417092e-03
-5.886284038773354627e-03
-5.798271620405186233e-03
-1.993567329448121036e-03
6.824203952524930498e-03
5.671608203694387604e-03
-2.423149572466769177e-03
-7.158521587311417536e-03
-7.285689862083092987e-03
-6.129749682555286905e-03
-5.882440806673459865e-03
1.639192109135656278e-03
5.566185251432756095e-03
-1.812721708542189541e-03
-1.645745622956504305e-04
6.999908875511062084e-03
6.553134199939686724e-03
3.793588615923225698e-03
7.626972962307944576e-04
2.572902060364428149e-04
1.764239765307017973e-03
2.234169952364200781e-03
4.108504741051803057e-03
4.089014593065518760e-03
1.972949005913204271e-03
6.993501241367019528e-04
-9.681264867660847222e-04
-1.464596725517562127e-03
-4.759578291975669756e-03
-9.336301983740826621e-03
-4.867514536050367158e-03
-1.667426512332141836e-03
-4.480581842017643951e-03
-1.002952456813512461e-03
-7.891386013682722290e-04
-4.387646104453769673e-03
2.117192148420946919e-03
5.825017165366482702e-03
2.785555802794353018e-03
1.503732762694590889e-03
-3.948141324903821359e-03
-6.958723925814922981e-03
-5.732481666595039575e-04
6.147328488060648834e-03
8.218616877181164279e-03
5.013854172920681994e-03
-6.147146930534326060e-04
-3.566334097497277176e-03
-3.215621616960544823e-03
-2.247078675361916140e-03
-5.638126488760028575e-04
3.388791884009478405e-03
3.980921225342740240e-03
-6.380728240508925717e-05
-2.094047846367859400e-03
6.191337821860978027e-05
4.986188967818531818e-03
6.904722387217454571e-03
2.932267471889116878e-03
-6.337261319144626807e-04
-6.247289463638074818e-04
-1.327226769448010876e-03
-1.280284209915430764e-03
4.617471452034676779e-03
5.959641977167512601e-03
6.002989865380737580e-04
-2.228867341171694456e-04
-3.409988102465122406e-03
-7.425958323405708328e-03
-6.195805072825568034e-03
-6.429795766559481124e-03
-4.963121716727214930e-03
-6.362048385726082507e-03
-8.450220955519000335e-03
-3.736293187332291078e-03
-2.794997134474590337e-03
3.949567308423333929e-03
1.283746391297773196e-02
6.383706195809921505e-03
3.320621270946673247e-03
2.950199042062167688e-03
-4.787633451697702151e-03
-4.603561788087351392e-03
2.588371755848805755e-03
7.150837884394660969e-03
3.275140809680999934e-03
-2.735660100934882849e-03
-8.469463395730972939e-04
-2.469246642390322388e-03
-6.150456051403447796e-03
-2.780721920090355789e-03
1.931583731199192078e-03
5.997700138508633289e-03
4.876230545918743865e-03
-5.121007241522257392e-05
-3.452693477597737134e-04
3.654715988344946469e-03
6.357519525445208888e-03
1.649059668302910869e-03
-1.750754777965752565e-03
-5.380028497241506240e-04
-3.447249220962146903e-03
-7.380848555232171187e-04
4.509745618289326755e-03
1.053570590814035699e-03
-3.775820114684909834e-04
-2.866835669866888607e-04
-1.890651992182551099e-03
-1.148199948344493567e-03
-3.525360867310701508e-03
-4.593557621794563603e-03
-1.167171611982929661e-03
-3.146637940565837326e-03
-7.035248706132172722e-03
-4.218014261239262826e-03
2.234081010554999323e-03
7.665649247269566875e-03
7.087589467387096082e-03
3.361132700004114317e-04
-1.552018299412681991e-03
8.231978333645870952e-05
-2.037073435579924915e-03
4.594235157731864578e-04
5.577109481986340829e-03
5.439906086130670733e-03
1.919082696500430153e-03
-2.876419008813524414e-03
-2.988462573275804755e-03
-2.517374310240659725e-03
-3.795245380649812060e-03
-7.619774932729776393e-04
1.169889495840445871e-05
2.759850797302512313e-04
-1.173219967751064482e-03
-4.834028236328932965e-04
8.722309865230388343e-03
-3.675026170751703649e-03
-1.751481099755159213e-02
-3.809925601387268790e-04
6.040139748733712108e-03
3.730084403795816492e-03
5.955773168652821019e-03
-2.875946629986672956e-03
2.561409140689636758e-03
1.036360490269000109e-02
1.302681435828249336e-03
-4.129214390737220549e-04
-1.255607492930952080e-03
-4.361610817253268671e-03
-3.980621003717794461e-03
-6.765402106711935516e-03
-4.167823815908171074e-03
-1.429134371322132854e-04
-2.854930613108342622e-03
-2.624903497848734939e-03
4.339150500976065271e-03
8.321597467114137323e-03
5.893883770108261817e-03
5.976407169713850165e-03
3.977710164770770565e-03
-3.376557217628828236e-04
3.018679571074102961e-04
-3.766919188643182755e-03
-5.075974173600800859e-03
2.639751007868204862e-03
3.180253246623656466e-03
2.592790951209118615e-04
5.994642833101960144e-04
-2.008195709897996669e-03
-5.300600481155638699e-03
-4.773432937324875898e-03
-2.477059562691183350e-03
-2.245444063556477007e-03
-2.707596923732354544e-03
-1.179222139298630959e-03
3.497281741987563275e-04
4.360457812855970125e-04
2.422753865009387182e-03
4.823822844214809349e-03
3.451879212459611247e-03
2.299217280119536175e-03
-2.958689878046095924e-03
-6.280194005992985849e-03
6.494664073825467260e-03
1.152793851222296342e-02
3.359969985002243809e-03
1.891103076113556528e-03
-2.624398511699061170e-03
-5.542602942694808271e-03
-5.494060842365287162e-03
-1.175184115883461111e-02
-4.886800807596996393e-03
4.429199282696456505e-03
-1.486579854282380105e-03
-4.919038381510158243e-03
-3.039360181024614201e-03
3.072831957761116770e-04
3.413697891814590751e-03
4.050651532543739740e-03
6.424730441471907666e-03
4.695975992654820991e-03
1.490506459928553904e-04
-1.029502163314307021e-03
-1.290937126703793321e-03
2.215710417978390689e-03
4.767581503647951371e-03
1.813910357667739785e-03
-1.187047570179288001e-03
-5.146023119593300110e-03
-7.747724062727256653e-03
-4.046906279402351370e-03
2.316037089962966720e-03
5.484175750029636476e-03
2.928721505565584637e-03
-1.783934005930936772e-03
-1.843436740178210119e-03
3.775910768566425289e-03
5.228328292525205416e-03
5.775221804687892362e-04
-1.492920140716914369e-04
-9.332390485631376562e-05
-2.419868265319352358e-03
-1.935222259801107391e-03
-8.113227213941574725e-04
1.145181274960806617e-03
2.212673608032800394e-03
-6.734242643888051693e-04
-1.698597634970593290e-03
-1.962653106386932217e-03
-3.067099505218263706e-03
-1.497789630923688966e-03
5.660703449675574556e-04
3.002782259059112117e-03
3.532629251612200930e-03
-5.360310684942748861e-04
-2.369783295099202759e-03
4.884256302414362013e-04
5.603337679951154310e-03
8.179864355133348308e-03
7.408974749192507540e-04
-8.326435086096442562e-03
-7.121827050558428816e-03
-2.214827270986908635e-03
1.285072356272210468e-03
5.080609307538716535e-03
3.119630620263456455e-03
-3.018804721393534250e-03
-3.771435557124681089e-03
-4.774774232263558939e-03
-8.989610814782535153e-03
-7.316907837445518412e-03
-3.383617907737192492e-03
-1.047019022006214503e-03
2.706151664679848443e-03
2.704975896134024713e-03
2.112072116767357496e-03
7.200250822993096468e-03
9.476733949748917737e-03
6.316701253379365319e-03
4.392150418708989403e-03
2.181882753371549612e-03
-2.670862925079894173e-03
-4.351301549868169354e-03
5.264760437190919374e-04
6.580129556096794147e-03
7.334319302392963702e-03
3.776979627373680537e-03
1.385085805765411517e-03
-1.535415288620183569e-03
-5.566597251049351831e-03
-3.755537073220493668e-03
1.005694920689184950e-03
1.168990965673129745e-03
-3.750691911926709501e-03
-1.068781751578907688e-02
-1.191378581352109216e-02
-7.635849247448087303e-03
-3.132614122556617343e-03
2.002472860337514270e-03
2.004789372842921344e-03
-6.779176479471253104e-04
2.469191278728645987e-03
5.807027699224306255e-03
6.892144485588642434e-03
5.448740669637625392e-03
1.613390459288703994e-03
1.380787198520434540e-03
8.811957404033928746e-04
-1.893190806773518108e-03
-2.233869566558191293e-03
-9.271820608347621688e-04
8.622288197521923276e-05
-7.186399412735771774e-04
-1.679834860569768499e-03
-3.726366858634704623e-03
-5.925344385655230764e-03
3.552648433608948924e-04
8.501984859711158790e-03
8.323763489108395794e-03
3.593893550471036723e-03
-9.071857320735910064e-04
-1.634977581517119312e-03
-1.056031328735868198e-03
7.013959138295706650e-04
6.127490827628541414e-03
5.558329310338081496e-03
-1.617874012171818289e-03
-5.059925502367687219e-03
-2.647488486913355914e-03
-8.041564022296959378e-04
-4.786470178562751525e-03
-5.369750202536499248e-03
-2.650637211300304035e-03
-5.772683719620360504e-03
-6.053270999200205567e-03
-2.326431424367777362e-03
1.561961160308958981e-03
5.101052202637046916e-03
1.434611536382106615e-03
5.479712896571223594e-04
4.163713353110019832e-03
7.024927553434621302e-04
-5.618967127955996595e-04
1.859652727202898588e-04
5.906775060920572149e-04
7.183925278713896440e-03
6.481179091728139080e-03
-1.529620702910602318e-03
-4.197123220710052317e-03
-5.291369588200428228e-03
-4.070475196844582783e-03
-1.894549055115112707e-03
-1.500068019174249012e-03
1.870517833899476741e-03
3.494005851254004466e-03
1.440198317933163042e-03
2.090484762293656242e-03
5.852102735947819698e-03
7.549019185090080110e-03
6.412574000491474795e-03
6.978352118805431804e-03
3.738653747999613839e-03
1.557789805099615192e-03
4.610119408163005326e-03
-1.208873031332348413e-02
-2.896692618134451627e-02
-1.154472756858547847e-02
4.190781055942933639e-03
2.323562715751206938e-03
2.591890931652893193e-03
-9.051539107850015749e-04
-2.760863629158618118e-03
1.278029057819065695e-03
9.785955669487788494e-05
-3.676063478894477706e-03
-4.889930007977819591e-03
4.413332291045251980e-05
6.121031882841821217e-03
5.464402399714890675e-03
3.088374349125622143e-03
1.841992589044699931e-03
1.933264105699590649e-03
-1.211048969017909042e-03
-5.592692144484154478e-03
1.984216036074002744e-03
9.138042182950211270e-03
5.169616001323513489e-03
8.755779160997004349e-04
-5.389038394372193397e-03
-8.931291419058141542e-03
-3.471424106122596685e-03
8.116962011972916717e-04
2.167700658237852081e-03
1.122993652367012705e-03
-2.332607937150993089e-03
-1.981859439813977650e-03
2.459539350619638961e-03
6.421328824441842505e-03
4.196884415274590441e-03
-1.227128316647825871e-03
-1.470653591574363431e-03
-1.372571860929582997e-03
-4.385114113244580232e-03
-1.822649177257395147e-03
5.207943937364856342e-03
6.239537826645915643e-03
5.488765991934485555e-03
5.149814750490823087e-03
-3.016656942892056471e-03
-5.960767265929906196e-03
-1.192668551339944863e-03
-3.404257270105396759e-03
5.899638804161656336e-04
3.616180564439029459e-03
-8.962239269770589864e-03
-8.280572341242917536e-03
1.556624284860642178e-03
-1.228338820497534758e-03
-3.587495513930783354e-04
3.039660101268275468e-03
1.276969178645400316e-03
-3.997559976749798043e-04
-4.334024671992200289e-03
-1.320048449463838642e-03
7.341657938211517721e-03
6.387156318922418592e-03
6.437447953678325984e-04
-3.442686937015801679e-03
-6.169321332271945381e-03
-7.331195034438482000e-03
-7.604931693808230156e-03
-3.854230118424764075e-03
1.404427710309237836e-03
1.290545585538491321e-03
-1.012931523300618017e-03
7.075161142011708116e-04
4.319475398458629510e-03
7.027351953997684059e-03
8.895762121971614866e-03
7.373980928509131158e-03
5.605057428154641176e-03
3.791788113991739154e-03
-2.417707436879366293e-03
-2.322660769077997730e-03
4.061233357481230412e-03
4.742729458034168968e-03
4.391070440893905975e-03
9.787809429854187580e-04
-6.318418784766955537e-03
-4.462908361274821496e-03
-5.170586603397771437e-04
-4.893550930658572759e-03
-7.719709098308417776e-03
-3.779829528770693205e-03
-3.397163218535238435e-03
-8.967155844479414439e-03
-5.011828328789397040e-03
5.680930068895216623e-03
5.958862546442762233e-03
2.319971388189847987e-03
7.428396465192736850e-04
-3.702064247019554687e-03
-6.192978612990846475e-03
-2.531510557632937926e-03
4.623122132257684314e-03
7.481997041425463534e-03
3.549810207363599413e-03
9.416195577102956819e-04
-6.705480775436563692e-04
-1.714903225251723350e-03
1.222293094741942754e-04
-2.997369644227935049e-03
-5.386348757935885932e-03
4.722770795167445393e-04
1.955207912770470791e-03
-4.272534721077229209e-04
9.655500347070424937e-04
2.741774314841903190e-03
5.237974934879919414e-03
2.685614967707444355e-03
-2.874769752900345043e-03
1.119655113799017951e-03
4.370074297130032218e-03
1.321272064811575449e-03
1.731826418768343681e-03
2.804537821595303685e-03
2.365723729745239628e-03
-1.727819986936413683e-03
-7.076308761473081542e-03
-2.563108482019194230e-03
6.560076254760019475e-04
-4.984392694062661326e-03
-3.698343478514875497e-03
2.622262826148275428e-03
1.394804666554766599e-03
-3.446920546659184084e-03
-5.054643711047641713e-04
6.086137172261622645e-03
3.283326316262408229e-03
-2.144027270401184255e-03
-1.893401778519077832e-03
-1.456248034446653693e-03
-3.268192053853980362e-03
-5.007594173210363347e-03
-1.184990059618375472e-03
3.871500377337826725e-03
2.587163447690275005e-03
1.413395594760603197e-03
1.592180434670295531e-03
-8.302176527410952888e-04
-4.951837878456676924e-03
-4.827125945327647577e-03
1.556631372374556481e-03
7.397740270353241835e-04
-3.110127659549548080e-03
-1.081127783714260892e-03
-3.275391850030007213e-03
-7.108328686866889883e-05
7.480628744244402668e-03
4.001936932172196412e-03
3.047683152512655532e-03
3.904282061178032497e-03
-3.523639604890454633e-04
1.414739662322236262e-03
3.075884743326170664e-03
1.419266983681217401e-03
1.781414215630715151e-03
1.865947286346652297e-03
3.477099035948020590e-03
1.969011896563946894e-03
-4.351390122897510863e-03
-6.657437994913849647e-03
-3.875208853329670158e-03
-1.424723815455565621e-03
-3.157820655176224456e-03
-3.240474427644865398e-03
3.318319219879120032e-04
9.800417221816951595e-04
3.576610105424080088e-03
6.438675107560324837e-03
4.456907660216039360e-03
4.960780341615669484e-03
1.328810573637053804e-03
-9.060191074778406115e-03
-7.649123889589447972e-03
7.088144545397386323e-03
1.277869408318825679e-02
1.744972503095254708e-03
-4.061847467359446656e-03
-6.488464954691955909e-03
-2.552429056344915001e-02
-2.915205385829400600e-02
-3.002983066254638362e-03
8.352763273881709874e-03
3.104880662353837108e-03
3.310455844404210091e-03
2.142446402382756562e-03
3.608657925510538791e-03
8.731662543159423098e-03
7.373102818526884594e-03
4.465723458944204256e-03
2.418468792236704197e-03
-1.628363083148948523e-03
-3.398399003860606143e-03
1.084133934108594223e-03
7.201029763903223947e-03
8.333653682493436660e-03
9.102882223044353460e-03
8.009273882831060773e-03
-1.548978856355828163e-03
-6.028047551320225503e-03
-2.366159003435626840e-03
-3.909718589266550880e-03
-5.209715710105602970e-03
-2.653509443438038969e-03
-2.404071518600132268e-03
-1.674133329607236861e-03
1.934157986079002673e-03
7.411423793554043973e-03
6.832839707504193526e-03
-2.578123933837946080e-03
-6.567978499026601649e-03
-3.762135320836267928e-03
-2.170864117931596560e-03
-1.047336168686550679e-03
7.789150237681829840e-04
3.131233230665499481e-03
3.755218523415331531e-04
-4.722320583094269386e-03
-4.427560995147887361e-03
-4.740936874140136426e-03
-4.416810185199868642e-03
-1.511765965230299968e-03
7.477722633271598369e-04
2.705939084726592149e-03
-1.986498191812880853e-03
-2.429368869362873683e-03
7.746687238575555509e-03
8.915089712517651824e-03
4.899131785517114174e-03
2.135646847959844427e-03
-4.850103260968465294e-03
-6.531981363397347008e-03
-4.004831139985329247e-03
-3.442051758701848967e-03
-8.031153656157960724e-04
3.431765896541965916e-03
2.532826636847124255e-03
-4.780185640373899904e-03
-4.572564680259438505e-03
-3.232629476615861896e-04
-4.642964195831370509e-03
-1.275462326597802398e-03
7.162732773011408136e-03
9.746052017151247710e-04
-8.260617986453711731e-03
-6.269181284463423709e-03
2.823447208509414358e-03
7.782241582077320877e-03
5.468168975972099825e-03
5.472975129458860014e-03
7.235023537731104584e-03
3.072187108466306344e-03
-2.763840019926745630e-03
-1.297642711625616400e-03
5.170094798828573680e-03
6.232687913127196895e-03
1.823332494299200303e-03
-2.431756953533521001e-03
-4.212753285734609221e-03
-5.717511066154076999e-04
5.617438304080409062e-03
8.194651555313386265e-03
7.027199584976948424e-03
6.386960851613274377e-03
6.038502033934856073e-03
2.940059423052589563e-03
2.844717886981304455e-03
3.576965810152711936e-03
-6.803822757681243436e-03
-2.153897253683409105e-02
-2.713915681690982906e-02
-2.620000455866101571e-02
-2.485297740581902254e-02
-1.686247977748569354e-02
2.890078650499520486e-03
2.417955526391913496e-02
3.641738453164696659e-02
3.522840285287457546e-02
2.074261709486755617e-02
-6.771525746531507212e-03
-3.896552679087883497e-02
-4.979200331220946796e-02
-4.117653002656749411e-02
-2.664178273576141634e-02
-6.453529496503764267e-04
1.333058234485203983e-02
1.753506810871814647e-02
3.813076658825281101e-02
4.247524971902006535e-02
2.412218699817772830e-02
1.115302224313898319e-02
3.060936863907563320e-03
5.756059673682974859e-03
1.331896622587524712e-02
1.434582043273330797e-02
1.164370893496009807e-02
3.158383704082016932e-03
-2.469525951567325128e-03
-6.244405548164306229e-03
-9.038239816586413067e-03
-4.524239842484483430e-03
-5.439408117412732925e-03
-7.633385545950970540e-03
-8.419166382852795102e-03
-1.441335479546927874e-02
-1.550862100812312218e-02
-1.395296698584378575e-02
-8.762931864963758449e-03
-7.047071939602409137e-03
-1.580149978304478189e-02
-1.219335503671300537e-02
-8.486346896332777612e-03
-9.820059446676979165e-03
9.852570316156519098e-03
2.599820982172636186e-02
2.099137471283656423e-02
8.412579343258137082e-03
-1.031232639564655905e-02
-2.197855265903498473e-02
-2.140601473761963303e-02
-2.123474092325942572e-02
-1.857948453702802649e-02
-8.486576642932485912e-03
-3.218585273380141377e-04
6.015042037703726384e-03
1.693102163392864318e-02
2.262430402941173480e-02
2.224690323780280365e-02
2.055786609744926496e-02
1.317116070963979604e-02
8.468781939893418181e-03
1.077625357460632906e-02
1.521982686664096092e-02
1.902489723911596209e-02
2.127340817215188709e-02
2.670430858725016815e-02
2.761910297764745559e-02
2.113254866869595724e-02
1.502054035483255286e-02
1.361300513517850995e-02
2.233855851972239501e-02
9.098655969899189372e-03
-4.130098126956099208e-02
-7.785379637141681686e-02
-8.269362055979491422e-02
-6.829805257113441552e-02
-2.899639916503052653e-02
2.476198498531986814e-02
6.391859049367575041e-02
7.238549697587552678e-02
6.125437034471029746e-02
2.246152397606422657e-02
-4.761405944952099706e-02
-9.428557880923714440e-02
-1.044983376199868780e-01
-1.061493050984520653e-01
-8.682450845538805528e-02
-5.153115460160732908e-02
-1.451351523945851839e-02
3.560284016191505446e-02
8.507059770104782870e-02
1.048422115717890651e-01
8.677203198778357662e-02
4.714236646773621586e-02
1.106652933353798919e-02
-1.433718535056557365e-02
-2.670363742775624591e-02
-2.287305250543048354e-02
-1.278921876812520210e-02
-4.806566225145517211e-04
1.426909075983815237e-02
2.768152909630486672e-02
4.611590732078575672e-02
6.280432721178053068e-02
5.621710530631428976e-02
3.431015849631630088e-02
1.916635537194812805e-02
5.681164059711965239e-03
-1.599132632555288688e-02
-2.695234739787878697e-02
-1.168436847301073875e-02
9.278838460082646650e-03
1.270273131468678540e-02
-2.671428108427477063e-03
-2.066742836778275721e-02
-2.093550137048803481e-02
-1.319863851430621432e-02
-2.659971343058244869e-02
-6.432022716890409275e-02
-8.987389603743770050e-02
-6.698791281116282803e-02
-3.686217170341330590e-02
-3.958609337998447025e-02
-1.758172444076785274e-02
2.795395884247639171e-02
3.774331723139938422e-02
3.305775277487821295e-02
2.146904737453172660e-02
1.498739774881135793e-02
4.407679419419621020e-02
4.279383597007611201e-02
1.756845582001844222e-02
5.002084621686179317e-02
6.582766056809670474e-02
-2.935949390267062788e-03
-7.224174844173993082e-02
-8.241998572880221419e-02
-5.970371028007893238e-02
-4.170567323385961089e-02
-2.780453202900203674e-02
2.842349405628043571e-02
1.117373121058886504e-01
1.151426618603245966e-01
4.369071809031757625e-02
8.999494712888791103e-05
-2.460616879364826634e-02
-5.917905157556564016e-02
-7.461733641138247608e-02
-4.208736702450979056e-02
4.390626984712578396e-02
7.533647112829590375e-02
1.517812702401433005e-02
-1.664854511967857678e-02
-3.898339108355214355e-02
-7.513319774544376106e-02
-3.898126891427879798e-02
3.934940875226426715e-02
1.142822938764568447e-01
1.423808133473916104e-01
3.805539670406363900e-02
-1.274221892824526081e-01
-2.015005460816391425e-01
-1.427296041988565523e-01
-3.538633470024624833e-02
3.230527218445586324e-02
1.102425209847048282e-01
2.003368601711446040e-01
1.681983761999839289e-01
1.063906499100966165e-02
-1.367273690157106147e-01
-1.715612079693750180e-01
-9.852476541712688884e-02
-2.404377347697544964e-02
1.094245302930491222e-02
3.533636564046289952e-02
2.977787700292524112e-02
1.581106644954520524e-02
2.908278106972580004e-02
5.886339861883965047e-02
1.002444126676801384e-01
1.099976462858320292e-01
9.164727667728481131e-02
9.998826330869543810e-02
1.118497555519442493e-01
1.047599423734488361e-01
6.547847492993742920e-03
-2.163934343432801777e-01
-3.663613164338989647e-01
-3.695463960048263052e-01
-3.317247134559052069e-01
-2.121018015070697815e-01
1.036032808569980340e-02
2.111441258204020122e-01
2.737092240821135114e-01
1.958745992495982968e-01
1.068757232378679256e-01
9.447726004799904265e-02
1.051066868674911114e-01
9.893253749281921694e-02
1.165838812633563926e-01
9.275154548629981066e-02
-5.384261486392612206e-02
-1.825907426193499328e-01
-2.164099776057877844e-01
-1.789116648095593898e-01
-3.567080227710405643e-02
5.314629521340988316e-02
9.076065191902044083e-03
-1.297979037853772347e-02
-1.782346203738987417e-02
-4.689761241512134700e-03
6.773355365100366954e-02
1.617753929393949408e-01
2.838251801756530579e-01
2.942857656522421816e-01
5.528054030965685178e-02
-2.596498563442241059e-01
-4.094629769784968731e-01
-3.769196429276980842e-01
-2.824275607864875637e-01
-4.624603445983161559e-02
3.219094401832592878e-01
4.401494961040886555e-01
2.662714826036414739e-01
1.094508933335689854e-01
4.495232606123158656e-03
-8.552039275383040151e-02
-9.101583397969574551e-02
-3.673463592594414240e-02
-5.413580588548277256e-02
-1.312694686938326027e-01
-5.422976326011831605e-02
1.381269440330337994e-01
2.227832985915529362e-01
1.959276796282575506e-01
2.084982412336513352e-02
-2.961515985713895072e-01
-5.160605075821681487e-01
-5.342666730291629751e-01
-2.989734646048674560e-01
1.413901502615479699e-01
3.602046521679082569e-01
2.019038208255190814e-01
8.698132589101195689e-03
-1.040796679928597882e-02
1.135028941436153488e-01
2.243268553274994359e-01
2.043264816996520905e-01
1.295524126985873326e-01
5.452529251026298762e-02
1.145111217929369041e-02
2.307421325446782495e-02
-4.918254876420696808e-03
-6.629993398567508855e-02
-8.169154842417711282e-02
-8.300722551629950707e-02
-8.587866846695209333e-02
-5.635339759744349697e-02
1.177695323486772916e-02
8.799399435373923828e-02
1.063527825085791578e-01
4.337953057033075432e-02
-2.775602421885273868e-02
-5.736002648926398495e-02
-6.851195035556530144e-02
-5.881839404536063493e-02
-5.091886472178416834e-02
-8.627390444162146010e-02
-9.477934516492556027e-02
-3.199375981132682872e-02
1.145866710186412354e-02
6.050615989961389413e-03
2.689415593044713199e-02
6.020740389696793704e-02
5.122422300544182683e-02
4.162538472068239709e-02
4.019476573905100825e-02
2.063155954407452919e-02
1.677013869372958807e-03
-3.162414999704127750e-03
3.612838864776801023e-02
6.601190179165052074e-02
5.463943557793731094e-03
-5.309727488113289567e-02
-4.821225984856545438e-02
-1.697533729149920678e-02
1.318787453075371922e-02
-5.006712800613811326e-03
-3.125500942726063686e-02
-1.931553126820748784e-02
-1.745226116358818136e-02
-1.903949248158572430e-02
-4.930527251662584522e-03
5.754188470907236307e-03
1.297777388224462432e-02
1.729450819742927789e-02
2.444364151291229803e-02
3.306549586653873690e-02
3.259676174711682167e-02
2.485964364011614830e-02
1.278655281165759494e-02
1.288589550779865867e-03
-8.929708486966725367e-03
-1.791135192361401063e-02
-1.687186426054904445e-02
-7.682447407874748099e-03
-5.127559013527354867e-03
-1.082330487332313143e-02
-1.640447841003436075e-02
-2.016077818288916287e-02
-1.638773288470130735e-02
-6.613700839102843766e-03
8.024879931198589762e-04
4.922569437993322070e-03
3.424193122546954644e-03
3.815701889431979792e-03
7.591580529859849255e-03
1.040624972686716131e-02
1.413718860103615159e-02
6.259293526788447908e-03
-1.157584718966166246e-03
5.753277395471528138e-03
5.135122821220655491e-03
-1.824903969763126688e-03
-1.543217049323057513e-03
7.457817996809487648e-03
1.095537822070115352e-02
2.399803204927200475e-03
2.392639808849940809e-05
-1.607926912822463944e-02
-3.388612914767807904e-02
-1.355500505371290930e-02
-1.918583544388638299e-03
-8.237854302231175166e-03
1.564494478024639661e-03
5.344641430152819415e-03
2.416491320817362905e-03
3.691997959326423235e-03
5.639237632628349081e-03
9.288154136266688760e-03
6.518296129037673588e-03
2.931258068794501299e-03
-1.224752899842720911e-05
-5.151025327723077023e-03
-3.910692661347965442e-03
-5.815309759548998193e-04
1.293941067179946560e-03
5.101278274034037972e-04
-7.813398755587446821e-04
2.119788736437368606e-03
2.020751222055419292e-04
-4.104074400025760003e-03
-8.029992241002901782e-04
3.628343977934172029e-03
-2.629812854055350564e-04
-3.418114127627209023e-03
4.127361345168389060e-03
4.537919753159412942e-03
-1.718574114172143150e-03
4.016258680702391136e-03
8.785567089446111311e-03
4.548752457854159624e-03
-2.415608480513026582e-03
-6.840722634635461839e-03
-3.655807729031747798e-03
-2.146136046006281127e-03
-7.452167691665577453e-04
3.805184233042882818e-03
1.046643975817550774e-03
-3.590523282025586023e-03
-4.550015529236601727e-03
-2.723442501874447780e-03
1.844109103067191092e-03
3.718055169120303757e-03
9.479859869226711210e-04
-6.757926982364554323e-03
-8.848927958641179814e-03
1.168922535935978946e-03
6.347946773917166607e-03
4.839183098305490857e-03
5.938742949794376287e-03
1.871948431978796932e-03
-6.548981031117953426e-03
-6.857409807436033039e-03
-1.062661992407665712e-03
3.119477739303646788e-03
3.581828749674400257e-03
-4.392611216680020973e-04
-3.551427825207705783e-03
-4.771810250217429702e-03
-5.331845098610172098e-03
-2.129516966277019471e-03
-2.717331250758710584e-03
-2.465874834934386663e-03
2.596117155993321775e-03
-1.071890144387836578e-03
-3.434143267154264600e-03
1.019877257104240438e-05
1.403180387739692316e-03
7.747184382086446525e-03
1.010672495039210625e-02
5.504580403332114472e-03
2.959975203926875492e-03
2.430351522971508846e-03
4.650540851732607936e-03
3.798638039569948027e-03
5.837121218972064242e-03
7.825456879324926840e-03
-4.831872107529386947e-05
1.214120848681026887e-03
2.901568448452376565e-03
-3.872091255429428724e-03
-2.671311159839526161e-03
5.099764048104880659e-04
6.029451590693516577e-03
-5.925967532930399330e-03
-3.547951083432168001e-02
-2.413067636612989397e-02
8.253176859137949239e-03
1.388518542412262892e-02
1.128139721283635301e-02
3.812935347136193857e-03
-7.914501231594005259e-03
-7.738031202124066865e-03
-2.042921908261038054e-03
2.630825372267562960e-03
9.181946885399179178e-03
7.582614139804167916e-03
-3.198349343438477814e-03
-1.799490182341766196e-03
-5.377550858087808312e-03
-2.419457090646317046e-02
-1.316373886994827609e-02
9.875805024001252028e-03
6.185317172853686297e-03
2.795541970168692256e-03
4.373509148250393982e-03
4.081524841628336037e-03
1.024275147811554675e-02
1.248328285142357753e-02
8.107113635387448378e-03
1.521464106831005997e-03
-2.972258319190691864e-03
-2.128918696840754413e-03
3.578430574735319786e-05
2.850796510145729972e-03
1.914755533072789225e-03
5.219019414059996665e-04
1.329876598324811806e-03
-3.867255226830973273e-03
-7.106557450319227545e-03
-8.534985933354983720e-03
-1.071277627863398765e-02
-1.052783744274828461e-03
5.830083519045124382e-03
-7.470700220267189511e-04
-3.151901215001915932e-03
1.104383372453751231e-03
7.019605858061623432e-03
9.321368355440862521e-03
3.821123859352632511e-03
1.720530046090961189e-03
1.683911989850318423e-04
-9.093791543731143817e-03
-1.084139431886630561e-02
-2.723633022142179193e-03
3.035208368367298213e-03
6.005155809570882422e-03
6.621644039978380296e-03
7.759921485358458638e-03
8.606444994063587942e-03
2.065097507482283740e-03
-5.137277939511919640e-03
-6.480071180128706664e-03
-6.765435985989410976e-03
-8.358275100568838059e-03
-9.239141932387028022e-03
-5.093034798329419688e-03
4.964690562305770858e-04
-1.516686584589970561e-04
-8.075209891375697505e-04
2.358206376961646637e-03
1.736089435757050790e-03
-4.822609813448490586e-04
1.525301173110967575e-03
4.895337702817185131e-03
6.826756324996975309e-03
5.917518295428149909e-03
2.836328903965269765e-03
-5.245924815941013439e-04
-2.964091493461136831e-03
-3.212742743954561352e-03
-4.711806527620576376e-03
-4.994667851750803078e-03
-1.669882479305585810e-03
-2.901292485870843752e-03
-4.071633631618525560e-03
5.397378334701833725e-04
5.905633893695749759e-03
7.573249846237002127e-03
1.649003054939020361e-03
2.773706440336113407e-03
9.589040730047735869e-03
-1.017288016998668838e-03
-7.887840731914785852e-03
1.169829813045819957e-03
2.015721544668834606e-03
-5.439140564672783869e-04
1.179922333028599188e-03
3.761634268880085976e-03
6.230707320455031693e-03
9.806384221414665703e-04
-3.707547061098196654e-03
-8.149951169656027296e-05
5.425673444222309542e-04
-5.678611025179975368e-03
-8.597396004634856939e-03
-1.262132452821175966e-03
3.173546069627536555e-03
1.120415245514503081e-03
7.042457686924812402e-03
9.732927189441136981e-03
2.010321992805929291e-03
1.903482686667330812e-03
-2.045323821602484330e-04
-1.837277331001573727e-02
-2.341111721517695823e-02
-3.598568061091357573e-03
6.026093654096027069e-03
-2.446295662456828782e-03
-6.958441454914066591e-03
-5.569594647793555536e-03
-3.557000244967294545e-03
-1.407782494527145200e-04
4.576531697858611178e-03
4.114517655397644837e-03
-1.498994328408436967e-03
2.098963487990477585e-03
9.226329924256052029e-03
9.847611435542842281e-03
9.056533228194827909e-03
3.641703345362707657e-03
5.538668312625315455e-04
3.719741680741839784e-04
-4.757780525306069992e-03
3.563053758872855559e-04
7.232915660336992902e-03
1.816239994744000587e-03
1.127797596851486464e-03
5.594611242006377813e-03
4.556319296126496235e-03
-3.724460946999716675e-03
-9.253808906923189845e-03
-3.818281734398461941e-03
-1.247951801546821502e-03
-1.422995161012270823e-03
-2.975224551223406167e-03
-8.097970777199068465e-03
-7.463403270134461205e-04
5.814141165482445556e-03
2.077529403798552155e-03
2.116339591966032250e-03
-1.650995687803229238e-03
-3.635611274803259973e-03
-7.401490312611398942e-04
-1.290504394138931605e-03
4.379430985153063421e-03
7.335112901035031711e-03
3.041937659813521728e-03
9.357176650634692209e-04
-3.770867255690347596e-03
-5.792162157303738616e-03
-4.367964295667153309e-03
-3.709502450338738027e-03
-1.052297035156361056e-04
7.303235456556020355e-04
-1.636652561592601574e-03
-1.916960602602559537e-03
4.460229881995155096e-04
-4.423459640244092579e-04
-4.410177918956103421e-03
2.543378152401187808e-04
3.618625978501445115e-03
-1.549207560880968984e-03
-3.457341556946765242e-03
-1.347714245433085170e-03
5.228690931921263496e-03
9.109500084619746516e-03
5.735944746811612316e-03
2.428547493368923491e-03
-2.657278431963566376e-03
-3.392333152561405329e-03
-2.451826483650236446e-03
-3.894148959340770072e-03
8.202114396591776062e-04
-6.904969347085094286e-05
-4.436244371553307864e-03
-3.175685838773897700e-03
-1.650257311908029812e-03
5.713808927161077855e-03
1.092875822481961454e-02
9.557402932843631765e-03
4.960644608190539762e-03
-3.492265589623155028e-03
-8.794331944315716401e-04
2.382387681159058544e-03
-2.675461798708872441e-04
4.777852022114037998e-03
1.953666090360767649e-03
-4.709333452031659942e-03
-4.755136526118810061e-03
-7.399786161708828830e-03
-4.514280417744918374e-03
-2.471230312953967469e-03
-6.701026097478472027e-03
-6.883629120079152834e-03
-7.308043924691493692e-03
-5.410436924514930128e-03
-3.684729795215319244e-05
4.815169222623705281e-03
1.004610042141512380e-02
1.049848969531832696e-02
8.680654039109614306e-03
4.669458435398708869e-03
-2.940392166456011740e-03
-4.079909102084426469e-03
5.956292794733936179e-04
4.810648961807387908e-03
3.400557954460493946e-03
-5.795074190157615233e-03
-9.962468534128925482e-03
-3.528232115806433089e-03
1.280632600022559497e-03
3.873701744117012268e-04
1.499310570288273862e-03
3.075986053514263505e-03
5.779966084217225087e-04
-1.395565636123723878e-03
-1.243286806194809826e-03
2.353404222256332175e-03
6.429281810923331321e-03
2.897575538570561736e-03
-1.685033943131438675e-03
-3.050718060284767635e-03
-2.949423498816695476e-03
1.531847129245094905e-03
3.392803658506074547e-03
2.172664269520807948e-03
1.516096540516704942e-03
-3.561397086004353812e-03
-5.440350887068080496e-03
-5.743795768937780093e-03
-1.144346429249424799e-02
-6.410360552704172724e-03
5.767917338224979283e-03
6.993103205071567879e-03
3.383289824623766668e-03
2.040565153708189666e-03
3.528822559270485860e-03
4.077737912007156976e-03
1.016452351990493981e-04
-1.683543625265209419e-03
-2.063748968569585878e-03
-2.064774280892026775e-03
-1.474157676481099681e-03
-2.364526228233989908e-03
5.945530914028240334e-03
1.406101351300729184e-02
6.191988454055009569e-03
-2.893590310927143978e-03
-5.475921555372305349e-03
-3.218343438761376435e-03
-9.731421291337374229e-04
-3.213259465947442949e-03
5.251949637168643265e-04
5.145306496375408323e-04
-7.959002362573033840e-03
-6.459528799942954730e-03
-9.882378141476072866e-04
2.811975429683308009e-03
6.376567103101834014e-03
3.036698999767054302e-03
-1.555458913451858438e-03
-2.898954987455040072e-03
-1.389346516590801023e-03
-8.037385668144103167e-04
-1.527496148971040513e-03
5.112725492298317818e-03
7.167439600202229338e-03
-1.909256823170872846e-03
-5.511581445936457671e-03
-2.995061020718245946e-03
2.928106513054385741e-04
4.690870645763997593e-03
4.817962223170177069e-03
-1.411518167112643446e-03
-6.472164352476594655e-03
-5.071220276525325622e-03
-2.175301014329129173e-03
4.453077408989351230e-04
2.543991936426169033e-03
1.752517135476289786e-03
1.563890699002674608e-03
1.115564270867612940e-03
-2.640013910903236819e-04
3.834079570687291697e-04
7.390705147653250755e-04
1.084026184251444917e-03
1.884828280141683790e-03
7.498360056267592937e-04
-1.617080035097345075e-03
-2.676991459922044986e-03
-1.795305079799163449e-03
1.328213491518348663e-04
1.467276960817528618e-03
-2.916817329140818701e-03
-6.722240574706809038e-03
-1.095646455526191453e-03
2.857433666508469011e-03
2.353763823300150746e-03
4.595815201906487679e-03
8.164813531020257212e-03
9.544831995381320919e-03
3.188245078487320951e-03
-3.794300000806758322e-03
-1.291123093883623238e-03
8.145234887725923481e-03
1.437462642739040057e-02
6.048797933782485217e-03
-5.881529789034742198e-04
-6.505748272285999736e-03
-2.961317043864531567e-02
-2.980712772340053315e-02
-4.800501886580035502e-03
-1.332416786982096790e-03
-1.909797763984119861e-03
4.610819967699910163e-03
7.602713138296719655e-04
-5.462267246986752265e-04
5.517040725551140834e-03
9.572472736097594609e-03
6.812842081019353929e-03
1.234665724137626840e-03
2.492260016661331217e-03
1.999015679087939781e-03
-2.375644899143430390e-03
1.848499241670230244e-03
7.538270754243343690e-03
6.792686658036463029e-03
3.704265249886276156e-03
-9.311345365117510613e-04
-3.206609401296417125e-03
-4.908901682731509585e-03
-8.241713004098590728e-03
-4.354614040828909405e-03
8.911787927955101872e-04
-5.971997017808469482e-05
-7.789174925049624412e-04
-3.462467570847056145e-04
1.591084091808575920e-03
2.212549477216181788e-03
2.583671612856443603e-04
-2.122045179095342861e-04
-2.881514049690462199e-03
-3.841098315761470178e-03
-8.585180667176869939e-04
2.574705848611280688e-03
8.270310053059445193e-03
9.213342871665190781e-03
4.215631566035117281e-03
-3.816815521303953875e-03
-8.939048251244087820e-03
-3.108618791403597661e-03
1.280012183280740705e-03
4.009048876445223987e-03
4.072658202759347340e-03
-5.707966545360566683e-03
-5.300690278378841075e-03
1.462713513037379107e-03
5.241279195006170663e-03
7.173807976383587623e-03
9.054136838524390720e-04
7.249105553577318145e-03
3.968156560802575845e-03
-2.729019157969541157e-02
-2.540110441491473872e-02
9.714131371024708334e-04
7.298366934486829639e-03
9.321208064296614138e-03
7.581767162759212031e-03
2.049775749169852664e-03
1.230878357136902220e-03
-1.624939878329210736e-03
-3.068870672468507980e-03
-1.693693224911971447e-03
2.709116210098019947e-04
1.113578706165904231e-03
-2.573300057181824099e-03
-3.465495252466953453e-03
2.155518461651035472e-03
4.545971364392051468e-03
1.506297478393898472e-03
4.803621072706523200e-03
8.529324999636924906e-03
4.294283406532277761e-04
-4.224880076655966599e-03
-9.107052137785527374e-04
1.604334354631344267e-03
4.944185377390373538e-03
1.867554509762173447e-03
-3.720222163894179503e-03
-1.623318844491171550e-03
-1.202282418852292090e-03
-3.384758416926807179e-03
-2.100173380618706141e-03
-1.093207552106467435e-03
-3.288410415525005754e-03
-5.087283489274622289e-03
-3.836004666465963643e-05
6.141147159549426200e-03
6.209894531163689078e-03
4.706839945508363432e-03
7.290181409292815964e-05
-3.378598352816886835e-03
1.484397401547421329e-03
1.194447941885733210e-03
-3.742020932748749747e-03
1.776996278470111207e-03
8.102512813583873097e-03
4.366155930904485477e-03
-1.581724835339365885e-03
-4.826503844873428380e-03
-6.056890520706407349e-03
-4.427580018111302793e-03
-4.051769215502934278e-03
-6.952696947201127825e-03
-6.861510258058178477e-03
-5.790513624385075497e-03
-2.493061683329375264e-03
6.174392647571466837e-03
6.196762274391609884e-03
2.699740387963531479e-04
-9.566070853295998832e-04
-1.767084833089617186e-03
-1.515465412615766715e-04
-1.227429430643579974e-03
2.226886019953607529e-04
1.113174839944410660e-02
9.352694405563029278e-03
3.037559257123257587e-03
4.330209406582489692e-03
-2.727367509076959479e-03
-5.621184488767655245e-03
-1.469101873487194468e-03
-2.691893481504429100e-03
1.394096448045944797e-03
6.564052532038450530e-03
4.403462984610243512e-03
2.868083650297810830e-03
1.640389221677283210e-03
2.738811986893601195e-04
3.461953002858872246e-03
4.906622105307316059e-03
2.654337737647332641e-03
2.631211504753509442e-03
-5.185229951488882008e-04
2.384443982042613441e-03
9.409004166712900755e-03
-1.038856728942016798e-02
-2.670431475328523957e-02
-9.075752507297352861e-03
-1.920393435592899264e-03
-8.756870582843395007e-03
-4.076951093246411126e-03
-1.601492307172577021e-03
-3.862141600879309775e-03
-3.399737263044506214e-03
-1.689971216558876482e-03
4.572730225904639073e-04
3.851181510222261104e-03
8.964188308369574337e-03
7.022062516264256961e-03
1.075735727891659462e-03
1.409798914936619173e-03
1.278987851156140020e-03
3.649850283057486035e-04
2.869597182003086853e-03
6.405005874198094196e-03
9.938406710257042739e-03
7.427917965950789868e-03
3.922687156367485155e-04
-3.019785895050518601e-03
-4.709813474178500478e-03
-4.503374135433193398e-03
-7.746965392241387128e-04
6.759637460886450946e-04
-2.617344145084407776e-03
-5.282085664065244365e-03
-5.163707652202124791e-03
-3.925004793085967725e-03
7.814605932913645933e-04
3.968647609129654329e-03
-2.054299692367709488e-04
-2.840842203818044146e-03
-8.252592302468800007e-04
2.026422120175262482e-03
4.647882961730132045e-03
6.360290053437098710e-03
1.012068253835455428e-02
7.892108876062856049e-03
-9.264965301175379347e-04
-1.867731483701491266e-03
-2.266474311249092564e-03
-5.319132564158501886e-03
-4.773118395941252680e-03
-4.816547263902776384e-03
-2.399047424539996545e-03
-3.444160349336891809e-03
-4.759479847549348899e-03
4.130597591204840900e-03
9.443498773793421522e-03
1.113467883023925610e-02
7.615250619479112595e-03
1.093895732049747754e-03
3.752627768889745408e-03
-1.310041765541239585e-02
-3.129627233677408776e-02
-8.097265772661524363e-03
1.025110434380081467e-02
2.980528918472254065e-03
-1.123864600295169935e-03
-3.596144610220903658e-03
-1.617420958989135770e-03
2.975867810656935772e-03
-5.551051688312564486e-04
-3.229593021512753171e-03
3.895502687452624354e-04
2.030392896211964237e-03
2.357369126625430411e-04
3.522026477101700311e-03
7.121439659562818665e-03
4.845456347521576342e-03
3.904530797088861301e-03
3.450449769939143655e-03
7.014587142960366714e-04
-2.798074518507497142e-03
-2.677513254720080820e-03
2.145573730749564603e-03
3.681726120651928735e-03
4.482414598717695750e-03
1.560940175364217315e-03
-5.714623165610910674e-03
-1.750806728627697824e-03
1.255095267830198466e-03
-1.127672045258635951e-03
5.652861384479674137e-03
4.794051762007473308e-03
-4.597314067557466480e-03
-6.647619292450356043e-03
-6.477907868534048264e-03
-5.613033818042247134e-04
7.173228078776709357e-03
4.357694644503986268e-03
-1.536650617836499274e-03
-5.293045542033857596e-03
-2.875741029676449033e-03
4.863003930109766407e-03
5.540567993264378446e-03
5.310775123626510288e-03
5.664510706488508525e-03
-2.752989728893039199e-03
-6.889116882402213614e-03
-4.266712433511399283e-03
-4.790795956364919152e-03
-5.664818142048916316e-03
-7.808426168782042417e-03
-7.064804645668816205e-03
-3.164993298721358473e-03
-3.700576141859120496e-03
-7.440758833630433788e-05
5.809452131198365211e-03
4.350846275991252649e-03
2.392783619428755573e-03
2.513880533216695211e-03
2.082052379931063207e-03
-4.901673968478481060e-05
-3.986042711612018848e-04
4.785081457542400725e-03
7.083926511394444091e-03
5.590397771487125474e-03
4.510104078480204129e-03
-1.015841383863805725e-03
-7.102814040868015398e-03
-6.086508394408136381e-03
-1.751669393993259211e-03
5.334952374211074464e-04
1.040383949214533556e-03
-4.433311653646762585e-04
-2.637224033140539003e-03
-8.150020543438869216e-04
4.177590304619624786e-03
8.612690332572470533e-03
8.212265865279013213e-03
1.696288397938311432e-03
-3.997142560306459619e-03
-6.444859652997386897e-03
-4.457618242092223002e-03
3.159911325142160214e-03
8.516859265078073962e-03
6.951668755905596186e-03
-1.080862182817661759e-03
-8.071313977337660553e-03
-6.113985298861924524e-03
-5.168082542230873107e-03
-6.904825465309761059e-03
-2.930615635569067557e-03
-2.020072276464319246e-03
-5.394359100657580841e-03
-1.538264907386027985e-03
4.729085093049696480e-03
6.532806552315474982e-03
7.701587291435534749e-03
6.342999550703875937e-03
3.979331476014723312e-03
3.004215337463307482e-03
-3.661030419218011013e-03
-6.546401977975423170e-03
2.196644555106245025e-04
2.343493245579669759e-03
1.795951982656548746e-04
-3.147360446766356637e-03
-3.779255821129264004e-03
2.042943203429070220e-03
5.904275168505366839e-04
-3.994191265418394095e-03
-3.253270160433202260e-03
-5.201493072175805872e-03
-4.789625510948600749e-03
-1.707316508959907378e-03
-1.778256813975509585e-04
1.319467137591721819e-03
5.968399637793740664e-04
4.704989294561597035e-03
9.339641112766968595e-03
3.759279446709020388e-03
-2.296592982598792774e-03
-2.690948757825854885e-03
1.436744624716995147e-03
6.165531476427498284e-03
5.961235197810852392e-03
3.931923715730946227e-03
-2.043549380860323721e-06
-4.006955085255765533e-03
-4.495115507798264423e-03
-4.297703529290006728e-03
3.615591509560028101e-04
5.649228874466708308e-03
1.128835281018412224e-03
-4.582388122967498770e-03
-9.385393448051242930e-04
4.937852454883186193e-03
3.283755043562947267e-03
-1.869487751883301034e-03
-2.630799151696393799e-03
-2.215132753507451611e-03
-5.636864720108178059e-03
-7.641500588368952372e-03
-2.438994043554538766e-03
3.652805047287327120e-03
5.685924952473655689e-03
6.082835070630135399e-03
2.079572288974966803e-03
-3.351613208878871479e-03
-4.244187797174510390e-03
-4.172068227043989642e-03
-4.473955847066546192e-03
-5.246721367158405439e-03
-5.755167514525430343e-03
-2.831719581293067403e-03
3.025828644695749848e-03
1.009750653251663931e-02
1.146937603663887063e-02
5.573451820670065858e-03
1.716722026331016313e-03
6.856191904881200113e-04
-6.055659854685787767e-04
-5.222100170922485719e-04
2.618616830947674209e-03
6.343685514240807871e-03
5.000772759996521995e-03
-3.478240913018308374e-04
-6.078977449825915397e-03
-6.491850697708165079e-03
-1.780436406125353007e-03
-4.180770511743386701e-03
-6.132975219397531971e-03
-1.276375760663157411e-03
-3.200262141688538231e-03
-3.721319685144032930e-03
2.067937643281724056e-03
3.837571753327097008e-03
4.147822900613921775e-03
3.289863376581582399e-04
-3.729696443652332979e-03
-1.401146117395204917e-03
-2.569118213211228413e-06
2.058966196937850324e-03
1.830742967458117093e-03
1.368601831366397922e-03
6.459509684418825864e-03
1.656014446020799211e-03
-4.296797432939179068e-03
-1.474859200620562503e-03
-3.277695006064981591e-03
-1.074639657667886359e-03
-4.978544274081042912e-05
-6.250366848643747544e-03
-2.757132809897323931e-03
-2.062807570535249956e-03
-5.898806773807122907e-03
1.326236225072797157e-03
8.097709284152087086e-03
9.216614703522963553e-03
6.013538677632781181e-03
4.447962648892911266e-04
-8.112980337865657865e-04
-1.716424103596166833e-03
1.316716961969891658e-03
7.135226949985162305e-03
5.200436220617781977e-03
3.747497435503158083e-03
4.651233183831921317e-03
7.257474837669083707e-04
-2.254393787584794192e-03
-3.160862919235476760e-03
-4.041239871062579127e-03
-3.520876908340848759e-03
-5.881135848643858320e-03
-5.510983685034236482e-03
2.404488406488790309e-03
3.295453147360555887e-03
1.167688920271523975e-03
6.507072467955415766e-03
6.234683537527310401e-03
2.158202665704381500e-03
-6.146556002525129479e-03
-2.212402161178067192e-02
-1.696231485536665515e-02
2.542556371073146672e-03
4.426619790597430965e-03
1.506453227737231029e-03
9.887645034969542480e-04
-2.497159596881845696e-03
-1.077638844962311177e-04
-9.167062580822535811e-05
-6.739709398555945169e-03
-4.907910251145298705e-03
1.981647011057842585e-03
4.227214502733273385e-03
5.438228943988027315e-03
2.208156066938800604e-03
-1.777434330478851578e-03
4.465888751730094294e-03
8.021375293527376743e-03
5.877245564643465790e-04
-6.855284438671901438e-03
-1.030004892492925386e-02
-6.033689273330887504e-03
7.358090854248904977e-04
5.901104801186215359e-04
2.641239931247980292e-03
5.363876854252496926e-03
2.396849489079594907e-03
5.061872525185610525e-03
1.171715262114738330e-02
1.300612822393946814e-02
1.173002321433385016e-02
7.429947019152517360e-03
1.226627029212757096e-04
-1.524700989094787988e-03
2.345885249228909022e-03
9.071832172766450177e-04
-6.606009553632688665e-03
-1.345943597667211347e-02
-1.632090491180070851e-02
-1.607897504494570223e-02
-1.816847911457768888e-02
-1.579377150575824243e-02
-3.269259292170762464e-03
4.367668203916671640e-03
7.949189222810496350e-03
1.670226540673848056e-02
2.293388322964479489e-02
2.682374723452172344e-02
2.891105203758602762e-02
2.566000712350346644e-02
2.268789340750426362e-02
1.906640144676853207e-02
8.337167489774463536e-03
-6.535851619183880024e-03
-1.511631169493182769e-02
-1.926155410758939590e-02
-2.720824881593825184e-02
-3.560538631879197474e-02
-4.630704129094147248e-02
-5.342208271741489406e-02
-4.863966564768670842e-02
-4.015008324705516413e-02
-2.388104809904341430e-02
-7.433882789157536357e-03
9.199170857171670018e-04
1.465040478351661672e-02
2.536898035632011161e-02
3.385028911621108805e-02
3.928078820349791694e-02
3.573005164647570508e-02
4.013761436059150312e-02
1.686399476135843831e-02
