4.490562678471227143e-02
5.327680616762882349e-02
1.590820937790564729e-02
1.040293082313100727e-02
-5.690323934770754460e-03
-1.621815239508878417e-02
-2.098815722490034869e-02
-3.463941161905317867e-02
-3.902686545958226894e-02
-4.114879501620292285e-02
-3.471268920279051151e-02
-2.174473742434775494e-02
-7.960200042008418186e-03
5.839063152230052588e-03
9.881608858706491388e-03
1.668462817714381347e-02
2.092337232850697420e-02
2.144167978348448730e-02
2.940530120432069405e-02
2.912281714349517284e-02
2.671454364182587055e-02
2.779370602184911068e-02
2.460401606978960751e-02
1.799496565318557326e-02
3.511508483639010341e-03
-5.217833051622495187e-03
-1.036937925633940778e-02
-2.448643486413155934e-02
-2.672023405214815975e-02
-2.016262185706599319e-02
-2.103212418071474799e-02
-1.758542324981003310e-02
-6.567338251945555386e-03
2.519601480815101061e-03
6.234932019526785892e-03
6.447749817398714701e-03
6.992595618572352949e-03
9.446342874633990166e-03
1.032810875689752460e-02
9.100383095090140706e-03
8.517540644031484920e-03
6.060002644353711110e-03
2.527179071182774576e-03
-1.700536865148639899e-03
-7.513294768404869470e-03
-8.355773996234419979e-03
-7.989753228907516686e-03
-1.136291058499336662e-02
-9.415644119904755319e-03
-4.219213224230442677e-03
-5.613845944158202261e-03
-6.187356049481496784e-03
2.880119082531095126e-04
3.883954959815581406e-03
3.435699729091364930e-03
2.576853567851027961e-03
3.445071965969512566e-04
3.322119919696792361e-03
7.148886378937192518e-03
5.303053244846394308e-03
3.647736894820969005e-03
-6.996009987899305194e-04
-3.750788988856368009e-03
-2.342890295699645792e-04
1.048942905117909632e-03
1.605811419870899290e-03
4.693337331090319774e-03
5.226981720010652997e-03
3.864928358351989689e-03
2.168806975271349909e-03
3.930115715656770799e-04
9.717518645444845867e-04
2.921610835211091960e-03
1.006531839756285305e-03
-1.080894482308672380e-03
1.987565336343949385e-03
-1.025491772976598430e-03
-7.830957081225078248e-03
-2.417688983240149324e-03
1.474669401311550897e-03
-5.803064152155093351e-03
-6.895026335623426032e-03
-5.566470394210569148e-03
-1.153199619644605482e-02
-1.077850702711123133e-02
-2.759910260925695514e-03
-8.845669377983641796e-04
9.631155221198367967e-05
6.763699331939114837e-03
8.998042640488170679e-03
4.369420133182290444e-03
4.571672721674386632e-03
7.960143585285888584e-03
6.793040862307175506e-03
4.313543075744897745e-03
-2.328943863014643783e-04
-4.364167406460300706e-03
-4.289559863287823252e-03
-4.920142739062350126e-03
6.125277336668880643e-05
6.817683208847833722e-03
2.864858012044793623e-03
5.887651603442744163e-04
2.732401314677244952e-03
2.052781502898785599e-03
3.060264598637629091e-03
2.581141656508077840e-03
5.320267624207520793e-04
-5.355693005326173008e-04
-2.198270791438185819e-03
-4.182768248002712887e-03
-7.477372928692957096e-03
-3.585138325121805646e-03
1.856791631827158732e-03
-3.871721180895800786e-03
-5.836895299668472259e-03
-5.864988883956263454e-04
1.426771187661372842e-03
5.139409558505684573e-04
-1.581417420100481421e-03
-6.046734557498171332e-04
-1.854248428937456264e-03
-5.911607552415436458e-03
-2.601864874479707570e-03
3.227845719376645078e-03
8.005613415900090374e-03
9.684983227636537531e-03
4.598826257279791524e-03
1.517361198544070781e-03
1.072158871023683874e-03
-1.362570646072819389e-03
7.319940017271178235e-04
5.699554118572761757e-03
3.340912537943598656e-03
-1.706746689563221715e-03
-3.695991200956238228e-03
-7.461887232254672472e-03
-7.355547509285603747e-03
-3.243855095131457748e-03
-8.412329961166495861e-04
2.703139418576480137e-03
-4.055140737999268948e-03
-1.305344253327746055e-02
-4.956862988687863597e-03
3.567765944644568817e-04
-8.745242266378081344e-04
3.589636905806147318e-03
3.900132072355847173e-03
3.655494262484622597e-03
7.933811709391768233e-03
8.152663743233569404e-03
4.088832557587578249e-03
3.141940471567964549e-03
7.695073504492454079e-03
7.190101831076095920e-03
8.414414578722597023e-04
-1.298883199761135176e-04
-1.760089439564620543e-04
-4.440762809952012585e-03
-5.779515910041119545e-03
-2.582609736277385881e-03
-5.397538187861978127e-05
-1.014464110028849174e-03
-5.263533412715126758e-03
-3.113587406289790565e-03
5.006604538479434222e-03
-3.942724580924833293e-03
-1.539244716975872625e-02
-2.256280873407677176e-03
5.498625147159092244e-03
-4.371324276872911099e-03
-5.560641677918488554e-03
4.171722308404430569e-04
3.119234008984264964e-03
3.235897452897992278e-03
3.051155593577266172e-03
1.452035336801340247e-03
-2.283352232644969906e-03
-8.409280357687174247e-04
2.233466968692848949e-03
2.232203102533008438e-03
3.705968096579104979e-03
3.792437527647863401e-03
2.101942593520666515e-03
2.218393663564078720e-04
-1.171902020016482994e-04
2.401026613092089798e-03
-7.838038160144745418e-05
-3.011320483882440682e-03
1.248593962110028681e-03
1.777275351311280449e-03
-2.741468862166190814e-03
-1.311758746252382479e-03
4.100653131769736726e-03
5.007482498768179267e-03
8.675805037197431742e-04
-4.638075914473340118e-03
-7.379018739086094618e-03
-6.294320193135317584e-03
-4.317856908031924949e-03
-9.200489941453788905e-04
1.211649961894892513e-04
-3.922128680455807571e-03
-4.200254237882360998e-03
-5.224670158488415369e-04
3.992715354004073430e-03
1.030691214816529568e-02
1.013261152602651718e-02
3.074597264931896827e-03
-1.491319803198371593e-03
-2.220676420892193914e-03
2.770960791829082275e-04
4.467319171104013747e-03
4.843566730724813661e-03
3.084954218048992485e-03
2.675030771922030752e-03
-2.771124313222334597e-03
-7.634713338969960177e-03
-3.693249648712069750e-03
-3.763639070763030899e-03
-6.386289944143305926e-03
-6.131592877080382226e-03
-7.640038228840356424e-03
-2.034924866399640420e-03
1.008345772811245454e-03
-1.085321500385688382e-03
6.082437016050525058e-03
5.215730755131000283e-03
2.502488171992252233e-03
7.999276899644794034e-03
-1.270112554706583508e-03
-8.690776235062064314e-03
-1.619663657876724587e-03
1.522540232094711250e-03
3.257417674589178219e-03
2.734645749935999109e-03
-2.081543642504225756e-04
-3.799126128604913503e-04
-1.137331501931102039e-04
3.669764765138090312e-03
4.561684189240382790e-03
-1.931284818983888536e-04
-3.149673125634470678e-03
-5.575719430183498880e-03
-3.953077181866034538e-03
1.381547511889214506e-03
2.537279789237036325e-03
2.599433713298181323e-03
6.142863355726313132e-03
6.332698363797412654e-03
-1.099573767929858982e-03
-4.660752384577258704e-03
-2.271743697551714420e-03
-1.096135568807331349e-03
1.455018808952726183e-03
6.055894853104684802e-04
-2.087010113330158446e-03
7.604209449478923277e-04
-1.547917407963077382e-03
-5.999736179444852512e-03
7.428124539120899107e-04
6.117621535866889226e-03
-1.219915350425981084e-04
-4.938106995380711281e-03
-3.774607396456427719e-03
-2.736892221615387817e-03
1.503179696624130446e-05
3.049216361619888974e-03
6.016662415840237990e-03
6.048418566582151705e-03
-3.852064662675896457e-03
-6.592948914344127706e-03
6.550282599539951692e-05
-1.817012101310733901e-03
-1.233127599876998647e-03
1.067838181081779336e-03
-2.634482235582544414e-03
1.724356448925693950e-03
6.887802428120658876e-03
3.320524267450297631e-03
-5.477396238591008756e-04
-1.997094524415252582e-03
-2.683042938619003767e-03
-4.314078149659285669e-03
-2.485810516890158035e-03
1.788940797753095285e-03
3.352660373090934811e-03
5.124649389340269444e-03
3.422992747879927827e-03
1.811423346055620730e-03
3.476049183875827911e-03
1.144359494427721758e-04
-1.181048092840668827e-03
1.205733172787527624e-03
4.781935207718503601e-04
-5.108497716321664349e-04
-2.039766251613750383e-03
-3.215638463964450456e-03
-6.554297988928692136e-03
-8.396702136734546240e-03
4.994421650796893996e-04
4.648230987297627924e-03
-1.572161508721680537e-03
-5.328039049395781428e-03
-5.988586284308096766e-03
-2.388475618717698533e-04
7.903378364310792437e-03
9.985077058710736114e-03
8.199563628740098170e-03
7.368446203576113716e-04
-2.803196233474930348e-03
1.739822765403512949e-03
8.932600448626184988e-04
8.445629801225720606e-04
2.680266995295040120e-03
-9.851133261460350097e-04
-1.379870136796625514e-03
-3.430150500883154263e-03
-7.112561439375485531e-03
-2.850842824403504363e-03
-1.863313552081037692e-03
-3.756460133011867240e-03
-2.280606252047165383e-03
-2.928429393148564673e-03
-2.714924406974296347e-03
-2.315921905096266463e-03
-9.909640398636516533e-04
4.196200969263723726e-03
6.862551071730376567e-03
7.318619202154353319e-03
4.579781891066316869e-03
1.283610211768123786e-04
1.991814942036980278e-03
4.179828958221031183e-03
2.861859656863601289e-03
2.843693398830407938e-03
3.870315127871005057e-03
1.676750738118444693e-03
-3.083149621515256667e-03
-1.564323488778088375e-03
4.948427831647329378e-04
-5.681362725179025901e-03
-7.297036668603752892e-03
-2.593953613572166569e-03
-4.364263924844051339e-03
-4.599176829436142991e-03
4.720724626175967775e-03
6.727079121999855055e-03
4.054717623940906970e-03
6.050608105234395705e-03
-8.982040257728890476e-03
-2.170947063391194878e-02
-4.906205918506990372e-03
6.304140139784320147e-03
6.112744524321996227e-03
6.536153175773547902e-03
-2.168550886224500460e-03
-2.896557976289554099e-03
2.688783347906543129e-03
6.095810318804773063e-04
1.656752600634396871e-03
2.494324009943227685e-03
3.683153975186611358e-04
-2.090891093370569193e-03
-4.225053798139814104e-03
-1.449505923973156362e-04
4.877972295864960520e-03
7.327574634960573596e-03
4.648319108623791100e-03
-8.161087673053092021e-05
3.139634474530412448e-03
1.632777541631634695e-03
-4.426191205444926155e-03
-1.609881539468591399e-03
1.960128135898747171e-04
-2.192570471856409870e-03
-4.888920641568096116e-03
-3.458614092721036190e-03
3.008022424267804435e-03
-3.992033595308199304e-04
-5.730653678332136604e-03
-9.399590923297148140e-04
1.929984688506579480e-04
-2.514695840566501337e-03
-3.053389471600025627e-03
-1.885665538798949811e-03
1.802892987879160368e-03
3.630961997732916943e-03
5.878441668456472341e-03
8.597200493859313841e-03
5.044883709466431790e-03
-8.839753154586806137e-04
-8.715300425322765549e-04
5.073978503913609446e-03
5.748582720492982460e-03
7.503188556178259742e-04
-7.914091548437355694e-04
-2.893390170693310205e-03
-2.087921196852547678e-03
2.615184735763869967e-03
-5.530426193357980413e-04
-6.208547366430386925e-03
-8.864699263293722084e-03
-9.654521793604787031e-03
-6.048587684018699555e-03
-3.074503157043456496e-03
-2.158909407305709648e-03
-2.096215117858072491e-03
-3.547122954587728517e-03
-2.824561737748786279e-03
-3.060380091149314356e-03
-5.068951428069492539e-03
5.404936417397897437e-04
1.003795583450318475e-02
1.133042495170932459e-02
8.221668495754765049e-03
3.798353247489364912e-03
-3.220893184821619661e-03
-1.952777487093510216e-03
2.993033727045547009e-03
2.813661536309612458e-03
5.693419756939802415e-03
5.917734499821458542e-03
7.277375629408882425e-04
-1.981804349268693598e-03
1.065218260982506702e-04
8.551095620345800646e-03
1.067961969509218130e-02
4.340355602783564117e-03
2.084238616728642524e-03
-7.589659697234877158e-04
-5.513446046622557349e-03
-4.683961577663697633e-03
2.410511294568533792e-03
4.517790473103064364e-03
-4.865659428660080890e-04
-2.939544780031835662e-03
-1.808968179752739810e-02
-3.249616800414565493e-02
-1.537615895570733186e-02
1.651188062989283108e-03
4.566804203594756334e-03
7.558889284820072968e-03
9.186685878766945703e-04
-2.503609972384936849e-03
2.225212508545904022e-03
1.093862219491971172e-03
2.530075918691680140e-03
4.508319676734805562e-03
1.552235479770175744e-03
3.817107399891510669e-03
7.472892411583854748e-03
5.465988683818390551e-03
4.463582070947460373e-03
4.729136453730655582e-03
1.930554914788090021e-03
-6.657469103686676493e-04
-2.881600712609923547e-03
-3.940813638769738968e-03
-2.286799088849710958e-03
-7.165300781949898159e-04
1.931626468676317463e-03
2.609058725238804811e-03
2.627349683020133685e-04
-1.943379086153728319e-03
-5.740480362304137274e-03
-3.868527350818640707e-03
2.892386230557012980e-03
3.526739098930305009e-03
8.945981187573892601e-04
-2.203244140059103240e-03
-3.493044264500610920e-03
4.571079112096097189e-04
5.380429236017776444e-03
5.211206066999303152e-03
-9.767029196047563588e-04
-3.281147941783148312e-03
-1.636897724376632033e-03
-2.088111181967924369e-03
4.742518800233638289e-06
6.235324394125194925e-04
8.571473513981418650e-04
3.492129524704863392e-03
-1.287270860241262419e-03
-6.906776649969117478e-03
-5.390407974175872620e-03
-1.615401010187406507e-03
1.080947737474555886e-03
1.006133122118374641e-03
2.712636106748406162e-03
4.025668177932144320e-03
1.952355781798760081e-03
3.156160678767478724e-03
3.611105144280880083e-03
8.431759568363915219e-04
-9.466061941716587963e-04
-2.554162917582419347e-03
-3.305926284463280886e-03
-3.365942053027018779e-03
-1.404912228877516680e-03
5.605503033681698234e-04
-1.006083382185007664e-03
-4.441287910427326336e-04
3.522743754258059168e-04
-3.690961698246716070e-03
-3.950266958578443205e-03
2.729604537665315106e-03
5.597039904591302739e-03
3.880823979295625319e-03
6.216008310452937960e-03
6.372312194588055506e-03
3.619299143498175774e-04
-1.096297080180150480e-03
1.437007710183983364e-03
7.345470124498751146e-04
-7.323132317225752169e-04
1.145304610688359457e-03
1.064486809816450781e-05
-7.831714889381445263e-03
-1.026770203621322174e-02
-6.535511741762509846e-03
-2.665136288787258671e-03
9.790188928077399669e-04
-3.658026607039560098e-03
-9.271520701771444883e-03
-3.886737239680858411e-03
3.253830099880902250e-03
4.173976925574277193e-03
2.071694264141287194e-03
4.090696146082775653e-03
6.862287217998370124e-03
6.027342419012464252e-03
5.260627275003412762e-03
1.661206672089564264e-03
2.708434561275992712e-03
8.562677366945178545e-03
4.520802772385588628e-03
-1.382240095905087115e-03
-2.978544185004596348e-03
-3.842341536958857138e-03
-7.750710357824293264e-04
3.197031201335154196e-03
3.320823335175419628e-03
-1.846325106750944028e-03
-5.582941575886989256e-03
-2.715399624323044069e-03
7.443138500784200100e-04
1.304505267643375419e-03
6.613235392724000749e-04
3.434752185070559256e-03
4.471743683274658453e-03
2.166573173838435163e-03
-1.361513028760867345e-03
-1.795248009470987519e-02
-2.502218038844897935e-02
-5.804317900386477859e-03
5.221143859416498174e-03
4.601380249539263785e-03
5.181734260775845702e-03
3.105868468474006459e-03
2.784711919024697533e-03
1.392735739618024141e-03
1.900208600607284195e-03
5.097782924790550049e-03
-1.307366476173998687e-05
-4.633067279076119246e-03
-2.611967648189534468e-04
2.534051981112044310e-03
-2.052877745358687358e-03
-2.361066976215060384e-03
4.333502431118407827e-03
2.986394841785650154e-03
-2.423730183480251200e-03
-1.925723540157371204e-04
4.841043251646639026e-03
3.710637618531105377e-03
-4.116465075727462203e-03
-5.941777813473330880e-03
-6.689743668611235336e-04
1.988171423355238835e-03
1.633749391551641032e-03
-1.096721009900753115e-03
-7.154463387733949777e-04
1.534134731880981532e-03
-1.009840910977946203e-03
-1.965188972596751925e-03
-1.440990175235348867e-03
-3.829741591017788533e-04
5.539131952897226492e-03
8.516690847385464253e-03
5.815350990989997040e-03
5.611297128913166933e-03
4.378645989646990679e-03
-3.091911364328921771e-03
-4.096132980769720371e-03
2.550598113200532990e-03
2.763101522295184978e-03
2.713767145498963964e-04
-7.175496522364800461e-04
-2.982174148309178503e-03
-3.705994009997938023e-03
-2.305771514633176214e-03
-2.483689332459076190e-03
-8.952005811982780351e-03
-1.214032100683793032e-02
-8.864002956100958119e-03
-7.545421992512853226e-03
1.244502991986091555e-03
5.628832497553880321e-03
-1.280722584552242962e-03
4.801767183824002215e-03
7.490468034689926405e-03
1.197961437111635507e-04
3.757047870985218748e-03
4.265163290395254485e-03
1.331561227830788509e-03
2.680162926387457019e-03
-2.268249792483559421e-04
-1.604992710051801608e-03
-2.709244537106656001e-03
-1.228692092001649767e-03
6.683978551882633484e-03
3.866827044624945864e-03
-4.450978978626045184e-03
-4.532550242914610075e-03
-5.704221324452323286e-03
-6.291997433211272972e-03
1.503673609709148262e-03
8.955398548601755868e-03
1.076104548529113747e-02
8.939302781978646431e-03
2.291713401634342773e-04
-7.155954973235483484e-03
-2.976220027173426610e-03
1.296215842873245242e-03
1.099568347165357646e-03
-7.439540104754553684e-05
-4.234089998353248938e-03
-3.904117300304345978e-03
-9.927839581183304542e-04
-1.575911467196575199e-03
1.556984053907924104e-03
3.542050666333841549e-03
-6.668228983476522011e-04
-3.370340484372535451e-03
-1.913447533630578505e-03
1.993079388426303306e-03
3.094236832121337322e-03
7.073364525684478106e-04
-3.612205031943098292e-04
6.215067825453160586e-06
2.324949315146092148e-03
2.679170486306333126e-03
1.326478010387281388e-03
5.207948793273005882e-03
3.954500178886699406e-03
-6.694883906962295628e-03
-1.045867844754201983e-02
-5.033611471335362568e-03
-2.177048121245089493e-03
-4.332665926346659403e-03
-2.581207034539484847e-03
3.470970853482412220e-03
2.721816583105427390e-03
-2.187726356655837756e-03
-2.293211986320928871e-03
1.206390221685623744e-03
4.066017013648319349e-03
2.313646407741143732e-03
6.900925825758111656e-04
1.794020369717841965e-03
-6.456275303878742083e-04
-3.628159194893190503e-04
3.881042008757874112e-03
4.407106230193095532e-03
4.408378153547980009e-03
4.370373554937754591e-04
-5.377323283722520129e-03
-3.067100243638558234e-03
-1.411903538128617347e-03
-1.438116330969735259e-03
3.338011547442761798e-03
2.580263707867291433e-03
-4.361218760206722264e-03
-5.738213604995099845e-03
-2.095528490581643165e-03
8.182704911595185034e-04
3.694032168574199609e-03
4.741595782066436275e-03
2.269043201701822013e-03
9.887910967151202195e-04
-6.624194858650183856e-04
-8.087116092054700764e-04
5.917933581304875117e-03
8.041593059437468494e-03
1.106775329737857408e-03
-3.143363970292941192e-03
-1.384134457587336917e-03
-8.905162389244999184e-04
-6.207961511478599613e-03
-7.504299830688896007e-03
-9.361435108247823881e-04
4.649674185442866266e-04
-2.246329985366112524e-03
-8.078388385581920274e-04
-2.661956166424985816e-03
-6.544382569546929214e-03
-7.092150415143778919e-04
5.717004531213163224e-03
2.926821038709215977e-03
1.179865885168048445e-03
2.279602081774164627e-03
1.853572180514837398e-03
1.637137063649544500e-03
1.851043427144133781e-03
3.265014666108079829e-03
1.827864798635964443e-04
-4.739948461504475165e-03
-1.199349307191012156e-04
2.776655046479353187e-03
-1.686326289574826068e-03
-1.520695818219923315e-03
1.095885946779683083e-03
3.790413145374829109e-04
-3.698139733989879753e-03
-6.479802669559936792e-03
-2.155389476318798816e-03
1.984060989761661249e-03
3.006878131612607252e-03
5.659486472188020485e-03
4.699288897878056009e-03
7.064788322238853670e-04
1.956422810274440947e-04
2.228229959312057716e-03
4.731551257127869850e-03
4.382372283987686495e-03
1.760536436783609760e-03
-6.121998282556527678e-04
-4.684740267152658240e-03
-5.471359900977973076e-03
-4.759010067280080962e-03
-7.313620893278567278e-03
-4.253141107234030029e-03
-2.772654202103581097e-03
-1.016278973677915178e-02
-1.217721668368717571e-02
-6.968476445938923299e-03
1.740503380797215824e-04
5.144844278877880837e-03
6.268982611026237620e-03
1.213788869065234206e-02
1.461784807494627934e-02
5.611400854270729571e-03
3.280483655201546066e-03
1.198632470111857078e-02
1.402184791660464856e-02
8.222214210061180514e-03
1.874452951104554248e-03
-1.426557375519211558e-02
-2.866727475740718858e-02
-1.691743962300967102e-02
3.309293401298468891e-03
1.069359831503453005e-02
7.248585704260631681e-03
1.840100027724082474e-03
8.338252337547598370e-03
2.087560756280076521e-02
2.716139494387601744e-02
1.859000075388871076e-02
-9.170902684542849362e-03
-2.656597548271326381e-02
-2.251441524673506236e-02
-1.811109834561102153e-02
-8.685590456645249369e-03
1.884185136226157334e-03
-4.355522694810764713e-04
-1.874902963871292365e-03
-2.328901746340886637e-03
-1.047153712303666717e-02
-1.050507309147150244e-02
-4.039084412312532284e-03
-4.044163137585340614e-03
-7.653879087775638038e-04
1.611693861272590119e-03
-4.164498391749396795e-03
-4.207466724210913445e-03
1.926126530344070861e-04
8.470495134799524602e-04
-2.055285149657976995e-03
-4.576046975175896044e-03
-8.266439172731579899e-04
4.870320243603921029e-04
-2.194411149783032609e-03
3.303865922695974327e-03
1.554127241257767349e-02
2.432371414220171196e-02
2.513748858898676511e-02
2.330607324336218811e-02
1.164646944889967915e-02
-1.090614172977161407e-02
-1.193382088988764050e-02
9.338296537590056942e-03
1.844518794513621412e-02
9.432478144367205039e-03
1.063151350954919232e-03
1.890076877488563664e-03
1.579470220437655462e-03
3.720926694946961356e-03
1.002322660741544573e-02
1.836691402170875266e-03
-1.505380162011369510e-02
-2.853042750580860390e-02
-3.231808080851801546e-02
-2.010629082069742557e-02
-7.081307826749747014e-03
-1.296420338978634284e-04
-2.756890957941992779e-03
-1.222813323615847166e-02
-8.006146250069550580e-03
-2.954382008417887236e-03
-7.690671724442819587e-03
-8.145150419130118072e-03
-7.529793775602241189e-03
-6.495585969325983963e-03
-5.662615871620897169e-03
-6.707814120114747453e-03
-1.192829119033169891e-03
9.107026828598928023e-03
1.859752013493749107e-02
1.938073798475764206e-02
1.380049201628310782e-02
1.423158970417180355e-02
1.272087990009829368e-02
8.846888036364427763e-03
1.200753897327789914e-02
1.418163938100714186e-02
1.061006792480905306e-02
4.639480235839627854e-03
8.788300745506203836e-05
-5.941590397245025785e-04
1.598984628083411144e-03
5.260644216244752223e-03
6.631985736765270284e-03
4.308688476264838085e-03
-2.181208837350319743e-03
-1.070111923551492206e-02
-1.484205709168082490e-02
-1.474334049156149351e-02
-8.407121548736242247e-03
-4.172156337938872413e-04
-1.611267857734102922e-03
-2.614516297737324267e-03
-2.349301249206768322e-03
-8.390768698735839859e-03
-8.221493414021920770e-03
-3.137189835036031504e-03
-5.317849483069203055e-03
-8.205051619059914106e-03
-6.595267864619111693e-03
-5.732749432500091821e-03
-7.186967256522480176e-03
-7.242279293953343342e-03
-4.260483246137741938e-03
-5.444776315435595525e-04
-3.919683799235190377e-03
-1.134790125020689391e-02
-5.051121694404464915e-03
6.389327213151116749e-03
8.734553014789498554e-03
8.762857643006924380e-03
4.552678928375367140e-03
6.137803985606175503e-03
1.448077851269782487e-02
8.511357379970467193e-03
3.392830133419682311e-03
6.398736439644500847e-03
6.818862660876847358e-03
1.616038933583295589e-02
2.442058648094592999e-02
2.099529187134066902e-02
1.660343819741643204e-02
1.467948341419953590e-02
1.545980045962903719e-02
5.033094997393422303e-03
-1.977061250514393700e-02
-3.624117879256634478e-02
-2.969479043238960891e-02
-4.711862138504024043e-03
9.293197206790608511e-03
4.376541288993784917e-03
4.542212434294139178e-03
3.592944320138725684e-03
-7.403929255060371327e-03
-1.374356117952211728e-02
-1.206853690755263150e-02
-1.006304123369069180e-02
-1.040478170118146542e-02
-9.210209168654344414e-03
-7.900197764137723011e-03
-8.473480970331535855e-03
-7.228088516581454397e-03
-5.877078058198272580e-03
-5.747062512015340546e-03
-4.424992990526470729e-03
1.799958300894607998e-03
9.186794478856733642e-03
9.684543053607335902e-03
1.251506334648517203e-02
2.099501077439062252e-02
2.463990350201037197e-02
2.425520956530142005e-02
2.140328722483940405e-02
9.578137595451135036e-03
-1.442464707146605060e-02
-2.976746565898426289e-02
-2.259584603636318953e-02
-2.413485242510541445e-02
-3.662682127569844709e-02
-2.904967035965480213e-02
-1.289727898931553041e-02
1.323829193780388111e-03
2.082455519420488635e-02
2.799795363874088214e-02
1.577485783022107568e-02
5.974817403977488069e-03
8.977455818145182315e-03
1.471828581526640929e-02
1.645961458133625432e-02
1.286136714858631368e-02
-2.301502961877831591e-04
-1.390341738830761474e-02
-1.239950957971022553e-02
-6.648143578721230247e-03
-1.559830436919179726e-02
-2.767102757170485094e-02
-2.452297678177401546e-02
-8.171850162255162031e-03
1.144414998159773086e-02
2.337733953210749741e-02
2.723944821279664433e-02
3.124096098519893103e-02
3.197616847959310754e-02
2.588222997230666886e-02
2.040101488170728561e-02
1.960145005472026247e-02
1.794688537434647319e-02
1.640641599011177440e-02
1.828720565094609993e-02
1.270667230338106898e-02
-1.550402541729101885e-03
-1.754930236757377277e-02
-3.308818216969512671e-02
-3.779779014206943732e-02
-3.759059804795237408e-02
-3.830204560242896072e-02
-2.202776003020264287e-02
5.005609558314015953e-03
2.584861866095359770e-02
4.522156095234300399e-02
5.992776691113695792e-02
4.345684522907786174e-02
-2.475012172364448454e-02
-1.082711126622252912e-01
-1.473818659059529523e-01
-1.458584068536538936e-01
-1.371559637239093687e-01
-1.065746228071888652e-01
-3.579539597514037191e-02
3.894513558084952004e-02
9.584683165438996622e-02
1.481936815976840349e-01
1.650774520505351173e-01
1.179875484656905948e-01
5.521134731968704162e-02
2.521613980359528606e-02
1.341725553635015472e-02
-2.251666571039120869e-04
-3.330814433530083010e-03
-1.412789560025501899e-03
-8.337543579213409217e-03
2.934801487749963151e-03
3.160883526771120222e-02
2.912819952469376805e-02
4.516112072945126579e-03
-3.051005648346423720e-03
-1.971285414958453761e-02
-4.913193271858436184e-02
-3.361960597664820360e-02
-2.056130758826072488e-03
-1.199749339892446781e-02
-1.465745360271567856e-02
-3.871678566529977369e-03
-2.709797211919806950e-02
-3.987485995771038877e-02
-2.953032483906583780e-02
-3.792576742308695348e-02
-3.610436827812306404e-02
-2.146830769484962473e-02
-1.355688405809258104e-02
1.897071576488364511e-02
5.775378516085617059e-02
7.294459816005789687e-02
7.456945415357210671e-02
5.545698269334067843e-02
3.067771321301174595e-02
1.331721799723355887e-02
-1.037690465431981811e-02
-2.895186100640065666e-02
-3.307916202157615976e-02
-2.251423598994238551e-02
-1.740304290622474506e-02
-4.307936743172396943e-02
-6.454748234402016283e-02
-5.769818122254248560e-02
-4.425130716082750770e-02
-2.729961910649611814e-02
-1.699648530104936510e-03
2.912748405949087266e-02
6.954339152910916921e-02
1.069799925410909458e-01
7.381404080859026162e-02
-2.571964775420352428e-02
-7.987463844037547001e-02
-9.137035755770797629e-02
-9.656247533388596926e-02
-4.926284918916828959e-02
1.174309113349502123e-02
7.177047960682929328e-02
1.687737202328894459e-01
2.073056175431074732e-01
1.386230882243071894e-01
5.097891029748538583e-02
-1.628936964731036302e-02
-6.142176695199799003e-02
-7.480093489648154126e-02
-7.845738605720613268e-02
-8.160845582099524043e-02
-6.943071241709473929e-02
-5.033603918736053590e-02
-2.492094866444248547e-02
1.268823244887521589e-03
-1.006786691254599186e-02
-4.142511536833695662e-02
-4.584543452380965972e-02
-1.567654207744447262e-02
3.860090547777256936e-02
5.684906529868619107e-02
2.535751333396004184e-02
1.967428151370779685e-02
2.229794844994771250e-02
2.402886784154704622e-03
1.294257155139708591e-02
2.473485086496455751e-02
-3.447355500696819980e-03
-3.612921198236443421e-02
-6.462427527679297234e-02
-5.955519441547343917e-02
6.262055315370911555e-04
6.977992802662860705e-02
1.375806370805933987e-01
1.729561737994650406e-01
1.175045088993672826e-01
4.286050332444853780e-04
-1.135634391256074571e-01
-1.619037799157458379e-01
-1.473506363693918020e-01
-1.268372426186273882e-01
-8.816989541957433174e-02
-6.152794475066906271e-02
-6.123977176125765948e-02
2.066725015414307143e-02
1.498069067299363788e-01
1.964998323755324516e-01
1.615223419492103352e-01
9.691101227082522807e-02
4.581077926884723206e-02
-8.457456068015518913e-03
-9.010822804943764697e-02
-1.171692995160273504e-01
-5.787846828446823605e-02
3.968934097195096940e-03
1.771750688354237560e-02
9.925208563335815096e-03
1.814366419070345682e-02
2.849541110818294004e-02
3.232274166515682751e-02
5.019691776077316731e-02
5.707581847684162907e-02
3.580856465871939259e-02
9.144839329915277482e-03
-1.690727014345214108e-02
-3.480804642597348092e-02
-6.411779852579561900e-02
-1.468102771147845320e-01
-2.238100373868553705e-01
-1.968628818713207551e-01
-9.448165555526001624e-02
2.110699272641924570e-02
1.343103910816801361e-01
1.676419161926195611e-01
1.209736557575426946e-01
1.181800481026750171e-01
1.028105194120384203e-01
-9.128319086407999869e-04
-5.983914056837415230e-02
-4.347593552838577985e-02
-5.255688476340011905e-02
-1.007886643899477824e-01
-1.185090778599875994e-01
-5.677390666745527753e-02
1.604009966199004475e-02
8.121901508936912872e-02
1.587501753401207583e-01
1.431146561083037061e-01
7.028253066797399140e-02
5.203210455402467599e-02
4.451991797737200884e-02
3.060619238510987536e-02
-2.107852880071244689e-02
-1.046689395068399475e-01
-1.112564758946908705e-01
-7.379318423663423776e-02
-2.865754167225912155e-02
3.054339787331014980e-02
1.994197201942123424e-02
-1.345254511808191729e-02
1.303632083514681510e-02
3.197016877237353338e-02
1.819113887097565871e-02
1.269194231537033868e-02
1.037274612027350162e-02
-1.288158812183280363e-02
-4.957230381310331196e-02
-7.867677080830179359e-02
-7.434490242840335883e-02
-2.105540710311304409e-02
3.731051209326054913e-02
7.296771650071724735e-02
8.156061878208804850e-02
4.128590728433537832e-02
-8.113744320450861150e-03
-4.363619747395672266e-02
-7.348901206558293431e-02
-6.729931320231304082e-02
-4.428165633673215168e-02
-1.073656094354954321e-02
4.808468065105544337e-02
7.576533721033035240e-02
5.308676627449591956e-02
2.033187498531043372e-02
5.435552266937376462e-03
-4.304995586971088533e-04
-5.808807465630599215e-03
1.747399995732884515e-02
2.844659135658328744e-02
-1.244405618739488108e-02
-4.763698386776089866e-02
-6.809931602332484901e-02
-7.306354030678779976e-02
-3.161501584592449343e-02
2.131111381413629616e-03
-9.323782271903217900e-03
1.043382495643507607e-03
6.731617223481650703e-02
1.152175533596047491e-01
9.013402187636081198e-02
3.497854412275993446e-02
-9.620530137777784374e-03
-3.454537858715291121e-02
-3.078552273314573776e-02
-2.082843331342763837e-02
-2.430760824098155207e-02
-1.564881999166915436e-02
7.213204571112850558e-03
1.502595850260363131e-02
1.764360829128911942e-02
1.429630182564101126e-02
-1.177145114020227389e-02
-2.270741524752709073e-02
-1.311460882276324971e-02
-1.742387131261997207e-02
-1.824225017225517692e-02
-5.240728163626692977e-03
-4.122827124907682203e-03
-1.822885990203700415e-02
-1.867324761051334867e-02
3.045890244460929680e-03
2.343892155589697920e-02
3.167161305953590522e-02
1.471984906445960271e-02
-1.046455319106111281e-02
-8.051033435029429338e-04
1.166337759746413454e-02
1.377302191622841842e-04
-2.774034716237178816e-03
4.857751962297928404e-03
1.107515978411382704e-02
1.523918617322140776e-02
2.123015058347906686e-02
2.618433916991122837e-02
1.516958390090748093e-02
-9.137568743570035181e-04
-1.382798580272064613e-02
-2.573474012445715886e-02
-2.712126067314955119e-02
-2.866756446607988604e-02
-3.110134949598732795e-02
-2.257430257999922668e-02
-1.363209875613584712e-02
-7.426440318005487692e-03
-5.862519094743733755e-03
-9.643906221984351740e-03
-1.722547711379567069e-03
1.431227889844722753e-02
1.862932350719838370e-02
1.352743568573571906e-02
1.150969038772900292e-02
1.356941425351305790e-02
1.429144765453456770e-02
1.263219269130954475e-02
9.202112400262177708e-03
4.417695349116727843e-03
3.366256874021383242e-03
7.196892218555252761e-03
6.828367617959138838e-03
8.162938466891308609e-04
-1.641858831202786667e-03
6.243985822156772206e-05
5.094763990467978017e-06
-1.727211777297549223e-03
-1.629904545509685328e-03
-6.326776269173985286e-04
-2.473988243212460469e-03
-7.757860163283693961e-03
-1.005783807173299578e-02
-3.513989063812813889e-03
3.005707204849314852e-04
-4.058562291860465417e-03
-5.003920601730062721e-03
-6.667736190637535768e-03
-8.659643855221627745e-03
-1.697135441821118976e-03
2.550027512666253916e-03
2.539659127894079976e-03
5.017387269904689633e-03
8.571218335857613661e-04
-4.667389274025805605e-03
9.936196678088731436e-04
6.454123796868725497e-03
1.570427796295548704e-03
-1.827030850670649910e-03
1.047835856852569148e-03
2.869406247655400220e-03
3.734055071140342762e-03
2.370875600110158334e-03
7.885220529427114638e-04
4.008984204392032971e-03
3.634667874479283103e-03
-2.156869929146873217e-03
-6.926286779163357346e-03
-9.177308387406086718e-03
-6.003581092188503381e-03
-1.323401454452239386e-03
1.933601602762983693e-03
5.070529133727002397e-03
2.832438638250751786e-03
-1.314230043915556086e-03
-3.654289565998918000e-04
1.891381143731581897e-03
1.423458531936831447e-03
1.036179051465043518e-03
4.792387640079852351e-03
5.465094326584365655e-03
-1.285781044483160591e-03
-4.222382837789045822e-03
1.093715682022859562e-04
5.260385986276270090e-03
3.157934060928398439e-03
-6.080818981970497958e-03
-6.974749964345958696e-03
-1.801454375934894402e-03
-3.793749866000293083e-03
-3.190529839257089280e-03
3.790471126585931525e-03
3.343570062307944096e-03
-2.783225650148425830e-03
-2.057284940641226738e-03
5.994170070599888619e-04
-4.618870503070234847e-04
3.107126687990478808e-03
3.968122844758730991e-03
2.705220095542366704e-04
5.706727948318657956e-03
5.627721370179291326e-03
-1.702659592780188897e-03
3.192658100031538302e-03
5.193434808877264892e-03
-2.053161241514871865e-03
-2.914842179763533440e-03
-1.412519461241465478e-03
-9.767600288506151675e-04
-6.804065434664844248e-04
-3.718966755819530859e-03
-4.385722494652108221e-03
-2.730083336599579708e-03
-5.850242788070949933e-03
-7.960970956023633027e-03
-4.310247064182736072e-03
-1.595556310340343520e-04
4.112414989942897621e-03
6.102754815553960467e-03
4.704794772599520808e-03
7.478894722965522338e-03
6.640963452894403998e-03
-2.015850307971698945e-03
-1.012092658808512544e-03
4.578955868739063330e-03
-6.559753780658976463e-05
-1.324074436465004067e-03
1.981085762290870668e-03
-3.061424644324604611e-03
-4.117626594218406350e-03
-7.932527769108999125e-04
-3.719721596549699014e-03
-5.328553596260518586e-04
2.042438071803343805e-03
-5.994531431922038058e-03
-6.854994468320058619e-03
-1.622627276579512081e-03
3.273608688870013666e-04
3.014823364304745901e-03
5.123792208993243127e-03
5.112038556842942588e-03
2.038112245657357647e-03
-1.365083988681158652e-03
3.097867838890226407e-04
5.981759330518358030e-03
9.892817006979748307e-03
2.694224749693223571e-03
-7.487097847623445240e-03
-6.201990566018095348e-03
-3.117449691874913699e-03
-3.874588728836484645e-03
-5.700456337574719926e-04
3.683420566208849955e-03
3.231380684442801323e-04
-7.255308543770307671e-03
-7.612648737869279203e-03
-2.342908254402639463e-04
5.834801679247529453e-03
5.212206535344499243e-03
7.847426815628368241e-04
-1.038076777959014239e-03
-1.512296580222959085e-03
-5.695727465960701919e-04
4.033125648389448287e-03
5.617268707518382337e-03
2.484883753284118472e-03
-3.049678743208245708e-04
-3.401187682542377178e-04
1.053709789024589918e-03
-6.508108118987858707e-04
-1.739323652162214941e-03
1.260730930249132553e-03
2.155005443251450936e-03
1.462221515449504353e-03
9.710589896772555242e-04
3.081709759970151664e-04
3.311266750665420658e-03
4.807273055617032609e-03
3.179679881365356925e-03
2.915687086635389540e-03
-7.422064004708499784e-05
7.871290869808482155e-04
-1.090490682783912908e-03
-1.977677773055281849e-02
-2.329849339061805524e-02
-4.253503418309268792e-03
3.087973005408093177e-03
3.435607475842768210e-03
3.084874155436773298e-03
-9.482073797082525351e-04
2.647487917197349772e-03
5.394754173873967176e-03
1.414963520301321977e-03
-3.834707783353145504e-03
-6.894241423496184906e-03
-1.846949080563833889e-03
3.259602739973213245e-03
5.019653731858323732e-03
2.887726563142799935e-03
-5.180506239498447636e-03
-4.486946146133782495e-03
-2.379085513172669256e-03
-6.214251634495197331e-03
3.318323621658577239e-03
1.467087874115023151e-02
1.084457260662070530e-02
4.397151863634785399e-03
1.704622789274411491e-03
1.217895143458769692e-03
-1.978957731648272071e-04
-5.152264383808699381e-03
-6.099431049155369655e-03
-6.319452613114751385e-04
1.317685706409631608e-03
-3.224050541556786401e-03
-2.766861010755339995e-03
4.679626922795596979e-03
5.620698326333634087e-03
3.363513272508673879e-03
6.905620766123868673e-03
5.657818827205531725e-03
-7.241613709251251089e-04
-3.405134496098297624e-03
-3.876283302432791816e-03
9.288796440434729258e-04
5.793489783386783151e-03
5.534477803991387458e-04
-6.087203704891150889e-03
-6.890241134086436472e-03
-6.363698855099610141e-03
-6.784417104737015120e-03
-3.889527391536307978e-03
-3.710115464109769220e-03
-1.184860516303094975e-02
-9.285840460335058333e-03
-9.853907277711099200e-04
-3.692937935817766897e-03
7.943231462563158599e-04
1.052549875398968091e-02
1.084538915048756380e-02
6.109988509075427003e-03
-1.481353723244119248e-03
-1.553269381366337515e-03
3.384993047524968539e-03
2.856315387280556912e-03
3.784986273809452274e-03
2.215915205615616706e-03
-2.841800420585486806e-03
-2.155001556983528015e-03
3.520537537248978827e-04
-2.849833989006373292e-03
-6.173865700246426551e-03
1.501913072198756425e-03
6.589421058048672460e-03
2.634931860459784341e-04
-6.807971409166084812e-04
9.042573966859190297e-04
-4.891616059364051108e-04
-4.019588512410005423e-04
-1.977834462702151696e-03
-8.706690604597746869e-04
1.440251507066282657e-03
8.279127204446640881e-04
2.826756741343702719e-03
5.494886693868601506e-03
7.150517393742332473e-03
5.029136715418988830e-03
-2.521016637067518586e-03
-4.231623730344896001e-03
-3.297818756364681927e-05
-6.368907466331448324e-04
-3.237663716633439655e-03
-2.170550662697177773e-03
-1.209909165728193870e-03
-2.735321428815975977e-03
-3.121565715270334038e-03
-9.732373634721770044e-04
1.056541619668012683e-03
1.153813300014492477e-03
-4.499032952045408035e-04
-2.750228556374379688e-03
-4.645432040104827999e-03
-5.580667309048571549e-03
-2.160083606429671378e-03
5.617477682533463836e-03
6.389711146488580989e-03
-6.245029566285748360e-04
-4.926786961665983663e-03
-5.109773805369125302e-03
-2.281938531283220391e-03
-3.814092258632896613e-03
-6.766436293946895275e-03
2.551265647579344358e-03
6.441505534543629993e-03
-2.566215188221023999e-03
-3.422155197284046813e-03
-4.742680418594809625e-04
-1.356987036055900490e-03
3.300801076221298062e-04
5.292722284423557327e-03
1.203603135160309645e-02
1.441376721528583003e-02
9.573181511884378686e-03
3.820584826239872226e-03
2.944762529699752017e-03
4.737717755752708475e-03
1.976950035582470452e-03
-3.981916983883088991e-03
-7.634193455702095038e-03
-6.925423360714224111e-03
-6.784774633410334092e-03
-1.047847164282174164e-02
-8.694774396911016806e-03
-2.817637678094782588e-03
-1.337368373559204640e-03
-2.829587181697247253e-03
-1.882409120568656873e-03
5.649646493952341191e-03
8.918367799504924032e-03
5.827021581305815920e-03
3.812629143194376166e-03
-3.819783338576625709e-03
-6.517766445726888916e-03
-6.984417450275232390e-04
2.951129068448254044e-04
3.528082468116669219e-03
4.983494537851919023e-03
4.842825978036639344e-04
-8.877175132728484840e-04
-3.380629553094811716e-03
-3.896099772152237205e-03
-2.129353612433488533e-04
1.363028464926720890e-03
1.887654598536658715e-03
5.490684156072979209e-04
-2.460084849269372244e-03
-3.833972027153743824e-03
-4.846524497650206041e-05
3.750984989486006328e-03
6.682112074259660955e-04
-8.393261309839888940e-04
-1.894608676926413243e-03
-6.120395203080370057e-03
-3.716447586455251442e-03
3.223904721175300560e-03
5.824909555204135780e-03
2.088323772473010473e-03
-1.242720996495708975e-03
-1.739242139961115399e-03
-3.475310277132376193e-03
1.235830476610458827e-03
7.662970734734497920e-03
5.289014922136759181e-03
1.599584929924351964e-03
-1.931455041811207599e-03
-3.496959410259015133e-03
-1.139465116520765355e-03
9.229234742927244252e-04
5.062907725804387249e-03
4.037957694071942286e-03
-3.082921579329907583e-03
-4.393855569834993757e-03
-5.227133290138253827e-03
-3.701481356617136818e-03
6.126856800689206746e-03
8.071193118604652952e-03
2.727271954432897594e-03
1.591575688819359645e-03
-2.570520689691562291e-03
-5.111560686928660890e-03
-2.668102321547132991e-03
-6.981940143598587729e-03
-7.957055533764172822e-03
-1.624973166770498278e-03
-2.192662734298819836e-03
-3.787918034950646037e-03
-1.497099455514438885e-03
1.998451669106519370e-03
8.719895554087810433e-03
1.040200472393416203e-02
5.445545244652427209e-03
1.761559189824534778e-03
-2.470114726393923994e-03
-4.484547726661711024e-03
1.732630837003334241e-03
6.867624809832171065e-03
1.392623799890788322e-03
-7.612259631136883767e-03
-9.995506671499343465e-03
-5.997122088806733364e-03
-3.101667991336658822e-03
-3.332471586162255063e-03
-1.190175321849257228e-03
2.095734633102088254e-03
1.976461727525563334e-03
-2.190204004544307921e-03
-5.676158396671379495e-03
-4.520715736077173842e-04
5.696090828053002042e-03
5.052015688864441162e-03
4.035425414607780002e-03
2.322275708538905446e-03
2.048816343211551372e-03
4.551125733909415494e-03
3.997889956920620998e-03
3.505874345430389123e-03
3.360198313468810809e-03
2.740063915649035265e-04
-2.037124540286798773e-03
1.192035343330942378e-03
4.595395210312250636e-03
1.149712618835684952e-04
-2.188777855386311519e-03
-1.343536325816572499e-03
-5.203440452160461999e-03
-3.710001593242855111e-03
-1.680691535326148643e-03
-4.399893607995645356e-03
1.103179112329870804e-03
9.484537240962362392e-03
5.179377673953175151e-03
-1.268025985727433240e-02
-2.045120072034733311e-02
-6.023011624079312523e-03
3.207152262395593541e-03
8.464760153202577353e-04
4.032345727918025015e-03
6.554210242948791711e-03
-4.068697090921774692e-04
-5.762025818725597347e-03
4.494406993104326474e-04
4.457694510487532347e-03
-7.369315184212619965e-04
-2.288146979470697274e-03
-2.017232678183434637e-03
-4.132250451065763372e-03
-3.439593118960856694e-03
2.108723954273456977e-03
7.775866549763536979e-03
6.722955281410585016e-03
6.069195907890586814e-03
6.120806285821743346e-03
7.064263695199443898e-04
2.671042796893806468e-04
2.539794822287897227e-03
7.116983475284894677e-04
1.009977542415923819e-03
2.196835751019747540e-05
-3.135285956569247232e-03
-2.822997770301743665e-03
-3.851782630972276807e-03
-6.616242655285906743e-03
-1.922619473398404222e-03
2.974232249783640650e-03
-8.577234751407241970e-04
-1.051396162473675587e-03
2.037526012443228313e-03
2.437259262195488191e-03
5.710892901228842820e-03
3.491339761138626072e-03
-2.505392289852196447e-03
-2.471447113350575767e-03
-3.491861481817761220e-03
-4.709448529208250765e-03
-3.149885178086505449e-03
-7.718536820734939012e-04
-7.547371984133654978e-06
-2.040965804620166555e-03
4.749480733434207941e-04
1.833017230665309489e-03
-6.548230634950142747e-04
1.005537770258081200e-03
2.277349008149459099e-03
4.255372416432515528e-03
-3.769844698214112454e-03
-2.186284890274342932e-02
-1.475538496664710077e-02
4.821922390972250422e-03
8.279611072330536614e-03
1.022457564965936067e-02
1.096250173278401352e-02
7.940902409045201907e-03
6.547324788966790536e-03
2.116883358036501881e-03
1.344224021191828006e-03
3.945066381285909640e-03
5.233496725604088774e-03
7.558666458295102732e-03
2.083139020726643403e-03
-7.680257212595668730e-03
-1.010357406935628692e-02
-7.644366548974581600e-03
-1.172093652614581653e-03
1.898548018745493992e-03
-3.956984061070972260e-03
-5.490710866109704130e-03
-1.415115727553342001e-03
-2.794146472022697794e-03
-6.695378477912262809e-03
-4.397752002588815011e-03
7.999003062588035638e-04
-4.833344683239383091e-04
-1.576453238935584871e-03
3.701078077795531308e-03
4.635198799685947765e-03
3.799745601145877640e-03
5.675117491055092778e-03
2.301577208099497666e-03
-1.496339357239894960e-03
-2.210238049013178718e-03
-3.452668837046834940e-03
-3.809192156606400897e-03
-3.249616440441449247e-03
-1.108978160510641040e-04
1.403942620138306629e-03
-4.946852511984786011e-04
1.685593727764538724e-03
4.479999835320426678e-03
5.221263738534017221e-03
4.754461359313274203e-03
1.856891396064407453e-03
1.464451076395226811e-03
1.039417584255869758e-03
-1.423372247345002992e-03
-5.223428845790963537e-04
2.908356226358732068e-03
4.253393168951940390e-03
-1.461974313560400734e-03
-7.236305703707462261e-03
-4.720497814708159157e-03
-3.254722283004542801e-03
-4.656095631090704720e-03
-2.654678063545977558e-04
4.921024311323244499e-03
2.275147751338838301e-03
-1.055720772226324778e-03
8.285026590308314839e-04
1.156463637724594422e-03
4.155157827352885672e-04
9.675000886183658362e-04
1.390781274849996283e-03
-3.528552764514418256e-05
-4.657132520397717565e-03
-2.539391661354112751e-03
3.925817839632192614e-03
5.149541012249090298e-03
4.409989042616478498e-03
-2.493154386878049592e-03
-6.942808326313456256e-03
-2.655853627901323070e-03
-3.352736731363022919e-03
-3.772083352810175032e-03
-1.711310633696709214e-03
-5.046017687956565060e-04
3.381023394668906967e-04
-4.418744031646430759e-03
-2.771845716597647318e-03
3.757168731784968092e-03
5.717664882005087795e-03
7.742066185723671390e-03
8.673025034850860050e-04
-4.567972068041541156e-03
-7.614957572289874667e-04
-1.451181055867135960e-03
2.276483738550964461e-03
4.426261449367824979e-03
-7.179754652833761006e-04
4.515413430414334621e-03
7.292115183268363214e-03
-6.360296245227656199e-04
-3.529427173129420867e-03
-3.723520162329713168e-03
-3.960419983637733510e-03
9.208954788935009433e-04
3.930125381411638842e-03
-1.262567765827386345e-03
-5.044081547991205970e-03
-7.319753031879961368e-04
4.506846582689598077e-03
5.344834577992550219e-03
2.134592289803501769e-03
-1.746050424722951329e-03
-4.409646877533705128e-03
-6.969315561778217927e-03
-3.560405198521440166e-03
6.979408103695687766e-03
8.898585538372118242e-03
-9.499834191055161895e-04
-5.293690517099966346e-03
-2.123633364026955052e-03
-9.644392728820348802e-04
-2.259560042962863603e-03
-4.777352881542026343e-03
-6.050661392611484703e-03
-6.361299099977801158e-03
-7.025548808230152459e-03
-3.406758644267965548e-03
3.937097947959961909e-03
8.858645692896257792e-03
7.317244423818621349e-03
5.197841228142061586e-03
7.005702130486426288e-03
4.983260264739082859e-03
1.673507977399022253e-03
1.365373460436013556e-03
8.424621790483718172e-04
7.517833593830897023e-04
4.137902304185936907e-04
1.162113727218215108e-03
-5.760965075594466286e-04
-1.645359867402147389e-03
2.463229685357805170e-03
1.507408219883382781e-03
3.349687241630904585e-03
3.711629384852521956e-03
-1.186027751638879480e-03
3.767925093071395302e-03
-1.285438701316228387e-02
-3.361878451036462434e-02
-9.938305146793753944e-03
9.086236682240759685e-03
6.815814635321969413e-03
8.900225412177451348e-03
4.728218186873395408e-03
3.599582578831288498e-03
1.857043267003905158e-03
-4.303629167107751036e-03
-3.603361344352242705e-03
-5.344078827465485390e-03
-2.781015658308030013e-03
-1.735802390678453828e-04
-3.748107905889233506e-03
2.902633681504198401e-04
2.003706014969507902e-03
1.631243711605782866e-03
1.249639426107515029e-03
-4.076577496835737981e-03
5.953805387872183538e-04
6.351586821043381063e-03
5.046951676606929379e-03
8.693763419604821560e-03
9.919987840835706519e-03
4.207714814032367107e-03
-1.120686352472298605e-03
-2.841476653465573651e-03
-2.052198041126955443e-03
1.223641173550938299e-03
4.924202322465730253e-03
-1.856535884295371173e-04
-7.014418891192606385e-03
-5.622555907870066885e-03
-2.987194842941278718e-03
3.109286522356478444e-04
2.838325713085741546e-03
-1.040977927899850981e-04
-4.766035164056155009e-03
-7.913896977396072188e-03
-7.364823552111149710e-03
-1.921818073511221466e-03
4.737175484177968271e-03
5.625168875626204192e-03
2.160008277282693921e-03
1.067478773879337308e-03
-9.933670552778519486e-04
-2.339665696441649029e-03
1.802100917234708381e-03
3.796461967815683604e-03
7.121004564851956880e-04
-1.592709652777663182e-03
-9.824783332171656194e-04
9.499294193630816599e-04
2.182367701613162694e-03
7.309883609956382370e-04
-6.990722785912715977e-04
-7.469743877431208896e-04
-4.093241246654917911e-03
-3.665590938853009479e-03
2.288122311224983357e-03
3.957813607277030007e-03
4.312732216854229562e-03
9.958967655222562831e-04
-3.757898496230475515e-03
-2.650018273146866315e-03
-3.818649909766554541e-03
-7.224720991624580205e-04
8.959367914985798265e-03
1.489762630078641029e-02
9.470601562236153834e-03
-1.656075347469812206e-02
-2.777666199479338766e-02
-6.481115209631347837e-03
3.928067452414977373e-03
4.251833815275456521e-03
8.189744110779884068e-03
2.666767858720161827e-03
-3.605330345933614126e-03
-3.216043068463256792e-03
1.419347555354090462e-03
3.200377035215613754e-03
8.719906882757590908e-04
4.899308790562935216e-03
7.187843795003443469e-03
3.236185532734094615e-03
-2.871700870457498432e-04
-1.843205580928158113e-03
2.807923009089012892e-03
4.964686984189757742e-03
-6.859849725378247380e-04
-4.131957940496545564e-03
-4.513564082240105642e-03
-4.753187732450822947e-03
-3.759630287950600780e-03
5.207372556577443898e-04
3.397252335135778414e-03
-9.061970810840998269e-05
-3.226571986039831943e-03
-3.629730802230692749e-03
-3.157815407822717885e-03
-6.788611736808258020e-04
1.633711652520724667e-03
2.151695218948939184e-03
4.152437699953907477e-03
5.981915372759049297e-03
-1.049342691282073668e-03
-6.357165190657303004e-03
7.599225561441522213e-04
4.992566565635232594e-03
3.851444389269028344e-03
2.030411248762597522e-03
-1.450046517571506460e-03
1.543492441965527585e-04
-5.108129010501995422e-04
-4.701031483763450786e-03
-1.674641279818687902e-03
-9.751125948987140416e-04
-5.556666269155460108e-03
-4.701366704219051354e-03
-2.116001434316555976e-03
-6.081483726185033488e-03
-5.129035227464206863e-03
8.858077277015905665e-03
1.340756949457920337e-02
5.851180828329732159e-03
4.555770615434501757e-03
1.166052516358546303e-03
-5.526070940504198940e-03
-4.091779776778289510e-03
5.513588230818573929e-04
2.418668891836114627e-03
2.527618743134086091e-03
4.715758968821305748e-03
5.714825612821807822e-03
3.543270288563426466e-03
3.961807707672336011e-03
2.194930900354814026e-03
-2.828384332654795288e-04
1.678586148816742707e-03
-1.335971635085566852e-04
-2.415697159075767819e-03
1.827254223592637838e-04
3.425704381618799831e-04
-4.941381034703363345e-03
-1.090192236846092982e-02
-1.358240876538189569e-02
-1.468926493275286328e-02
-9.855666969723075183e-03
-8.808927201359831620e-04
2.810599454655019033e-04
4.317427719267504806e-04
4.575927101100095776e-03
7.819252248408748926e-03
1.193037480686908076e-02
1.363304827951911623e-02
1.276798209935381054e-02
1.027435769470826793e-02
6.732169021941770970e-03
5.139082991409464618e-03
-1.259453543267221578e-03
-8.184699699547394111e-03
-1.238720471722988548e-02
-2.102804112779349532e-02
-2.388855405593262593e-02
-2.189515426762711839e-02
-2.556011534407436753e-02
-2.644266865733562247e-02
-1.796607418956691279e-02
-4.935066371336597861e-03
3.505446100670353733e-03
9.103413357699922936e-03
1.680103014840294770e-02
2.403271195821386416e-02
3.416406034126653890e-02
4.053355336610729720e-02
4.050753843394287040e-02
4.174531081124432247e-02
3.493983069916548750e-02
2.409483604898405087e-02
1.665256546890919731e-02
5.597779938140922361e-03
-3.787530866638900290e-03
-1.340762994273976723e-02
-2.463567697134349047e-02
-3.115370462354108069e-02
-3.681716108569563217e-02
-3.430808948438384548e-02
-2.051641738881936419e-02
-4.232585928623747856e-03
8.278606862890402346e-03
