-5.864384717969381260e-03
-5.952442359970514831e-03
2.587785335272060980e-03
6.136895170438727218e-03
6.259678923315725382e-03
6.051796892027831720e-03
4.707067427642446303e-03
2.586981197388171696e-03
4.262689443322903622e-03
6.962316265802401434e-03
4.442545392903296704e-03
4.436154518113716305e-03
4.194966787484715950e-03
-1.996491441449146313e-03
-1.919553162422356655e-03
-2.174853107324119673e-03
-9.651384723569380458e-03
-8.658118432403699022e-03
-4.612523545482581297e-03
-7.189912033952772577e-03
-9.316383752051779488e-03
-9.902048927176502341e-03
-5.861697776807020532e-03
2.169231369686532669e-04
-7.016945715962536671e-05
-1.316684417363984342e-03
9.034785303623515691e-04
6.043524753017788520e-03
8.094594804414987840e-03
3.053864509580293644e-03
2.042604830031925518e-03
4.253674219713727937e-03
3.526916569459887831e-03
2.573517031740190763e-03
-7.118616844383942460e-04
-3.454347184381231610e-04
1.412642108667213009e-03
-2.747830164240082189e-03
-1.942296553923159984e-03
-6.273075926963277973e-04
-4.317738358714423401e-03
-3.090785700152257325e-03
6.817498375821552659e-04
5.060826404809273815e-03
6.277682764483073774e-03
1.802312163969320901e-03
8.338346499373225070e-05
-1.945370786701521070e-03
-1.411290939035506845e-03
4.492756843619820362e-03
-9.695220533717800911e-05
-7.596772630986275282e-03
-2.140940388813417691e-03
3.249465172607155124e-03
2.391036510455959215e-03
3.343277528439780183e-03
2.102913015384821980e-03
-8.706875328448610962e-04
1.599361366147998087e-03
9.091362195235462096e-04
-6.267014373308587606e-03
-8.231262533247301824e-03
-3.404588055503280416e-03
2.743159408912171273e-03
4.004079097330373593e-03
-5.585164351258060499e-04
-1.917220148868243332e-03
3.506100720202386827e-04
1.826302526252997910e-03
2.851192721903297563e-04
-4.629280483909791084e-03
-3.926836289209125787e-03
5.912731953153547255e-04
1.600249040843626860e-03
3.352982928236959530e-03
3.182690078718118133e-03
3.304735824501487860e-04
-3.256607490936301932e-04
1.607669624469125708e-04
1.264082029508716790e-03
-1.687814257550016624e-03
-5.601598499814387962e-03
-3.601843462016700477e-03
-2.388989473205111163e-03
-1.609340769878061161e-03
8.730314184788440495e-04
1.277668988009700128e-03
1.131030989123637046e-03
-3.459108523410454536e-07
-1.517556054910970719e-03
-1.325310646105035258e-03
2.614505256692182308e-03
6.187626212117554314e-03
2.390160865831009000e-03
2.126516899467661113e-03
4.391875615412177761e-03
3.495432557113326531e-04
1.307617830426502804e-03
1.761544230251072419e-03
-2.008388032012650183e-03
1.604685134752358640e-04
2.160848208086410885e-03
4.765967675092126592e-03
6.881655759884408412e-03
1.812820902359434279e-03
-2.626286002398075907e-03
-1.420730847185929955e-03
3.350532359072862839e-03
3.690724801981334034e-03
1.188259846656237410e-03
-5.985046990079484486e-03
-2.798341529837688677e-02
-2.848441207461333002e-02
-3.528288145778684455e-04
4.618616988967712278e-03
-3.073133358567379050e-04
7.806243470510859477e-03
5.074344490767712657e-03
-9.909308555600491314e-04
-8.605476080934141908e-04
-1.964896741615129380e-03
1.119484439759460851e-03
4.957694591008949582e-03
4.292449096196194504e-03
2.842670756466239741e-03
2.532787124399832335e-03
1.551478581582717547e-03
-6.211834149052531447e-04
9.385330245128209936e-04
2.120229702675471145e-03
7.479234391076260754e-04
2.240043879714889198e-03
9.059971472137618711e-04
-6.337763522176031311e-04
2.213618807075544512e-03
3.719631383756861510e-03
4.756577668834555996e-03
6.872158083873743193e-04
-4.122714477853535800e-03
1.391655185580233578e-04
1.274923559800176338e-03
-1.284097291580662062e-03
-9.473914587587294739e-04
-1.495946705156253219e-03
-2.558355595586343269e-03
-8.344913872226569426e-03
-1.079308713609820197e-02
-1.795721768508714254e-03
2.403110743478957621e-03
-4.788402005971833034e-04
8.697418997540194924e-04
4.112047906458634466e-03
1.125081315490806654e-03
-2.374184681482887152e-03
2.318228005056291192e-03
2.627855850699406873e-03
-2.007028007759463321e-03
-5.549302064731700783e-04
1.094169189941652690e-05
1.529781103756985827e-04
-1.251691722938712617e-04
-3.579206085593052752e-03
-2.041022933828471123e-03
1.755572446103956892e-03
2.672098527255874732e-03
1.188729165524467528e-03
6.360704790256153712e-04
2.562041941160028962e-03
1.568713735592196321e-03
2.375202027572750809e-03
2.473533905837321367e-03
-2.515390611553566195e-03
-1.088314684937125194e-03
9.446480587764308516e-04
-8.752071022883064306e-04
6.017300931006482577e-04
4.946071209334410934e-04
5.156019047588966805e-04
9.012015828517586308e-04
-3.367474230172961061e-03
-6.493655688129832716e-03
-5.446702849191925426e-03
-2.257804362168421095e-03
1.497672351315379154e-03
4.109071384376826973e-03
3.674550607624058659e-03
1.148744100094580781e-04
-1.778102791354231214e-03
-7.080976177654852311e-04
-1.309008297185823436e-03
-3.506037512431956719e-03
-1.726678503353321417e-03
3.618319632810358417e-04
1.041547284253533669e-04
4.003155466501125484e-03
2.622773232813955732e-03
-5.360928538213468632e-03
-2.824905940073505536e-03
3.149420756721706995e-03
2.888804068558330478e-03
2.536690305598325590e-03
1.869014646986028559e-03
3.270406215059456253e-04
5.491054916693010116e-04
3.386942002704045312e-03
4.342417272667691702e-03
2.037477840914102452e-03
2.218507098815055301e-03
7.698921627636873960e-04
-4.286609964780541300e-03
-5.084780713625090993e-03
-1.121482438201786523e-03
1.626941020813970143e-03
-2.063788880704662133e-04
-2.044347391992095211e-03
-1.114703388828072262e-03
-1.665175102015606541e-03
-4.126108676890530465e-03
-3.679247634967532619e-03
1.056814030207480935e-03
1.616545976889680741e-03
-2.258099138143776757e-03
-2.538965503862615925e-03
-1.299355488650742784e-03
1.843374556557222889e-03
3.844770913892885805e-03
-8.845869843577754165e-05
-2.353423655646525239e-03
-2.443762229877419548e-03
-2.659851111262256321e-03
-1.364354406119471516e-03
1.204694869726839670e-03
3.554300107335201745e-03
6.567914433295143689e-04
-1.192891128278652417e-03
1.431966533892961536e-03
1.223454234330515833e-03
3.668140068394672593e-03
6.582754339417740998e-03
1.896447548510904772e-03
-1.471547925411271617e-03
1.852246498389485598e-03
2.850883045116938633e-03
-2.014326232065064524e-03
-1.962020065304533566e-03
1.828082175635200582e-04
-3.591412319310824733e-03
-2.147857954632163228e-03
3.163056790831336642e-03
3.491627734938164765e-03
-3.957778431094972449e-04
-5.215683663064441498e-03
-3.554653456510996172e-03
-2.398423387704567457e-03
-3.035900334308924090e-03
1.843893245760471096e-03
2.374571375129874880e-03
1.856321553078777191e-03
2.196680329197676397e-03
-1.367501883216353051e-03
8.569605392799397496e-04
1.017898979433847547e-03
-4.008273871613702785e-03
-4.417943859499704612e-03
-4.065087131050477975e-03
-9.836140072001876085e-05
3.417342433353260257e-03
-5.289304612210379711e-04
-2.256870516474529173e-03
-2.546901029401273044e-04
2.004660365852833394e-03
3.143752929941044400e-03
1.178063457691978962e-03
-1.400896004922559755e-03
-6.306917918088348176e-04
2.691373259175836551e-03
1.455219492048680880e-03
-1.198457527230009157e-04
1.094494978510464822e-03
-2.343758782171115242e-03
-2.473052368371093067e-03
1.336146865310781223e-03
6.628953744430046398e-04
7.388634179420551810e-04
2.318366348471577476e-04
-1.792526142806440299e-03
-1.548927590039320861e-03
-7.012006312887484032e-04
1.052925310454508936e-04
-5.093998575659724505e-04
8.395150478018687879e-04
2.190008631187092408e-03
-1.724217187359843246e-03
-1.960654500553195290e-03
1.856761059498925927e-03
3.864750751058066997e-03
4.427714274830906425e-03
9.718089333341801278e-04
-7.634590054104513530e-04
2.101683535810745188e-03
1.830486415792499265e-03
-2.758207521949899142e-04
6.033314882519380399e-04
2.487964251110807989e-03
9.195785626165502418e-04
-2.577869993153980924e-03
-4.165102156919682497e-03
-4.405096288943724687e-03
-9.752454908102969368e-04
1.057645969666075585e-03
-3.817585227898778917e-03
-3.053716379033368216e-03
3.354597739685983866e-03
3.305838342385182885e-03
1.820327098695221323e-03
-2.854386134479487865e-03
-1.166875427279171103e-02
-9.179612059636878957e-03
-1.621184703752702287e-03
7.853527416478168479e-04
2.819223986345069464e-03
2.120525675182832227e-03
1.526699691999479922e-03
2.055254399495506402e-03
2.173116568902409233e-03
5.211571924233138718e-03
2.662808435845598343e-03
-1.092467163032384862e-03
2.574196940527555093e-03
3.082019936172923115e-03
6.599359157237954599e-04
1.976384741048018117e-04
-1.092089215561942048e-04
-1.431322800757044936e-03
-2.819304502257312470e-03
1.361037713579602200e-04
8.043870663326703084e-04
-3.470382177836009528e-03
-3.907716615225895716e-03
-2.474126823273673729e-03
-3.925336981283195949e-03
-4.762398645809145896e-03
2.338956953770635928e-03
7.598830745451992663e-03
1.658232036924377336e-03
7.950246221376747885e-04
3.220669941034377814e-03
7.405846801225933040e-04
1.181490061562031832e-03
-2.270602664742310116e-04
-1.098137421335838946e-03
3.148437416786868063e-03
3.998522195159868314e-03
2.049430139201206640e-04
-1.014798758409070269e-03
4.397567968469545674e-03
3.656783784092411047e-03
1.866296705568354591e-04
4.897162331837216602e-03
1.688886840653524559e-03
-2.443249663370366219e-03
-1.678935739419265289e-03
-2.026102578319720349e-03
8.878586631692541101e-03
1.933561702838189648e-03
-2.638135745477038566e-02
-1.889920348932466743e-02
5.507266641748272823e-03
1.520563133036947293e-03
1.658620487502980448e-03
1.106346238731847550e-02
-1.387887742537303494e-02
-3.144764139223630434e-02
-3.459485639673740508e-04
1.499931318135167523e-02
5.972145887129212856e-03
7.919200838976507562e-03
1.276499162958153214e-03
-1.875354603436149006e-03
5.061615592981506991e-03
6.444955466231809928e-04
-1.910166051366152468e-03
2.409786090476158382e-03
7.506867906026295188e-03
7.341201997099408572e-03
7.718372076021739938e-04
9.326214984967472589e-04
9.246255714940714585e-04
-1.420387953370874385e-03
1.052635221011533843e-03
4.195458255513504885e-04
-2.875879739525656013e-03
-2.617096346062103632e-03
1.113159208783992115e-03
-1.418612091240358127e-04
-2.935647354787468931e-03
2.538388565293401861e-03
3.763550199006187452e-03
2.287050944945522111e-03
3.331443667380061709e-03
-3.007084664584087127e-03
-9.172576966618242039e-03
-7.207232478152150734e-03
2.580093681282769232e-03
9.138546549535810082e-03
3.468476707018192974e-03
2.956297410244320811e-04
-1.720124859571508548e-04
-3.371711062747122494e-03
-2.115416279203889780e-03
1.464709419847307764e-03
1.237241244138519115e-03
-3.305867418233454039e-03
-1.331412718818982118e-03
1.229887605361358518e-03
-3.080595059215061448e-03
1.730331716791754144e-04
-2.670886107374388814e-03
-8.995618628873864805e-03
-1.585565057025847303e-03
-7.755066946455763284e-04
9.771678657509981578e-04
1.887417326560584955e-03
-1.119555587799433635e-02
-4.528997872165508101e-03
9.287399365905535040e-03
5.007546364967755542e-03
4.518117169969236048e-03
2.327363865139135072e-03
-4.176237527619661681e-03
-1.583932248012503465e-03
9.523077913292805332e-04
2.192853105830030753e-03
5.540749316273934320e-03
5.478308164802706513e-03
1.431202989227551344e-03
-4.973030766442014484e-04
2.093346128830129993e-03
1.514001970967991618e-03
-9.074040258120013008e-04
-2.877023778037697457e-04
-1.780334218345019101e-03
-2.846829760609876671e-03
9.351397284295122174e-04
3.832437133350377785e-03
1.849705343108324837e-03
-5.816571787109326265e-04
-1.233437363158531013e-03
-4.241428164679677225e-03
-5.616179968962066622e-03
-1.829307780258664388e-03
-3.863317997760300822e-04
-1.986458686220791373e-04
2.039342834616570711e-03
2.454419494238359875e-04
-1.561929267603071741e-03
1.477755511862840392e-03
2.597987227521098268e-03
2.053786908985929215e-03
1.819582848019517382e-03
-7.805861121669273274e-04
-3.481710948680616109e-03
-2.956508794571208795e-03
1.371914416558306631e-03
2.957546736560086494e-03
-9.361899593951924451e-04
-1.921903149120416515e-03
7.952228737147548935e-04
2.940885279580311446e-03
1.629759569017768389e-03
-2.466313406145393718e-03
-2.902892169817444627e-03
-2.082720920356804367e-03
-1.709980374818698048e-03
4.955650923934780709e-04
6.462214916687024878e-04
7.855185327501479483e-04
1.658052105839265006e-03
1.226682848075802282e-04
-1.552188421169366120e-04
2.792818612617321752e-03
4.589943324144139455e-03
7.408541484547714710e-04
-1.518269778400617226e-03
1.148381707173196922e-03
-8.616923016539268022e-05
-1.968493003694937998e-03
-2.117205290108297236e-03
-1.852862784876101220e-03
-7.102608791570458758e-04
-4.879619173502382570e-03
-5.047995886845085649e-03
-4.609877767980993107e-04
-4.117285568928077434e-03
-3.535342431495619095e-03
8.305570950566926571e-04
-2.127808541805529391e-03
-2.419772687366355396e-03
1.214703115966344303e-03
5.263461614911311634e-03
6.096393274358903949e-03
2.230132475260961349e-03
9.193717840790465801e-04
4.478066134083019375e-04
5.906382424708594633e-03
1.103225016283913666e-02
2.332613395881300705e-03
1.135255637412707413e-03
5.246697453667500087e-03
-7.982814823416030695e-05
2.977333532846746303e-04
3.844153145970433333e-04
-1.014636360525087398e-03
2.374785728048221453e-03
9.753851938747467145e-04
7.623375921513873615e-04
-2.083403393357148234e-03
-3.751611711965009265e-03
4.404127632329858481e-03
4.831373385592085956e-03
2.104536736716253707e-03
-1.263362425172606489e-02
-3.622770753800472199e-02
-2.116586375744295909e-02
4.608595472489080032e-03
6.290782374991019978e-03
9.418487937039065824e-03
6.302137825362161619e-03
-5.182748369571272933e-03
-7.809976355198579474e-03
-3.014333702615277708e-03
6.393904906691271275e-03
8.803035077478964937e-03
3.205441275710551458e-03
1.619677868207393704e-04
6.345620743689613747e-04
2.880194075511320704e-03
2.393987221977300454e-03
2.186219407640204674e-03
3.951355879149334206e-03
3.775526004650459240e-03
1.893676425044851482e-03
-1.177174148064027200e-03
2.429305064144091661e-04
2.426193379482243472e-03
2.810478181077965491e-03
5.097678302392822172e-03
-3.755736201091677134e-04
-4.102858167836316051e-03
3.318778366462114653e-04
-4.319133270364421129e-03
-7.025263885849192952e-03
9.817576288651710774e-04
1.635834879456908846e-03
-2.702894822283765340e-03
4.160056417966825567e-05
9.273108472446926808e-04
-3.344671338724724500e-03
-1.162045314462778955e-03
2.311635889858631911e-03
2.420562471089855510e-04
-1.202546743851274930e-03
-9.826668404730681903e-04
2.454988315116387806e-03
4.919971741491371321e-03
2.145476833582102109e-03
-5.588510381840202561e-04
-2.814977925153421510e-03
-1.950080992254831337e-03
-1.628190891966293857e-03
-6.297009725854483403e-03
-5.476033412004536333e-03
6.340487465033754029e-04
2.849148278624048878e-03
-2.937421620868841971e-03
-6.559005143801976967e-03
3.178718451043099219e-03
9.660228650054027838e-03
4.773945151477297644e-03
-8.760211051904072952e-05
-1.501583559173070171e-03
-1.263054617245044356e-03
-2.441460214321424221e-03
7.744852102360015632e-04
4.417147082061314081e-03
1.605561817523741227e-04
2.115166818769275391e-03
7.080415107636641413e-03
3.035485377707882858e-03
-1.378622128389999073e-03
-2.457940597576642721e-03
-2.483345207753456449e-03
-4.963318771790571106e-03
-7.624384168629283823e-03
-2.856762800157253059e-03
3.301175712148386645e-03
2.814000458429521869e-03
-2.933863736970674578e-04
1.582417721023015190e-03
4.207040569187067702e-03
1.346305151616131873e-03
-2.682417368260674433e-03
-6.637450721306787337e-03
-5.238377785301106919e-03
6.405805853622864978e-04
5.824446817300177022e-04
-2.556025310217914092e-05
8.506994839027733285e-04
1.004220240376154207e-03
1.600211191244618487e-03
-2.239926673891783244e-04
1.043111870676302101e-03
2.367540616611576911e-03
3.407969316337889753e-04
1.424416395868885812e-03
1.969516150862184872e-03
5.175274536003048043e-03
7.664607177780498153e-03
6.395443310191659906e-05
-4.967736979142749892e-03
-2.877854931099907681e-03
6.048562510505910931e-04
1.507629503220772691e-03
-3.170604394199982162e-03
-4.106248606697461209e-03
-2.388253606571037009e-04
4.823385573080235305e-04
-2.744269602717118537e-03
-4.099813420893062485e-03
2.003698726939790852e-03
3.487374791835271080e-03
-2.863542464913884037e-03
-2.903499414585575429e-03
3.748604149791166882e-04
1.549266786994857401e-03
2.365316999426702541e-03
2.286813368666047730e-03
7.457091543040934812e-04
-3.382428107584934708e-03
-3.827756356133433374e-03
-7.741686739371042483e-05
4.187755209712694620e-04
2.258839096354508174e-05
1.119919450338761381e-04
1.437221809895135359e-03
3.922364142833104084e-03
2.731489537724271933e-03
1.447998908048428153e-03
1.729409555969016162e-03
1.273439751845753206e-04
-1.555848887211057742e-03
-2.976116612357607768e-03
-3.926021015196502935e-03
-2.199303907595021815e-03
1.622800802567012828e-03
1.680535456269149994e-03
-4.417003708146444337e-03
-6.744412691123367713e-03
-2.396952553775129856e-03
1.307216725926543853e-03
3.358627858495651184e-03
2.099535346264952071e-03
-1.664815648769746304e-03
-1.437262676389331178e-03
2.206570173000976104e-03
4.436979524841929215e-03
5.346524044440205056e-03
8.579650670185399661e-03
7.150321231704902941e-03
-3.042374480616417357e-03
-4.253552821640475996e-03
1.095024015645143815e-03
-2.573734740256836129e-03
-3.885460022620313911e-03
-1.992359203492035692e-03
-9.143066143036639648e-04
4.913647078401011531e-03
5.570509671627749473e-03
2.385110649087077237e-03
2.696308170236601850e-04
-4.410788974566333571e-03
-4.546186262857606145e-03
-2.200696566087518690e-03
-5.251803242364616641e-04
-4.703162380852815528e-04
-2.783838957951024779e-03
1.055358731046623574e-03
9.864116100970167153e-04
-4.188048717654248299e-03
-1.699024134812396206e-03
-2.175590157381527331e-03
-5.454233888434946442e-03
-4.403209796311026610e-03
-1.586184962482212017e-03
1.528614062716411245e-03
-9.809354251696402165e-04
-1.700207393671912147e-03
1.786014787677896697e-03
1.055851529856626251e-03
2.141980126901433731e-03
2.789983651293586556e-03
4.886206639397136942e-05
-3.013334412031477296e-04
-3.896898140846684669e-04
1.853158364437511134e-03
7.643933809237098663e-03
7.650490918669339627e-03
2.271777759989147133e-03
2.956547417551112951e-03
3.408284623608214686e-03
-1.698752830105639379e-03
-4.271081518266847329e-04
1.225644772477180221e-03
4.552484861058290946e-04
1.995004964639694820e-03
-1.155807584910572899e-03
-1.268136494075197099e-05
4.388807723038089248e-03
3.095764886695673030e-03
2.303975988351220083e-03
-3.395824472219461862e-03
-8.584495563040549226e-03
-3.558111689194496264e-03
2.039040318562144322e-03
2.658278892430625089e-03
2.060351025612629401e-03
1.214618823604277434e-03
-1.529821210884612162e-02
-3.168561660384389134e-02
-1.451819460630807482e-02
4.840921678000785489e-03
4.796393926185123745e-03
5.915388323653107509e-03
5.604569351011359085e-03
3.859309327517924677e-03
6.129279279439571806e-03
8.553113584030385894e-03
7.995798749798428348e-03
1.453618017429495184e-03
-3.652935760248646538e-03
-3.337727532417704077e-03
-3.286386084915252428e-03
-3.350947657960447797e-03
1.731033702708963161e-03
6.392310080185896123e-03
2.543009905849972444e-03
3.206223284534129130e-03
7.223062767317789748e-03
3.089463794421753399e-03
4.902998917879281470e-04
-3.464992499593651677e-03
-6.666671139351218814e-03
-9.640503995030091661e-05
1.912165801066940387e-03
-2.880330035211441791e-03
-5.868618394665967367e-03
-3.055575268658426279e-03
2.547565395124698484e-03
-4.296744580270110735e-04
-2.659329779182276199e-03
1.275269732886166350e-03
-8.415064818566758741e-04
-2.443374065243790298e-03
1.995126889609718200e-03
2.918681744240940370e-03
1.676367533494318605e-03
4.992918175565396258e-03
6.375946107156923483e-03
1.593896280275514197e-03
-7.382440612050298560e-04
-6.633974345170523621e-04
-3.250910877828704776e-03
-2.810063141932680249e-03
2.389718005381295872e-04
-1.992798955951921407e-03
-3.455918991729315954e-03
-4.443427569999605143e-05
1.422613471523421960e-03
2.835906589093831458e-03
-7.661055810538885957e-04
-6.372963570377153213e-03
9.751691597061195454e-04
2.464951538609729681e-03
-4.771345130893894435e-03
-1.272259477177963135e-03
-1.708760553911797646e-03
-4.561011449738459379e-03
-2.564737705064561732e-04
-7.030651424431820376e-05
4.201810436298758565e-04
9.368766782930984527e-04
-1.250395743503593610e-03
-7.169452993849699139e-04
-3.980740235678176708e-04
2.044147793394184183e-03
5.905967805873115449e-03
5.430194003713363117e-03
2.815461279760202856e-03
2.670340368323858606e-03
3.388890243279820205e-03
-1.185214991360057169e-03
-1.972771282818672027e-03
2.928582775170449851e-03
1.415095690973960831e-04
-1.886178811289252865e-03
1.444815629286607750e-03
2.368547245931745815e-03
3.282173300198208948e-03
1.239270863541308554e-03
-1.635434191359799814e-03
-8.482912696562910438e-04
-3.608370951328829582e-03
-4.546670366914981089e-03
1.277220596249299418e-03
-6.523236784206650320e-04
-8.737532267749353182e-03
-6.009898982536541340e-03
9.478123209345594435e-04
1.731878564524570599e-03
1.345250557555769224e-03
-1.303935792202575231e-03
-3.054592585777130432e-03
-9.776336360993520341e-05
-1.276648582268541995e-03
-1.931954354399084348e-03
5.315468962585633006e-03
9.233137872728905404e-03
3.320612740169188223e-03
-3.853794028596233250e-03
-5.228840802509655307e-03
-2.953561348578362302e-03
6.592521277960373526e-04
3.322763801874896190e-03
4.016614155506344729e-03
5.574591696966129176e-03
2.871592951987271634e-03
-9.824944180639436954e-04
2.811252708200729158e-03
2.813289285912237963e-03
-1.685678488058565917e-03
-1.113040682738355687e-03
-7.679267757640061403e-04
-3.945410998977283570e-05
-1.261692518754541949e-03
-5.767447270515922361e-03
-2.348069156826502676e-03
1.423958095761593875e-03
-2.136288837319428712e-03
-3.939493440742091769e-03
-3.381217647508787637e-03
-2.346299231216671718e-03
-1.303750838292950902e-03
7.893256455569139241e-04
5.056044566144650247e-03
6.080155163615936185e-03
6.897011428929205289e-03
1.009216249378030832e-02
1.011191822820278752e-02
7.459611907548558546e-03
2.106563885649436266e-03
-5.209823205340169058e-03
-1.106396009976925825e-02
-1.208831782099746392e-02
-7.929538032748749757e-03
-7.584226496427252939e-03
-9.259578076918253964e-03
-6.124700103595858737e-03
-4.721675242632896244e-03
-4.859537506477157667e-03
-1.761072794800442503e-03
2.972983843268877692e-03
6.718736576417407187e-03
1.052525959720784082e-02
1.616511441153594200e-02
1.628128485500678069e-02
1.473871005933823607e-02
1.864750102780275698e-02
1.762674521774935249e-02
1.546629569839637168e-02
1.284555978242538435e-02
2.979432205311473292e-03
-1.762415510300656147e-03
-8.744933640617603976e-03
-2.261987383270196855e-02
-2.465712229726152102e-02
-2.441097076288286510e-02
-3.171099345982954926e-02
-3.298583383720755241e-02
-2.289462746415734523e-02
-7.093532498441065814e-03
3.472971427207184169e-03
8.954965694411278973e-03
1.665087364298450251e-02
2.129048763807785127e-02
1.735101663881331163e-02
6.336509186064597475e-03
-7.434249208197087587e-03
-2.128608606683483548e-02
-2.846335090947476817e-02
-1.684921304981700646e-02
8.202277574976855196e-03
3.372671421268827463e-02
5.060678098791464991e-02
4.342838383069549946e-02
1.662497363985337984e-02
-4.347622505450167603e-03
-9.773532264416956786e-03
-5.766685992068354243e-03
1.196861344485939142e-03
-1.957791594863946688e-03
-1.458581454957608332e-02
-5.653618523283471253e-03
1.206472125221006407e-03
-4.128755033204151853e-02
-6.946363478441280881e-02
-4.084125544910274797e-02
-1.115475598263156697e-02
1.240200716835673615e-02
4.437621501262081769e-02
7.680100567343919882e-02
1.043611311790790391e-01
1.026006459020765149e-01
6.888818410528259328e-02
2.935756503671479653e-02
5.993493739993602763e-03
-1.577295961605238838e-03
-1.307858046271074062e-02
-3.140045522875716671e-02
-6.652114450836134341e-02
-1.102795752840002030e-01
-1.242106836743867432e-01
-1.145562765569296537e-01
-1.072971639211390132e-01
-9.512432450039740028e-02
-4.147665226334708299e-02
3.343955780746608875e-02
5.137182740204287307e-02
1.041345327600338815e-02
-6.029872878337291797e-02
-1.209236290637248773e-01
-1.168293397017489132e-01
-6.740354879100224350e-02
1.965445115282402067e-02
1.294586697088067062e-01
2.158235562719219569e-01
2.723766589332744514e-01
2.550161734067971087e-01
1.822149952174039744e-01
1.283378939597383528e-01
7.828757511906157818e-02
3.716490653303834019e-02
8.847732171265098103e-03
-2.967052706134758536e-02
-6.711296252554460606e-02
-9.205488572337115760e-02
-7.520778400535803321e-02
-2.161145637650862053e-02
4.067246828827996569e-02
8.570985921714979749e-02
4.271454588793471147e-02
-9.151166857459080983e-02
-2.323470004807988432e-01
-3.049985266656617400e-01
-3.274792821956926114e-01
-3.469852848104813536e-01
-2.816524454009353140e-01
-8.768903176023933044e-02
1.332049926693147091e-01
2.812737194099463878e-01
3.412639946117308476e-01
3.322050564380885640e-01
2.238980548413636584e-01
1.199977549040499303e-01
1.143267042511843523e-01
5.041241032526456306e-02
-7.822712631293596286e-02
-1.693213020690145509e-01
-2.289803095225791119e-01
-2.113488335203992097e-01
-1.458239487138310586e-01
-5.455983278732684516e-02
9.562286194403737949e-02
2.112228391341245959e-01
2.409176061036952810e-01
2.184795151885235431e-01
1.541253490563054829e-01
8.120007570246367753e-03
-1.865797506197900413e-01
-2.834172366770557616e-01
-2.891943941348581459e-01
-2.336768391212627471e-01
-9.954156898953255006e-02
1.228753142569848772e-02
9.801669844253484143e-02
1.674178243264380361e-01
1.827300119387094968e-01
1.809997232264648759e-01
1.327838777892374200e-01
8.363180609792693343e-02
1.124505428546953428e-01
1.409642472585878326e-01
1.151482260885995229e-01
2.792858609741557738e-02
-8.934798138424257519e-02
-1.673128720112411483e-01
-1.865508859872153924e-01
-1.899739018171146543e-01
-2.211673159921462573e-01
-1.668761201731685795e-01
9.980299027846232032e-04
6.956656392299852276e-02
2.410543885137478651e-02
2.948959553604376185e-02
8.234608634711665376e-02
6.061892711570314451e-02
-4.419666608208015074e-02
-6.756579654808249347e-02
3.933676857534916527e-02
1.074992747287053935e-01
5.018967850455709895e-02
-1.214428426394124037e-02
2.551880112030232434e-02
8.298153175186494257e-02
7.359522955855182791e-02
2.735532781702696564e-02
-8.241980045415557912e-03
-3.032998904368458884e-02
-6.409814768501288784e-02
-4.679239479482490832e-02
5.467944336048405352e-02
1.008553683907592730e-01
1.743281936234655424e-02
-1.039717342349411738e-01
-1.585042725337916514e-01
-1.715696385156772474e-01
-1.383192778364004949e-01
4.326647464186908487e-02
1.562102844148568204e-01
4.341414046557855178e-02
1.487798379906151705e-03
6.347098523776024959e-02
4.150257694581686169e-02
-1.366158968709734953e-02
-6.392229474297880798e-02
-1.273954256438606936e-01
-1.253591942821878358e-01
5.183329916821054900e-02
2.274015673939007998e-01
1.585004069500286494e-01
5.311533175512044708e-02
2.934525785617772206e-02
-2.859249203528541408e-02
-4.210169466016681905e-02
-1.895827914649671903e-02
2.316978039199508663e-02
8.608394769967019078e-02
3.662412273650277050e-02
-6.148126882208868049e-02
-1.175695377681488796e-01
-1.407635561419866566e-01
-8.403908412640960501e-02
1.614822542393173910e-02
1.131155139146953620e-01
1.498853902964579488e-01
9.159605519276481367e-02
3.692635377463539953e-02
1.689225898398244788e-02
-4.023929202837439427e-03
-2.853288040657912458e-02
-4.490173208845918418e-02
-6.474711068745080123e-02
-9.276081742495687066e-02
-6.988160382972684326e-02
-2.723464559700319171e-02
7.767883540810624314e-03
2.216746176215712502e-02
-4.713221071275044277e-02
-6.036689849372121885e-02
-1.800327495024110769e-02
-2.357486690588120326e-02
6.844285944478957495e-02
1.244545929959364056e-01
1.842472790188251844e-02
-5.537645077692662093e-02
-1.029404133512749758e-01
-1.158555053629496262e-01
-6.154006887757448169e-02
-1.048754367778288558e-02
8.866155632557524979e-02
1.730915782883002130e-01
1.524161451381042254e-01
8.124539941218995864e-02
9.236316937138666638e-03
-2.218051634741595793e-02
-5.437858758901990830e-02
-9.341180056877462778e-02
-6.651654603446707781e-02
6.493003286856799394e-03
7.528316262070113007e-02
8.474143540899414795e-02
3.663005119391392339e-02
-1.351306625337542547e-02
-5.416672229135355288e-02
-5.761172210041936442e-02
-2.883676529088950030e-02
2.953364867454919516e-03
2.515856723101740286e-02
1.865138506910412469e-02
9.005250997258797477e-03
1.977531745877602991e-03
1.315167532033949781e-03
1.379703069355772867e-02
7.610944974008678095e-03
7.434385493034653854e-03
5.531959413121591111e-03
-2.233325905797134067e-02
-3.140656021494686589e-02
-2.354811236593839022e-02
-8.546354440129404206e-03
5.116826759893932167e-03
-2.653914691411747573e-03
-1.171128234072623883e-02
-1.273753628767638861e-02
1.576732330913072945e-03
1.938228661797259528e-02
2.257031045007406797e-02
2.170797455507106691e-02
1.527701112348922412e-02
4.398944806598326443e-03
-4.768774201155005776e-02
-1.213873461724724323e-01
-1.164505344294141931e-01
-4.596081515054872835e-02
5.976205880828037303e-02
1.442756912110897960e-01
1.081243453273663668e-01
3.963129498969775177e-02
2.248831158294146981e-02
5.467013608682989162e-03
-1.473771778031436434e-02
-2.838725236699230631e-02
-3.025258915088401696e-02
-1.865321158659990347e-02
-8.355714635820970723e-03
4.663398298203862667e-03
7.261284478534069803e-03
4.490534326689895640e-03
1.038913690397437473e-02
8.018515616365406995e-03
2.925997785685849339e-03
2.668638006644532233e-03
1.043721261003177029e-03
-3.773046560887896410e-03
-8.779647390022149792e-03
-9.223774751615794465e-03
-1.311362758234725298e-02
-1.345822625724296499e-02
-6.225405197239871832e-03
-7.158636131351455226e-03
-8.936539673972213396e-03
-3.987495738089197155e-03
8.972460736452204369e-04
2.942048123266850779e-03
3.853449242213957768e-03
7.750670669818844789e-03
9.882024425453250424e-03
7.957750747153708240e-03
6.556842268626955975e-03
5.349558408672907064e-03
-5.811815493504846487e-04
-7.944692283244035591e-03
-2.389473805264695667e-03
5.124964307348100177e-03
5.935562436929602004e-04
-2.013863163692258384e-03
-1.474534520184612183e-03
-7.820943520562311695e-04
-3.630206570268404084e-04
-3.525388237346334819e-03
-5.454969037295251573e-04
2.399606412079575198e-03
-2.376011470513456243e-03
-3.236873552438947806e-03
1.332861062553537292e-03
4.235760741381116960e-03
1.474914921962745644e-03
1.917938627099188657e-03
5.317646131149150225e-03
3.806821424109117346e-03
8.718297503781365435e-03
3.860724483074514692e-03
-1.438357664138082206e-02
-9.541547780569094653e-03
4.400098452173664145e-04
-3.362215738935070246e-03
-3.135919749969746494e-03
-6.343810298223499788e-03
-5.224464132653428017e-03
4.636726160525577074e-03
2.908101410951758909e-03
-7.038460314716862018e-04
4.108384140688006356e-04
8.664656862143773871e-04
3.173088505341416839e-03
2.188861946212683138e-03
5.642827141548197424e-04
1.000374116481738372e-03
2.181596354906563829e-03
3.416914704687058334e-03
7.618845531483742174e-04
9.328924290014121382e-04
4.455914476278460953e-04
-2.490399892481986663e-03
2.477369878489139605e-03
2.924348569484743442e-03
8.345217046385829303e-05
3.732278285715759543e-03
-1.792699019962994502e-04
-3.950785732611828902e-03
1.916627925002305612e-03
2.875729535143843347e-03
-1.994710200669675120e-03
-4.082701576744885569e-03
-2.637474620196852103e-03
-1.432985579109758096e-03
-8.790608113701314308e-04
4.326580973867606467e-04
6.542672923605204931e-04
1.279574573457661684e-03
2.431671691070334471e-03
1.838567372218773317e-03
-6.584127470124787138e-04
-3.203709795559789384e-03
-3.524168274807516418e-03
-2.794458266527248720e-03
1.516216204199288147e-04
1.084808269213616283e-03
-7.364442725238994417e-04
2.954156816789863492e-03
2.204184863178064707e-03
-2.490622817400567866e-03
-2.429239738395743884e-04
-1.715641449255968535e-03
-3.094624082271145004e-03
-1.687720074513039269e-05
-1.926743722914528120e-05
2.580691639941699866e-03
3.313533590320316084e-03
2.064115533300208728e-03
3.643353350637744317e-03
-8.352079582932172685e-04
-3.276595203434711986e-03
-1.743473116112239014e-04
-1.742198782780102814e-03
-2.720873145534539236e-03
-7.115704830822600861e-04
1.106688796668778675e-03
2.176982703411299309e-03
8.267901593625470204e-04
1.795226780052401388e-03
6.439639832224890170e-03
4.584704784313576101e-03
-2.227540639362564270e-03
-9.234579076942653775e-04
1.182377658471728179e-03
-2.662160937123230799e-03
-2.532759052589639119e-03
-1.523348837205494273e-03
7.950637704968514211e-05
3.372684185792225713e-03
-2.679385410910430196e-04
-3.362515679122901092e-03
-2.917924097436340371e-03
-2.505786049414281992e-03
8.642268833996239082e-04
8.504966970262957957e-04
-2.427042366150155032e-04
1.080701460903972424e-03
8.363061340798970183e-04
1.672142372232851473e-03
-8.071744333078580396e-04
-2.645895666241061556e-03
7.196174574399021246e-04
-6.112227046827877321e-04
-1.105882264419073748e-03
1.094948708491504932e-03
1.174999417945115070e-03
4.054551041708342497e-03
3.896868810156923699e-03
1.880479165738819809e-03
2.231160473555799002e-03
-1.942390370137600476e-03
-4.214802894628951781e-03
-2.097989830940287688e-03
-1.820815765468746482e-03
-1.058085751515700857e-03
-4.540539810657239373e-04
-6.368500036346745954e-04
8.250468984271772327e-04
3.513928535067293787e-03
2.565103985717526701e-03
-2.277222486550128499e-03
-2.015862798801694271e-03
-6.290979734589817289e-04
-1.098600323116420696e-03
3.196721022069403187e-03
3.539090324549282358e-03
2.008282430833508477e-04
9.118323666051199664e-04
-1.831958824619134762e-03
-5.461754735563595364e-03
-4.928933875986649463e-03
-4.505355885983890370e-03
-2.406832176879659165e-03
8.261491559305171768e-04
2.684322769857144016e-04
-9.868138479005128354e-04
6.812582257325009577e-04
-1.839575320526986007e-03
-5.709618055460440565e-03
-3.793893670737680788e-04
3.961350877842795618e-03
2.964925739407342411e-03
4.648740465160250759e-03
5.406412285884695454e-03
5.312501701254453666e-03
5.141336961259246503e-03
3.915585730473117830e-03
3.711047465595473070e-03
4.069169557128759769e-04
-2.008259593575878205e-03
1.617104895625502648e-03
3.294824669582753843e-03
2.981049498735363710e-04
1.813070125850932093e-05
3.488080095416378097e-03
2.875192148587977798e-03
-1.755279211996246401e-04
4.146771886407384609e-04
2.543516326263209164e-03
1.917043496969760051e-03
-1.942192025748836360e-03
-1.332037034408312896e-03
-9.258962316072677501e-03
-3.230522292813313434e-02
-2.853339215637644768e-02
-1.636893142735036622e-03
5.393241230396352177e-03
3.195483620072802830e-03
2.951928782387069558e-03
1.546690502419155629e-03
3.956561063592023073e-03
3.613738390097786558e-03
3.809555400345266112e-03
4.468025748041929215e-03
7.445885119874370590e-04
1.923529528516158783e-03
3.478465016206739539e-03
1.720007602517101709e-03
3.901275206273526960e-03
4.724844746072428409e-03
2.569706999059416085e-04
-1.971981338248634218e-03
2.024843127949161378e-03
4.733849512177308420e-03
3.676048178811237421e-03
4.748432958636738047e-03
4.547291744507276322e-03
3.268100655236971688e-04
-3.800055390974395320e-03
-4.603341372784577022e-03
-2.037554289739734389e-03
-1.902751120186793078e-03
-4.221482783695884589e-03
-4.548422013442263677e-03
-3.704921268375207816e-03
-2.142559852030689535e-03
-6.270059204304873936e-04
1.135263089365478846e-03
1.369832552741312871e-03
-1.038237666146614663e-03
2.178575135570544677e-03
6.917763802223460788e-03
4.207215897203465428e-03
2.824336112131314858e-03
2.901878372081107341e-03
7.887055896231464280e-04
1.810252293102621425e-03
-9.055182503675985196e-04
-5.399930987950700249e-03
-3.034045015719578822e-03
-2.426629631308529350e-03
-2.239290258966300344e-03
-1.923962114737611537e-03
-6.165646577805457447e-03
-2.658379438046558005e-03
1.776554949832569435e-04
-6.350116145883158252e-03
-1.164229195423620127e-03
5.196810125178063719e-03
-3.592503223903871935e-03
-4.396965828955524958e-03
3.441344094827511989e-03
2.543693677916784423e-03
1.190123763016840861e-03
1.731248638676927219e-03
-8.648346871846393589e-04
1.133581562820778902e-04
1.223700247008254003e-03
-2.029947134388030480e-03
-1.774005569480393771e-03
1.797520289920969761e-03
3.886685199584193322e-03
2.914172894483009826e-03
2.385390944899034378e-04
1.393736170760536157e-03
2.795943752971052649e-03
1.154581519961318369e-03
1.191024036059661713e-03
1.185551181180738564e-03
1.357529066187859344e-03
2.055970425199477904e-03
1.251414154772348755e-03
2.085263643710273413e-03
-5.284654651897334032e-04
-4.593881262799923496e-03
7.576148106614503898e-04
3.176820971530785846e-03
-2.682084302834706908e-03
-1.105126739527478646e-03
4.431316752730330571e-03
2.819978517175154593e-03
-2.446414195043637978e-03
-3.532857218444284721e-03
6.029811483818042859e-04
5.925917289896780356e-04
-4.038463848476535507e-03
-4.072311077785923869e-03
-3.077576841289809788e-03
-3.851449839729840195e-03
-1.627564373552701539e-03
-3.392240648008338104e-04
-1.817565439336320081e-03
-1.140194444778714483e-03
5.172973673019660816e-04
1.115973274401089880e-03
1.411772169711935688e-04
-2.541812728622038203e-03
-1.189799422043105607e-03
3.077057040999109285e-03
2.618077710318980188e-03
1.234979474672231190e-03
1.151375438473822409e-03
-1.754495085940855573e-03
-3.160182614091090574e-03
-1.090398461705369484e-03
8.616197340271423370e-04
3.580545872784815856e-03
6.105149269488215416e-03
3.915114163167600012e-03
-3.922426358564344573e-04
-2.529185845128582334e-04
2.392702423477811435e-03
2.343810447847232813e-03
-4.524678255066859204e-04
-1.880043842567938892e-03
1.082001560085731398e-04
-1.178269612466838060e-04
-6.791588774509927696e-05
3.170143326942393130e-03
-7.462406647402951548e-04
-6.137746335620227270e-03
-4.538457347551493742e-03
-2.485701683363397436e-03
1.085672923683517026e-03
2.277994011924943003e-03
-1.716173882962283240e-03
-1.885421907886921647e-03
-2.555937494192073861e-04
-1.267685664788321075e-04
-2.446750030796657248e-05
1.185855050176089177e-03
4.054141740496780902e-03
3.476533401853939415e-03
1.807928766068129601e-03
1.734448780186293153e-03
1.346881894120372381e-04
-8.503405518184279678e-04
-1.715358988761292187e-03
-1.267405706755173793e-03
2.046981423118401228e-03
3.580701712954150948e-03
4.483687994704122761e-04
-4.855344903491399036e-03
-3.368160402090482255e-03
1.250302449025853619e-03
-1.875607844761851563e-04
-9.367600910399096837e-04
-2.726351626306653363e-03
-4.072889668464339981e-03
1.508754986061474181e-03
-2.467034053385384765e-04
-5.984443597101967577e-03
-2.214228468234696618e-03
7.038770489713911749e-04
6.942400535663704629e-04
3.663347537121765425e-03
5.702054623887823151e-03
4.576998755971308647e-03
1.963084982984007916e-03
3.210486940101254301e-05
-5.500634571108586543e-04
-2.674746149252798253e-04
-4.769904036127936846e-04
1.972646674268550219e-04
1.219217117780461469e-03
-2.555852822251221922e-03
-4.008363971676875276e-03
1.325921160789095125e-04
3.309921955225158261e-04
-6.117836409870673186e-04
-4.279382094994288671e-04
-2.408103516290670786e-03
-3.371079030862502574e-03
-3.746920276161413554e-03
-4.063778445272378526e-03
-2.174042980022071903e-03
1.553530756503328095e-03
4.582611126790978213e-03
4.080734826758462830e-03
2.363396647722860837e-03
2.628916229289154742e-03
3.040997996946875892e-03
5.306936005238300407e-04
1.186105031801265629e-03
7.018780931473925407e-03
4.886964416214553859e-03
1.112070740140884504e-03
4.754585952668852200e-03
2.779319048906526545e-03
-9.128645587992322485e-04
-8.118048669523147964e-04
-3.355963044962140349e-03
-4.666966215808930445e-03
-1.139909801081371524e-03
5.463345534012864838e-03
4.187489680743366159e-03
1.320004364957891004e-03
5.920898467505052859e-03
-1.316086496030909395e-02
-3.504141656448023917e-02
-1.470079750398461255e-02
6.412113487783795878e-04
-5.847161881059278511e-03
3.377471901654470650e-03
7.056927878785081328e-03
-7.927937594634519494e-04
3.594087820352841797e-03
6.151301233270470292e-03
4.188017432127216430e-03
4.488297083915137459e-03
5.869289199208576040e-04
2.004842701066012704e-03
3.374728096129406101e-03
-2.853237782023178206e-03
1.204465659112835107e-03
7.645929888266786607e-03
5.818586092919520759e-03
5.577925270984131038e-03
2.236517408986419750e-03
-7.077016075552404711e-05
1.475452736452710373e-03
-2.693782082990015501e-03
-2.475423494395982520e-03
2.152513220813406618e-03
-7.387597902707907210e-04
-3.502381046468253881e-03
7.741329926546406358e-04
3.430851103222300018e-03
-1.848330163028716853e-03
-3.971191297778628795e-03
1.541300052484530290e-04
-4.967429818785378893e-04
-3.613417795773818213e-03
-5.172464915123397081e-03
-4.705091102236924443e-03
-1.253807475146490958e-03
2.235130476848806638e-03
4.357483403296914630e-03
1.354337574000558835e-03
-1.153091942997670370e-03
1.398215279201168223e-03
-1.024523420046794930e-03
-3.066794528774981123e-03
6.401284413655284293e-06
4.999744189516079238e-04
-2.198323323256712054e-04
7.404454852844653931e-05
3.968267122715349315e-03
4.291861722628719997e-03
-4.225491658811833702e-03
-5.023811931966863480e-03
-1.522699715231151402e-03
-2.773138016446645340e-03
1.616593026151631361e-03
2.001738702355385525e-03
-3.517039277861695908e-03
1.608271012282498245e-03
6.229929944031179119e-03
2.447956869122810877e-03
6.620467246775370643e-04
-3.335076119706481242e-04
-4.124571646155710371e-04
-2.821896147504189913e-04
-1.757884240321251753e-03
1.825270420796773659e-03
7.730770386672699591e-04
-5.941976272313326257e-03
-3.045676431004259825e-03
-6.633732323579707340e-04
-5.882774372374312711e-04
4.998812987339331000e-03
3.758062373081118464e-03
1.215645185566019588e-04
5.843668432291268316e-04
-8.131364765805881465e-04
7.232391827081183612e-04
1.643161424132871806e-03
1.782055127330672102e-03
4.948521794808681540e-03
1.659093749682665278e-03
-1.240091277023439801e-03
2.503361615906863442e-05
-3.583770653894108142e-03
-3.410788343263752593e-03
-5.033350553685456228e-04
-1.522920188533497497e-03
-8.929457882486013971e-04
-1.616275044705890165e-03
-1.019206562765287861e-03
2.457832326541698267e-03
2.056178072455612342e-03
6.611113315632918298e-04
-2.510422421360801286e-03
-1.868245277714918268e-03
2.744203559397942645e-03
-2.371945323822342074e-03
-3.643159682251291467e-03
2.631594014446349619e-03
2.871766339639737547e-04
-1.283350712322848218e-03
1.147878504435812744e-03
8.769496081931964573e-04
7.981033907005538174e-04
2.802255750445420673e-03
3.992018132401260050e-03
-3.442172043558786206e-03
-6.693637754862607862e-03
1.956061024425564693e-03
2.383582670445374540e-03
-5.413142557289630044e-05
2.864681299159435937e-03
1.983672602585753719e-04
-3.128405417195101283e-03
-3.747081850421925785e-03
-2.618845122609830128e-03
1.287115875771982628e-03
1.688086477479987507e-03
-8.119472393441813120e-05
1.081945228692697547e-03
2.345196914346401023e-03
5.258279790896462505e-04
-1.798927118106033441e-05
4.910723191975394433e-04
-2.838382874075974331e-03
-2.367163328934372615e-03
7.901182334476050239e-04
1.287432658162487647e-03
4.932461575267014543e-03
4.397491290891976205e-03
-2.385904110748093148e-04
-1.585837949730172750e-04
-1.924724864130217413e-04
1.435298460405985688e-04
-9.709367118985760478e-04
-2.996280786557829322e-03
4.342362444826706070e-04
8.378698959636023385e-04
-1.557138388609943065e-03
-2.593170336387219731e-04
-3.933938509502058270e-04
-9.852940242447948138e-04
1.250395550743725647e-03
2.385651616571164702e-03
-2.891248761081015718e-04
-2.101278027042104059e-03
-1.505688728754604874e-03
-1.611871920592433411e-03
1.324974930351443972e-04
3.590619123088847030e-03
5.821973886633298283e-03
1.609477841644333870e-03
-5.798106687003021231e-03
-3.456683754165981292e-03
2.282997622515402930e-04
-2.599682493090433796e-03
-2.789924474295201687e-03
1.904867575977683926e-04
2.369860535256397907e-03
1.476777877560278866e-03
5.757841054738307074e-04
-9.713363423389164905e-04
-3.908962669449991302e-03
-4.064509500914202916e-04
1.019763772867924743e-03
-3.648254253073235842e-04
2.446509313174234732e-03
8.130621055249945880e-04
9.621717844894258406e-04
2.663758905794148465e-03
-1.914093392701222193e-04
-4.683741260746368670e-04
-2.883182317526948504e-03
-4.896961456971443347e-03
-2.915163892875665026e-03
-1.054391292146518140e-03
2.956956849704073329e-03
4.361530263521686858e-03
3.858142944195864024e-03
1.980826965534334978e-03
-1.892287281313430542e-03
-1.008368056167262836e-03
-2.700739846448197952e-04
-9.154162794850817303e-04
8.442631847727904287e-04
4.172303545191636230e-03
5.325069278043684413e-03
2.264911508920745484e-03
2.022089992830199915e-03
4.903259443045616614e-05
-1.175327659498682543e-03
2.197431169965699191e-03
-5.330798258873028789e-04
-5.355774824051735047e-04
-1.741805335579640597e-03
-5.443186391620769699e-03
-7.197554315761963122e-04
-2.103711507613376108e-03
5.711741273007351965e-04
8.311565783740187258e-03
6.193910104013377292e-03
6.056744030767499849e-03
1.561700373005823778e-03
-4.782300189662849407e-03
-1.911436056024398353e-02
-3.742227617301170650e-02
-1.397441875010245818e-02
1.215179505429941041e-02
6.539382666419803723e-03
8.445117345635693926e-03
7.103057980438542279e-03
2.010919745046036485e-03
6.961884509819060880e-03
6.443898138212685207e-03
4.689389896124212566e-03
1.584812963166643560e-03
-1.494512665169466089e-03
-1.605191094018722665e-03
-2.796380318091746305e-03
1.421282423405707688e-03
2.668490560049885732e-03
6.362421876281982138e-04
2.112222394296532895e-03
-2.648777096918158991e-04
-2.326962063946340972e-03
-1.631744278044375794e-03
-4.852026767299934479e-04
2.535634105323779472e-04
1.829308919866173876e-03
4.358219007446488720e-03
-1.908516955861645770e-03
-6.101246944510715572e-03
-6.152551868434942258e-04
-7.045411458195456091e-05
-1.593789242427495366e-03
-1.617222347896432773e-03
-1.691723625401751448e-03
8.903660362895930952e-05
2.192080775586956968e-03
5.619825333829071325e-03
2.863650253297986021e-03
-2.371837625789443172e-03
2.530913579524930301e-03
4.793829552979429059e-03
-1.782238346380250011e-03
-4.393422787746376068e-03
-1.039997084588309797e-04
2.639979822513089519e-03
-1.709205092254206977e-04
-2.096073015055516676e-03
-3.608277494747316478e-03
-3.976330325763105002e-03
1.845315706205006515e-03
3.528690258403664043e-03
1.026397242375549608e-03
1.082399248227241878e-03
-2.694671730273276791e-03
-3.968958588071888789e-03
-1.309657879660198294e-04
-1.531450308450673162e-03
-4.483613470643623040e-03
-3.749074971798568075e-03
-9.459751190105502162e-05
1.837463685508515087e-03
-1.451369729395116451e-04
1.713472614883005795e-03
3.040449587669898611e-03
-1.769970716658914825e-04
-7.631670932352972833e-05
4.633084965058321654e-04
4.930759788187997128e-04
8.738823888341705698e-04
1.519324185264161065e-03
4.212800291873331979e-03
6.286990541873278349e-04
-4.109047741420927477e-03
-1.578355994045653769e-03
5.791311002899436492e-04
3.453245524915845351e-03
5.143732766482291517e-03
2.706552465054243902e-03
1.669997545425489817e-03
-7.181227564963219316e-04
-2.348307516900090871e-03
-2.082046573555399079e-03
-2.656954660497752845e-03
4.340144434753870372e-04
-2.127136164694503652e-04
-3.973651363329098497e-03
2.193825957944448533e-03
6.596798806036418238e-03
1.409744329646308181e-03
4.688014401551760598e-04
1.821851146302483999e-03
-2.301209142065311145e-03
-4.427612078633899780e-03
-2.519629678239950540e-03
-1.669019717450381324e-03
-1.164496719667396530e-03
6.774852367330314214e-04
2.315019091218496056e-03
-6.913158215437010872e-04
-4.526179659587156560e-03
-1.220375528992836186e-03
1.630786126278466804e-03
-4.796263898289328384e-04
-1.488415649417494917e-03
-2.226628824575314740e-03
-2.260916914317170120e-03
5.693588914894746411e-04
4.408013956954333172e-03
3.459362692653608629e-03
-3.722808881317069430e-03
-4.431399784290730379e-03
1.229969168523801495e-03
2.727285449240528323e-03
3.869593108557702922e-03
3.627470607925071654e-03
1.772705072033010270e-03
2.469399077415294387e-03
-5.807704136691965377e-04
-3.438044600705971853e-03
-2.107282252780598789e-03
-1.025616036150859027e-03
2.041237463925693867e-03
9.296969682279513031e-04
-2.009923379334655098e-03
1.715404848442878905e-03
2.459856587973735086e-03
2.024637841167924949e-03
1.543478077557551347e-03
-4.191150141985404594e-03
-4.494126630479228050e-03
-1.806234042920185513e-03
3.119213729997499535e-04
2.509068989145247196e-03
-3.235534851663735174e-03
-3.439903632005274301e-03
2.991566138526807837e-03
7.444673230752825227e-04
-2.026409469627701187e-05
1.414518131772754626e-03
-1.843384846079203980e-04
2.094122841540639168e-03
3.775159298251068961e-03
4.772622531421656482e-04
-2.505304514872790968e-03
1.190950314109580441e-03
4.234085601290444797e-03
-3.966478030993107664e-04
9.019944207008124409e-04
4.443512776324322691e-03
-3.580455132771379468e-04
-2.816453627059415255e-03
-2.299641118667161439e-03
-1.055896269500566573e-03
1.381947536340866157e-03
-4.782976450524242270e-05
-8.382896743759763770e-04
-9.127537923629693798e-04
-3.953017454967439233e-03
-4.931621110995718441e-03
-2.614195912811777267e-03
1.781039730074075408e-04
4.946888781055284665e-04
-2.099707225486677643e-03
-3.714483106816471661e-03
-9.858391824671727376e-04
2.340629154987554361e-03
7.093135403205902889e-04
5.720969633673525989e-04
4.355562146489501407e-03
4.141991774997088455e-03
1.203078140499060089e-03
-3.322272263111030930e-04
-1.076322704282919093e-03
-2.467444358883754806e-03
-3.581926714949785172e-03
-1.824776618035196763e-03
2.165725938913603838e-03
4.896923186183206080e-03
1.051427831196036602e-05
-5.448030470139537951e-03
-1.758253348734016910e-03
-6.067278060917029835e-04
-5.328508859804626831e-04
3.837508379628654792e-03
2.651172698029878941e-03
3.141528281792883067e-03
5.576407477606042627e-03
3.316413982165189282e-03
2.547537627570993328e-03
1.238429359966359763e-03
2.124551949659329170e-03
3.922573733253074089e-03
-2.300013067695648244e-04
-3.432435559955801952e-03
-4.946295747546530612e-03
-3.305323146158537732e-03
7.454140151014424648e-04
2.067580844719325156e-03
5.179853117987255270e-03
3.414982846820071530e-03
-3.253067986906319365e-03
-3.687799924254142690e-03
1.132837253231086310e-03
6.422812086649548613e-03
4.764630479716694053e-03
6.549574883893425964e-04
-1.131132987496157732e-02
-3.639865287785808146e-02
-3.202767960543746739e-02
3.624372178199905732e-04
1.080516743594333966e-02
6.563804019505973565e-03
4.972307657532870628e-03
3.275626878514941148e-03
5.088891830582037076e-03
4.504857355239190626e-03
2.940666105283243261e-03
6.431902682228197304e-03
7.073673014741614987e-03
4.521117877172266090e-03
6.532595607778204048e-03
7.825741529292860182e-03
3.871433699909979011e-03
2.389604387787935477e-03
1.626231879565070418e-03
7.458449077247001572e-04
3.620042550767624615e-03
2.442040958072604680e-03
-1.136109007850056923e-03
-3.203263179094764223e-03
-5.010273217255803609e-03
-4.807223053047316765e-03
-9.601379384403552555e-03
-1.194460250365615706e-02
-6.859967080268433194e-03
-8.303742842921450762e-03
-6.429796133072712347e-03
1.691153621174899422e-03
2.335509706387495308e-03
2.547294992112980605e-03
4.111389177313347180e-03
3.328836456819825838e-03
3.710141957266972854e-03
3.087780350568140528e-03
1.235175001163034544e-03
-1.524971848516976157e-04
-6.651875055677797244e-05
