8.050134703811060669e-04
5.240405499446393160e-03
1.048380581549938559e-02
1.286315117042166264e-02
1.167781800457408196e-02
1.366240345767715317e-02
1.242620022872757343e-02
7.373990897892910602e-03
4.620583051433186858e-03
-2.032944035064241945e-03
-7.063782001265483598e-03
-5.746591358400911058e-03
-7.672226597307244336e-03
-9.869508791925999530e-03
-1.104190646459669509e-02
-1.627882981280994595e-02
-2.001628412357071840e-02
-1.618045287110673330e-02
-6.620658886204458526e-03
-6.927077453849272634e-04
3.910122970990776749e-03
9.965184496500906555e-03
4.799588707120614264e-03
2.447065309118093973e-03
7.571366085115184379e-03
-5.633184640702892064e-03
-1.482801799646898261e-02
4.277800371574226471e-04
1.025171115973759310e-02
6.646016140069816239e-03
1.133023746407620970e-03
-2.506789702322157181e-03
-3.978138216742730521e-03
-3.634640897734239557e-03
1.119143174741378663e-03
-9.033421364933790572e-05
-6.501178725793234359e-03
-4.565968113595910566e-03
-2.188546429647449110e-03
1.021086769542340917e-03
7.723511748335105433e-03
7.583124845294061424e-03
6.755596024007876413e-03
7.473360865573614592e-03
5.839590586052158597e-03
6.023119450843515688e-03
5.269458447454078431e-03
4.501464016218431272e-03
2.820537843029387315e-03
-3.141675838961268535e-03
-4.868109692643786748e-03
-4.447353932849195703e-03
-6.317420183333572088e-03
-2.993599372379713436e-03
1.745140562624924356e-03
1.654950187196345098e-03
-2.026600995486499640e-04
-2.111976228641659209e-03
-1.958016499351930388e-03
-9.040499430316397333e-04
-2.210510034636456629e-03
-2.176403734070302305e-03
2.149588837608697536e-04
2.714134880486229707e-04
-2.408268718939456880e-03
-1.735743855208603248e-03
4.294454683702962801e-03
5.439475540770751134e-03
1.729771781605776205e-04
-9.342763775880249177e-04
-5.755804168663060296e-04
-1.993927643352726067e-03
-7.612845022203653224e-06
1.786409258916579236e-03
4.909769798869696982e-04
-4.214416274867722242e-04
-3.294360365727207716e-04
-1.252350524722589545e-03
-3.582126656287349699e-03
-2.626499244114634344e-03
6.232685116619636218e-05
-2.124814237856756036e-03
-3.398839937644741217e-03
-3.607366810211765822e-04
2.256683102948742084e-04
-7.462204080800081745e-04
1.909860490345995185e-04
1.565109830893611368e-03
1.039956549256918893e-03
-1.682421825809586862e-03
-1.386464012439851895e-03
9.040006343169024617e-04
3.247365593917158396e-04
1.612320912497901661e-03
3.609564187535312801e-03
2.270153650490907681e-03
8.565273127181163154e-04
-1.264207503336498830e-03
-2.019593571039830521e-03
2.777710016377803052e-04
1.687896675693824171e-03
2.160616325433955143e-03
3.653262621505722106e-05
-1.429560050280660353e-03
1.359322113256514241e-03
7.082233732816369497e-04
-1.601101582667627862e-03
-7.541149524663289623e-04
-3.991733526771024825e-04
1.910057401392816281e-06
-6.289179227945250342e-04
-2.597406950100790163e-03
-1.342959821140292821e-03
3.389654395300108376e-03
6.780838962927622157e-03
3.185896053049108636e-03
-2.551999285804328662e-03
-2.987194370739379174e-03
-1.905497397546347541e-03
-3.045591291788262551e-04
3.368792393511459322e-03
4.843448371034294632e-03
2.044957177559198706e-03
-2.441975202918852169e-03
-4.494249387862887281e-03
-3.233644570235462510e-03
-1.500517353866384152e-03
-8.633987314588845944e-04
-8.947108721597730628e-04
-2.113195734862544084e-03
-3.974177102226405904e-03
-2.319218956737917250e-03
1.275867046528432447e-04
-9.631972675144917875e-05
2.054968828708970702e-03
2.245284692411779991e-03
-1.865914251966058462e-03
-2.354716288305380625e-03
-2.816319796778680214e-03
-3.250319954229877184e-03
1.255868252892290270e-03
2.469129667965635089e-03
6.252182007369946567e-05
6.401328269878844932e-06
-1.691647802528140196e-03
-2.214513169463119303e-03
3.951260594868589993e-03
7.551029053444479645e-03
3.446285044812247549e-03
-4.521246953153969846e-04
-2.208450910985588871e-03
-1.996334779357234347e-03
1.533300152533884639e-03
2.231599503137696779e-03
7.816205932292624942e-04
2.248485209065126042e-03
1.516435699017432267e-03
-7.512811227236037594e-04
2.638066089654444242e-04
9.325008906663982255e-04
1.013378527396556874e-03
1.128256899859169174e-03
-2.036643322251850945e-03
-4.884697943372357139e-03
-4.451105743998057945e-03
-3.897743303534249339e-03
-3.001133224597227981e-03
-6.290836945387630981e-04
2.374024925091935967e-03
2.923623480569751288e-03
-6.038387127374483668e-04
-1.937996956165075925e-03
3.144595913034433894e-04
1.581732240931173856e-03
2.793259654225694645e-03
3.189240174063172600e-03
2.389815220238241701e-03
9.408046281948013534e-04
-2.822234177679225353e-03
-3.005257395310681218e-03
-3.907556627835074474e-04
-1.556951833109627504e-03
-7.350742316073284252e-04
8.316175805785514788e-04
-1.312702518628439683e-03
-8.789349505820102937e-04
5.643918911354277356e-04
7.944199749952884828e-04
2.102667206172843025e-03
1.495522747308688670e-03
6.231930011250618167e-04
-1.670514446919374181e-04
-3.045089662316510185e-03
-2.280621208082054662e-03
1.123712845545466344e-03
1.919380918754920494e-03
2.137483775090972225e-03
-1.404785301237997412e-03
-7.442688408955133034e-03
-4.357566503661572735e-03
2.401933141639230052e-03
1.367155032390633034e-03
-7.565103945116221067e-04
4.653063986117405865e-04
-1.630690824990550390e-04
-2.253458918498955563e-03
-2.872028866446945869e-04
4.538872898069533889e-03
3.313061499083936896e-03
-8.910405150551815086e-04
9.836725308815820728e-05
1.549836389034125626e-03
2.100113113225871193e-03
2.964338930532084502e-03
3.189725482247435153e-03
5.241171714870667200e-03
4.613607465547083994e-03
2.399823153189877651e-04
-2.764561787550974536e-03
-2.801466023066946209e-03
6.969917272103885817e-04
9.300793166265367267e-04
-1.001852342414444362e-03
7.256855175465077136e-04
7.442697540938115770e-04
2.743177233139099027e-03
4.249432614896703035e-03
-1.207032404889292043e-03
-6.361207842138295529e-03
-1.589003447448004286e-02
-2.163728534773085715e-02
-1.042008370599820100e-02
-9.708843000229122047e-04
2.887633718898335519e-03
8.260201149985619412e-03
7.847837107320598457e-03
4.483433716736831554e-03
1.501462963361894880e-03
7.069278129248621808e-04
2.879966368147900482e-03
2.612044050341880402e-03
2.656526996342203385e-03
1.739645307955640105e-03
-3.047706792795797613e-03
-4.334448702188567135e-03
-2.513416565544494569e-04
3.282553388574911517e-03
1.645948764931487018e-03
1.475366555564076388e-03
4.962751874386137768e-03
1.818059543620240311e-03
-1.412615708314244375e-03
1.275781022394192107e-03
1.896116577097032262e-03
1.651318848104838888e-03
4.514671836758716509e-04
-7.683055221833383960e-04
4.195507792788923714e-04
-2.264181633356481069e-03
-3.779717462782155191e-03
6.198986946807648096e-05
1.624311562535567851e-03
9.596167167913625343e-04
-2.436411754440769278e-03
-5.799900923850857121e-03
-1.868986645337141362e-03
1.804278626812884671e-03
1.377523669086865412e-03
1.715459457571395828e-03
-7.045892538939287075e-04
-2.985212087820101126e-03
-4.432081115980223297e-04
-9.534833327823795390e-04
-3.822799262441294380e-03
-3.002429514014946853e-04
4.308771797568197552e-03
2.840808541533366982e-03
8.181428399829038722e-04
6.131016313746021334e-05
-1.914762236450221573e-03
4.096075296496426497e-04
2.892335604475518469e-03
-2.714438326699483445e-03
-6.025512536909086864e-03
-3.407282507714492602e-03
-1.523016233210708207e-03
1.513199563923498404e-03
2.187809226570005140e-03
1.610421819232102196e-03
3.436547190263632406e-03
-1.155073529979210858e-03
-4.758735458855352200e-03
2.541492481102065968e-04
2.861652528758147629e-03
4.841456964084105141e-03
5.863189761841016909e-03
9.299098458854479802e-04
-9.917408853166748573e-04
-2.181765700600313881e-03
-4.939023341853841960e-03
-1.310984320217507089e-03
1.780044385354834788e-03
-1.561526606948576614e-04
-1.436546534303066985e-03
-2.522879177872078618e-03
-1.392032453648129556e-03
2.279465549019749418e-03
1.022526382165791798e-03
-2.389695030561128555e-03
-1.661187729053438230e-03
-2.521196321111961961e-03
-3.849089254380952917e-03
5.995011116174815387e-04
4.291248096350234326e-03
4.492286299097411617e-03
3.714742423308597854e-03
8.495709439956645277e-04
3.589497536020238916e-04
2.484095996251140578e-03
1.793820554095435123e-03
1.202808335291703128e-03
3.230877239940936098e-03
2.783560573248499044e-03
-2.244473688648675712e-03
-5.187368705109916128e-03
-2.745885914205228439e-03
-9.173629977660622799e-04
-8.035904414643400958e-04
-1.925287867506071847e-06
-1.178280918406509128e-03
-3.551657326760777889e-03
-3.621120122843774023e-03
-2.246412921834450068e-03
-8.795604064885127055e-04
1.265914250351850073e-03
3.603476711380366928e-03
1.497061323421238193e-03
-3.054071011791978200e-03
-2.034945774765302938e-03
3.722353633630978600e-04
1.515735963612850688e-04
2.018247977519930375e-03
3.084755725306547250e-03
1.366669387822896020e-03
-5.187876798402528238e-04
-1.147173973445217475e-03
1.900193737791579674e-03
3.436705260334015598e-03
9.689432635388969730e-04
-8.061108232370069572e-04
-2.856838028877439501e-03
-3.955400741493882329e-03
-2.341123177743154472e-03
3.776789847186212039e-04
2.604513538073780551e-03
1.884903658467217439e-03
8.084758699951042921e-04
5.390681091203752481e-04
-2.521752480241511206e-04
-1.432938233994524198e-03
-2.637003971443952800e-03
7.675767371405122158e-04
2.872990109360879906e-03
-1.956646536495821546e-03
-3.395990584544855868e-03
-1.202699647641477772e-03
2.727927093695991937e-04
1.184803949902503342e-03
8.195274184798771776e-04
2.656670763928561333e-03
2.262525948540791091e-03
-1.767493170007437570e-03
-1.347083079129255453e-03
2.679644192038087812e-03
5.820680945258675971e-03
5.095163569779541900e-03
2.318343396477999356e-03
-2.226875351447797039e-04
-2.923299345076569179e-03
-1.811952486366839952e-03
-1.523676311786416738e-04
-2.329789972349705172e-03
-4.213354126814587361e-03
-3.418896349686108456e-03
-2.206806482790380549e-03
-4.058006102219164843e-03
-2.982451554456814775e-03
1.498139116798016465e-03
2.143129075567083534e-03
3.669451642706271239e-03
1.827907379866707677e-03
-4.312166770901002845e-03
-3.361036997451814692e-03
-1.581436618355390195e-03
-1.016746879157631256e-03
2.954241748664091904e-03
4.742724834660637726e-03
3.172379261072133007e-03
-2.618555153237238169e-04
-8.878290588752984352e-04
1.640760660842666401e-03
9.539483353360925883e-04
3.891774992066612425e-04
4.801251637460132509e-04
-2.437700370320039066e-03
-4.622970609689812209e-03
-3.652436614901655859e-03
-1.453240084994034120e-03
1.131990568162824645e-05
7.742254509816025613e-04
7.530929118953876705e-04
6.313925998654745016e-04
8.905691769485345102e-04
1.553511407928846342e-03
5.301356188568573206e-03
6.317110679371206773e-03
9.323011102060983334e-04
7.728443203788935151e-05
3.517476793068237233e-03
1.589975674900418736e-03
-2.420036792342483700e-03
-5.054241426687470194e-04
3.209703383128699721e-03
7.162836354586323961e-05
-3.052779154619713123e-03
-1.994661259106427723e-03
-4.231847785677978792e-03
-2.198385106347744596e-03
4.665011459137414877e-03
3.120791112687140365e-03
8.435185107110716556e-04
1.158076930947775319e-03
-1.512047812097935644e-03
-9.578024051171010007e-04
-8.054797300955391509e-03
-2.093037754073369394e-02
-1.415287030385660276e-02
-9.299643381669036885e-04
1.888878557206086261e-03
3.196976775026045322e-03
2.746795331278993179e-03
3.874276157641240621e-03
6.478355295367018915e-03
5.240247892755942050e-03
6.121873442234147637e-03
3.866529650467511511e-03
-2.058853476547954989e-03
-1.316069704310597480e-03
7.051667059215102834e-04
1.173962266580914860e-03
8.441004766543691584e-04
-1.207582562020975345e-03
1.815156901880084347e-03
4.761383115904909043e-03
2.728253108882491493e-03
3.612763236853018707e-03
3.371608171255884804e-03
2.503048922245262268e-03
5.115257598991246150e-03
-1.180576366527020317e-04
-6.465132012832041156e-03
-3.393948928808199986e-03
-4.566322389578177272e-04
2.341549745928146894e-04
-4.436733903946558227e-03
-1.118925319052249505e-02
-7.679313941066383785e-03
-1.989124920013590151e-03
8.531567455078968316e-04
1.118225357224601930e-03
-1.576673937064104703e-03
1.559341772603482334e-04
-1.006827904600905103e-03
-2.492718232533705936e-03
4.297256399479086261e-03
5.650404222467444136e-03
2.097000508308729215e-03
3.533255223902774479e-04
-1.692612334447472344e-03
-1.580802004312315771e-03
6.163069863736128379e-04
4.362275289339999536e-03
4.064081982530858526e-03
1.787147212040349252e-03
2.472066437963505500e-03
-1.671412502563869367e-03
-4.189262284839042130e-03
-3.962815861271570296e-03
-4.593862938669080603e-03
2.014308112941073838e-03
3.216149062049057476e-03
-7.369857771137685231e-04
1.044257247157211188e-03
-1.733402631783020854e-03
-1.748486932884855570e-03
3.320313683855607208e-03
2.611955705748700372e-03
1.759226846770982127e-03
-8.656440029831814591e-04
-4.585865022021386184e-03
-2.270924405452746150e-03
1.350185600891839598e-03
2.554714852080245367e-03
-3.047018303075770831e-04
-3.287884096042205471e-03
-1.460092453961417359e-03
-6.540526198403979943e-04
-1.865794197944946938e-03
-1.196113430711359107e-03
1.461663605779746442e-03
3.008910816533851874e-03
5.782401969093487913e-04
1.814201023929049809e-05
1.606199933366641349e-03
-8.056573646457611650e-04
-5.522893066022998339e-04
2.699205342548499208e-03
1.123061808108298011e-03
7.381112823027934002e-04
2.441647941982401718e-03
1.913354665202509535e-03
2.969434750925364387e-03
1.852109227740985145e-03
-4.761729567375094958e-04
1.877802867643981377e-04
-3.627316468096497982e-03
-4.642988651320468715e-03
2.189874993639164078e-03
1.340825806914269693e-03
-4.798692675273687029e-03
-3.739972905807908542e-03
1.229857510068892504e-03
8.233117005168799282e-04
-5.559866185679925542e-03
-5.489490691716270715e-03
1.074064778390470360e-03
1.112309894909755802e-03
-9.393762703275497462e-04
2.091742245515932404e-03
3.321067310945423953e-03
1.130729149705581287e-03
1.213545207655384976e-03
1.624090593235787659e-03
-2.932419451780826853e-04
-1.723234235518783432e-03
-3.594541666558405835e-03
-2.996309516670049578e-03
1.267349316180194085e-03
7.596494824059118111e-04
1.067652064073919445e-03
4.902037294807400428e-03
1.157221204833397583e-03
-2.066675608212810433e-03
1.303652330942052170e-03
2.315291211174724112e-03
2.516900424892166890e-03
3.182525937366351490e-03
1.945230113136576112e-03
-4.456244189258688629e-04
-3.244260620888281873e-03
-3.353164341812122501e-03
-1.436086910583809139e-03
2.806529570970214783e-04
5.757919005981156991e-05
-1.977177288549908027e-03
-6.288995806525502765e-04
2.888598555733941213e-04
-1.725807131019466102e-03
-1.439558333428833604e-04
1.934808595607057698e-03
6.718800512462607321e-04
-1.744694550345737491e-03
-2.954621720035296301e-03
-6.119643042746599360e-04
1.592719299281335861e-03
2.306043786287754332e-03
3.368554904583762662e-03
1.956556148357527138e-03
-3.954548141453648928e-04
-1.555527168607618877e-03
-2.294020613435730944e-03
-1.117664584354074227e-03
4.293642371769860631e-04
1.558858907174007343e-03
2.185749507461939942e-03
-8.337841161065669181e-04
-3.217220780349933345e-03
-9.377662776696117294e-04
4.824932685106748118e-04
-2.985456782860638667e-04
-7.827324642003624612e-04
-1.607249205297813085e-03
-2.296547362236273874e-03
-2.836170711635892412e-03
-1.433924116848859847e-03
3.992334087669211461e-03
5.889453850232953709e-03
9.885041485626878347e-04
-7.990430865228592304e-04
1.426399717709747172e-03
4.649703207852805970e-04
3.932077268262749656e-04
3.333950061829487731e-03
1.257208334571069527e-03
-3.094902921397785830e-03
-2.364092560890733961e-03
-5.273831950044609047e-04
-3.983914486996547439e-04
-1.379613078471707884e-03
-2.126078585393828893e-03
-8.497635029746639958e-04
-1.961977988566966733e-03
-3.901103990571540975e-03
-2.882972460583955662e-03
-1.820497739591558266e-03
2.967870068905481638e-03
7.275819469610907662e-03
3.131503922032534415e-03
2.086837802720030633e-05
3.331090467347416718e-04
5.505500150092689123e-04
3.718719044519710505e-03
3.832801850029288540e-03
-6.472476410241376253e-04
-2.435617986806597971e-03
-1.900045058459245420e-03
-5.899205328707606086e-04
8.241570963883799745e-04
2.318554744662655067e-04
1.150607612732128379e-03
3.403272494685383089e-03
-1.868170484886314854e-03
-6.397336695583950676e-03
1.514659511274540514e-03
5.522526093380108157e-03
3.315508715278412451e-03
7.453802087273292583e-03
5.562187430872996691e-03
-3.460719962796873599e-03
-1.316391428751815043e-02
-2.344516168754053748e-02
-1.448649838391913650e-02
5.392954235344545218e-03
7.550365372114795429e-03
3.093536688221997216e-03
2.375255449720542218e-03
1.361493826019939918e-04
1.420700074421952543e-03
4.530094198160351977e-03
3.445912851568857290e-03
1.963595253118244951e-03
1.728028441009964600e-03
-1.265578490710114528e-03
-3.332197460061393779e-03
-8.758642792150295306e-04
2.056656434162529735e-03
4.230316302521791930e-03
8.356196326513968837e-04
-5.431652940448058325e-03
-3.341927228170919403e-03
4.378663770830140906e-04
2.212822049211079795e-03
5.256464652368475834e-03
4.436902498302114362e-03
2.663998363786792244e-03
-8.159975095186482478e-04
-6.128720986194417623e-03
-3.889679794343440904e-03
-4.837030497515873309e-04
-8.886136756843087542e-04
4.103227776587707316e-04
5.833681909543377529e-04
-1.340584298247965737e-03
-1.958847576781005875e-03
8.577190507253393530e-04
4.276241802416913367e-03
3.489512945053060717e-03
3.198866470177937245e-03
4.349047746350240273e-03
1.444634755003351917e-03
-1.092685363830687506e-03
5.555591512580427237e-04
7.431172006971127446e-04
-2.345381248949435400e-03
-3.708934689984213530e-03
-3.732060268781633820e-03
-7.011260242654420924e-03
-1.044930510491766211e-02
-9.627715196314083276e-03
-8.124643836319191820e-03
-8.466142534332364231e-03
-9.687402312994086717e-03
-1.033791783756259942e-02
-1.301384324514768837e-03
1.440042960816774638e-02
1.627863560373699753e-02
1.037403724343083714e-02
1.049730126925397036e-02
7.940827678680730667e-03
5.841249160313123634e-03
7.035724619781587308e-03
6.555726260511381999e-03
1.038145096727469303e-02
1.046861666778612678e-02
2.934800744608376689e-03
1.282771858567824082e-03
3.959358718045745754e-03
5.483949091945369836e-03
4.677978849552141480e-03
2.072209151146451461e-03
-4.356476045494672342e-04
-8.098369462724278392e-03
-1.554082814266425326e-02
-1.643918101163680326e-02
-1.676060322990388651e-02
-1.421732452222832822e-02
-9.294410304897632660e-03
-3.785118345388867322e-03
5.895175237114820728e-03
7.771390813441772689e-03
-4.953259587226827715e-03
-1.881338520497071592e-02
-2.624722442487497157e-02
-2.744398064658666245e-02
-1.903397099812666193e-02
-1.602900181039241525e-03
1.818391234700711054e-02
3.220699758714755390e-02
2.942244113746927958e-02
1.804525902054315151e-02
1.907929514723800263e-02
1.954791072698453328e-02
7.991614818251318447e-03
1.954662977704128834e-03
1.518494938633707008e-03
7.418527435246398448e-04
1.104286418594303647e-03
-1.450253474046291242e-03
-3.977350667426991435e-03
-5.403791595246793499e-03
-5.101143830123896529e-03
-1.197950669103939499e-03
-1.012317637716330689e-03
-1.270401903085638384e-03
1.257609431089793664e-03
-1.382257977495278314e-03
-4.806760410374493267e-03
-3.715745616065730013e-03
-1.682445977318090032e-03
-3.431543585520735310e-04
-1.880327372577618927e-03
-5.806702633009292944e-03
-9.555854142204169357e-03
-1.226570821718589444e-02
-1.010263693602670917e-02
-5.264983178086473509e-03
-4.805795987384196832e-03
-4.033549724911446831e-03
6.063420669105477705e-05
2.402926354771108160e-04
-1.286338644872080366e-03
1.264198018307294497e-03
5.352906887203989252e-03
9.782803823897474188e-03
1.445043950256578655e-02
1.437938575773434896e-02
5.764296231184722757e-03
-2.714146981213206786e-03
-1.182007623835435893e-03
4.200650721612724653e-03
8.410013261271961568e-03
9.982980921328167209e-03
4.078622102995284673e-03
-9.167630087816323404e-04
6.641877674890904037e-04
1.542389548138720741e-03
1.224237365465418326e-03
2.265883661096271587e-04
-1.819493211474035050e-03
-3.212157105934719970e-03
-3.223730521729434133e-03
-1.087785231152107188e-03
2.426183428083875527e-04
1.888545109541877242e-03
-3.631651475584987687e-03
-2.441496965925357698e-02
-3.650126373611251029e-02
-3.569707706227464444e-02
-3.589843426597170289e-02
-2.087780567126381465e-02
2.835101101157688156e-03
2.493052682543380610e-02
5.190124875722496728e-02
5.490260457374745995e-02
3.124614788054815018e-02
1.279408276301706449e-02
4.399808001521758258e-03
3.452673107242423996e-03
-9.894614662253782555e-05
-8.220947314677222797e-03
-8.993061667155520175e-03
-4.409574130716743291e-03
5.764797272675246421e-03
1.297718646779042612e-02
1.184488127992002447e-02
1.169313126275885011e-02
3.328857903289845870e-03
-1.226081331400539175e-02
-2.263815377351962796e-02
-2.453731372940550978e-02
-2.049809324389403192e-02
-2.973666833146861033e-02
-4.211130726353010112e-02
-3.035588016916465626e-02
-1.124761943353989532e-02
-3.224333034406259759e-03
-2.287681464411701058e-04
6.515252413630219508e-03
1.774830940051120784e-02
2.561829148758632338e-02
2.650691969041863924e-02
1.969464313483056117e-02
1.184803068246761439e-02
9.609211519340143254e-03
8.331672935835338079e-03
8.627132106402321879e-03
9.956073065960453425e-03
8.900266713395662416e-03
8.617720685672904460e-03
9.948383456432421251e-03
9.439543265846400341e-03
4.459741862061314399e-03
1.737384724342791117e-04
-2.489231347207739291e-03
-8.766045010592797559e-03
-1.085037510742693084e-02
-6.000311948258267407e-03
-3.654365569761296867e-03
-2.043475777676601393e-03
2.293449659635520173e-03
-2.591107405255335411e-03
-1.139604336222339691e-02
-3.981124508521408957e-03
-1.433456505235680602e-03
-1.001126209085102803e-02
-4.653622682126858957e-03
-1.164860973628540665e-02
-2.990359598330303084e-02
-2.339041275703328954e-02
-1.231951025779787039e-02
-1.533276513753155986e-03
1.156159219313343360e-02
7.804899162128388530e-03
8.093730684741580429e-04
-3.672438133560918059e-03
-3.812699077540243880e-03
5.125367359907206932e-03
4.528253047618683615e-03
-5.238387149559262709e-04
-1.044148553989989034e-03
-7.346065552365437607e-04
6.366818652353872961e-03
1.250924622779867219e-02
1.204786222136967379e-02
6.438963207745004164e-03
-6.745128222059048641e-04
4.363324347721895570e-03
1.602261360970221038e-02
2.082039830545674014e-02
2.021335234078082757e-02
1.865495859576298335e-02
1.557672175316557849e-02
1.041451058224661559e-02
9.484439447707463874e-03
7.240207290737720597e-03
-1.804893499876272876e-03
-7.466027952204004094e-03
-8.351372738638880230e-03
-5.568099988982291859e-03
-5.295345004970231605e-03
-1.130253877373185549e-02
-8.931819248375641798e-03
-4.650531199771913704e-03
-1.475169365056659514e-02
-2.966356642277315561e-02
-3.589896343621554881e-02
-3.473834620833660125e-02
-2.666894144831025160e-02
-5.374329612735580762e-03
1.226995901691893716e-02
1.819261106798706132e-02
2.385109193714706616e-02
1.589683352733749569e-02
4.834582238917266642e-03
3.385799520631714056e-03
-9.590077320902111544e-05
4.758336656706299746e-03
-3.072204839253077878e-03
-1.940684878464760468e-02
-2.146225969679794229e-03
8.445928703870592136e-03
-3.055991435020371377e-03
-3.675539726188591268e-03
-4.411603383599466480e-03
1.061304872443635241e-03
1.008214824720447995e-02
5.025370420947409232e-03
1.590471121223896141e-03
-3.831911723260121951e-04
-1.766792474332003898e-03
3.878160400049813009e-03
4.610650156012062635e-03
-3.064471709944286554e-03
-9.464113121906456844e-03
6.334987709727205214e-03
3.911862885007109936e-02
4.793426267140185604e-02
3.475004913107326149e-02
2.714398678560991929e-02
2.040440168973137527e-02
1.166823397419887269e-02
5.951131130526269609e-03
-1.862811283244982614e-03
-1.195291755935707148e-02
-2.339717751423579101e-02
-3.250351235386338827e-02
-3.451380932903472254e-02
-3.680678300365666095e-02
-3.887498319465835378e-02
-4.240634215718418892e-02
-5.279897878524791172e-02
-5.333871780844933602e-02
-4.239552496536947573e-02
-2.334557431174149114e-02
9.346543933719022798e-03
2.699738456097696901e-02
2.573326830406821170e-02
3.003309920182568177e-02
2.521659732742601717e-02
1.515647487516199633e-02
2.341117700849166400e-02
4.742001219941499590e-02
7.746071563497877732e-02
8.405651032712416204e-02
5.667730486096122372e-02
2.675703560270157461e-02
5.215286769711573525e-03
-6.103751616557856995e-03
-6.142254606535408473e-03
-6.733824159168109481e-03
-3.322994442277652123e-03
3.195889283422877550e-03
2.989154856585081888e-03
-1.112292919905697591e-04
-5.256523463593397970e-04
1.473214844038104416e-03
-2.375519510070283474e-02
-8.933402553577723948e-02
-1.474271814402598191e-01
-1.685206647685250081e-01
-1.588644491936672121e-01
-1.309813911242861673e-01
-8.131431017962799379e-02
1.774394786033803989e-02
1.346023069534366956e-01
1.955183013095431188e-01
1.761212526541450218e-01
1.091740735333858736e-01
5.675293612822447653e-02
4.341396349283439121e-02
5.435906532744259195e-02
5.724838271445666094e-02
1.704627061710396393e-02
-3.157932826286319328e-02
-5.400983541988697151e-02
-7.122520468767669366e-02
-8.551730871088483732e-02
-8.226461443788350703e-02
-4.733380305572616048e-02
-1.923943532285763910e-02
-3.124925563151992672e-02
-7.328277814560810524e-03
5.312923765730231257e-02
7.931345352118927827e-02
8.687736183549210622e-02
4.516742064881966445e-02
-6.238805391779945336e-02
-1.234351785926435935e-01
-9.693588858056034763e-02
-4.105676371598546148e-02
2.532552920985168057e-02
1.048416552966055237e-01
1.730166667874945274e-01
1.976069116272249626e-01
1.537619182027185338e-01
4.916836353471074061e-02
-3.274107433326376576e-02
-3.933711948382966062e-02
-2.647044755524455978e-02
-3.818017273270316037e-02
-7.749835742593175203e-02
-1.154092648287776690e-01
-1.122627207338648681e-01
-8.664844008024195909e-02
-2.079796633317744503e-02
8.836330618437779338e-02
1.371273656490833437e-01
8.197768603746449778e-02
-7.036306539426279150e-02
-2.661260463931784392e-01
-3.943958025574459958e-01
-4.506200286209302019e-01
-4.055043658171197385e-01
-2.259431367293735227e-01
3.636801209298691495e-03
2.791699717034297201e-01
4.952586108177479685e-01
4.738624373834049441e-01
3.432118678100172238e-01
2.580737063170289725e-01
2.087727633353040346e-01
1.781259810454574599e-01
1.381006630032164395e-01
8.579435107313991560e-02
3.210451719485207540e-03
-1.001084460611197935e-01
-1.551172383330912397e-01
-1.689089355486673161e-01
-1.400128586032317601e-01
-5.679067643166403612e-02
2.500724591270692479e-02
6.976532740045277015e-02
8.768545967820802478e-02
1.041948022748046959e-01
5.744278710319726533e-02
-7.258847340482860178e-02
-1.432006473256566270e-01
-1.258973585260224071e-01
-1.179227638928356525e-01
-2.181232125713423453e-01
-4.015315955249744162e-01
-4.606326600391512649e-01
-3.930480460783975505e-01
-2.524133620926330424e-01
4.973048798504931672e-02
3.222828846597151076e-01
3.886480321910815161e-01
3.633536894578216492e-01
3.146849984619835561e-01
2.255015823484342319e-01
4.563927074368918230e-02
-1.414930960554836581e-01
-1.831908094721957925e-01
-1.268826898733719233e-01
-5.009944279639712110e-03
1.657287726898223346e-01
3.041582922595975069e-01
3.732812169921600476e-01
2.841598937884262654e-01
9.598998392764053478e-02
-7.376508609120406394e-03
-6.641857296867831328e-02
-1.664794137197553592e-01
-2.771370028469370417e-01
-3.023198566864223058e-01
-1.804151371099032564e-01
-3.778172446434373971e-02
5.700267502254296320e-02
1.725494236351651223e-01
2.176018146678051490e-01
1.332474897742526865e-01
3.827694761140822133e-02
-8.396179577502942137e-02
-2.404693308436507970e-01
-3.020964804994588082e-01
-2.878130813169598734e-01
-1.634534141708174626e-01
8.941856465937492171e-02
1.413256724476067150e-01
-6.443721843914977654e-02
-1.645617236970635944e-01
-1.012852290779121950e-01
-3.472812250547341328e-02
8.543362756219984033e-02
2.897451905036185216e-01
3.278533429465353977e-01
1.158626582867049587e-01
-3.032413974955868938e-02
-6.167025303306684914e-04
2.903932307971169788e-02
-1.509395608526227159e-02
-8.183424015283934094e-02
-4.783500556994270403e-02
4.329662922322376206e-02
3.969311874325226475e-02
8.721487211206555706e-03
1.392040739399672683e-02
2.006357139252100755e-02
4.380857685128494022e-02
7.034999400346395038e-02
6.442024763764878093e-02
2.994513368684584287e-02
5.322878467154869980e-03
-1.807420100732923208e-03
-2.863032196794715323e-02
-5.089915637885782801e-02
-5.635727274963705374e-02
-6.775621476036816637e-02
-5.745380831831514018e-02
-3.130725136619295912e-02
-1.877364805964198621e-02
-1.393795583222549005e-02
-1.201257340200527837e-02
-9.161883476724280717e-03
-9.265496426871492816e-03
-1.193440609986897230e-02
-7.569677039168090996e-03
-4.467425399444610763e-05
9.903773066636249733e-03
1.348371262130729567e-02
5.437137695160169752e-03
-2.842655535608760282e-04
-4.355180876458331421e-03
-8.632555268141590618e-03
-1.147187648660541112e-02
-1.193597761242242740e-02
-6.124839870623411883e-03
-9.006581216562501921e-03
-1.598879407127239832e-02
-6.686339363717827902e-03
4.537867278381547097e-03
1.422879059497077735e-02
2.466495482992461102e-02
2.343706649979060766e-02
2.311671446586475651e-02
2.577355541443777237e-02
2.163274503217409508e-02
2.018339602321331597e-02
1.789235523486030002e-02
1.018539080838156904e-02
4.836930972030186945e-03
4.102096934073355509e-03
6.916403568256891850e-03
1.207207406446657479e-02
1.594958620270616606e-02
5.833732635159451403e-03
-1.713880471811570980e-02
-3.699000733045110234e-02
-4.260508141613238847e-02
-1.626865741653986397e-02
1.510188998807196134e-02
1.000509094428300716e-02
-8.964598051208434249e-04
-1.146485364688700501e-03
-7.547949044289779287e-03
-7.536799649045522465e-03
-3.988811872134147112e-03
-5.570957368594911183e-03
-3.989401659140434132e-03
-2.356365990383781518e-03
-2.187831257799251455e-03
-2.503485409653908624e-03
-3.338406305327509295e-03
-2.769512507445250332e-03
-4.165223470739031972e-03
-1.339983510541411984e-03
7.352301560216207080e-03
4.237857176503209873e-03
-9.611995855381973500e-03
-1.360158122688293753e-02
-4.038227073808340652e-03
6.480951783069374521e-03
7.742323413674647228e-03
1.865140856853421923e-03
-1.552439640882724353e-03
5.013054439443060794e-04
3.310683789778939325e-03
4.145692305993607489e-03
3.507030758284851966e-03
1.756151094650070400e-03
1.415611503868494667e-03
6.060281334438808289e-04
-2.700726043046449299e-03
2.568544253303930752e-04
6.327494324929906246e-03
4.788413214984425272e-03
1.712311971958758701e-03
3.127834668154445526e-04
-9.866845239441461406e-04
-1.028201932136677378e-03
-1.322898250713635268e-03
3.248351583532884789e-03
8.265881793729430368e-03
3.345320794119005948e-03
-2.596734546944769271e-03
-3.978961172187550285e-03
-4.542829097174069103e-03
-2.222346970817004955e-03
1.060263789258384434e-03
1.812295106451079513e-03
2.923865478203488411e-03
2.764000426638796738e-03
-2.069757473735901396e-03
-3.061711250484897093e-03
7.528110101668172979e-04
-2.844011403593011030e-04
-1.083438902189383900e-03
-1.457872822167559541e-03
-6.000586800783950896e-03
-4.104417123519847957e-03
4.393593934174796979e-04
-2.760950571407116147e-04
5.887929482384861952e-04
-5.771743797454780781e-04
-3.699021482635861217e-03
-1.113910388012234179e-03
1.872106314444074195e-03
2.280017896213770798e-03
2.212042286263137762e-03
1.052163145957079379e-03
-4.526055828221091717e-04
-3.859450155795534840e-03
-5.878423236326148563e-03
-1.024229847712227219e-03
2.902626093165507591e-03
4.087061589703848159e-04
-2.002998324034337314e-03
-2.962418624992336179e-03
-4.445239364678037035e-03
-2.929304814849904761e-03
5.356536632144460108e-04
2.922793368416957559e-04
-9.390601312316131663e-04
-6.287016978733516467e-05
6.801316310291066780e-05
1.660241607296299420e-03
4.092891484735356432e-03
2.984039791855821761e-03
2.117439528849378392e-03
3.166037018523779317e-03
4.334121269747827181e-03
3.860979862277301704e-03
6.476366184545087872e-04
5.633788598349542256e-04
1.366784854475384774e-03
-1.372449882084812072e-04
2.043158805484396410e-03
4.867626369605521867e-04
-4.173554310397582096e-03
-5.592983592008789586e-04
1.860929804211430404e-03
2.049133557885804251e-03
4.619535175428948412e-03
1.419073816037450366e-03
-1.523301632328277321e-03
-6.632208691691445987e-03
-1.827477189642853078e-02
-1.226375554145177349e-02
4.435858585423223775e-03
5.335024913752102471e-03
3.824122531065616507e-03
4.269854245429032143e-03
-9.616295216713278580e-04
8.004122577948208838e-04
4.846868432289134013e-03
2.162747197029060188e-03
7.790057099550651547e-04
-7.710447888585895884e-04
-3.434068280616002413e-03
-2.725627770541313478e-03
-1.739644952931694317e-03
-9.105417565790032862e-04
2.628230497016079397e-03
2.891035436195164322e-03
-3.370929568605513307e-03
-3.428247452980391196e-03
2.426919212906792061e-03
2.985870554952824857e-03
4.558861510902382889e-03
4.877054591667640687e-03
2.184640873797508967e-04
-5.761492015890812323e-04
-1.851075222840815665e-03
-1.080026280728762274e-03
3.750446599310020609e-03
7.201253444176633966e-04
-2.851427041021361783e-03
-9.775448253608468377e-04
-3.783211438275001877e-04
1.272544800285922728e-04
9.638185964744987741e-04
2.601038564446213255e-03
3.925460488348061182e-03
7.123141975249454262e-04
-2.681365930997033596e-03
-3.196372781903724335e-04
2.363060785896789213e-03
1.368495242672995802e-03
3.445647465058664788e-03
4.035368452783103660e-03
1.016866777268085782e-03
1.800682585910814721e-03
-1.051572611476343485e-03
-1.571861251255470557e-03
3.546578895101194871e-03
2.052110698983972050e-03
3.245480533712697974e-03
-4.889236041630299831e-03
-2.360519286347835186e-02
-1.371966236294621354e-02
4.405792404455714101e-03
1.177779740114445100e-03
-2.625061107741293682e-04
1.160757997577270897e-03
-2.276567957610342759e-03
-1.184922765952291755e-03
2.776868415765504534e-03
4.136217662056167893e-03
3.473087247778284137e-03
2.841429361075873978e-03
3.164492577670260671e-03
3.106930551161469697e-03
-1.035056783011509274e-03
-2.493459543288431557e-03
4.043520845457489708e-03
4.208415516118718148e-03
1.223301121335105418e-04
1.095192185803614071e-03
1.041307083639633193e-03
3.402014950991531263e-03
3.544773470579077636e-03
-1.731889692691324784e-03
-1.655075676196658772e-03
-1.262996286553928760e-03
-2.017962738500364041e-03
-2.228651156593863640e-03
-3.971521650906440284e-03
-5.142371596411413059e-04
2.369970222299541077e-03
7.631547622084268456e-04
-1.772763310658809557e-04
-2.189823324492410402e-03
-1.832422989119859152e-03
1.009035422795104839e-03
3.003322914970713454e-03
3.815490057735301723e-03
1.874952588326550930e-03
-4.294089245531061043e-04
-2.050041150696330691e-03
1.369496741640325753e-04
3.056875103715468202e-03
2.081981971004300675e-04
1.824436444944810460e-04
3.249793016745765209e-04
-2.883544993359032221e-03
-6.462742835102346702e-04
-6.699683950867776992e-04
-1.990524946393428495e-03
4.020232473030966279e-03
6.475019178406602252e-03
1.770882594065955381e-03
-5.448965922540293348e-03
-1.216552590812161085e-02
-1.012521863379498704e-02
-1.948719924746308840e-03
1.293717599879839163e-03
1.392702510801058571e-03
1.835968063513730621e-03
3.047601602089733690e-04
1.892033408272944745e-03
4.729536626500619942e-03
3.160775229436450524e-03
4.092238006273602076e-03
3.602955211508721695e-03
-9.986164644032566491e-04
6.511785875932663394e-04
3.306199573814811755e-03
2.476070245192692025e-03
2.566226025566974763e-03
1.656024891072146923e-03
1.403722102174277111e-04
-1.349446576138193382e-03
-2.469704559793488123e-03
-2.569431193665889374e-03
-1.361120236190713206e-03
2.640173101688709102e-03
3.145794617536328865e-03
-1.741498768439988252e-03
-5.752010162237999186e-03
-6.708727034375932922e-03
-3.229522166752919927e-03
1.045312866832870873e-04
-1.774232528151969577e-04
5.763593247812893484e-04
1.773610487201730682e-03
5.779880496146538394e-04
-1.653496498642503549e-03
-9.237989283898922870e-04
2.307580035930483463e-03
2.433980402859358804e-03
3.411043292465504393e-04
-8.924724709203495391e-04
-6.344206682886101203e-04
1.204912317264163766e-03
3.364857204232362536e-03
4.246460474336382317e-03
1.518419884131207934e-03
-9.329950774261785811e-04
-1.698563193994637676e-04
-2.529716252759828471e-04
-1.022383391312846682e-03
-1.533673920426898698e-03
-5.321592148698166399e-04
4.197274291354567179e-04
-1.511235226753250387e-03
-1.343381445807553896e-03
-7.302756361988214451e-04
-8.247421143058293949e-04
1.168721679045308000e-03
1.134033061846931659e-03
1.467288642487751772e-03
4.036681272524684214e-04
-1.968309466319398144e-03
2.125074815112158125e-03
2.682188732547709838e-03
-1.877290811158535948e-04
2.453159589524760067e-03
6.127089355996739092e-04
-4.686062195701836200e-03
-3.911146973679519717e-03
6.654962767593064574e-04
1.174793710493018300e-03
-2.876106266835708712e-03
-2.232127229405018402e-03
-9.481891758770715850e-04
-2.426250824400074703e-03
-2.954083525775545423e-04
8.489276730885241245e-04
2.645798274433690169e-03
5.936889098556188266e-03
3.342448582933964588e-03
2.119725436030512678e-04
-1.270461455041567433e-03
-1.502129578745792443e-03
2.172150441636818991e-03
3.589801900668263598e-03
1.678672100945914365e-03
-1.257677985162544655e-04
-5.832830482399164887e-04
8.813281941192764417e-04
2.420715808722147776e-03
5.324618462716306823e-03
3.825157438593386906e-03
-4.174034004567464540e-03
-4.471961525086474293e-03
8.529220228916689107e-04
2.426197388302383899e-03
5.170738919936359972e-03
7.229489954835664929e-03
4.977590174629529206e-03
-3.075658572736920601e-03
-1.828349981640772434e-02
-2.253411130965046402e-02
-7.415749031860197765e-03
4.300210034042760421e-03
4.267070567958661416e-03
3.128798088925442873e-03
9.075912600778462134e-04
-2.018819794636786315e-03
-4.930227649907111551e-04
1.616984944719178450e-03
8.718356090701328198e-04
1.885857927775663485e-03
3.019554195199032100e-03
-1.010111981645576518e-04
-1.046846211264135023e-03
1.055778618424945857e-03
1.014919198235660774e-04
1.108957239794685235e-03
4.569124636104902187e-03
3.854681011959457722e-03
2.843250901154625605e-03
3.338444800214864297e-03
2.440837396312078595e-03
2.126419554523076381e-03
3.992453888881776318e-04
-2.047977314129111482e-03
-4.976132580212530663e-04
-3.546455752869693678e-03
-1.095546307009646024e-02
-6.375624683534073835e-03
1.506488327765609847e-03
8.036541326893564645e-04
2.261633798689062242e-03
2.919338218462379751e-03
-1.297431820425813209e-04
8.738745924235430179e-04
1.971551197367010962e-03
3.725378738377449570e-03
5.338405825273000171e-03
3.045021651752184959e-03
1.920973346146365125e-03
6.323355106999064461e-04
9.639464097229624023e-04
2.916871204599581335e-03
1.402369918440582366e-03
1.230896152810525505e-03
7.911149417589773223e-04
-1.081002197106943792e-03
-2.355954712527541257e-03
-9.866964013460631684e-04
3.375376120605300297e-03
-7.577850896354796500e-03
-2.059969635901636245e-02
-1.049754921244992235e-02
-3.259316356053152189e-03
-4.014562508839726596e-03
2.654217856243068149e-03
6.722700701313089056e-03
6.734839527839839822e-03
1.810871673392987127e-03
-3.412718672686451162e-03
-9.716794990283276990e-04
3.063848362199077572e-05
1.717804742774872934e-03
3.908989601146786730e-03
1.582641135544102066e-04
-1.048491310530634112e-03
3.646152974538897982e-04
5.033725536967596434e-04
2.969360129036601164e-03
4.532498305963132690e-03
9.680571393657082420e-04
-9.636861773999528570e-04
7.772084992371183776e-04
-6.326219061177634903e-04
1.090918684133982070e-03
4.236641487144188895e-03
1.272623129354617799e-03
4.139623365593197470e-03
7.398310393607730566e-03
1.391755309272725647e-03
-3.671283823744162303e-03
-5.263879635510871312e-03
-1.085090290473060028e-03
4.407202356981535299e-03
2.290805383679892469e-03
-1.384843367414498750e-03
-3.288713916463864833e-03
-2.011244048638667452e-03
3.389336289825819223e-04
-1.010665385602955871e-04
-1.418567390324904152e-04
-2.772812419792952503e-03
-3.844646636678719469e-03
2.996262754093019119e-04
4.412426517741107582e-04
-2.844040414739738148e-04
2.033188223327703128e-03
3.036954880679978725e-03
1.978585457628106135e-03
-1.699742467929097559e-03
-5.424943736124069465e-03
-6.047976280146093002e-03
-3.641621411362771371e-03
3.560325471754619995e-04
2.729087083427725931e-03
1.939975291860392224e-03
1.074719891388303036e-03
7.736313718628262236e-04
-3.500791371294213316e-03
-4.158759241905833626e-03
2.001580233091960863e-03
7.211720799107100609e-04
-2.480256182352659142e-03
-7.112038329831689735e-04
-2.543519501106585642e-03
-7.243510474941542571e-04
5.864910036515745377e-03
7.033210677970800837e-03
5.557832843466173171e-03
4.063819391805023953e-03
1.552474569440794516e-03
-4.153900046521814371e-04
1.694526211991036072e-03
5.355554920087799570e-03
2.179472048455255873e-03
-2.498290256995898753e-03
-1.564006593835745281e-03
-1.033358705127943511e-03
-3.644288808912300292e-03
-4.336318862308972955e-03
-2.005002933936006688e-04
2.950651255672991774e-03
2.163373413698792356e-04
-3.125077213557135494e-03
-2.063545487496130232e-03
1.535942916793759825e-03
3.068861741430942668e-03
2.533555030121682327e-03
2.172835345710182834e-03
7.567352532928143735e-04
-2.211971218362315285e-03
-5.136608857546177270e-03
-3.570417807142056525e-03
1.075777807833025283e-03
2.313664644435173192e-03
2.058247874620033977e-03
-1.586307034527284856e-04
-2.804637810297224299e-03
1.893405619662361051e-04
2.824414699562400113e-03
2.607800535709034820e-03
-6.734939378299443428e-05
-4.359001014390364269e-03
-2.638767980409485129e-03
-2.595491529843174661e-03
-6.480486935746341236e-03
-1.404004863339007418e-03
5.718933715873701293e-03
4.286399191009836185e-03
1.589956163175824911e-05
-6.319014435399197241e-05
1.113805360816827418e-03
4.042955459146683334e-04
1.884674960254884967e-03
2.251236623364839991e-03
1.036538965344129546e-03
6.205285457381406241e-04
-4.318386873361307332e-03
-4.899383609354704058e-03
1.421082505191699616e-03
3.197825311039304182e-03
4.210537873880720698e-03
2.489094681542045745e-03
-3.345240444748079269e-03
-2.005917994073618850e-03
5.453261270666875243e-04
2.808689741736056429e-04
2.692261834945942293e-03
6.064421809548242639e-04
-3.455115338187292329e-03
-2.300244642466812723e-03
-2.238045566292870808e-03
-2.252710764853865246e-04
5.787687927598901896e-03
6.492572855657390701e-03
3.330340657189489670e-03
3.496662696936774341e-04
-2.466729250041105846e-03
-4.095953127223361454e-03
-3.899140851349889615e-03
4.834868229997360545e-04
3.608663319131245537e-03
1.378503622172862816e-03
-5.906104502679931229e-04
-1.162305348940263815e-03
-9.619256406318843228e-04
-1.787157024231719651e-03
3.577349152063875231e-04
7.796529135800884386e-03
7.963412035430564306e-03
3.277023336856963766e-03
6.619718331952531565e-04
-8.746601224874564614e-04
-1.178564007259721579e-05
-1.060230329693611501e-02
-2.330390117961281954e-02
-1.312182751429179749e-02
9.238400557225548166e-04
4.544683568348637133e-03
6.431170803829668568e-03
5.205852273302708118e-03
4.701419522071263041e-03
4.634914226078928542e-03
6.068150807118178952e-05
-1.229639104481957410e-03
2.106080441037190033e-03
4.425650514395697635e-03
5.476816979845269828e-03
1.090692412216881600e-03
-6.781085166349972056e-03
-5.149549812219158043e-03
6.724541495158286013e-04
-5.272684001148677862e-04
-3.566829878899722842e-04
2.721381557492874494e-03
1.599217493608413258e-03
-6.633193109605993888e-04
-9.061371531922677918e-05
1.521413307754580606e-03
5.598138631672777135e-04
4.428430327762961105e-04
2.361372999780412575e-03
1.246246965550548377e-04
-2.924197659780730391e-03
-3.202771203053153808e-03
-1.057668456688927233e-03
2.779993107037814076e-03
2.191213983226486788e-03
2.029531215902792823e-03
4.620416603306095639e-03
6.131320598506272319e-04
-2.999158565254440509e-03
-1.787328823899611433e-04
2.437812431696760075e-03
3.190462969836251918e-03
1.154553758731154947e-03
-2.255522265317869656e-04
-8.577495754992985966e-05
-2.182250680495081887e-03
1.615379880529612614e-04
2.513273272862065737e-03
-7.613169044376193618e-04
-5.021252966659315881e-04
-3.117847075848563954e-03
-4.544568424799473941e-03
2.185416479584379075e-03
-9.075608543351862401e-03
-2.238043106562677409e-02
-4.608760074984254856e-03
9.195675887058205045e-03
3.155429138090644781e-03
2.615632152991503694e-03
3.149258469053053174e-03
2.875760903452467994e-03
6.637719721502581896e-03
4.012357130452123312e-03
-6.511264888112659049e-04
-1.154191926474967865e-03
-2.066768131794058383e-03
-1.630851604819956707e-03
-2.768414867396595379e-04
3.530046135590642563e-04
1.659681794091569934e-03
1.941538882206348803e-03
2.089201219438483609e-03
2.695090420724007094e-03
2.437184460027505464e-03
2.494495411755194830e-03
2.448346947778549335e-03
2.175019503386496807e-03
1.865483311997409707e-03
-5.936723058765201342e-04
-3.842106068731705737e-03
-2.692124931381661198e-03
3.987453743906179998e-04
-1.317560318728038492e-03
-3.154113263103957947e-03
-2.928942149749055087e-03
-2.441558520159873430e-03
1.779773208620144933e-03
1.793779452068104859e-03
5.854127996615614808e-05
3.323675932821865218e-03
-1.192403592810378343e-03
-3.736000452697246180e-03
2.723145674230438140e-03
3.181883284632462932e-03
3.580088057394025663e-03
2.745053847135305817e-03
-2.872486396024491462e-03
-2.591191392975926606e-03
-1.645209978653902616e-03
-1.179325343295401386e-03
2.386384208822083398e-03
2.243201081630694180e-03
-3.626649198338422961e-03
-6.026172418104326113e-03
3.282345592115552650e-04
9.462888375563142246e-04
-1.282423187102016589e-03
2.108352572511359904e-03
-3.930573553424402365e-03
-7.160887377541968503e-03
-6.561101413974950629e-04
-9.271926156023008745e-04
6.014449255134363126e-04
2.257414721961624286e-03
4.034748045318715904e-04
3.493102891980062394e-03
4.047129382146962516e-03
3.304919862513523623e-03
2.094201770809297862e-03
1.355679695145256395e-04
3.683370394691737239e-03
2.777006354272265002e-03
-7.683567379818907533e-04
9.528752705119794076e-04
3.556080808045490203e-04
-2.152347016532406721e-03
-2.489408905870469594e-03
-6.367499856650755854e-05
6.703112678067402576e-04
-1.999117511699810470e-03
-7.191827603037618567e-04
4.705133020031295756e-04
-9.606624813441071902e-04
7.870097312901786673e-04
2.493979728900648073e-03
1.704368753081874147e-03
4.731278357869497927e-04
5.843602117500662886e-04
-1.000921100866173697e-04
-2.233332709408680436e-03
-1.680570750640686265e-03
-8.756500076713433309e-04
4.856873509034064841e-05
-7.999466154924746424e-04
-5.103873540241063780e-03
-2.061861477237057500e-03
2.440153297675309342e-03
-3.111525087528695089e-04
-3.793283599701453368e-04
1.332105805773244230e-03
7.447902185171635138e-04
2.967171347627905521e-05
-7.237775102042756301e-04
-2.659846652823057329e-04
1.906882620661867755e-03
6.591642950227528594e-03
8.403038920369799297e-03
4.974199387196087153e-03
1.206403372665295097e-03
-4.327735443844269586e-03
-5.611495323405368656e-03
-1.124080672778222413e-03
-2.813647058110079857e-04
-6.556157957446057507e-04
-2.417302319434423870e-03
-4.205680077372136311e-03
-3.827246997066452482e-04
6.988624117347838182e-04
1.118871881169147429e-03
5.727023500266607142e-03
1.348671985271673130e-03
-7.257674757148183976e-03
-5.141931797341081807e-03
-1.444291318665440280e-03
-1.482302736646983008e-03
1.123274985255930721e-03
5.307930940573391725e-04
-3.859392559918795040e-03
-4.657178428089482798e-03
-3.176718026060358115e-03
2.242048209568261845e-04
4.880392585066391925e-03
6.520693959772255743e-03
3.552447706376169606e-03
-5.595338118029197791e-04
-3.046393698216521922e-04
1.838824117404638065e-03
3.708338871661347527e-03
4.632171405291064629e-03
6.447695318380550471e-04
-2.316706864943748976e-03
-2.651159784942458192e-04
2.077671238913745243e-03
2.389585678786267271e-03
1.812310128730200897e-03
4.332247971920279508e-03
5.952543061878219806e-03
2.512244625186514820e-03
-2.265386954984797280e-03
-3.141815821505092310e-03
3.213052946449559012e-03
4.954023364488617347e-03
1.566302988916128775e-03
2.633623396819332902e-03
-1.586215974245411102e-03
-5.080448295999526534e-03
-7.658290194335443460e-03
-1.980421662894790713e-02
-1.770619361487757101e-02
-3.277598753687341760e-03
3.422327534327987203e-04
1.788078710536933347e-03
2.177659102386464950e-03
1.288582222753362552e-03
4.791830387912586128e-03
4.536601703560494067e-03
2.329367574384163218e-03
2.251079074993798078e-03
1.820737288509101978e-04
-1.545599677045118251e-03
-7.749188520184539276e-04
9.528117818611017090e-04
2.372534692121403086e-03
2.553931270557824144e-03
7.274477315382522728e-04
-1.317764046699109121e-03
7.879544281712783788e-04
4.572556844604381415e-03
5.070922757541018906e-03
4.127802663351993855e-03
1.856201707106537634e-03
-1.915528004688589903e-03
-2.311705885897609013e-03
-2.829419994091363815e-04
9.100364229548344851e-04
2.644774966591066645e-03
2.428549403678118175e-03
-7.105161493018903075e-04
-2.781968009947601451e-03
-2.724535728209929140e-03
-6.791596755206344730e-04
1.290251521516857115e-03
1.046612337906437790e-03
-1.136987442720102442e-03
-4.105696627998710151e-03
-4.260287439737516987e-03
-2.016313086009587953e-03
-5.956205826294796481e-04
4.693965990904783604e-04
1.548963195726985823e-03
1.385302844962339828e-03
-1.042306106498667312e-03
-2.601812867071943980e-03
-1.599614375212583513e-03
-1.433805741401999545e-04
9.576857586404508103e-04
-1.172081586943480962e-03
-7.429072451297933158e-04
3.641579678134645483e-03
-1.301609538544823115e-03
-4.500123991008019540e-03
3.865010171926375800e-03
5.168387896841738875e-03
1.520652477229187099e-03
2.474489040419912064e-03
2.525781089390654981e-04
-1.773696832220280272e-03
1.038370912776712552e-03
1.996945911326734532e-03
2.090566295638839609e-04
-2.589574297311918009e-04
-1.513182231281656222e-03
-4.900372004639919586e-03
-3.486990626568053225e-03
2.413426965248538850e-03
3.954417381347749387e-03
4.881913741553909843e-04
-2.760886487967060578e-03
-3.351913087216036244e-03
-3.519646216624258001e-03
-3.091734183593392721e-03
2.061021579558445301e-04
1.651639792595423423e-04
-2.448945896630052004e-03
-5.017256252036197354e-04
1.419578839801094233e-03
2.760613125638257045e-03
4.886681313247431824e-03
4.599805905211330585e-03
5.358516685478017898e-03
4.766801937192003021e-03
4.101791900015781686e-05
-3.099062305430460955e-03
-3.288605366383792229e-03
-8.068008802840215526e-04
9.102767363340044139e-04
-9.297250485155455916e-04
-2.275184879869511425e-03
-3.896414863321093387e-03
-6.689595950079727134e-03
-5.554697649447371682e-03
4.028312759520979568e-04
4.520338467155413792e-03
5.215315730737596182e-03
7.875218666454490354e-03
9.249997759236822104e-03
7.647499043723422762e-03
8.474420950354352375e-03
1.052766820509112508e-02
9.677901736633255300e-03
2.897716853087040946e-03
-4.094049117981887059e-03
-5.762894498267636528e-03
-8.515246821485118398e-03
-1.111308977740644091e-02
-1.184466127189311851e-02
-1.440769248390682232e-02
-1.560006834476449118e-02
-1.594891725951814304e-02
-1.614793855640504761e-02
-1.207307804399181464e-02
-4.458819085617944308e-03
5.333326033586978246e-04
2.960351405469996942e-03
8.157587756871509041e-03
1.123633470492587348e-02
1.360506041200834799e-02
1.728002332561242443e-02
1.539622076157380962e-02
1.442661999296671396e-02
8.963154505060405910e-03
-4.831812601375708345e-04
-3.042740626529867425e-03
-1.458028612064815772e-02
-1.377721675733313382e-02
