8.867243401042654294e-03
-3.286924796703722187e-03
-1.191187457228648321e-02
-1.891727764339607917e-02
-3.039674163634471793e-02
-3.356069582239906701e-02
-3.307765813327393639e-02
-2.509339377167365756e-02
-1.047535830653245799e-02
2.233587659146631793e-03
1.394792844924079046e-02
1.998512881236997815e-02
3.093228266069552798e-02
4.354868697733258603e-02
4.090467754079542273e-02
4.001815386167094368e-02
3.997252088751147153e-02
2.721497390076191986e-02
1.856853903569348138e-02
1.364845246794608134e-02
5.118680394939241485e-04
-8.500425349400347885e-03
-9.451602985305534999e-03
-1.508991790737459864e-02
-2.149442862873784943e-02
-2.287347307890059619e-02
-2.503246520654425419e-02
-2.170481961729528453e-02
-1.125341173141821034e-02
-3.293514838162949192e-03
6.223509158076664938e-04
-2.151573947069361894e-04
4.422044564724404367e-04
6.976339680345805538e-03
8.277149313167350697e-03
6.631445695841497838e-03
9.943189666394952955e-03
7.139012402977105813e-03
-1.312931954191633079e-03
-2.605626520433561473e-03
-3.423535857921775408e-03
-6.570203613286878033e-03
-7.229453268376112400e-03
-1.041827598117358276e-02
-8.560753467666271099e-03
-5.901473353240181859e-03
-1.350236244122611333e-02
-1.147583977020437060e-02
-2.904846471352380728e-03
-1.637548803382513898e-03
5.206073237636190537e-03
1.084286819228997244e-02
1.043827544730667120e-02
1.348947464013703669e-02
1.240135998671959387e-02
6.995878228943488812e-03
6.582026682396768802e-03
6.977764082929525241e-03
6.751594287197012784e-04
-2.870252354234676968e-03
2.251246148019218560e-03
3.186708540006273540e-03
1.881892334532227033e-03
1.954522311086935062e-03
-5.037762329336082159e-04
1.071303412434327154e-03
7.422554141813469215e-04
-2.636347514687112630e-03
-7.056860640775034681e-04
-3.290391666431640490e-03
-1.072529669020544363e-02
-1.249226583828637500e-02
-8.075012872590107277e-03
-2.106285975641946848e-03
5.951700558676388661e-05
3.916264722349373055e-04
1.084784348202327527e-03
1.295864603299337224e-03
1.285352812313415340e-03
-1.540333444127558148e-03
-4.056649397675532107e-03
-2.359701286113227367e-03
8.765264553252808191e-04
4.479525388872180811e-03
6.329649560891038168e-03
2.195104941448257265e-03
-3.732412321317945831e-03
6.956697417883196764e-05
7.442304783995407069e-03
5.191166441032424653e-03
2.178338188713672876e-03
2.604729989473458969e-03
2.178346924651778380e-04
-4.216884729192088175e-04
-9.399045484368812823e-04
-5.167836397592525180e-03
-4.432282843178998906e-03
5.499945633449687026e-04
-2.665435398099243527e-03
-8.233658443094087065e-03
-2.721827262142633569e-03
3.501323728874437564e-03
2.491901170753327201e-03
4.318989804611602680e-03
8.530033005628819692e-03
6.736270948594172761e-03
-5.200784519787085732e-04
-2.968582223639505344e-03
1.817761600406830793e-03
2.051231247436087392e-03
3.163052252235548276e-04
3.806636496861698013e-03
3.367495147710410173e-03
-3.574543832154617688e-03
-7.816457474211575135e-03
-2.698469473743408432e-03
2.598576419048091810e-03
-2.344882301617810545e-03
-5.167159967165521443e-03
-3.617518333420731251e-03
-3.884594186270014064e-03
2.250847491703433876e-03
6.080073487465636507e-03
1.511158098577937339e-03
6.714730051983472999e-04
8.657396193395979715e-04
8.941546812151152188e-04
4.122732456996623315e-03
3.412531779170432499e-03
-7.349587909554910646e-04
-2.309512500140070094e-03
-3.264855750135895775e-03
-6.214056566785808311e-03
-6.091138135995261341e-03
-1.739350553593264946e-03
-6.622905477528153850e-04
-1.357962110548466966e-03
-1.172700861407896013e-03
-3.988281793770750289e-03
-4.086678212347776354e-03
2.121305230924660883e-03
6.475531269127313833e-03
6.590076628853588393e-03
5.904197033203393945e-03
3.113372136204283630e-03
-1.704152423340818791e-03
-2.219602449904147564e-03
1.038056813806518142e-03
-3.144716709969874974e-04
-2.071737102739309392e-03
3.072174403780924493e-03
3.676147430885315110e-03
-3.047639980706452669e-03
-2.050036476757523089e-03
2.663255296929744904e-03
1.078718226561590013e-03
-2.702203684038512600e-05
-1.585241230964205914e-05
-2.377799355277575907e-03
-3.081283212688194079e-03
-2.707977489531100419e-03
-2.021686576536195924e-03
2.519481111913917000e-03
3.787354382465784458e-03
-1.882180777093768031e-03
-1.479843970769060624e-03
3.340823183602577729e-03
4.339273912204644548e-03
6.764463539721194893e-03
5.893868199256721389e-03
-1.214439395111785187e-03
-5.340858720084416117e-03
-2.838731128061306938e-03
9.176191929465874701e-04
-2.181065498590778300e-03
-3.147957496231067361e-03
1.342012405522526215e-03
1.003866186416808599e-03
3.798128959380105748e-03
2.908149782333915596e-03
-2.849784699197608837e-03
3.641289446298371334e-03
-4.738694216436726073e-03
-2.348553249747201491e-02
-8.475820944157243936e-03
1.067700134244822102e-02
3.805820918484081449e-03
-3.367700766076450487e-03
-7.273072021828193767e-04
4.590131997281639981e-03
5.718329404542274973e-03
6.877730524006901540e-04
-2.520837072032201982e-03
-2.588517474739942051e-03
-2.093379102896401282e-03
2.294850092948832521e-04
1.498179788834159976e-03
-1.711537194383174441e-03
-4.422929815008773934e-03
-3.947887511535363297e-03
-1.679314433303258618e-03
4.562410791376422109e-03
6.784952704538679477e-03
2.412683604308634485e-03
5.341969185073677101e-03
9.217768787327570643e-03
3.721135895150888724e-03
1.955975695612540213e-03
4.101936037448907293e-03
-1.235765968038265972e-04
-3.073773258114260130e-03
-2.816434963689020115e-03
-5.004073488137510822e-03
-3.383767757122195432e-03
-9.681884864736487253e-06
-1.013736877938926310e-03
-1.588874165954941948e-03
-2.722209334442703306e-03
-3.834301020142873075e-03
-4.166398540727304922e-03
-6.843352263890531417e-03
-2.483496258659734224e-03
5.565923554555568531e-03
6.474415189557719205e-03
7.472790303016427910e-03
6.863290782953667367e-03
2.777443617803001998e-03
1.469562929282818660e-03
2.360712301885182812e-04
1.461332219133461893e-03
1.749349710072382706e-03
-2.890311967380373298e-03
-2.774706263087477198e-03
-3.664684938480204223e-03
-6.874309233525359962e-03
-2.183850758071773958e-03
3.251817927645331372e-03
3.981169474831414319e-03
-4.180055736792116262e-03
-1.298857599664218071e-02
-5.470520066635768501e-03
-1.548188782194009471e-03
-3.963651219425024484e-03
3.113831936252051211e-03
2.181145220554669365e-03
4.516942352501205878e-04
4.409602414409545187e-03
-8.259375359450533147e-04
7.108787273946836228e-04
5.348687038601229390e-03
2.306361375850407482e-03
1.330569537597931862e-03
-2.927908132722408050e-03
-3.315199151886394965e-03
1.443037226498936239e-04
-1.180423160643381299e-03
3.712827865188035072e-03
6.623746598331601947e-03
3.134639360778303761e-03
1.335907864455927524e-03
-9.279249804482335613e-04
1.587842201250327934e-03
4.265909214732996162e-03
2.067314480772766000e-03
6.557151330024998210e-04
7.467901337529431801e-04
2.748170530221282545e-03
1.033017981655306528e-03
-7.120119805024850007e-04
6.945476441649638859e-04
-7.261747654789832635e-04
1.120226493789504936e-03
-3.237587894866326976e-03
-1.325850998008013502e-02
-8.066046095195256518e-03
7.499114662162027116e-04
3.766724769654083895e-03
3.920785404054474323e-03
-1.592938565359339762e-03
-5.138676050943988619e-03
-5.233922765603086363e-03
-1.396697203386640341e-03
3.545417413170106995e-03
3.061690229398646070e-03
3.531652021205773390e-03
1.141160932461554155e-03
-3.931546293936103928e-03
-3.545325697767105159e-03
-1.410578194260926578e-03
3.120857937438669977e-03
3.885304377734909338e-03
-1.803847278242211739e-03
-4.167461791101880961e-03
-2.915182035425673349e-03
2.868061241102572677e-03
4.587510826248676621e-03
-2.248388958972885945e-03
-3.871468284871727641e-03
-3.498726185392716116e-03
-4.037175756561283725e-03
-2.386094314899416934e-03
-1.333235054797009267e-03
5.033375771401031248e-03
1.033567553986314974e-02
7.599661251047617333e-03
5.488739826538122958e-03
2.597734502272932861e-03
-7.208111959855587492e-06
3.547150666781330886e-03
6.882431438087741916e-03
4.632083983116094990e-03
5.577039424851089420e-04
-1.474732732019164768e-03
-3.520800613057916643e-03
-4.255180866053224695e-03
-2.442896630669397738e-03
-3.590154835820297437e-03
-3.331056650061696954e-03
-6.404354359405088062e-04
-3.462749993292812360e-03
-5.554132105688535000e-03
-1.802855592534632163e-03
3.242313517093674442e-03
4.524434928370900041e-03
-1.255934038134893680e-03
-6.061117147726661179e-03
-4.617889869926885757e-03
-2.425356146906901614e-03
-1.698201134906706994e-03
-5.774068556227711282e-04
1.596465957976638157e-03
9.679051514576345440e-04
1.327998846987724470e-03
3.979774475043229738e-03
-1.146214561718546026e-04
-1.601399144432979994e-03
1.685398586851538779e-03
-5.012460339176760728e-04
-1.678401822232630011e-04
-7.589476931191483896e-04
-3.667390936737414172e-03
4.829483663193830014e-04
3.247921472564812770e-03
3.259369598048664652e-03
1.141173116969695315e-03
-1.595554371346930098e-03
1.494068134787607163e-03
-8.840752316536788866e-04
-3.110729557468442513e-03
4.553027797404820415e-03
8.925139610747045288e-03
8.093847630269629390e-03
1.365597152848749361e-03
-5.797054683817146406e-03
-3.446973161625340593e-03
-2.595689235039646582e-03
-1.720554052630484613e-03
2.905732211896838030e-03
-8.329768232621405626e-04
-5.644395858734686626e-03
-7.983003413260131862e-04
5.692737716434559912e-03
6.985571600511377051e-03
5.463603470866646925e-03
2.627706601050084322e-03
-1.672232575583705756e-03
-3.320169351813673665e-03
-2.924594534067150725e-03
-3.424384948289222255e-03
-2.633610044152074562e-03
-1.384048605979368166e-03
-8.965509649753941601e-04
3.650609010679044318e-04
4.474086935526188150e-03
7.500299787202494364e-03
-5.638396147983476547e-03
-2.790080818957285658e-02
-2.481964374773241652e-02
-6.375733800202098558e-04
8.306692119007053413e-03
4.410251229794453880e-03
4.647324146148716813e-03
5.013925168575635895e-03
5.693899281562402395e-03
5.058951529043001147e-03
2.219746092829029925e-03
3.097550793180022227e-03
2.590338938398927329e-03
2.876586817573450767e-03
4.761086514727052958e-03
1.387326173160872934e-03
1.753207632551321334e-03
2.812234975194088937e-03
-7.987832865783881485e-04
1.533859864502094307e-03
2.458684942462927622e-03
-1.852772010716455860e-03
-6.803797363325605162e-04
1.907625387397229345e-03
-2.130934608200415071e-03
-8.328288418544790503e-03
-6.874462164983867300e-03
-1.072764433652224512e-03
2.859841637105027708e-03
6.054465389729548307e-03
3.534406873957248070e-03
-1.448541624297986375e-03
-2.934626542810980700e-03
-2.764157217199419633e-03
1.966363387276744579e-03
6.302218444649656560e-03
3.621672033641361657e-03
-2.969386889320587732e-03
-6.398409031327954855e-03
-2.958119378073800938e-03
-2.546927617483952036e-03
-5.517403455331638430e-03
-5.856962948823256354e-03
-6.307200307186375948e-03
-4.249008525278225729e-03
-3.379642589006001067e-03
-1.453701749924208404e-03
5.661931679699593739e-03
6.918789714493734852e-03
5.331647671914353272e-03
4.281141895784819178e-03
3.115903790733761617e-03
2.696792750841046395e-03
-1.985070978518981791e-03
6.454380630203482945e-04
5.633240968602171855e-03
1.940119800422500981e-03
2.604368143165705553e-03
1.859608923457999096e-03
3.052285380477590148e-04
-4.449727927478356053e-04
-7.986798684190964115e-03
-3.010769898794196132e-03
5.489142795447074334e-03
8.192165676138527008e-05
-4.806390070919231219e-03
-4.288623584028651049e-03
4.696608144149403904e-03
1.031338579870834035e-02
4.015560564634129866e-03
-2.473077332790500518e-04
-6.036602018617462026e-03
-8.578426619482422064e-03
-3.125731174754316135e-03
-5.349684572067919894e-04
7.967638270012632890e-04
8.502245004978438089e-04
3.022843876948123377e-06
-2.806789403062487104e-03
-2.044535615009564645e-03
4.381830421549081853e-03
-8.737620019156570189e-04
-1.076086228375700265e-03
5.773044594051318298e-03
-4.106152687992790408e-03
-6.324929668285008896e-03
-1.820507537988348820e-03
-4.554922134618134659e-03
1.698283802914716352e-03
1.957427672435770559e-03
-2.012214768396309705e-03
3.410841817706822352e-03
9.548240053282134069e-04
-2.651253845460970881e-03
1.441484651909887872e-03
4.581304897272490267e-03
7.287528634235283798e-03
4.603872883444146136e-03
-2.579538479893392095e-03
-3.123868215216232553e-03
6.774492428954735895e-06
5.546983892656515668e-04
9.744845491003338491e-04
2.290760679460429302e-04
-2.471747092115417557e-03
-2.898677210247283670e-03
-2.046164392502113766e-03
-1.413829188070844399e-03
1.120045832368935564e-03
5.442173737354225223e-03
5.487995751791089304e-03
1.264558602072776445e-03
3.419306199915908909e-03
5.009495105112941014e-03
-1.953673567719457012e-04
-8.780312296148115765e-04
-2.233774930843264450e-03
-5.507429201609152433e-03
-4.114759937736160375e-03
-3.796524495466076926e-03
-2.361755769791056957e-03
-2.299041140156063336e-03
-4.556361593668361090e-03
-1.875378079665485608e-03
-1.263785325999707823e-03
-2.029980178373530595e-03
-3.194613018276624690e-04
1.072579672142228639e-04
3.849531208982567149e-03
7.898757969615586780e-03
6.590175761442648716e-03
2.766986361719077359e-03
-1.931595546517613426e-03
-4.128009504928025798e-03
-2.104687800032090106e-03
1.189420063129057164e-03
1.827895978313010851e-03
-5.505060146607912213e-04
-2.324880419041111361e-03
-2.648330221195442993e-03
-2.751839514673890159e-03
-1.318507163851243783e-03
2.797857931142404882e-03
1.459575205718675883e-03
-6.554838045019866638e-03
-7.578607538279142838e-03
-2.886560009171179695e-03
1.402892719570688175e-03
7.004035962050588968e-03
9.251840208755223935e-03
7.587014786552937796e-03
2.375756587093061801e-03
-4.080297693427620102e-03
-3.878230036331489772e-03
5.811368321852636255e-04
5.396554451124161919e-03
6.552495486683876554e-03
2.315595505488060417e-03
1.059547708012104550e-03
2.855996963322525884e-03
2.329104469561472414e-03
2.350683325288613866e-05
-1.816231393320310531e-03
-3.178818289366021951e-03
-6.418834006358188279e-03
-8.239990741464675236e-03
-5.557556502343247683e-03
-6.934996418725524869e-04
2.928128903264943204e-03
2.566403181657248359e-03
-7.763428839086239895e-04
-5.960559231415667701e-03
-7.341380928700116590e-03
-2.061598614620668152e-03
2.130163000539583157e-03
2.900040254526803710e-03
1.627053675571080681e-03
2.008609077621448941e-03
3.017638964438198144e-03
2.707444940243039500e-05
1.313318489102951450e-03
2.501055340681472908e-03
-5.605882631845862055e-04
2.179583149883447361e-03
2.627698012714080582e-03
-1.075950954982343201e-03
-2.150029798697195103e-03
-2.159625568584056660e-03
2.794114963514189218e-04
1.688454743462919306e-03
3.769014559958358546e-03
2.472486557609716515e-03
-5.343679508639666460e-03
-5.138305464652152604e-04
8.062280402936156457e-03
3.208926730171437168e-03
-9.236294270715656417e-04
-9.402769243184728705e-04
-3.309042795904859266e-03
-6.519729536372352065e-03
-6.593644009312412888e-03
-5.091757180262489538e-03
-2.621811027622997139e-03
4.073929656059809348e-03
-2.050293131301285723e-03
-1.468487288620051387e-02
-6.169711573209568818e-03
3.889584768539238509e-03
5.001226589173156552e-03
1.116894425219181093e-02
1.515437797671186256e-02
1.640272820959064182e-02
1.223060670614836178e-02
2.073435109515919979e-03
-3.867745856341430616e-03
-8.943255311074215647e-03
-1.000729795319883590e-02
-1.245446096670359964e-02
-1.819147984740642279e-02
-7.469939147053652334e-03
2.816548044222638020e-03
4.089493662520866327e-04
4.538264487699476477e-03
8.208825593718285796e-03
5.771409964877804305e-03
3.313236449099711631e-03
2.639896252239012312e-03
5.071625601053026539e-03
3.473619586486907489e-03
2.233509626625974041e-03
3.499549165053964005e-04
-4.963814426769944457e-03
-9.502637732966708571e-04
1.056343697815894864e-03
1.491510769830774142e-03
1.131816305279121672e-02
1.250563623401999142e-02
7.980360908565463027e-03
4.806832481508494133e-03
-2.399819347008983698e-03
-9.729282486989511772e-03
-1.356206572153123742e-02
-4.968482181892553730e-03
-8.263606966984651803e-03
-3.038489580542478793e-02
-2.275196153777064509e-02
-3.251452487798911235e-03
4.843480559175882732e-04
9.970725659547650596e-03
9.949719185465886670e-03
2.097947335691663015e-03
1.452218108735354399e-03
-5.889310616024371302e-03
-8.514445343679481401e-03
-1.390898830365539136e-03
7.194336184746174048e-03
1.419510418079131080e-02
9.596077848935125054e-03
7.580736696676857941e-03
1.230309931887672500e-02
1.015165538861701085e-02
7.184134505877850900e-03
-1.483332831172625918e-03
-1.034456110508579982e-02
-5.122701570646311792e-03
-1.563817071314818532e-03
-1.365588811494980199e-03
3.926970120844818640e-03
5.960894111857054437e-03
3.830589976466064819e-03
2.567690858537263927e-03
4.138740567291537657e-03
2.527466551269388559e-03
-4.236884749001214139e-03
-7.303024941387565964e-03
-1.071459888231205727e-02
-1.469302069094788679e-02
-1.061267452449608101e-02
-4.449609527171161094e-03
1.264022270127616518e-03
8.800212317028313289e-03
1.039631734169154005e-02
4.777682074022733365e-03
9.873334329397783892e-04
-3.080466920327879464e-03
-8.946768444047955432e-03
-2.990245981092712162e-03
5.041463101993435766e-03
2.439470393671330350e-04
9.462432611078303848e-04
8.132256851816004051e-03
8.376598938322038848e-03
1.969823988504530287e-03
-1.401502277740121483e-02
-1.845360228297906677e-02
1.397580380254337829e-03
1.047121498639048791e-02
3.155213255363358959e-03
2.751384220570353596e-03
8.181103670756886782e-04
-8.435007090023614873e-03
-1.152745518366780735e-02
-5.556724006953717848e-03
2.662993760468806634e-03
2.764938828055899227e-03
-3.621126624633040289e-03
-1.983344183324318132e-03
3.177222245622295452e-03
3.287167139767484605e-03
4.292743682183461536e-03
7.003702223810275539e-03
8.339996642014915751e-03
2.718587134728183211e-03
-3.494271986203482342e-03
3.217484661655645693e-03
1.036411251205059982e-02
1.102644688466945799e-02
8.839461407552463845e-03
-2.456440786980998870e-03
-9.727984882461253660e-03
-5.526900096469103928e-03
-5.404884738523822382e-03
-6.894969749970930768e-03
-8.023563653458407659e-04
2.485567595757564533e-03
-3.188923807968609310e-03
-5.183720683238975113e-03
-1.847071301983986254e-03
-9.421690022197064859e-04
1.325746706090000747e-03
3.171270088780820274e-03
2.553238113409230566e-03
2.015779398148386751e-03
-2.237548022761232363e-03
-4.566930847970438086e-03
5.006101955634144948e-04
3.594461424607841692e-03
5.988060650738101769e-04
-6.671898383688642381e-05
9.081110613105732293e-04
-1.154040785724203206e-03
2.602190218561036342e-03
6.619578175345555877e-03
5.760148894489059736e-03
7.805845112791007061e-03
-4.449325236365760800e-03
-2.197961658382100586e-02
-1.333418744427339320e-02
1.480244148930081076e-03
1.913126805222459476e-03
-4.412978518233801918e-03
-8.911006398919150279e-03
-7.299807810873550767e-03
-4.576944727434239905e-03
2.307034655213794586e-03
9.689699037948105997e-03
9.544660374583777140e-03
4.719212177901354645e-03
-7.296534378395438600e-03
-9.629580087167121175e-03
2.822334391642937392e-03
5.976988148220694318e-03
5.873954918916650045e-03
9.845161386608378834e-03
9.698855526510632985e-03
3.126625876269205698e-03
-6.964693402388834158e-03
-3.203062047273824188e-03
1.081935786260942133e-02
2.151195056344958056e-02
2.446780333346782257e-02
4.574437073705884052e-03
-1.487742806419444820e-02
-7.879423672169144979e-03
1.080175104724456596e-03
1.829817423730683429e-03
1.447364709641459773e-03
-1.358255537272626615e-03
-7.772518877636905819e-03
-1.571372747210753734e-02
-1.746995442924008379e-02
-1.638314193805841604e-02
-1.586668408139969497e-02
-1.095398069767615674e-02
-5.295001744172269514e-03
-3.752981369516506654e-03
-3.131776606735185275e-03
5.502128785900448245e-03
1.353935129310926931e-02
8.594831856098380379e-03
2.175522251951536937e-03
-1.431532826692101176e-03
-6.214357095804588869e-04
5.249767648527903056e-03
4.759812600742362523e-03
4.459244069471452257e-03
4.809700608390519473e-03
-4.780629220901479615e-04
2.642370339346808146e-04
3.006401759899678897e-03
2.301403533133293631e-03
5.679878865893399700e-03
9.443742237217252547e-03
9.184273792035938314e-03
5.007498426010972142e-03
-1.855336057919008963e-04
-1.062273335169058603e-03
1.181996907318288905e-03
3.737814756265435585e-03
6.210043659664182814e-03
5.235241106271015278e-03
2.250669639269482249e-03
5.772601190116358021e-03
1.233856498674768334e-02
1.392817132300456714e-02
1.049626312235978076e-02
2.635006559607270746e-03
-7.524390645033720605e-03
-2.103990629247642907e-02
-2.741996092334773177e-02
-2.313116788241935395e-02
-2.946180795416673825e-02
-2.969713202072610247e-02
-9.953117078658917094e-03
4.163466714983054748e-03
1.435256042415262480e-02
6.234208784936212146e-03
-2.369815207845115887e-02
-2.300923906979381733e-02
3.804929317974076403e-04
1.324274229509419913e-02
2.446016227024661732e-02
2.488069183685084895e-02
1.400817666741831398e-02
6.310703915233726452e-03
7.548641049148610343e-04
-1.395774048779780362e-03
-1.084383147664784094e-02
-3.147540292875489198e-02
-4.014222003257440080e-02
-2.700580774968483477e-02
-2.713862384818568115e-03
1.840314175566321042e-02
2.704341631571078458e-02
2.249435030276509401e-02
6.821913096970542469e-03
-1.226536259581229894e-02
-2.101815281047691650e-02
-6.309741514346746405e-03
2.477314178057017993e-02
4.232638121101874040e-02
4.485184638069442814e-02
5.138741648736093459e-02
5.042871615889893411e-02
4.049387443712894330e-02
3.737591824415788938e-02
2.869113911355591559e-02
8.077009141126608241e-03
-1.040593321504921370e-02
-2.124434966533159455e-02
-2.051959482800985723e-02
-9.739127491456930907e-03
-3.627009913998553107e-03
-1.111853774405871000e-02
-3.662832763625758353e-02
-7.778112978395891608e-02
-1.007775495267215077e-01
-8.489094039772873690e-02
-5.552935246145702247e-02
-3.489373409577450208e-02
-3.710009384339195415e-02
-3.868707324279702792e-02
-9.289558180120364647e-03
-8.714591800478918224e-03
-3.511590051463329976e-02
-1.062375942092186679e-02
2.794843879601554421e-02
5.895554867247692482e-02
1.090198521830482298e-01
1.206288223011010990e-01
8.479083783350631343e-02
6.463912331429282065e-02
6.282869075466954167e-02
4.728154794121978283e-02
1.605127328501689682e-02
-1.008004224933289894e-02
-1.339563247406587443e-02
1.062856674510902211e-02
2.488164111251823379e-02
1.152650488753290950e-03
-2.141137418045979679e-02
-3.472604287302059195e-02
-5.002633597572360424e-02
-4.314771747998247947e-02
-3.412825765365053166e-02
-3.844428087396447452e-02
-2.967493527191716537e-02
-2.036925537607961814e-02
-3.671512671909762937e-02
-6.148574041402074530e-02
-5.836435730785625997e-02
-3.428712090753532893e-02
-1.575086902923639176e-02
-2.875649771170670378e-03
-3.851069304391241312e-03
-1.342586823508791537e-03
3.407616234622225931e-02
8.018484270178852236e-02
1.144487572526615010e-01
1.165812295579657654e-01
7.720468179843863188e-02
2.528167669657713224e-02
-2.038328635434183411e-02
-5.254906704784736288e-02
-7.757128586873630882e-02
-9.028284987102379311e-02
-7.442345229330429857e-02
-5.161819042267999647e-02
-8.561108375040123522e-03
5.473753382490692543e-02
7.212218169623371700e-02
4.685246960019621987e-02
1.451489277793358880e-02
-1.906300861072655548e-02
-2.841283480578458975e-02
6.884028048497288152e-04
4.439260649768259764e-02
5.982896792903601851e-02
3.702238774382260456e-02
7.848776067009892443e-03
1.048182038680217643e-02
3.776332277756653394e-02
1.880388114955309359e-02
-3.115702137086077961e-02
-4.035714082628400617e-02
-2.996469308003481616e-02
-2.151996316710536386e-02
-2.960712669196208582e-02
-4.829850348529129977e-02
-1.585609819081507674e-03
9.274943638912543087e-02
1.317446070901246713e-01
7.433050288603772204e-02
-3.407080101254215260e-02
-1.145895361197967477e-01
-1.416790503635242948e-01
-1.319889086374480547e-01
-1.193753163646869564e-01
-9.962327022998930526e-02
-3.082852315937960677e-02
3.707690344944814670e-02
5.685523016148341657e-02
4.489197209170193992e-02
4.630497036244556747e-03
-9.038615585066288663e-03
3.171507432040773788e-02
6.474933934345104836e-02
5.849236291117514142e-02
1.484287314466657681e-02
-5.477037975344977577e-02
-8.029303937379710099e-02
-7.517533856885955275e-03
5.499117234625367640e-02
2.741565083503045078e-02
2.507792619313107749e-02
6.388198929406384285e-02
5.854223297433694406e-02
4.803483815338397550e-02
6.027157669344009039e-02
7.373780312273618687e-02
1.211021575064114564e-01
1.958972462921814706e-01
2.036758129908309012e-01
1.224235209149370923e-01
1.243601992056777954e-02
-1.120506087344933649e-01
-1.988203562598729046e-01
-2.047464028866295416e-01
-1.845852140377338413e-01
-1.563298114849121234e-01
-1.249274072857942952e-01
-4.614272244559405878e-02
1.078254412814545066e-01
1.541685007659309159e-01
5.435402069837873967e-02
-1.210131344405181684e-02
-6.582325042100790891e-02
-1.816188823509392869e-01
-2.801009225592908658e-01
-3.170259933536726527e-01
-3.055669783207243251e-01
-1.940873961004664361e-01
5.592854273110323821e-02
3.305353293957189464e-01
4.469950748059041135e-01
3.552681722495286687e-01
1.918863348879658037e-01
8.421349193741468897e-02
2.172502930918824779e-02
-1.477953851630215733e-02
-2.029451933373053324e-02
-1.289994542285966385e-03
4.118221870896115328e-02
9.265754390822401876e-02
1.114253648014318920e-01
4.687778132871033704e-02
-3.951102572315914191e-02
-7.665368270025899045e-02
-1.304183561463573282e-01
-1.831933064093718699e-01
-1.898852943231409685e-01
-1.727646465358885497e-01
-9.256100111858485413e-02
1.993905281897621375e-03
6.227605573975047298e-02
1.380495062103196391e-01
1.626495437897586549e-01
7.178922350560318355e-02
-7.064225200136965699e-02
-1.573194254908127088e-01
-1.204128059734960315e-01
4.799907450683755898e-03
1.390661969312413093e-01
1.848374603268224670e-01
1.090100638276183254e-01
1.243746575321063620e-02
6.656721682442834007e-03
7.296267776017710538e-02
7.326312336415927162e-02
2.091579464191331561e-02
4.055228989568031815e-03
-1.621720945457021459e-02
5.940535865813864440e-03
5.708658511843697075e-02
6.259009732796558256e-02
3.230984048610141546e-02
-1.214064211947904481e-01
-2.648537887768268595e-01
-2.945938148968666459e-01
-4.092234331865989283e-01
-3.559584195206360602e-01
-1.239146158971278500e-02
1.762098725633313989e-01
2.365965496310898086e-01
2.995193297647328334e-01
1.707220456644134576e-01
2.480388890386156509e-02
4.327554431522723233e-02
5.451107231340653753e-02
3.829814299524562926e-02
4.059348445753767354e-02
-8.862100523825274315e-03
-3.813850334443384671e-02
-2.471024608032421337e-03
-2.301949035799261828e-02
-6.007911376655008379e-02
-1.460516775040168573e-02
4.581636952007946822e-02
7.512358717958202148e-02
8.542160474922021185e-02
7.322283963193756962e-02
4.062479315824703285e-02
-9.526494487304576833e-03
-5.210458411187597616e-02
-7.471452183377173817e-02
-8.858863188086606166e-02
-7.788602359569149480e-02
-5.629167174694922615e-02
-5.086677347958976775e-02
-1.544053697593297803e-02
5.064661007570832318e-02
6.664966188756657473e-02
4.767383842394726928e-02
4.132110056160089029e-02
2.748430438230214240e-02
1.898456568486089902e-02
1.262393165790139452e-02
-1.454324580474792607e-02
-1.615726744762297287e-02
8.449652834404644541e-03
2.227794027727100085e-03
-2.632967645217858255e-02
-4.970360278580576718e-02
-7.353150587436961538e-02
-8.086951552042533076e-02
-5.407883002130031008e-02
-1.327371222698685814e-02
2.737552061056458541e-02
4.447320995703618607e-02
2.902961987318822962e-02
1.406206649850801939e-02
-3.124857438916095291e-03
-9.696438270331788137e-03
8.552244482472359452e-03
3.086472283326508349e-03
-1.806409597317630176e-03
2.871312609725493875e-02
4.191680011056823224e-02
3.261986751747737723e-02
2.577210846289225421e-02
1.382420209425444003e-02
1.109485134488839841e-02
2.315584904650407408e-02
1.830485160475099973e-02
-2.843745966386701084e-03
-2.245132059215608489e-02
-3.424678940911211888e-02
-1.160956802462248874e-02
6.354295916774870684e-03
-2.645456636228399674e-02
-5.426930565315601224e-02
-5.704796726520002664e-02
-2.236506376264357429e-02
4.957749517675309747e-02
6.306328000920531640e-02
2.382850311496606879e-02
7.711416893744536295e-03
6.015760713420265776e-03
1.250438226119616938e-03
-6.542905715260379472e-03
-7.629444177946676474e-03
-3.700798952603714595e-03
-1.370241555811236352e-03
2.383125449120678842e-03
7.394727742237025342e-04
5.988888208926491062e-03
8.864452938150938974e-03
9.455831676121691232e-03
1.614550591120288495e-02
-2.073731389392960769e-02
-6.421262555900207614e-02
-5.572910537191409081e-02
-2.258725294204521825e-02
2.868561077191175354e-02
4.817727138211825438e-02
1.714957492394443214e-02
4.814437479006674139e-03
6.784915253837032860e-03
5.587004667831180563e-03
5.047677629610293135e-03
-3.862565467488305974e-03
-7.064757324986082818e-03
-8.729413147436892659e-03
-1.080832334010777343e-02
-2.212055163183609952e-03
4.769201252294104701e-03
2.901716198319408135e-03
3.307679793763933923e-03
1.117360768901119218e-02
1.123012327302754486e-02
8.179685074157573219e-03
1.121190515318783512e-02
7.228126854766847229e-03
7.337314656546460589e-03
1.911387029571270631e-03
-2.580705206319608425e-02
-3.998962992065589750e-02
-3.289792092491538450e-02
-1.994494238721907300e-02
5.687969251500438715e-03
2.427090616093161360e-02
1.445588621226201118e-02
9.656064148314040746e-04
4.824915288706928089e-03
8.606995459761240461e-03
5.584240596716915327e-03
6.044969727301858359e-03
4.147098847337185763e-03
-6.275042705094169239e-04
2.954814660352681551e-04
5.524113445886191451e-03
7.615167278260765935e-03
6.274746923090612077e-03
5.868852070639573974e-03
3.237473590866336588e-03
1.205795024366329224e-03
-2.151948010562362498e-04
-3.307627826276174701e-03
-2.115160973418508603e-03
-6.586082755186717028e-03
-1.248696011773108537e-02
-7.931140996481882838e-03
-6.834626393351582972e-03
-6.826724163807565762e-03
-3.081216109387753966e-03
9.155646621421366978e-04
4.855682579137919098e-03
-3.139655815040143759e-03
-1.056199753011092569e-02
-4.063538880320377578e-03
2.769090967196945891e-03
6.350228497050639659e-03
4.326507336276994367e-03
2.340522849166758114e-04
1.078933388002554800e-03
3.791734168510709890e-03
7.944615517994699574e-03
6.365314494439618977e-03
1.385630325293776615e-03
1.654447515489348552e-03
-1.050853559123911263e-05
-2.460952459725955846e-03
-2.378749981117414623e-03
-1.516555759737176542e-03
2.089215741300081385e-03
2.409631015314883228e-03
-1.516041782402100012e-03
-2.828161213600232163e-03
-2.057989105983101721e-03
1.377858495808591266e-03
5.714138519814716995e-03
3.007401685127540462e-03
2.882097745059094846e-04
4.653983031088451683e-03
4.128736869831387511e-03
-1.769540441046373415e-04
-1.049905357840712206e-03
3.184786631978879599e-03
1.225294257033695405e-02
3.927233906766525173e-03
-8.798194368612529889e-03
-2.421698550989468800e-03
-1.386138954562270501e-02
-2.865211336922057067e-02
-1.071540470792305827e-02
4.062783221729203940e-03
6.749080358686006427e-03
3.823553387010211139e-03
-6.507091667573690341e-03
-1.200396804478442037e-03
6.593054000820635328e-03
2.687398222897769817e-03
2.660392454723641692e-03
2.101749261251061561e-03
5.119999081535837621e-04
2.526213082366906941e-03
4.398513182502395737e-03
5.507794172077775524e-03
1.715680417486436724e-03
-3.207420435486059863e-03
-2.838866498352744707e-03
-7.032547752419114097e-04
-1.049438325303666576e-03
-4.322474480753443760e-03
-3.780993928067104791e-03
4.387960216259588681e-04
1.738753281564207713e-03
1.909495971246893010e-03
4.331569336735635102e-04
1.546560354277366225e-04
4.288035159057137190e-03
3.945003673559820644e-03
2.096428704574916212e-03
4.420355064944016255e-03
2.604204949497696334e-03
3.188474633579154913e-04
3.884287054788850262e-03
5.710246736375659653e-03
1.888107526619730008e-03
-1.335541208802670885e-03
6.049727867242895088e-04
-1.911071470798917076e-03
-7.959877275101065811e-03
-2.540193032522833003e-03
4.134450606505430531e-03
2.395106364586332623e-03
-1.508313006167586682e-03
-7.418907834203960876e-03
-8.183915207736456449e-03
-4.220613658124192959e-03
-5.875136542005714385e-04
4.411310212609921740e-03
3.351981230931525176e-03
1.779964933757328602e-03
1.610937753716724778e-04
-4.938920262899944291e-03
-2.367053085367336828e-04
-5.796254191192054192e-03
-2.032197458739747747e-02
-6.923178832115258960e-03
9.056177009760761967e-03
7.331536161187252390e-03
7.001138518733968606e-03
4.781460258139687974e-03
5.326054434555003297e-03
6.418351339591995240e-03
-4.911865493017048695e-03
-1.043270853220151263e-02
-4.534466659007312279e-03
-1.116159050919831534e-03
2.235934032525264351e-03
6.036569379982461604e-03
6.867561403987701256e-03
6.970162340566414712e-03
3.192951908347857731e-03
-3.586712480724413982e-03
-1.607721295532856106e-03
6.430421723573497526e-03
5.861060932990175970e-03
3.468076962358695504e-04
-1.676133232227354324e-03
-2.793754829687515595e-03
-1.700968358912573457e-03
3.445210986166831555e-04
-1.052169609443002725e-03
-1.774020737308242088e-03
-1.717700343202524949e-03
-3.850307926093277447e-03
-3.950778164409781204e-03
-5.213209335566510675e-04
2.211156030379937427e-03
2.339718567418973098e-03
2.749495653723022133e-03
3.137938545805447552e-03
4.012608195800600316e-04
-1.846475018821324256e-03
-1.759501347737432502e-03
3.770025011710210583e-04
4.519053009922136335e-03
3.322664938476334751e-03
-1.171423661418790393e-03
-3.284701204794218590e-03
-9.294705196626902588e-03
-1.358111284292903669e-02
-6.177855989339632245e-03
2.260888178349278882e-03
-9.980241982371340897e-04
-8.532156296109098120e-03
-6.037451811891612202e-03
3.109063936056156215e-03
9.492824309417986425e-03
1.114825861496901091e-02
8.272879304563225678e-03
7.188440404127048600e-03
6.329232375202718461e-03
1.197109344292806524e-03
3.457579663848326474e-04
3.851585877508668845e-04
-2.834111325278426425e-03
-9.670085239153734281e-04
1.002316963377340850e-03
2.820103864921679870e-04
1.608321346582971753e-05
-3.676127306216092801e-03
-2.122501574384019676e-03
3.595162478691852487e-03
-4.454892166372338008e-03
-1.161895273704727921e-02
-2.409721339122713503e-03
3.483554801341142565e-03
2.068069401378889831e-03
1.671460512991456218e-03
-1.482109880078374443e-03
-3.041060869645179163e-03
-1.779924697721798309e-03
-2.461550857600782773e-03
-3.189626898225906507e-03
-9.334952992150562755e-04
5.873725719533164601e-03
8.541228198132969768e-03
3.897478285882210926e-03
1.503461373503803180e-03
3.334952523255989504e-04
-5.176304051015673518e-04
2.303776064354838950e-04
-1.517349798665338810e-04
-2.090959222577991067e-03
-6.364184278440401105e-03
-4.626574988330193344e-03
2.315202070950364652e-03
4.052659329040833765e-03
5.259105985856982017e-03
2.408827477447275829e-03
-2.219379719595894647e-03
-1.358453763829334986e-03
-5.958618536743301441e-03
-5.568107127347618653e-03
2.541007703482913056e-03
1.186200767008235672e-03
-8.753819078858658242e-04
-1.411517299166461289e-03
6.130867426239879027e-04
6.482629942315637148e-03
2.432711289359690884e-03
9.656993618379571508e-04
-8.576063580454605911e-04
-1.386134904075527439e-02
-9.985721052374782816e-03
-2.891016070582705095e-04
-3.851399927092584267e-03
1.707994442299675840e-03
7.622284554598295243e-03
2.745462778950512328e-03
3.145271830672706666e-03
6.303637292189171251e-03
6.675712279985693796e-03
7.465479254772892578e-03
6.359005988861178744e-03
3.681144072987127969e-03
1.233939336167653045e-03
-2.856621012985707288e-03
-5.621712538261497069e-03
-4.332352264233389760e-03
-3.236643194042604019e-03
-1.175926099358416558e-03
1.314093134772180297e-03
-1.554882543805964504e-03
-5.233313367531455644e-03
-5.169782750559341611e-03
-1.397614499178505753e-03
4.700555859824808932e-03
5.314749978053282149e-03
1.541509403136926554e-03
2.435912380657303134e-03
2.342237046944745018e-03
-5.247706011758668243e-03
-7.224379435796445328e-03
-1.847227077073022774e-03
-2.876515479487459781e-03
-4.354795726927557058e-03
-3.362881709829135431e-03
-6.237891622613622733e-03
-6.742593482097531885e-03
-4.346251786367655648e-03
2.981061512175545158e-03
1.081297115998012572e-02
2.787006888238881611e-03
-6.846010114007421155e-03
-2.719425828816201575e-03
2.551200331295527465e-03
4.821524392526079124e-03
8.350464828919176505e-03
8.929799309078778613e-03
2.594682142617654730e-03
-1.439803386166073210e-03
2.018010158003016256e-03
4.839794522333104414e-03
6.801655031116921740e-03
5.886715136938891479e-03
-4.621926305558564938e-04
-2.668024410153577945e-03
3.308823422177419992e-04
7.081932094486050261e-04
-2.855606314034109597e-03
-4.242161870352105860e-03
-3.554999873146777629e-03
-3.998230044594974601e-03
-1.518869826791502614e-03
-2.276682810574637283e-03
-6.904056725382428164e-03
-4.579932422755581510e-03
3.597447107624681013e-03
9.979241821707708626e-03
4.350042055730409148e-03
-2.816535938601238184e-04
1.850850929680512499e-03
-1.475681531571505778e-02
-2.134317850900103661e-02
1.633034381445411720e-03
8.780008589291277837e-03
3.539896873716453195e-03
4.761686429175545146e-03
1.104180961258523913e-03
-1.432484651539358200e-03
-2.969917786512622044e-04
2.017536452703131821e-03
1.745051779925718043e-03
-4.503100307339000068e-03
-5.580155715166136218e-03
-1.145938596083137051e-03
3.042477196027839823e-03
4.288993462255325656e-03
2.048128036721661056e-03
3.871796994305535741e-03
3.985167824045528391e-03
-1.464235830828352659e-03
-7.195393787096596031e-04
3.098674163319789163e-03
1.627145940696754197e-03
1.188538565528756688e-03
1.257294071851991317e-03
-3.785068001036801660e-03
-2.738893525518237056e-03
1.844130769399061204e-03
-2.393538867349819313e-03
-1.876329738811147608e-03
5.886648523032201067e-04
-5.424917458777821742e-03
-4.838498422202630600e-03
6.086515860301140680e-04
2.115688666737671701e-03
3.102779388873164092e-03
4.712874714493386040e-03
4.233986506382072038e-03
-2.613399528124357805e-03
-3.469785202407478335e-03
4.554209274692071208e-03
6.370154304339090655e-03
6.153741047239552446e-03
4.940075878938570732e-03
-1.374200574216765617e-03
-8.745073730054193223e-03
-1.351593497393664516e-02
-7.169098069363691490e-03
1.384753242399619326e-03
9.284644421513168003e-04
-1.300549244986014567e-03
-2.597328786219093178e-03
-9.734526765078710744e-04
-1.992480280358332502e-03
-5.052627563212396498e-03
2.213543770629516037e-03
5.992316465231759502e-03
1.844907026975133404e-04
-1.449210252137591443e-03
-3.601053303745449909e-04
1.701486405206881821e-03
4.246046899786698123e-03
5.543701815042345084e-03
5.967420191101760474e-03
3.714260023510090620e-03
9.057467938557891814e-04
-3.076603647458158938e-03
-5.421889774679081349e-03
-3.489031014747758647e-03
-6.121313279298565800e-04
4.089545636579021252e-03
1.040474698398376240e-03
-6.355921480046006038e-03
-2.748120786347941786e-03
-1.097151692854526125e-03
-2.680655844142862485e-03
2.337073654227012683e-03
4.438735489023066909e-03
1.924368608674834578e-03
-1.890668809251538473e-03
-5.491223995557917509e-04
4.880642314310776331e-03
2.164798575816966487e-03
-2.156622276850931469e-04
-3.216514371517542495e-04
-5.074610158732853482e-03
-4.826389831816501469e-03
-1.746996253949163790e-03
-1.783672532147073837e-03
-1.011049778295268053e-03
3.766261578669913117e-05
-1.727001134781591576e-04
-2.144377212495683638e-03
-1.714659493392243616e-03
3.205218837773993537e-03
6.658685313153860606e-03
5.514430561958551594e-03
3.186950982666186729e-03
3.780155577116968684e-03
1.977409214866764423e-03
-9.108315148146417300e-04
3.279712498509830369e-03
5.261824739529060400e-03
1.315103867491831599e-03
-3.726300655269842825e-03
-9.616933709446209497e-03
-7.776353029125419695e-03
-2.933845123156135926e-03
-5.014080438549721463e-03
-4.567532360438473354e-03
-1.003159660521851402e-03
-2.545509231187703149e-04
1.238665656009140794e-03
1.734866130419744504e-03
-5.850396609089503772e-04
3.318017224823719465e-04
2.975712978729140850e-03
6.334175983698970853e-04
-2.004537872832821890e-03
-1.053066293678448602e-03
5.913895530593055996e-04
4.090413361716865003e-03
6.431531797714613863e-03
3.851754889080958363e-03
1.482638630833691372e-03
3.224204260653913429e-03
3.890859365988572332e-03
-1.340919865749439248e-03
-3.479554786884341694e-03
6.289551039507193953e-04
3.935300268071191413e-04
-1.852374651798959371e-03
-2.532559235684418795e-03
-5.052615428417371775e-03
-3.635046821400702080e-03
-2.067759402942851137e-04
-1.437676673991597487e-03
-6.840712195227505264e-04
3.695160286803747703e-03
4.419189025785186936e-03
1.836940732497327564e-03
2.211458958086123371e-03
4.711377258744210185e-03
1.446954930460431221e-03
-4.220817721965984363e-03
-3.611351060997842685e-03
-2.968221180816557527e-03
-5.530763663297734618e-03
-4.556444028735066182e-03
-7.948907965439600508e-04
2.637014098559473541e-03
2.485124019163191880e-03
-7.660155158700089183e-04
8.796212120143286463e-05
7.798609068634205707e-05
-2.979980609995834355e-03
1.202833343388139912e-03
4.153569972669881455e-03
-1.928505432578256915e-03
-3.381739885232970186e-03
7.579026947548063876e-04
1.904009176427838177e-03
1.020211825491509168e-03
-1.682521562276155080e-03
-2.992490527021145034e-03
-5.030379524470616646e-04
3.795300799530945939e-04
5.102016240582599865e-04
3.176739924524789229e-03
5.670454593058724645e-03
2.649052759808864094e-03
-3.286973817119429302e-03
-1.054451511161839505e-03
3.922673249470856952e-03
4.423479508296389480e-03
4.214979511680929172e-03
-5.899349905134958433e-04
-1.137321967255362342e-03
4.998156963148484705e-03
5.427904206159615743e-04
-3.675060088017604015e-03
3.685965889876021209e-03
7.268877931603237239e-03
3.081453696377477874e-03
3.207092475542145955e-03
5.564312811653974143e-03
-9.732444989501133625e-03
-2.812185421960466600e-02
-1.921000193480131013e-02
-1.895367629477967379e-03
1.937860013153205755e-03
2.698444543077252694e-04
-1.382488145670557290e-04
1.053726103438997874e-03
1.758726225112532300e-03
1.975603124562024145e-03
5.077274345469067309e-04
-9.125729270022427120e-04
1.783333472023796579e-03
3.107964554347510122e-03
8.247289834108832663e-04
-8.120725105749838219e-04
2.312678252546640154e-03
5.351134498347723777e-03
1.247207776126847212e-03
-4.089617421856341344e-05
3.473545783359224901e-03
4.380417587208120835e-03
3.551555551443334215e-03
3.249462980173669063e-03
4.160191451150655612e-03
-2.516770397517833525e-03
-8.616502996227116268e-03
-2.442794301509104010e-03
-7.955750921971223039e-04
-1.568003603682880699e-05
4.718439343828200773e-03
1.784112942125821825e-03
8.435839917444384883e-04
-5.714415758063652682e-04
-4.174027241667538704e-03
1.535029036800160613e-03
5.208385632872469112e-03
2.202112244338306091e-03
-1.574064714708767339e-04
-2.950846353804917679e-03
-6.102364696192614721e-03
-6.624584810387751897e-03
-3.817036928207296828e-03
-2.021970277759694255e-03
4.391050827911749757e-04
2.830854146869733225e-03
-5.008454223501600331e-04
-4.033579846632565080e-03
-2.912297337149994010e-03
4.666641774459911150e-03
8.297989569768514026e-03
3.933766653331464015e-04
-2.806412009392761624e-04
2.853144531603929446e-03
-2.605801906927608137e-03
-3.872772843060911033e-03
-2.951674150278462794e-04
2.184753061409940716e-03
1.070020419313481375e-03
-3.248408218996740385e-03
-2.860615253188326153e-03
-1.876355698841087553e-03
-3.484978676403377440e-03
-2.628351411728139554e-03
-8.013365294780557327e-04
-1.399651157133701687e-03
-2.191437587135562463e-03
1.699388462509980212e-03
2.929009597311319109e-03
1.012121196864870592e-04
3.945070796633721837e-03
6.243879356517896724e-03
2.490148586258287763e-03
2.105775932997434787e-03
3.166714962479446130e-03
2.075994290329825128e-03
1.139378380358044458e-03
3.380227421200097341e-03
3.656651314740790200e-03
-2.031785645103986217e-03
-3.187072873571793457e-03
4.560295750890334086e-04
4.815834174361060811e-04
-8.861271449710390880e-04
-3.078673513313515044e-03
-6.213962688651593173e-03
-5.932816794737699739e-03
-3.231674408989123736e-03
5.165841507691246691e-04
5.083960426672351311e-03
3.396318794151871601e-03
-7.958501644348041706e-04
1.158467720774965584e-03
-9.224644311522483533e-05
-2.611879825599328596e-03
1.666642219610302896e-03
3.953576302833664707e-03
3.511551751457252235e-03
1.537200318471994721e-03
-5.422653709782479037e-04
-1.109074682995424364e-03
-6.047044001772812483e-03
-5.614394775217078012e-03
-1.678576953306998862e-03
-3.685856776184048833e-03
-6.168617675409621181e-04
-1.740000014056932495e-03
-6.732846831195978161e-03
2.300705312460200728e-04
2.948167335694257350e-03
2.009318638227145133e-03
6.870638290256409278e-03
5.144273469241610400e-03
1.661230329589745772e-03
-5.848387909994093780e-04
-3.363766196441071547e-03
3.178670427654755118e-04
1.455342976275787520e-03
-1.042453088693064654e-03
8.258628053719268246e-04
-1.636635139954029702e-04
3.268606930584213059e-04
5.211363931220050830e-03
2.309096912780261163e-03
-4.480623674824757039e-05
1.353859441932120898e-03
-5.321107716983979399e-03
-6.595047619314022523e-03
5.068641493895531275e-04
1.577883573164314598e-03
3.255416821623322889e-03
3.858834921175388795e-03
-5.196586972988758574e-04
-1.155679985999864606e-04
1.019051204588428215e-03
1.335434625330617076e-03
2.532586599218659799e-03
1.175186239940454597e-03
6.399981864372626759e-04
-2.623258835222107895e-03
-4.988100408134332406e-03
4.663829925918912701e-04
1.396018450175249897e-03
-1.374009494806988823e-03
-1.544054655620893945e-03
-3.667328601676027658e-03
-1.589586600053786210e-03
1.162541593107352519e-03
-2.229102615622090364e-03
-6.542933917908994382e-04
3.232705145857730188e-03
1.800177432475224279e-03
1.591018636308709749e-03
7.848050202784177982e-04
-1.525876458969026859e-03
-2.152032110148274167e-05
2.106448551658117972e-03
2.796726484962022610e-03
6.151513514075323923e-04
-2.391910278183936086e-03
-3.202450497972057818e-04
6.258377936716580901e-04
-3.061654920567810807e-03
-6.123258380639058814e-03
-5.284988984501791734e-03
-2.460104800912892714e-03
-6.071845292439067079e-03
-8.662277110125340615e-03
-2.128828862433432539e-03
1.044396586675143965e-03
-2.273070384148464422e-04
-1.199538700378316100e-03
1.585635824319326943e-03
1.179549811164388659e-02
1.316725802146482063e-02
4.730284000948561073e-03
4.804585706463328915e-03
8.709885166119717484e-03
6.648359728825046708e-03
1.990825635481805519e-03
-6.055568335229283457e-05
-1.374562932813907026e-03
-2.580303595606269103e-03
1.851312835396110284e-03
5.209738153693663915e-03
1.414282662717176054e-03
-3.274596141257371095e-03
-6.206913280152649010e-03
-5.628899192832546514e-03
-1.933756296779339835e-03
3.913966552846244321e-04
-5.227467884153056289e-04
6.493454912846557091e-04
5.735895215295553490e-03
3.031568088372794869e-03
-2.725068131687509616e-03
-5.948181599546813539e-03
-1.775981905325635032e-02
-2.094834270106606805e-02
-8.415790252572200383e-03
-2.578378470269745981e-03
1.091947414190368431e-03
5.492718798687881189e-03
4.369838414113565508e-03
4.130010057267656694e-03
2.119349908830886280e-04
-3.739232347989687733e-03
-2.570613620837171190e-04
2.938666077678789117e-03
7.528070079508153087e-03
1.058416836425375533e-02
5.831683551139366616e-03
4.664070582032715621e-03
6.487426273199057257e-03
1.307814904368549691e-03
-2.040703677233370126e-03
1.989631344040416333e-03
3.558850973606157621e-03
1.485591028178752382e-03
-1.176695731121738084e-04
-3.746607162882802620e-03
-4.758224339241434557e-03
-1.245264555790323753e-03
-1.579094141158646908e-03
-3.018739153812296117e-03
-1.719499026333534079e-03
-1.779821887240852409e-03
-3.570527469270621049e-03
-4.717762140393239045e-03
5.003938342261979050e-04
7.735655112517712297e-03
5.016206063235741780e-03
-1.252468657740043491e-03
-2.647722647630950527e-03
-1.876711886431655383e-03
-2.642851302598005670e-04
1.049323729856234703e-03
2.003851101829470273e-03
1.601227584711172047e-03
6.275033373136089691e-04
1.615636022006240301e-03
-6.529518794235580946e-04
-4.471231446901962475e-03
-4.390791205363858522e-03
-4.333965263734304747e-03
-3.010689044918050603e-03
-7.159702585752567103e-04
-2.104444902405349684e-03
-1.262045148984116110e-03
1.803777644507037481e-03
8.564516240299272767e-04
3.123178416981782328e-03
8.020572703290753877e-03
4.455695006589920418e-03
-3.368933074825199701e-04
-2.080576686188069253e-03
-4.753787840159085301e-03
1.570581174766976212e-03
8.932619634770837605e-03
2.128268412210118036e-03
-3.307575768808060281e-03
7.976339656836061711e-04
1.939057640877345440e-03
-1.530012016892259158e-03
-3.281297659098347374e-03
-4.534453658150674506e-03
-7.722261258867306292e-03
-7.446810521183695047e-03
-1.854948104279467583e-03
4.485968505487069637e-03
6.007946599825455918e-03
1.202790524671548634e-03
-9.173180169368163987e-04
2.395218561573848794e-03
3.647791147870572178e-03
-5.957783755644286642e-04
-3.332383101474697094e-03
2.213283322635471208e-03
3.386215686371046515e-03
4.145521738949256379e-04
3.105492679806611672e-03
-1.928296084756016575e-04
-3.084382260723458110e-03
5.138471352310106360e-04
3.070351676578039713e-04
6.467436759791789615e-04
-3.010650979178519648e-03
-6.468249776001707904e-03
-7.057958336846242116e-04
2.047510117729028998e-03
3.809323826660944001e-03
3.151852011682748644e-03
-1.359555034661353353e-03
7.751218592935342575e-04
1.104650403733786518e-04
-1.415275238737701610e-03
1.768279995127842964e-03
3.235700362832110051e-03
6.094623210605806633e-03
2.143565593051601371e-03
-4.725567992679459428e-03
-2.807993371074689586e-03
-2.176405943975213281e-03
-1.300967502694464276e-03
-3.545049583855174914e-04
-4.456957984953584945e-03
-5.851665539557479243e-03
-4.738103557717737897e-03
-1.559425900373897318e-03
1.147397080293478767e-03
1.322858034796685605e-03
5.382327821725807308e-03
6.988496540280056228e-03
3.493276709329929449e-03
9.338765554203128658e-04
-2.173989945614676275e-04
1.440075492526980867e-03
1.159792974729645940e-03
-1.959251690894333459e-03
-4.148359369174357651e-03
-5.744676229518314720e-03
-1.742534164555260053e-03
1.737603855559567527e-03
1.094833632400409734e-03
6.506208023170687027e-03
8.476981346993548230e-03
3.029156561079889443e-03
2.756537781450168340e-03
3.667930379930922895e-03
1.243739889651100834e-03
1.976477702407063533e-04
-2.144850874423567637e-03
-5.957425395002267574e-03
-7.747280310047386688e-03
-1.049127074099880270e-02
-1.077007410632086284e-02
-4.917996156899533296e-03
-1.403500917181094761e-03
-2.815817914810477777e-03
-4.324406402648394050e-03
-1.439239013661890772e-03
5.292696332572864593e-03
8.556863355900426807e-03
1.060582551719106877e-02
1.356419534257739291e-02
1.400153361311256076e-02
1.368863028625356623e-02
8.513358602809096426e-03
3.659348563934357096e-04
-2.870933589509944758e-03
-6.410999450793911439e-03
-1.201718148430308900e-02
-1.343559825263336040e-02
-1.556776596227981563e-02
-2.554143025657068175e-02
-2.868952953770444875e-02
-1.857292710016266238e-02
-1.109727381662535713e-02
-4.283491284639744448e-03
2.815820600512136240e-03
7.782566162019826685e-03
2.004832295299289677e-02
2.994726824701652093e-02
3.298493055107357130e-02
3.583374203863442381e-02
3.515273433026617350e-02
2.953418195365735410e-02
1.906015450980008685e-02
1.085467206927504327e-02
2.153767366467537747e-03
-7.396497509179507726e-03
-1.173332889373085441e-02
-2.436697905658975760e-02
-3.402634238357452739e-02
-3.658774636103979960e-02
-3.891521525370220114e-02
-2.471917435902628093e-02
-1.448640416812339154e-02
-4.408540767812774153e-03
1.152791320569569386e-02
1.504547056347822417e-02
4.134578440532579724e-02
3.492731492848314551e-02
