-2.491843533729970472e-03
-4.360059596036206832e-03
-1.665078880539884454e-03
-3.524265593742932808e-03
-4.409392578388638892e-03
-2.817387515080484964e-03
-9.439982409138833897e-04
-2.201027751301155985e-04
6.915419732420074366e-04
5.359356708567586565e-03
7.055344840695017793e-03
5.016124624940640313e-03
5.550684520968733604e-03
2.304443334765306391e-03
-3.202159034496846347e-03
-5.720126193134746333e-04
1.732193998891255228e-03
-4.606250977388427238e-03
-7.392060303429185200e-03
-3.777961107658683870e-03
-3.857323457137877640e-03
-2.636446795431569325e-03
1.017814455643548414e-03
-8.285937650063072979e-04
-2.783761735177556033e-04
2.940992845268897756e-03
1.893644129096438717e-03
3.050912185294268886e-03
2.651524657478456816e-03
5.482031568581747063e-04
4.948611685967658005e-03
3.052554977199373794e-03
-2.673782681330734434e-03
2.045350134995099333e-03
1.008786903817053982e-03
-4.928987821677451031e-03
1.402281103193636375e-03
4.154988455530725204e-03
-1.153173195012998980e-03
1.107520162168620405e-03
2.522239543286131699e-03
-3.135779360595294073e-03
-4.546511677406433506e-03
-6.308135818793948800e-05
1.225639325901775123e-03
-3.353701388418821143e-03
-3.911914733026204682e-03
-2.316389499754221049e-04
-1.236371327318292043e-03
-1.284862533205722527e-03
2.484069496480792558e-04
-1.269055631138626657e-03
1.077601149425955331e-04
1.711490232536306590e-03
6.297960579753256703e-04
1.708037940313561097e-03
4.374571486557178937e-03
4.976187028090196807e-03
1.668435644515470413e-04
-3.289178222494559909e-03
-1.568469008713219669e-03
-1.840889278057371466e-03
-1.632383698030423881e-03
-1.882467747553131458e-03
-2.259177417969066275e-03
2.268214320050690545e-03
7.798042464266754825e-06
-5.918775651024680597e-03
-2.428185074260943987e-03
2.578556009805596082e-03
4.417610148529779387e-03
4.144462267866560329e-03
2.914523735715321591e-03
2.881255127827385496e-03
-1.370571865367205581e-04
-2.534152268343574377e-03
6.095920463722036579e-04
2.340247751451842752e-03
8.081968104324420334e-04
1.369076334613246503e-03
8.456176924210215664e-04
-4.707928956813007410e-03
-5.398168105341231461e-03
8.773935750410031707e-04
2.432361459005897598e-03
-2.304736091965373730e-04
-1.101062060290906039e-03
4.642260346478775950e-04
3.684303377990213665e-03
3.666783479249248207e-03
-1.499705109091646355e-03
-5.456953797224745918e-03
-3.493396684409371365e-03
5.258677344309339950e-04
7.799673506155977614e-04
-2.694257467689674564e-03
-4.514902890799504798e-03
-1.434391707317880620e-03
1.813541144460136022e-03
1.330658466375736612e-03
-3.334875576735920255e-04
4.616023238906929961e-04
1.998209470892643377e-03
1.000657155747883839e-03
2.081826079552455931e-03
2.520431636092567568e-03
-9.066217721975221040e-04
5.750207481903139373e-04
3.157963133550169797e-03
1.964232604687110063e-03
-3.627110720978841583e-05
-1.017802914686437646e-03
1.651461204208226835e-03
-9.752964775899095225e-04
-3.842834484095701726e-03
5.917090550796504854e-05
-2.663050101959168678e-03
-1.583642940783518051e-03
4.702982658689710931e-03
2.562648188310268690e-03
1.562888852624441010e-03
2.956991593014403818e-04
2.960315854360393668e-04
2.317989627988155301e-03
-3.546942598515007063e-03
-4.761518991759545322e-03
-1.094870971476883271e-03
1.645482186486921152e-03
5.302204551246989493e-03
1.226808423957639850e-03
-1.266007809296737247e-03
4.342904458505341628e-04
-2.411034143629013030e-03
-2.795637320376197048e-03
-2.869076230667792510e-03
-3.096070161722816808e-03
-1.778920242117526139e-03
-3.410916849599934190e-03
-3.117633064952155062e-03
-1.914846695196936038e-03
-1.958413622262618597e-03
-5.200740706134937118e-04
2.138300949274736171e-03
5.163069737671478754e-03
3.188681148187020448e-03
-3.779938823379588246e-05
1.777389147733774528e-03
3.945119387331740002e-03
5.708463180262987255e-03
5.077177617629984908e-03
2.003850289007255356e-03
2.257296670828670172e-03
2.216547324558037699e-03
-8.553547397785424711e-04
-1.984296087507855973e-03
-1.415392107679115967e-03
-1.858770023299629844e-03
-1.804837440402375971e-04
1.574061952323979737e-03
-7.127466092588716478e-04
-1.161670615667383891e-03
-2.215924734802525008e-03
-5.115795730594749000e-03
-9.380737642066986704e-04
1.825795682523534283e-03
-1.618584584827010555e-03
-4.225544781264091963e-03
-7.176188600802005380e-03
-4.638169556050477510e-03
2.481071131547186288e-04
-2.373687777927325181e-03
-2.399712689838861407e-03
2.076936667891099344e-03
4.762842696357977128e-03
5.406164344879823246e-03
2.811320473432105550e-03
2.983748125660319866e-03
3.858640268841834631e-03
1.507491605167825916e-03
4.926150380702142353e-03
7.561093083193919269e-03
1.357475584107689865e-03
4.963206883264893309e-05
8.784991595446533033e-03
9.626245217896251677e-03
3.259996541873255743e-05
-1.385894659091054448e-03
-1.087356671700755173e-02
-3.325471029488039076e-02
-2.383923863516920760e-02
1.900922926379306150e-03
4.087542090651387870e-03
5.716292430408042094e-03
9.985431640962829161e-03
3.566432194344981536e-03
5.456867082345017318e-04
2.593852500025714851e-04
5.966206403976391775e-04
3.965216795873994886e-03
1.608478983305860121e-03
-2.612476258799457853e-03
3.609950638117238853e-04
5.951411722806056528e-03
5.218196908624526779e-03
1.078153792843109188e-03
3.123855090834351143e-04
-1.031571277592911555e-03
1.077785286003013531e-03
6.031142093219161310e-03
8.393912408603629999e-04
-2.549875633013667584e-03
1.833346727001665269e-03
-9.572932610894671146e-04
-3.255771551998718188e-03
-1.624131580756449020e-03
-3.815161927634079866e-03
-2.388308844884333947e-03
6.485810027087744647e-04
-7.839851267697881985e-04
-3.612488914071545088e-03
-6.306525350931044098e-03
-6.268552469473756029e-03
-5.180312500737587096e-03
-2.914612063103088312e-03
2.168086715446794314e-03
5.243520543721030651e-03
7.098230024184549840e-03
7.080308885477898037e-03
6.381629722258210478e-03
7.611238795779956025e-03
2.695027770316387513e-03
-2.896126812794343718e-03
-2.535537992632840541e-03
-3.570733980591180717e-03
-3.729470423563117226e-03
-1.125233411204801769e-03
2.009275413117048419e-03
1.654730563034178398e-03
-2.325572419590674414e-03
-1.779564607374516647e-04
-1.015667104000709349e-03
-7.288838213761202924e-03
-3.800599669233223517e-03
2.942571049516181140e-04
1.500166315035301274e-03
3.765542680528489658e-03
-4.216267747673658008e-04
-2.176868951639274533e-03
8.257242136102544957e-04
1.421768709445995777e-03
1.209317102457877369e-03
-1.639969564677023692e-04
2.597901324278926744e-03
2.894561738167190489e-03
-3.428817035848275539e-03
-2.595324444760969138e-04
2.627896953531728627e-03
4.241844221943183815e-04
6.255001886038694288e-03
5.886414657207483282e-03
-1.253149358737975800e-04
1.059488867937407415e-03
-4.526121952899118690e-04
-4.877963875229056681e-03
-6.019103988719384617e-03
-3.234975890961212970e-03
1.104900223657599842e-03
1.835191457117387901e-03
3.719048578773097562e-03
4.013752783252198982e-03
-2.670748687955824818e-03
-5.191726767564084147e-03
-2.631970996039465719e-03
-3.753453566730251614e-03
-5.105286678225394795e-03
-2.584365572695669459e-03
-1.146000158745850116e-03
-2.296624260877751841e-03
-5.157591165123231926e-04
3.081485944285301554e-03
2.917377728641705210e-03
6.227979198606772870e-05
1.642564321405354266e-04
3.678028970081379662e-03
3.436619317810736193e-03
9.361456187174567066e-04
1.180405697413885145e-03
1.903323463712343268e-04
-1.683980183498278924e-04
2.007172064354311586e-03
2.488699295865312751e-03
8.425562715319540952e-04
-2.608507108753443677e-03
-3.159835041843775567e-03
-1.224248013413629954e-04
4.368016399893045066e-04
2.239263867948747613e-03
5.113043105245465396e-03
2.218253358742641821e-03
-1.458836914054495535e-03
-3.999388595568958396e-04
-3.086002982730499423e-04
-3.818553125965089192e-03
-2.487486604003906043e-03
3.414938315010678741e-03
3.429349686096647316e-03
1.576977272435128733e-03
2.416792109688281533e-03
-5.722549504319852974e-04
-3.874092571587383314e-03
-2.929721695063097070e-03
-3.015751029139104866e-03
-3.829318629891421966e-03
-1.973565416192841950e-03
-3.646680415152757674e-04
-1.197768862279139572e-04
1.831203166859465478e-03
2.669730917219424477e-03
-1.766903891808535500e-04
-1.925187943564525203e-03
-2.120857916892945113e-03
-8.872152241001379780e-04
1.735673767791399329e-03
6.622449202624326476e-04
-1.181344844866781757e-03
-8.321280790227176356e-04
-1.833416377446214405e-04
9.707830822591739925e-05
-1.949974105610088534e-03
-2.756168750056323612e-04
3.349184015800585508e-03
2.619459592658898717e-03
4.551771724689425251e-03
3.188989839718981562e-03
-1.890846248010287067e-03
-4.574743563197256556e-04
-1.794852050977713200e-04
-1.676997349421467404e-04
1.720056118969130526e-03
1.360782604944640005e-03
2.893368761600214646e-03
1.586078329112627439e-03
-9.395259669271553964e-04
-1.712391302390867511e-03
-3.427257567801421725e-03
-7.692624653073296083e-04
-2.456152304838028159e-03
-6.292326800097535096e-03
6.312015497437055986e-04
5.371155810048339023e-03
4.050393097745319006e-03
2.884014939058617173e-03
1.360562512140212456e-03
3.219156019712013849e-04
-2.716308126828951598e-03
-1.754889197147713447e-03
1.200498578343440993e-03
-1.207267269782460193e-03
8.970236009699786360e-05
-5.184602573106149737e-04
-5.295579120860862028e-03
-1.617895988437504859e-03
1.614951335671565083e-03
9.560652102183878108e-04
1.008018374504276830e-03
-3.238210921273032301e-03
-3.893877832712329661e-03
-2.532819055881535141e-04
6.270042721299767721e-04
3.953571369555490718e-03
3.522707980840258327e-03
-2.798154908672631676e-04
2.988142666391681041e-03
2.876701389624370699e-03
-2.942038325049110142e-03
-5.306381898401815386e-03
-3.642110815306927492e-03
1.039888963660635544e-03
8.701463544510272584e-04
-5.188266972769292390e-04
3.579090737331712228e-03
1.800262484633263381e-03
-1.345728760614160443e-03
2.653721171658054035e-03
5.990227969798282356e-03
5.309106320361122247e-03
1.178362290472437625e-03
-1.685374723447144972e-03
1.973733321956521261e-04
4.253754890857852113e-03
4.996659358693235353e-03
-3.076998234860925038e-03
-1.288048167733000550e-02
-1.780166729630596953e-02
-1.248700684849878527e-02
3.780349539524050558e-03
1.144820441771563294e-02
7.661326858239984709e-03
4.284469976538022272e-03
2.898289243212229943e-03
2.854262679416240921e-03
-3.054174344662559121e-03
-7.520742670484058430e-03
-1.469642852016327670e-03
1.174245489872136538e-03
-1.499228108660609609e-03
-2.194233519104471942e-03
-6.673118664187044358e-04
1.151424215488896325e-03
2.727689689991373654e-03
4.709469796308537320e-03
-5.098699512261948240e-06
-4.046517799875690331e-03
-6.594742535566891625e-04
-9.528356107940812950e-04
5.233122239256449062e-04
2.278788642294026032e-03
2.404482606813643653e-05
1.577207179790721982e-03
-8.384392827120395022e-04
-1.350853178335143043e-03
1.961523131755394094e-03
-3.208489435337811939e-03
-2.534146567914828587e-03
5.007562210565526944e-03
7.000118280082625981e-03
4.254112784982899860e-03
-1.258764493445837466e-03
8.476569570508026659e-04
4.268298747983485276e-03
-7.994251067644489906e-06
-8.223379706893438432e-05
-4.226167360998537128e-04
-2.593659471183637141e-03
-7.187678575212319858e-05
-2.110028842968304872e-03
-4.517259743610737253e-03
-1.646083875898773224e-03
-2.886974491286505452e-03
-3.251229714209268127e-03
1.685326173879212255e-03
1.864224842979282128e-03
-7.537024178618475286e-04
-2.317341520409965227e-03
-6.431237268887002312e-03
-5.747252742250389193e-03
-1.688961145152751472e-03
-2.973774224536826841e-03
-1.408352554336483918e-03
2.603759635934266813e-03
2.964382295498005186e-03
3.911884239832957334e-03
2.983291471085407123e-03
1.904109629031443870e-03
4.075174658143058265e-03
2.525125585761681807e-03
-7.307991204745660540e-04
3.206782571878704149e-04
3.067971803245531353e-03
4.547477748492977090e-03
4.264820644466300534e-03
3.108010445056925801e-03
3.300042638280802337e-03
2.706734604435298390e-03
-2.957579540891453265e-03
-6.220689508248907103e-03
-1.697188066214774197e-03
3.361559425670361230e-04
-1.468873327332827444e-04
1.453812463469978397e-03
-1.788501050446869621e-03
-5.350093208816423564e-03
-2.473308857538550169e-03
-3.313703515789797899e-04
-1.426219487461066792e-03
-3.919531831390017131e-03
-4.158399455355531182e-03
7.551300563134858996e-04
2.063939756030218342e-03
-5.001091214140109984e-04
-4.088475439831494845e-04
-1.767976736957811278e-03
-2.006056377661685763e-03
9.112735698385614159e-04
2.352270942573609497e-03
3.431894341278209255e-03
1.259848205991586246e-03
-5.328399534899343724e-04
2.727113740594091021e-03
8.472979528521153549e-04
-3.062840852018329420e-03
-4.367580396534237550e-04
3.729408330569050026e-03
3.787716237914793335e-03
-3.796929195113317532e-03
-6.775653853022769145e-03
1.911922972511708027e-03
2.798953775728637433e-03
-4.850060060247367646e-04
6.334023640918396737e-03
6.725013463473776890e-03
-1.159259764833501594e-03
-1.983284655844108277e-03
-8.664268088834598891e-04
-9.934003859862388167e-04
-1.149666788658547465e-03
-3.853833905930343848e-03
-1.434642958956778864e-03
1.808130538159771327e-03
-2.204581963675787768e-03
-1.490990307048078349e-03
2.768304757152144011e-03
9.234289804307576396e-04
-5.544866375224813968e-04
1.333148695105987672e-07
-5.627566528132184982e-04
1.229273514351218862e-03
3.441165082032084620e-03
3.110323982345447190e-04
-2.918429534925066644e-03
-1.552749829112471790e-03
-1.188426523521039693e-03
-1.563298628781460784e-03
-1.892581531677539185e-03
-1.693665022174558211e-03
2.174784525697297244e-03
1.382678233742937364e-03
-1.086034705575213968e-03
1.326040435049214219e-03
-1.116483816229457650e-03
-7.570142510746787068e-04
4.455818834729980728e-03
1.844625052996174634e-03
1.141478785659738273e-04
3.502477018496801355e-04
-2.566927276780352207e-03
-1.529032339185246126e-03
1.297665207298894993e-03
1.758517807194003068e-03
3.967119206784909145e-04
8.185609221148014772e-04
2.616297234435772945e-03
5.122266639867847828e-04
8.939336783594117961e-04
1.379134922463657069e-03
-2.811839820324138050e-03
-1.111236388416097934e-03
2.290127523273309215e-04
-1.896645438318340145e-03
1.553106918637199140e-03
2.013295040028185209e-03
-1.140921014522835444e-03
-1.123417123860428459e-03
-9.493165184880859777e-04
-2.124710118289772649e-03
-4.604755112079226415e-03
-2.643580933453111657e-03
2.441790363551302884e-03
2.123063688436407394e-03
4.916321227099750869e-04
5.673801484098499803e-04
1.237642415970468309e-03
9.145418356164052237e-04
-9.233458005696293640e-04
1.504021808053803474e-03
3.755095083209667849e-03
-4.523180788658936352e-04
-4.526787568876743453e-03
-4.355164913734756171e-03
-2.782518008512308797e-03
-7.801750414104607033e-04
1.632913954247261013e-03
-8.268684102712138377e-04
-4.087141122608111028e-03
-1.388197907121768845e-03
-3.074882733145729266e-04
1.913054165277144154e-03
5.902812225720460021e-03
3.077009796205302985e-03
7.582192082327288835e-04
4.015358425293703371e-04
-1.990239476661971921e-04
1.290812498262171011e-03
3.450175809881726990e-03
8.001965332073750214e-03
7.672135330571915393e-03
2.382079063066454457e-03
-1.967412173509239942e-03
-5.422544089686149628e-03
5.907360339044788510e-04
5.179030518178135215e-03
1.018951758980233841e-03
-2.269853230592675224e-03
-5.833792090857389291e-03
1.054619111370197915e-03
6.602589165198851848e-03
6.833887902640541166e-04
3.138503282158318581e-04
-1.666015921382968390e-02
-3.345123072500441608e-02
-1.257423401745046652e-02
3.372679811730544715e-03
1.103517330646090625e-03
4.023524867197757725e-03
3.706872510712948005e-03
2.846501736940440074e-03
5.395191708070319093e-03
4.693382786045668074e-03
3.026797664773204274e-03
3.912662198279265313e-03
3.288619840853206078e-03
-1.433619825188805650e-03
3.317890762372691332e-04
5.965477324345706822e-03
5.341994581072486217e-03
4.955377019936399278e-03
4.374747854153543912e-03
2.057272082077816078e-03
2.445259348351281822e-03
4.243017422212782067e-03
5.387605199555227549e-03
8.698640329802482304e-04
-4.711296965700930914e-03
-4.012266338027587267e-03
-3.963383325107296996e-03
-3.654285063396060709e-03
-2.567529659707967760e-03
-6.147451806334094070e-03
-6.226147874132793511e-03
-3.777071850884659941e-03
-5.013597397370148784e-03
-8.304402546341616270e-04
4.237491450487361304e-03
1.197143211833485987e-03
-2.209556512467494328e-03
-3.893239262789800932e-03
-2.751643640006853301e-03
5.601218435041261517e-04
-1.337001114728890655e-03
-2.036668369968118800e-03
9.669239317256625096e-04
1.334238128214790525e-03
2.559844561068222186e-03
5.729155631405003467e-03
8.015979420698930019e-03
4.874090493123830158e-03
8.372798805007429729e-04
5.796581221629119873e-03
4.387193908929623576e-03
-5.113396602765166860e-03
-2.722114039195707748e-03
6.628018408185574377e-04
-1.660330071611617903e-03
4.091820858906633154e-05
-9.799137624366971184e-04
-2.510495317937304263e-03
-7.758581508604017914e-04
-2.460627217198905516e-03
-3.695427896332462506e-03
-2.381388068158489611e-03
2.454620270716009311e-04
1.314072419055032758e-03
-5.128073525814000550e-04
2.532928943387654282e-03
1.662983980360932014e-03
-4.770446916548053834e-03
-7.270436619765777457e-04
1.588413242518798988e-03
-2.215004416223092468e-03
-2.444351964112373042e-04
3.084670847811858555e-04
-7.118059465904359511e-04
-1.271397018538060692e-03
-3.287461148250950022e-04
3.925666459921805899e-03
2.347849060827432877e-03
-2.087153488199212947e-04
-3.206190580865353793e-04
-8.060394316248180660e-04
1.258870247507895947e-03
-2.440372711589996134e-04
9.614569516527326012e-04
4.626737443468833394e-03
9.461902336094880558e-04
1.409925575388223202e-03
2.917453261378016426e-03
-1.056926371376795768e-03
-5.128923949884746890e-03
-8.317510527713834617e-03
-3.222102738513290578e-03
1.983349489390955414e-03
7.704653639249211400e-04
1.550606672378108649e-03
4.845094196439285396e-04
2.458076238702353467e-03
4.700988836097028112e-03
-1.904434238184957639e-03
-4.180773590575634011e-03
-1.481310133604145981e-03
3.251590248303756411e-03
9.280228102199595749e-03
3.774240437766494816e-03
-2.318348553182341971e-03
1.351516407866018175e-03
-7.895423787799946038e-05
-4.343697291077123004e-03
-4.109049389125657079e-03
-5.453877407517327379e-03
-4.303519948631658043e-03
-5.167343615792900852e-04
-5.865704216148729137e-04
1.483587403509793691e-03
2.759302805248724406e-03
-7.936269502669105911e-04
-2.023119565399358714e-03
-2.592272408652255330e-03
-8.699361611652752175e-04
1.353629270449511384e-03
-8.418998702307155160e-04
-5.755944066982626511e-04
-1.432370185719926067e-03
-1.552962066291128582e-03
2.852558986261778673e-03
1.527180005229734558e-03
4.740360445159005139e-04
1.640531910230010482e-03
7.731540845124330397e-04
2.219927906661139840e-03
2.481309938315576398e-03
4.957751377406384614e-03
6.293568362485438619e-03
3.165676093719747754e-04
-7.141073859923207463e-04
2.021722674529990559e-03
1.225154503506564133e-03
-2.233298580154076136e-03
-4.116104973402812985e-03
-9.390228743572058556e-04
-3.755833658969276369e-04
1.242045011803349095e-03
2.868441219993055676e-03
-3.316543242538165254e-03
-2.345588929733565756e-03
1.647552877439920679e-03
-1.799963645001760246e-03
-2.200635943438880235e-03
-2.077481269248322802e-03
-2.537818508114785335e-03
-8.877937335403975885e-04
1.552849190003734994e-03
4.586323728303223074e-03
1.317549385728811195e-03
-3.145153652266384926e-03
-2.904108842640662404e-03
-2.381791665844110607e-03
-1.318961277763401043e-03
-2.538611034679034463e-03
-3.400401034315173043e-03
-1.469571243895824789e-03
-1.119525016271161839e-03
7.866639502683703397e-04
3.241854173985145478e-03
2.345636963477947933e-03
-4.739871966224213479e-04
-2.430271986891288053e-04
3.351535877350804958e-03
3.323188487656293742e-03
3.613536169164524928e-03
3.382031024414735177e-03
-1.377141079021479159e-03
-1.568229840695113003e-05
1.910728692458033180e-03
-3.495436626499785412e-03
-5.848921716525102253e-03
-3.730570708675901709e-03
-1.106905731237855248e-03
1.948520549457517055e-03
3.139242377442192939e-03
1.072750374669011447e-03
-6.122827694855882208e-04
-6.296507895109952537e-04
2.567702502343710081e-04
4.851495744255277139e-03
6.097562127113174101e-03
1.450061591289892367e-03
-4.478789658270340419e-04
-1.141561274878856360e-03
-7.050796807213647504e-04
4.996264619194191407e-04
1.417991353051432446e-03
3.603070775344548431e-03
5.512723019431411340e-05
-3.570268005583427523e-03
-2.770710798885743596e-03
-2.110016596651338727e-03
1.827705514392506669e-03
-2.213374378207681097e-04
-4.145524666529748319e-03
3.750364093021089484e-03
9.950179500431559007e-03
6.937716355690208211e-03
1.445688383971693077e-03
-9.876305544502311448e-05
-8.924273405456531125e-03
-2.861688429750390908e-02
-2.159708566045943218e-02
2.611460138364215394e-03
3.569441833169614050e-03
1.349553507638372716e-04
2.996523447745846544e-03
2.405805271815536234e-03
5.159694493638249460e-03
7.008949411995395694e-03
7.768866513093167919e-03
7.376929263607157755e-03
-1.204504336266659171e-03
-3.833450080986066343e-03
1.350603703562687410e-03
-1.369676341449579775e-03
-1.965726652998283589e-03
2.795216064346965363e-03
-1.861878079642823231e-04
-1.524387442671466635e-03
1.065939662483994001e-03
4.540606942354125921e-04
1.731517755762049856e-03
1.012747936528911319e-03
5.782560155682561851e-04
1.783731920096989039e-03
-1.046278365851147215e-03
1.431082116588129529e-03
2.992511666058972515e-03
-1.960904572135339073e-04
1.383660220164253246e-03
-2.568186214125638741e-03
-6.376557267667899709e-03
-1.712026061630028727e-03
-5.550821237411957118e-04
3.814511426765095949e-05
1.411276931539306783e-03
2.971680644962639050e-04
-4.340929746808068934e-05
-1.538711457793930375e-04
1.741088205406321086e-03
2.769814376221012026e-03
7.452036977276736522e-04
1.187875597564730899e-03
4.023180980997950740e-03
2.561079912423425402e-03
-4.231414061055145497e-03
-3.715600295099677659e-03
2.145572893696479772e-03
-1.068515355717947012e-04
-2.746116237810722772e-03
-1.409949101278628464e-03
-1.529457859685120309e-03
-3.788868978586719827e-03
-6.526066633277045025e-03
-2.538086330870714235e-03
4.138906515234297423e-03
4.394192996423174763e-03
2.338769094045956877e-03
1.852649534272734610e-03
2.216937215083715582e-03
1.034633781771339151e-03
-3.579070145925771743e-04
-2.911806220258003207e-04
-1.911220913377215374e-03
-2.368289414630098903e-03
-2.356664817743919088e-03
-6.370541360696781868e-03
-9.355230370256512051e-03
-9.332201265831103695e-03
-1.024808933399345284e-02
-1.119455259570634013e-02
-7.588456472775919476e-03
1.474168859784781658e-03
1.007963958611135871e-02
9.469198403600158354e-03
1.571013434532622568e-03
2.512407741642549812e-03
1.290023567636692202e-02
1.752108889846856407e-02
1.331255029382069632e-02
6.065181004314175971e-03
7.062123083349366483e-03
1.457701228357518447e-02
1.098929277680799760e-02
4.437299135468029607e-03
6.729906578766636088e-03
5.708949460498681343e-03
8.314546872983847887e-04
-1.240476770291023363e-03
-4.097944705320122685e-03
-5.209297364041138266e-03
-2.345748474799985283e-03
-3.069815960046009314e-03
-3.314537046512107312e-03
1.573298499015284490e-03
-8.941204611144764475e-03
-3.348419059054897479e-02
-3.992048538958460624e-02
-3.341502733121190505e-02
-2.929435893895528109e-02
-1.471695337182516231e-02
2.161298348913027675e-03
1.471389080234455048e-02
3.033295275580965081e-02
2.050890573693588820e-02
-9.629593976806159056e-03
-9.537284979970689705e-03
1.688412320426358262e-02
3.911089601286231454e-02
3.791389739011795379e-02
1.484504650690388408e-02
1.298403508922052994e-03
-2.521186493568242613e-03
-4.707736434961369565e-03
2.884490091307766440e-03
5.460441349339373307e-03
-1.140709063458276995e-03
-7.675817452081372914e-03
-8.416937556236762583e-03
-7.164341130076105554e-03
-1.497710703170931738e-02
-1.589687866519126982e-02
-9.715289481356441034e-03
-6.825232056223233187e-03
3.980985532545548494e-04
1.190819936338158346e-03
2.215681801912426814e-03
1.167686940175904908e-02
2.275514678189208620e-02
2.804674551717954364e-02
-4.203936981675919504e-03
-4.627008781535885823e-02
-4.492158670918620922e-02
-2.058880172467078551e-02
1.635605994994016694e-03
1.885950792954364796e-02
3.759089843715079232e-02
4.031739844831076086e-02
1.460533629068581050e-02
1.402666007184225115e-03
-1.040154845108194961e-02
-3.431949799465897066e-02
-3.500358881691121443e-02
-1.743165698265426028e-02
6.556107173102323528e-03
4.933775799493731254e-03
-2.417450465788530470e-02
-2.215953386890336801e-02
-6.775596450137456005e-03
-1.650409725833214963e-03
1.344309035563112133e-02
4.085160026413715839e-02
7.600096807870904136e-02
8.309096797758083741e-02
5.151297984318961576e-02
1.418047176334977927e-02
-5.005397295873903474e-03
1.581751162589334521e-03
2.801603553397182846e-03
-8.887298451676784589e-03
-1.060394832058124577e-02
-7.187803019418827211e-03
-1.205077713848454538e-02
-2.668399011006177338e-02
-2.931200393663849560e-02
-3.063372851266370558e-02
-4.481789272425137222e-02
-4.847200873773512692e-02
-5.667643674277726695e-02
-5.829187437317439463e-02
-3.465620500175223967e-02
-3.578451785949745417e-02
-5.672138537211943859e-02
-2.762908599197146445e-02
4.342596772467754995e-02
7.837277811166068475e-02
8.906471414983652135e-02
9.514209939745883748e-02
4.236402285085884983e-02
-5.809643312100061692e-03
5.772453543643873280e-03
3.256256084982137727e-02
7.209486421166776127e-02
9.092932147783931718e-02
9.149866672886836083e-02
7.964297408728182592e-02
5.588487881725376361e-03
-4.156750777812409647e-02
-4.857652980396061360e-02
-1.472518935561996090e-01
-2.673709235274888685e-01
-2.611103895597001179e-01
-1.579837833489247667e-01
-3.900284148151710734e-02
7.900843494302785264e-02
1.501591841818498141e-01
1.416092673651313250e-01
9.579584431418605717e-02
2.304420180844822790e-03
-7.445078983091413249e-02
-1.967264080043078581e-02
5.130328745935232998e-02
5.111998570062299685e-02
6.308303549484463313e-02
6.476297014174621502e-02
1.890565005924131972e-02
3.141633862864022866e-03
3.132228433753398572e-02
2.638308279589582361e-02
6.130786839152508813e-03
5.389742359256678023e-02
1.153331610856538764e-01
1.054323634256034703e-01
9.380288940064689107e-02
1.109788981435175792e-01
8.042383944928115092e-02
5.381418963484835283e-02
4.271196543468949031e-02
-1.357432107704962254e-01
-4.374557395623181466e-01
-5.715465406227940859e-01
-4.621066376453424884e-01
-2.460448778524112479e-01
1.798704643252468927e-02
3.177003369685135747e-01
4.550693305964068625e-01
2.938336677039942169e-01
7.631068386974189377e-02
2.544387085286411998e-03
2.290372322467348117e-03
2.063443154768884215e-03
-5.856705809526787515e-02
-1.452029778455746489e-01
-1.198581995325263549e-01
-9.746332764800694909e-03
8.666031791583803101e-02
1.466395967519741050e-01
9.501837381284072848e-02
-7.354778776387863037e-02
-2.175325041028016437e-01
-2.789009605186648644e-01
-1.899858752608038492e-01
1.278353559719142274e-01
4.128478853017898409e-01
4.054111265972224487e-01
2.540904471078060944e-01
1.092276328155318693e-01
-5.526705852845558570e-02
-2.473386392662055289e-01
-3.800089378275934848e-01
-3.427130951976899431e-01
-2.145956020352648985e-01
-5.539118889353609326e-02
1.844084018501802869e-01
2.987255729292378481e-01
2.164099779666668055e-01
2.011428970383512815e-01
2.282757296085292931e-01
1.482279984730555389e-01
4.309346911166259120e-02
-8.234219046022166200e-03
-2.749151925431851315e-02
-1.164910899073247907e-01
-2.241879794328490716e-01
-1.873663205645344498e-01
-1.142377688681497916e-01
-3.732814767814429668e-02
1.338827434813713579e-01
1.684894291082282280e-01
1.771876365875733493e-03
-1.059034326900769457e-01
-1.359088156069874487e-01
-1.388789458287400524e-01
-6.934429843653538983e-02
-2.492604685724653449e-02
5.816886334700816820e-03
1.099933209200003176e-01
6.667229343314118317e-02
-1.778957330314254182e-01
-3.167076567288782396e-01
-2.833888286072211438e-01
-1.573860457006890090e-01
8.893475190943089109e-03
1.189669118097666095e-01
2.325079860869019577e-01
2.957575114662235882e-01
1.809080637810231706e-01
6.111002501313121671e-02
4.681370570470719250e-02
9.053151575431103715e-02
1.201485761075481024e-01
5.802478447611767592e-02
3.848736270222737066e-02
7.204337193863498412e-02
1.987214825724558515e-02
3.481096401628222536e-02
1.271568487825724403e-01
8.468932305921542114e-02
-1.621607509300695277e-02
-4.999135016029208900e-02
-5.902632743233446333e-02
-5.985620189721164303e-02
-5.077916370758060044e-02
-4.979116701951524088e-02
-7.038369601110949780e-02
-1.180278470852327288e-01
-1.591536249958349081e-01
-1.285795875821234557e-01
-2.052105000596766982e-02
5.159975145856515039e-02
-3.793392866801988117e-02
-2.244097768749473421e-01
-2.657335515209734988e-01
-9.846645027507773540e-02
9.001625739396058867e-02
1.903640663183985560e-01
1.728265971659458389e-01
8.138237822535369925e-02
7.843582932364601135e-02
1.234634542688717168e-01
8.521770814443296871e-02
3.339483577491020316e-02
1.790079294233933374e-02
1.311152052409263538e-02
2.520733094024501554e-03
-1.302330087301517558e-02
1.142861015215618269e-03
1.477729624113815338e-02
1.304668722954808839e-02
1.867300279437068486e-02
9.886162771640583449e-03
1.365877745841275089e-02
1.702717843650577642e-03
-8.501982508742166045e-02
-1.882711722641531304e-01
-2.374222063096064483e-01
-1.291048942896443064e-01
9.854203621234926269e-02
1.882775619191089655e-01
1.164781350336443477e-01
4.265304245812293754e-02
1.723201465381852789e-03
-9.977550187640459988e-04
1.514051928283934034e-02
9.481471175199521553e-03
-6.602422610106743923e-03
-1.175060772733456382e-02
2.015563616651684740e-03
1.882773887476588831e-02
2.434539404583846434e-02
2.623375885166130683e-02
2.161718568322200384e-02
1.160231249935030941e-02
2.351785753045944512e-03
-1.720369485374004942e-02
-3.921007428416611179e-02
-2.634508091860708959e-02
4.787683230552206709e-04
-1.608822502673855348e-02
-4.845571471774540867e-02
-4.299698127269491882e-02
-8.010632369957516180e-03
1.417154063591156109e-02
-5.843339467576844749e-05
-1.914001906990736926e-02
-1.941735983609784236e-02
-9.750149100086856827e-03
6.441478887567209446e-03
1.621939426146416091e-02
2.138515005641921166e-02
2.826881883905831006e-02
2.779702577685697409e-02
2.711242095284120343e-02
2.489119988682253481e-02
1.633063415108183120e-02
8.727976057318093117e-03
1.211930310524477177e-03
-5.839444787257880472e-03
-1.045529320105726377e-02
-1.320858148394792042e-02
-1.689931826178142291e-02
-1.719131969479537059e-02
-1.247245420025262438e-02
-1.396368145045571475e-02
-1.323743169415785882e-02
-8.760508867629414678e-03
-7.238451055471177911e-03
9.271635112973570462e-04
4.793467473150512734e-03
5.007757501475526736e-03
9.046241302518496369e-03
6.035911945975983017e-03
8.639363215058501119e-03
1.321835048342053821e-02
7.974466577809839404e-03
6.534283969574724432e-03
5.340096591001374481e-03
2.397235995495036395e-03
-5.369620523779319475e-04
-4.995144180625895290e-03
-3.566243974933351255e-03
-1.895971246151228074e-03
-1.794809343184196413e-03
-2.801956529100904127e-03
-4.587842451303377443e-03
2.075467995273943666e-03
4.850707025435295472e-03
3.309208926351893312e-03
5.677599994582390591e-03
-2.968092016187394606e-03
-1.125467419323829786e-02
-9.042793911447747496e-03
-7.124680110472621057e-03
-9.089439920549365190e-04
4.434651044427474244e-03
3.891700730491087865e-03
2.112021097267816581e-03
-1.491397485579908956e-03
-1.427807520236548189e-03
-1.632246133525314894e-03
-4.347420059660936191e-03
-6.500303433180108564e-04
3.795144308772136193e-03
3.949860405848570379e-03
3.212848184445825719e-03
2.929393738653646249e-03
3.899157285273546422e-03
2.770107890893904606e-03
-1.254668704218145836e-03
-4.916087195520014649e-03
-5.604422915370279971e-03
-2.681440866965205568e-03
-2.218054890739093715e-03
-4.734619640978591192e-03
-1.646313956918949621e-03
4.056670442288131534e-03
4.873816061770080803e-03
5.257725564755483250e-03
6.341818857278587462e-03
4.330466940494288181e-03
1.742357446162036937e-03
-6.189683583186873436e-04
-2.718374482761660906e-03
-3.648162712347517277e-03
-3.501897473305046107e-03
-1.718786106217623164e-03
8.183426388393374475e-04
3.775358586263531570e-03
2.809497011885436421e-03
2.964111117437138424e-04
3.047547001822183306e-03
2.691736568844189763e-03
4.303152892204019841e-04
8.721400584007111146e-05
-2.356320263575158950e-03
-9.358181543247480125e-04
-1.165616376099896630e-03
-2.063942875090890409e-03
1.660292924722617768e-03
6.209340491231197037e-04
1.253316686817217227e-03
-4.476022253896741704e-04
-1.559767148515798932e-03
4.110220214582791139e-03
-1.560976357614694311e-02
-3.295014783384347945e-02
-1.099940648603228883e-02
4.384439568265929496e-03
5.717086271351078455e-03
9.639714371542536936e-03
5.935960586394722384e-03
6.679110457400330540e-03
7.604733063627292476e-03
-1.534222545085075183e-03
-2.790213619475459365e-03
3.294617466571678980e-03
1.959562529807566938e-03
-1.860846835914721812e-04
4.154238059733915932e-03
5.244800697287384933e-03
3.543355808073250443e-03
3.483398491000830668e-03
-6.417251084491978636e-05
-1.819141256810102945e-03
-5.251765186891596852e-04
5.376369268440788895e-04
2.563034445902334212e-03
1.879671279570118434e-03
3.037729677065477765e-03
3.675526742877531332e-03
-1.907557300061797504e-03
-3.662588061960749940e-03
-5.593531808247144237e-03
-1.043605798668935207e-02
-6.757078441319924744e-03
-1.312460679095386580e-03
-2.660359841734168205e-03
-4.650877577477397808e-03
-2.798329161827329322e-03
3.653235107790713540e-04
1.680392265709065164e-03
2.843525933291653554e-03
4.855348187445754880e-03
6.528980801351059494e-03
6.828155043108449784e-03
3.461848019293461802e-03
-1.098244134720215408e-03
-2.336197981892542026e-03
-1.034432754891408124e-03
3.273722033139192956e-03
7.020239974159838033e-03
9.999599682248073215e-04
-6.587894880256127059e-03
-5.786497489657088135e-03
-4.505712736384305354e-03
-2.158479104151710733e-03
-9.752877623179778688e-04
-6.600715665817888725e-03
-4.857137707853167660e-03
1.992210374526022943e-03
3.769657537374169944e-03
5.163887668966507007e-03
1.447491676324909457e-03
-1.443900486767734541e-03
8.323922276175045381e-04
-3.334289646394390967e-03
-4.579851951529403248e-03
8.028252300622959947e-04
1.936432786858520482e-03
2.258420501566293839e-03
3.266340104141890813e-03
2.939442117857568766e-03
9.061257446116352922e-04
-1.444781366097524925e-03
4.434281377928985077e-04
2.053910884602508369e-03
3.414668318853708237e-03
6.292091045324308199e-03
1.989487338301054124e-03
-3.346972120388033885e-03
-2.124151158724049649e-04
2.744946136911315029e-03
-1.646673219418936092e-05
-2.308747304696160546e-03
-1.392089741757475104e-03
-1.852085751350809753e-03
-9.091493523281853366e-04
9.669131533377151554e-04
-3.278247990341130475e-03
-2.284124246349285813e-03
3.072422168470693993e-03
-1.990179635890491211e-03
-4.305573133390252008e-03
3.561921011812202160e-04
1.485920815150699927e-03
3.249768662415757764e-03
2.048853156957954665e-03
-1.063716756282691344e-03
1.410194182634587822e-03
1.588755578929284791e-03
-3.428110239373139854e-04
-1.239835284992969440e-03
-3.146600231534182283e-03
-9.956332463319347761e-04
1.694198699796480370e-03
7.997840115544116685e-05
-6.531515444450845375e-04
-1.611635980209957894e-05
3.657945101545113692e-04
-5.158236065205606610e-04
-2.593171847137882863e-03
-2.305205795170822258e-04
1.861022434684009427e-03
-2.155942593993487744e-03
-2.294709996782034328e-03
2.295539185646518210e-04
-1.446163683148118462e-03
-3.325585624460679172e-03
-5.125426826737113431e-03
-1.747216169792164707e-03
3.819693125583326163e-03
8.327178716729205466e-04
5.870294966407805636e-04
5.204674097203932683e-03
4.511732913020963590e-03
3.939246980856133708e-03
4.762033202140481154e-03
8.270546054250111495e-04
-7.172407504265613208e-03
-9.274151175361736860e-03
-4.055382988195606678e-03
-2.749389692748247741e-03
-2.360565069063356829e-03
6.594542966204456995e-05
-4.208213908938434320e-04
1.009161827466362963e-03
3.178314864550434073e-03
2.933182145109450821e-03
6.510561269575428599e-03
9.420755013764357116e-03
5.124796923900731133e-03
3.598043104883784805e-03
4.185296807603377210e-03
9.619931621141891145e-04
2.012200695864919085e-03
4.986225867072000733e-04
-2.604151922945400089e-03
3.526349310029713293e-04
-9.735824047846352441e-04
1.442580582403847102e-03
2.025631233426210612e-03
-6.760174488432605213e-04
7.668630207023549410e-03
2.365021609119039199e-03
-3.309466878236531299e-03
-4.491305751607716618e-04
-3.096555562639765041e-03
1.165196649282755105e-02
-3.527864893543822614e-03
-2.584946792486832873e-02
9.785081110398664329e-04
-2.997029420613356657e-02
-6.869544542263006370e-02
-1.068843795597560278e-02
2.531063129935784070e-02
1.415885770684240097e-02
1.296580217911584738e-02
8.506209554795775979e-03
8.727492068391127719e-03
8.721943450709106552e-03
5.192731258063996297e-03
1.957039690117204529e-03
8.748619969054016515e-04
9.589953249315183101e-03
6.002670819198206546e-03
-1.006176415866059590e-03
2.475542772416130036e-03
2.368241866736470018e-03
5.694072536657237421e-03
6.346777716106835783e-03
3.136499732645710650e-03
4.098656996247330292e-03
4.517277200534334028e-03
6.708897942888872139e-03
4.046143490147501888e-03
8.171418363007915998e-04
-9.147879177641773940e-04
-8.980815599880558053e-03
-1.113789096143530909e-02
-9.593169391593639808e-03
-8.442068736434662005e-03
-5.939722868546932003e-03
-7.397384954268046431e-03
-7.211216160085098283e-03
-6.191728678595777302e-03
-1.572483918891829551e-03
4.245005063945521233e-03
5.436223107437751197e-04
6.946567885317630900e-04
4.681759410091719878e-03
2.875374176280133705e-03
1.592150855467902321e-03
2.083230713238090268e-03
3.467110065449937380e-03
1.790533086025799950e-03
-1.005117160104024472e-03
9.362618827657269178e-04
2.444000160161910636e-03
3.841457455907148349e-04
-2.166646779409813536e-03
3.426759134878991147e-04
2.265202569895571720e-03
-1.560493489680801911e-04
1.299319220204860157e-03
1.808463670070889354e-03
8.978602136672271397e-04
-1.002185189985024295e-03
-3.809835957587741004e-03
2.540748210831512630e-03
4.445060725800785602e-03
-1.245023401699421768e-04
7.399279192326403427e-04
-2.639359896037486806e-03
-1.931315880725042013e-03
1.957992106315588690e-03
-4.627778840174878380e-03
-4.829764167321574410e-03
1.664344232865888791e-03
-8.251158962443275223e-04
-6.355788327480509960e-03
-6.232380417863125216e-03
-3.146017770527400649e-03
-2.964290015981062894e-03
-1.933026266054250477e-03
9.312363371391219578e-04
2.204668269150457036e-03
3.474602983575218913e-03
2.539209638322525216e-03
3.305008258481847375e-03
4.447507821457036790e-03
-5.085777820807961406e-04
-2.081475235260294484e-03
7.604106426586256353e-04
2.676734390517106991e-03
3.587245571261415533e-03
2.831531080046995053e-03
4.073355725062196772e-03
3.319839912322734496e-03
2.205494723376874577e-03
4.792667644713359543e-03
2.189627449411802457e-03
-6.692132988422515001e-04
8.389153708031922422e-05
1.738977708733691855e-04
1.080865533857454662e-05
-4.078608931255165923e-03
-4.314818507790104014e-03
-5.579380919917545020e-04
-3.213950316342793680e-03
-3.635494853646926115e-03
-1.808473568076200124e-03
-3.136382262049649833e-03
-1.787072970335737334e-03
-3.054985912959966711e-04
-2.201041206649918466e-03
-3.457906601794119919e-03
-1.297846486666047537e-04
2.476237374433871551e-03
-1.724195745552140622e-03
-5.274508473093854691e-03
-3.452668314718969952e-03
-1.384961069330401971e-03
-8.741470098416154015e-04
1.495493302294131216e-03
3.834574753215753539e-03
3.902728470289956123e-03
6.183084137740233431e-03
5.073418915332212481e-03
-3.617865054529579801e-04
-8.365851637602288345e-04
1.124925573014912573e-04
8.214094067662909473e-04
-6.907903313453292579e-04
-3.600510427220787735e-03
1.282015937536644303e-03
4.490598720679085144e-03
3.117738119111083950e-03
3.942374912348255329e-03
1.512230858480747252e-03
-5.055291330832333485e-04
-1.529863631020160182e-03
-4.457979291598778045e-03
-4.808279595061870811e-03
-2.949536649016012372e-03
1.228576788694171762e-04
-4.899198151073793890e-04
-7.584652224900870600e-04
2.467211276524836419e-03
-9.699216172418250338e-04
-1.142242740040980229e-03
3.290891547116532416e-03
-2.926080937101743600e-04
-1.527013484467682793e-03
7.922094653921868011e-04
8.638102720498025107e-04
1.435850365813746282e-03
-1.058842750764673056e-04
5.926559315133684853e-04
3.349323376011190904e-03
7.317649578484875742e-04
-3.272173040672717980e-03
-3.443730238962237900e-03
-3.130257429309730131e-03
-5.951647619375565607e-03
-4.353944926639680135e-03
1.879399126053965356e-03
3.166618330302210880e-03
3.867371850934938488e-03
3.793035967823976500e-03
-4.219441449852010884e-04
-7.992494114225696554e-04
2.663324532290981591e-03
4.184598869667106001e-03
-4.249391461997021301e-04
-5.333802901799889438e-03
-1.692240255614863714e-03
1.872887904004282185e-03
4.280455288810199564e-03
7.051283984729708569e-03
9.175840593832825139e-04
-5.152401599997806676e-03
-5.333685492698231508e-03
-5.998923377047400002e-03
-2.518560336572610477e-03
9.050071117584553449e-04
-3.210751809660132745e-03
-4.518298584925657842e-03
1.626589344493331330e-03
4.177083645951227241e-03
2.215603467632597592e-03
1.107080312319071082e-03
-2.942107898400727738e-03
-4.908575606708443125e-03
1.841512700789402863e-03
7.414922892012403184e-03
3.838374688747184585e-03
-6.766356441523639111e-04
3.390788424871137019e-03
4.762957135492342127e-03
-2.262982628521074241e-04
2.327949278187481461e-03
2.931901561991829153e-03
-2.860993759261144884e-03
-2.489170136559550311e-03
2.155189177509511547e-04
1.412820371525397647e-03
3.572687918291286933e-03
9.104719003934308441e-03
9.569246886446444028e-03
9.967300865216591199e-04
-5.841303429258380957e-04
-1.116149767718846789e-02
-3.243938565953930625e-02
-2.300366928804859282e-02
-6.147484426730845256e-04
2.840751285815386416e-03
4.465285933186016569e-03
8.015629475777450233e-03
5.500739510154856876e-03
1.673686346480715830e-03
3.854433184487544156e-04
-8.591958382041927841e-04
4.433311940045141556e-04
4.978946314427621679e-03
4.047025749095249365e-04
-5.002817036495047116e-03
-2.787983463971112135e-04
1.985145042184105826e-03
1.798629589413746049e-03
2.349088458738237111e-03
2.721003654641595323e-03
5.461423870160175657e-03
3.907096296383299507e-03
-1.636259386884759406e-04
-7.365539445990264394e-06
2.596946671055367023e-04
-2.283897720459598674e-03
-3.087015965329864900e-03
5.111312291533303266e-06
1.116635592644924608e-03
8.256755996383475463e-04
-2.621874388604150652e-04
-3.327744520346793099e-03
-2.506989855492706021e-03
-2.565275884615016329e-03
-2.988073946575642032e-03
1.173954006610619660e-03
-1.302441898888623875e-05
-1.434344537696292596e-03
3.377312572463380888e-03
4.921556870311808406e-03
4.091909787668201841e-03
2.526186087673423352e-03
-3.674404254912926092e-04
9.035868457798253584e-04
1.801967115138468660e-03
-2.093773271808861171e-03
-2.607388880995923329e-03
-1.414836939131950203e-03
-2.352934455254835668e-03
4.982696829753436479e-05
-4.209137728426757337e-04
8.310524555533936033e-04
6.606647714719895460e-03
-5.456887657645478548e-03
-1.505163673707732470e-02
-1.291796098541327011e-03
3.003987450017751859e-03
-4.343838200543814884e-04
2.737241421645459499e-03
-1.739740794219639527e-03
-6.479356970578455631e-03
-3.965298754749597802e-03
-4.406212561040423058e-04
2.629828420787589521e-03
3.091619202798783720e-03
2.365137144709367114e-03
2.428576973185918569e-03
3.331832349278771119e-03
2.717141488742957738e-03
1.758941935728815806e-04
-6.634009385986930959e-04
-2.206736659646742985e-03
-1.023631020938195512e-03
3.532195645685732872e-03
1.835571407958851414e-03
9.970375599079764166e-04
5.592258333647888956e-03
5.659030714974140445e-03
2.472169086718801600e-03
-1.148979500557804250e-03
-4.640966520753306637e-03
-3.697582548689291090e-03
-5.377361628851131965e-04
1.816329150321020812e-03
2.102313624831632366e-03
-1.883603755188231364e-03
-5.081353111330118126e-03
-2.600118639562771020e-03
1.842227219686629123e-05
-5.151164317746133835e-04
-4.578399774471175266e-04
-1.081605512344273150e-03
-4.667732160567664157e-03
-5.420903933626201009e-03
-1.041359967194566572e-03
1.962952359187204732e-03
2.468819103709427032e-03
2.098988519628496897e-03
-9.251155302604076400e-04
-5.724376206515374016e-04
3.398042623720331015e-03
5.077959350869656625e-04
-2.072888313246875214e-03
3.459750833277827533e-03
5.509254415717178451e-03
1.028142553965780050e-03
-1.660245584885047592e-03
8.617253174718551541e-04
3.463299226636999077e-03
-6.785086252681432270e-04
-4.206374203291803233e-03
-1.562623847500199973e-03
7.543475819801529186e-04
1.828926048464813575e-03
-8.317087089784360853e-04
-4.730386136046579003e-03
-2.262993774697169298e-03
-8.921869169720349777e-04
-5.388481917205511932e-04
9.111173447418574817e-04
-2.698430012080203517e-03
-1.238513833598414151e-03
2.161086415578446652e-03
-4.965476474756579019e-04
2.939906976289285902e-03
2.873856020735979060e-03
-3.134519731023608074e-03
2.884363013897197551e-04
1.524742358590342036e-03
-6.821189501071071425e-04
1.055807716864626440e-03
-1.050168040267296203e-03
-8.643256421704101529e-04
2.951721175145049104e-03
2.451144506431990680e-03
1.337333792130657737e-03
2.099588299875446411e-03
1.014803702210993015e-03
-4.144984258542088774e-03
-3.677717807367185746e-03
3.884255533679020767e-03
3.334574789596148319e-03
-1.071648220565246104e-03
-4.740547189088166577e-04
-4.290365650734145908e-04
-1.090565850455661777e-03
1.473302337214788980e-04
-1.265137323637095530e-04
-4.652133329753152004e-03
-3.863645526527952935e-03
2.820355430525684631e-03
1.448626755044555691e-03
-1.379076038425433755e-03
-1.989730914966375715e-05
-3.843253598719932390e-04
-1.180318806790117946e-04
-1.427461035817318823e-03
-2.248301126637830343e-04
5.192260791137889332e-03
3.020275564892041346e-03
-2.801260976702718997e-03
-3.431731937639912692e-03
1.832129798537347515e-04
1.768655125414715559e-03
-1.797609133503481199e-03
-9.097491991464670648e-04
3.353978415397076192e-03
3.477265836277937307e-03
2.288914025085909444e-03
-3.023025586436195976e-04
-5.458990897630062447e-04
2.202249678309863446e-03
-1.353265383242458365e-03
-6.628484038207687473e-03
-5.653451097936097909e-03
-3.454842195322863421e-03
-2.625068416294966747e-03
-2.409507332698790361e-03
-3.678883499403050143e-03
-4.086678709474247419e-03
-2.067534649195050360e-03
2.514726892118091320e-03
4.313354242509931553e-03
-4.322487085753462239e-04
-5.740312378739926592e-04
3.304587461339021561e-03
4.383733377273298440e-03
8.766465909419089708e-03
9.535365206525970444e-03
4.396720587521358616e-03
1.798594737273402633e-03
-3.820691001045437040e-04
-8.024419167916612338e-04
-1.282861727160957690e-03
-1.090299569859996300e-03
2.627967402804777530e-03
2.995793374349094325e-03
4.413200547583416046e-03
5.086151625200564623e-03
7.270596893038543986e-04
-4.096925842024063064e-04
5.354132543059945482e-04
4.070434412168856715e-03
4.146646628834832655e-03
-2.851388925382105418e-04
-6.022661482580271217e-03
-2.969701969182095974e-02
-3.891817748965276103e-02
-1.001556080702085440e-02
5.629148035517251951e-03
4.476175533354467134e-03
6.184377572560324256e-03
-2.813171363720130239e-04
-6.834924791232795246e-04
4.163994025207867766e-03
1.895658003892814391e-03
2.015138152652700895e-03
3.368870682582712946e-03
4.042860873193891875e-03
4.428532879751557842e-03
2.192864279573391011e-03
1.981976211974896280e-03
2.771123786863824000e-03
1.446988569634766186e-03
1.430400147552627092e-03
5.510478146044203718e-03
7.701749457954427773e-03
3.701843531227951619e-03
2.050326489536349710e-03
2.139413525605357580e-03
2.486302227147359862e-04
1.661897466327665355e-03
3.550569688645712776e-04
-2.754073395726593099e-03
7.988258328634383412e-04
1.820551407062705705e-03
-2.674455181726343670e-03
-4.878845165505659234e-03
-3.603994470437518055e-03
-3.029147185520113424e-03
-4.647554837080433536e-03
-5.727180021074888263e-04
3.006752246605142245e-03
-1.747972274573761278e-03
-1.918869387316967257e-03
-4.996421740578482242e-04
-1.860730097206611360e-03
-8.450825484269783479e-04
-4.384154084984884930e-03
-4.826537976320439093e-03
-1.589398009744900529e-04
1.311507222857586285e-03
4.845698617392750485e-03
1.875406659988520901e-03
-3.319191302593073409e-03
1.271445286968921453e-03
8.833382600391164385e-04
-2.947288617070273082e-03
-1.892693201935987442e-03
-1.860019584878597676e-03
-2.667585015753727411e-03
-1.090135963546449115e-03
1.978583851020110623e-03
-1.102029811572352970e-03
-2.435863049304298408e-03
3.530254024710926478e-03
2.395208542428279175e-03
1.981158694884086260e-03
5.294432896162340474e-03
3.488678711235505651e-03
4.800956855007692571e-03
3.946782636318126904e-03
-8.992697821589097553e-04
-1.390816610033575968e-03
-1.343416962249204634e-03
-1.395853677981799676e-03
-2.688050031472960510e-03
-2.962927284230706861e-03
8.397353270828915696e-04
1.172441494968390688e-03
-8.717174311516241031e-04
8.837085356269472856e-04
4.659473040532582412e-03
5.512080326938729492e-03
2.497516433270517092e-03
-8.700913866217509186e-04
-2.381849535082689213e-03
-1.366147752516378919e-03
-8.739450108032919586e-04
-1.334730457224437465e-03
-2.157651540309935261e-03
-3.926122378849793322e-03
-1.889307241045372690e-03
-9.190181452257819910e-04
-2.002912517764880804e-03
3.338408573066405701e-04
-1.177893878462266857e-03
-2.651578570461863432e-03
-1.335114655829911737e-03
-1.694828760981468164e-03
1.207945181702627102e-03
1.146544839699496126e-03
-1.433389379442589302e-03
5.565316496984964740e-04
2.008668695478413053e-03
2.943444577671788798e-03
1.114516094760326179e-03
-1.663777030929819000e-03
-5.662968851474995541e-04
1.352114966655815632e-04
-5.585834034780147537e-04
-5.479703844254389319e-03
-6.704681519009623135e-03
8.703267702781246383e-05
2.059666874466490466e-03
4.650618777208766555e-03
7.420376234178884846e-03
5.093670275041094729e-03
7.135791648341428990e-03
5.942273061059748923e-03
3.506108188754104789e-05
-2.671625391702474230e-03
-3.944302044705915410e-03
-2.313016801656841807e-03
-2.965474749689214849e-03
-2.885841212627222353e-03
2.123131119311018854e-03
1.224662573781587190e-03
-2.533992341321753081e-04
2.660120110916681414e-03
1.687124713805730801e-03
-3.344795698210075927e-03
-6.534628171187684478e-03
-2.842211063272875524e-03
5.818165043409331393e-04
6.923875302208735375e-04
4.583203895107962680e-03
3.279887132537570322e-03
-4.683536706315614799e-03
-5.284265891568931325e-03
-2.259097067102359968e-03
-2.976881554555384484e-03
-1.767335132053124164e-03
1.181010151638607402e-05
-2.231158837299862703e-03
-2.260506360363729109e-03
1.009058007369425559e-03
3.337428379827916004e-03
5.387231215753899259e-03
6.104652257778835946e-03
6.432256391446713496e-03
5.773758741038729873e-03
3.853733619832872340e-03
4.651108187735624074e-03
1.459967561966001460e-03
-5.626481340335259124e-03
-6.471162480241098545e-03
-4.237384831590512886e-03
-2.576056505122849543e-03
-2.191807047685174863e-03
-1.875080495922755658e-03
1.516737806505275747e-03
-3.168096664813406385e-05
-5.482141162645069558e-03
-4.414624621590328493e-03
-2.895797838888701861e-03
-4.897530167592405864e-03
-2.220405290039488468e-03
1.820143541298241668e-03
3.359777721180880520e-04
9.882945083878173255e-04
4.253254015820000407e-03
4.110905391550964162e-03
5.908538264133300806e-03
4.513512736787270857e-03
