-1.248475508520777849e-02
-1.619965191152678355e-02
-7.575914805083647750e-03
-8.708738426159193594e-03
3.160003193253162375e-03
1.397375624595186168e-02
1.443276866224567703e-02
1.495144297481359845e-02
1.271695458376368576e-02
1.314935165008540748e-02
1.306153266630002627e-02
1.080899648369436708e-02
1.265629273577526318e-02
1.093195560145032545e-02
3.449041166919652492e-03
-3.786891574180733036e-03
-7.740208391497232360e-03
-1.041462943895590625e-02
-1.312199969173081029e-02
-1.248082014844839778e-02
-1.386095571919684390e-02
-1.618458697144425917e-02
-1.215438593011393051e-02
-9.037524055151190810e-03
-5.718322046204281361e-03
2.706484083173608512e-03
6.998127944411500212e-03
7.597522081674747477e-03
7.923396087761410203e-03
5.419303730253773564e-03
5.819576525818277724e-03
6.157024202530434788e-03
2.000167826685982867e-03
9.554310796729681681e-04
-7.551541367798972641e-04
-3.720507510547823270e-03
-8.568378432400315615e-04
3.177992272426979773e-04
-3.359920057568428937e-03
-5.533590877679734135e-03
-4.762905022901437260e-03
-5.334315565705987326e-03
-6.428203656497078443e-03
5.028914700111746135e-04
7.192453400951162590e-03
5.454001414235258929e-03
4.543016220244882643e-03
4.347326661915932103e-03
2.659087229083188699e-03
-3.733754659251155013e-04
-4.042369650553348688e-03
-3.875687793970176553e-03
-4.610167741105606655e-03
-4.273611417755147392e-03
-2.165050886756243482e-03
-4.197015672077222988e-03
8.840474789271364486e-04
8.195681614814405783e-03
3.945708268548654696e-03
-7.759248654449523493e-04
-1.233453511111152990e-03
1.377416549032684130e-03
5.201453610189844812e-03
3.009499409655720919e-03
2.965756860598476978e-03
6.212003224332971266e-03
4.197056179354800333e-03
3.134376627530102450e-03
9.470234552597938012e-04
-2.329022287795378711e-03
-2.148272929379769168e-04
-1.380839404634202254e-03
-1.086104285003024281e-03
2.219647091635058422e-03
-2.142927368349723644e-04
3.997796882544831128e-03
8.847077165234848439e-03
5.771612749012665876e-03
2.893924979042790391e-03
-2.907322379564770617e-03
9.319997294032131546e-04
-5.516530829282819889e-03
-4.175804977608917751e-02
-4.246069330864267466e-02
-5.971792131570191446e-03
6.566592502479940037e-03
9.802504981147763807e-03
1.309895841876170669e-02
5.519691360227374152e-03
3.517561070250361296e-03
2.720624170868981336e-03
-2.204698213480918000e-03
-2.219723328733793927e-03
-1.082232344234271325e-03
1.356008710921570003e-03
6.361148504886086560e-03
6.242277331960094031e-03
4.207099918258451650e-03
3.902825615736235827e-03
6.136403293478893874e-04
1.388024669569832593e-03
4.853923893585064021e-03
1.834972847220226952e-03
1.319210654019869425e-03
3.298842876084345441e-03
3.149590812223842292e-03
4.517980271730243774e-03
3.193716369106616455e-03
1.095755356677347503e-03
-1.448175843846037864e-03
-7.929070636919825776e-03
-1.071787495407114550e-02
-7.645725410046595553e-03
-4.288240205846853906e-03
-2.493025498263594288e-03
2.322257525710068674e-03
6.683544334039663581e-03
2.256429380956858407e-03
-2.456239534193958851e-03
-2.639882105394946322e-03
-1.955394869886475408e-03
-1.010652564996566147e-03
-1.755399736296155708e-03
-2.046576554539202789e-03
-7.395313542421267121e-04
4.981461762518453289e-03
8.378759939006335741e-03
9.133426537594321534e-04
-1.725200035740824664e-03
-1.170630860536639754e-03
-4.833451274980771553e-03
-2.698666923186399461e-03
-1.270849670600317574e-03
-1.672957194673877586e-03
-5.982652085753083215e-03
-1.202042513346660707e-02
-3.467686450664298620e-04
9.570103178704761002e-03
5.259915105320737798e-03
6.305310143176597916e-03
5.361612340047290648e-03
4.052025826844513762e-04
2.351928826928041108e-05
9.110404094783736584e-05
-9.593009705875064235e-05
-4.217342600859665417e-04
9.940759160111146964e-04
1.133909146450333850e-03
-2.884783785874923435e-03
-4.436103179906539587e-03
-3.630764117994860710e-03
-2.837071112845186358e-03
-2.197445150837044371e-03
-5.385522691617718400e-04
2.584036589603388306e-03
3.438743369685308155e-03
4.702755919963454677e-03
5.173707816781504022e-03
1.311925586434808510e-03
-1.528630841891632803e-03
-2.654309494888818389e-03
-3.473184476627197165e-03
-3.688453966003865398e-03
-3.085824589669789158e-03
-8.252078338940728279e-04
2.920693300622320254e-03
6.657135537742222067e-03
3.922989662156458127e-03
-1.459167968312316110e-03
-2.645693355499053982e-03
-4.185344029292792714e-03
-3.001631435132996739e-03
-1.810350401224500847e-04
1.143070129924793734e-03
2.248905518706062305e-03
-2.314647737941998278e-03
-4.204056389984090879e-04
7.857585226899683334e-03
4.293646105429364812e-03
1.094747737053404068e-03
1.872476340741174730e-03
-1.616543139568213123e-03
-2.992470382768475014e-03
-4.338365493975947229e-03
-1.744882918005057505e-03
4.940776658390339665e-03
4.088149243956754227e-03
6.840496185145539688e-04
-1.053656294509656933e-03
-3.521606006616232777e-03
-5.223737296989417432e-03
-5.238479357589790122e-03
-2.903005363829744712e-03
-4.451784719738899961e-04
6.084912327282406084e-04
-7.145265718269470630e-04
-1.139015141786390737e-03
1.272308958355029872e-03
-7.900071021748132204e-04
-2.555966442025308944e-03
-7.416147672793421989e-04
-1.964810062972141384e-03
-1.159050912090211095e-03
8.657869456358280053e-04
1.059213516754361779e-03
3.389970993267352878e-03
4.445333899405262169e-03
2.549294918314516135e-03
-7.144042828434963178e-04
-1.114929243630070291e-03
4.320122479370395617e-04
-2.743801004432911642e-03
-1.527212911243525095e-03
3.752376609348169120e-03
2.156081079943351214e-03
1.632269571566601985e-03
3.945140992529151507e-03
3.040104054155773686e-03
1.440581288728611626e-04
-1.814837446285014286e-03
7.780089067714769787e-04
1.887867720797328612e-03
2.018150014384681782e-04
1.478538768837529393e-03
5.450655811772764023e-04
2.237375868484792652e-04
2.414348502797287934e-03
5.882894951707230875e-05
-8.823860447080853018e-04
2.047910072099418837e-04
-2.695814188030600141e-03
-6.178953877819212334e-03
-7.849942837280682664e-03
-5.220172016585619516e-03
-3.613534257045081244e-04
5.588042939486077354e-04
-3.040420424087197926e-05
-3.934964737237699704e-04
-4.592342081351872413e-04
6.731957367216876917e-04
5.039866000732206013e-04
7.623060848151780224e-04
4.796232579796520031e-04
-3.161895276356318108e-03
-2.799666766201908477e-03
1.844258643194443114e-03
2.925069888865679171e-03
2.006557400758501863e-03
2.585047615962609516e-03
2.955462732675221988e-03
-4.328441205075537427e-04
-4.945597883638611428e-03
-3.606982901054266253e-03
-5.222968364109895561e-06
1.783139927141800390e-03
4.082860907648975732e-03
3.978053100050395544e-03
7.541067671650373812e-04
-1.395349186248035379e-03
-1.018468612766036663e-04
3.255592304530033863e-03
2.166058058528973554e-03
-2.681738969845220977e-03
-4.218473274036738108e-03
-1.966539637594207253e-03
2.884248022364007194e-03
5.806534400007081625e-03
3.323188484575946133e-03
1.336403214761980448e-03
4.196571689237404848e-04
-1.508604621251775479e-03
-1.791165627480703409e-03
-3.394553357434448599e-03
-5.465569408914308647e-03
-2.420069399339041822e-03
-1.607714041791690656e-04
-1.790992493791701036e-03
5.002228863532115662e-04
2.743817722514881648e-03
-1.559548446738808283e-03
-2.672336381574660306e-03
6.907627870424145689e-04
-1.175092688058698861e-04
-3.632059652604647821e-03
-5.335042533540724531e-03
-1.720349740012891383e-03
9.945281294879441871e-04
-1.251683558625296590e-03
1.320513510588796876e-03
2.962257184859470437e-03
1.433379018013405471e-03
3.011562796036191137e-03
-5.630978250871444737e-04
-5.651846118574444997e-05
5.910812546810995452e-03
2.603328654474840447e-03
2.103839536891888296e-03
4.810920357162230127e-03
2.711658748263457309e-03
2.312672055739559227e-03
2.202932328047832282e-03
3.553284617594770767e-03
1.455123856221399560e-03
-3.894605969641065125e-04
5.103394488550916548e-03
3.396377219040365176e-03
8.621475050735880746e-03
9.416004408566477912e-03
-2.639111387304148709e-02
-4.027088436749097500e-02
-1.083758739809373602e-02
9.832997082881822070e-04
1.384340746961781941e-04
5.230419674703525729e-03
1.881140434163631591e-03
-7.735820448836605709e-04
-6.007903547226196850e-04
-1.441445850204210385e-03
2.086631916610142638e-03
2.598266106462946649e-03
1.362000189818243518e-03
3.403836290715137654e-03
1.664499618414676512e-03
-7.671706402107976398e-04
1.934430383283039859e-03
7.581541406290932990e-03
1.101573584094192419e-02
8.681007660697329445e-03
5.038625540727075663e-03
-1.011174626677949326e-04
-5.944283852825278137e-03
-6.803710256377624131e-03
-6.858485824020618335e-03
-4.759316026085169161e-03
1.853353358434689882e-04
1.136008110566099174e-04
-2.015479943578400452e-03
-2.987624314539443892e-03
-2.761677136137814705e-03
9.287449316964098119e-05
2.411124303846321100e-03
1.500773782686989390e-03
-7.170568462835432300e-04
-5.115609036793266695e-04
-1.297099184064245741e-03
-1.931495359209953156e-04
7.195906426735051986e-03
9.078193371197156372e-03
5.942884332383845114e-03
2.921055045212852218e-03
-5.910997444629812652e-04
-1.499159188718942942e-03
-2.696984744253776590e-03
1.007096640108001836e-03
2.925105479927500411e-03
-1.789505153601016500e-03
1.532681187530566310e-03
2.442212484852537054e-03
3.734687874873400711e-03
5.464455787435350438e-03
-8.049506623210596736e-04
7.369011712427195326e-03
-9.350994682672093827e-03
-4.916654642494711763e-02
-3.005086927987691767e-02
5.275324988276397856e-03
7.249362671291246195e-03
7.493339118223536766e-03
4.449191313785433310e-03
2.735783443119999339e-03
1.853318458396671382e-03
-3.556339903021943187e-03
1.913906813719618049e-04
8.682987000658397032e-04
-1.197967004564000956e-03
9.421356776913088638e-04
2.578504214124085342e-03
9.159069463952109955e-03
1.161206639208583503e-02
7.011502301019864603e-03
4.535555099952499544e-03
4.055493677375744330e-03
3.296879302109837102e-03
3.598853288238495519e-04
1.555708620154799523e-03
4.669855026361774408e-03
1.711785874059302106e-03
-1.473003455388329766e-03
-7.664216978982294273e-04
8.074738876934813969e-04
-3.857908637438139336e-03
-9.040482424773460188e-03
-4.971652911382228382e-03
-1.236714293163070728e-03
-1.236540082733904528e-03
-1.674652886420689669e-03
-1.439072843690151387e-03
7.562719579520745276e-04
4.218947172047286809e-04
5.497222432038198145e-04
-7.768769635039288971e-04
-6.708381868389675512e-03
-6.769830928465432260e-03
-2.720299606532026668e-03
8.725918992949436691e-04
5.968621639112069166e-03
7.481007156198164233e-03
4.298074142737957556e-03
1.540105202680606619e-03
2.924431674878755433e-04
-2.211757858058488804e-03
-3.598225678290933871e-03
-3.190513672907158236e-03
-1.923926169016897982e-03
2.224282286764037598e-03
-2.309245561049030719e-03
-1.098309039669426689e-02
-4.471531022655028838e-03
4.153279687521721150e-03
5.158990981716590415e-03
5.232349756099165770e-03
2.562036724067609864e-03
-1.394258443578136894e-04
-8.348590661447000388e-04
1.371767187915169618e-03
3.456216588541754630e-03
3.798557903689469542e-04
-2.942498800848114050e-04
1.969755709457551417e-03
2.698831767828463631e-03
1.694292378244236516e-03
-3.165974250935949755e-03
-4.721887777624032140e-03
-2.413713588349905743e-03
-8.461059547794373605e-04
3.626629387311242677e-03
4.819069332836211327e-03
2.560234513448664435e-03
3.344332890714375728e-03
2.621218294756088273e-03
1.422210124898273288e-03
1.168293443359312090e-03
-2.138939166186583883e-03
-4.136493329560231302e-03
-1.464035018150099295e-03
5.065344504718165318e-04
-1.160641545219702735e-03
-1.677539062726125319e-03
1.180626680629360756e-03
4.391759931260541950e-04
-4.934235392831705889e-03
-5.591312178942739290e-03
-3.190642273609293252e-03
-4.672417942271655557e-03
-3.298215453138968797e-03
1.698445817900236720e-03
3.399468938909660197e-03
4.921267058725852309e-03
4.276596391881556415e-03
-7.615868310899183164e-04
-1.912618483064224516e-03
-1.850756556621747234e-03
-5.232973015448846334e-03
-5.492050665098319358e-03
-3.140120858160768292e-03
-7.423364430095862792e-04
2.251680719968336079e-03
2.201729088300240743e-03
2.762440261658765956e-03
3.847253566253630921e-03
6.557661703358217374e-04
8.743293316419595241e-04
3.015688204905735918e-03
4.213581330585097588e-03
7.318248147732142779e-03
3.532085192252799530e-03
1.456002200711693383e-04
3.361635250713234865e-03
3.686348017826383480e-03
3.438157949757028077e-03
-5.691442969291598056e-04
-2.645129359566669378e-03
2.339626191294909632e-03
-1.066684302715398085e-05
-4.652402396097414343e-03
-6.319157089785024627e-03
-4.747114727802088647e-04
1.161000905493089590e-02
9.061290506432940345e-03
1.563593233900631560e-03
-5.545264814306733424e-03
-4.524057355452113655e-03
6.493560013863634850e-03
-2.443441165478737326e-02
-5.057124611110854623e-02
-1.259679458043632197e-02
9.066269976308986844e-03
5.252418976092367540e-03
1.153836071631677944e-02
4.699509789433052066e-03
3.685212460373336885e-03
8.778195635535133989e-03
3.514233057796340917e-03
8.077181172724174924e-04
-2.777177250348650261e-03
1.096254174659609323e-03
7.841248797057148029e-03
5.473746324337949547e-03
7.638182015838781980e-03
5.288419808733608660e-03
-1.554530343371688435e-03
-7.350027412767005117e-04
-2.102349130791348556e-03
-1.719876259311534225e-03
1.894111385041736314e-03
3.728114250394366086e-04
1.260524228973551337e-03
5.293464422449787286e-03
3.205239810862515071e-03
-3.075303927566185470e-03
-5.195303297587659450e-03
-3.194798348178344658e-03
-2.934102540127250715e-03
-3.390748669568473001e-03
-1.458336903254942485e-04
2.105987615894361255e-03
1.724891162669132602e-04
5.819349120393837831e-04
-3.077516345056501576e-04
-5.593413825385272486e-03
-6.135817251452712826e-03
-4.389213509780317234e-03
-3.160636219500233615e-03
8.511100829017439291e-04
2.951114600999969317e-03
1.904387435641323369e-03
1.682068534588142088e-03
5.588134657624313321e-03
7.853916663542421378e-03
3.077163054783202227e-03
1.720153332169988870e-03
3.148615530196613617e-03
1.506416696504029370e-03
1.451837739245777099e-03
-1.176116108972354198e-03
-6.429827085148858389e-03
-8.216230821248280899e-03
-5.857804873768980222e-03
-1.071957807294909859e-03
-1.324579732994785519e-04
-5.502357278405539329e-04
5.996643463490445745e-04
-1.303264207143271011e-03
-1.494595919135952283e-03
5.029823313070403042e-04
-6.529946226978378490e-05
-3.901755372309977901e-04
1.438581872783975925e-03
2.916094639746021934e-03
1.410254824569758501e-03
7.187114703386674516e-04
1.147574063950446231e-03
-1.301966223361946881e-03
-1.762492079429741915e-03
-2.075830646612774472e-03
-3.072044149967848806e-03
1.596714471205045848e-03
5.612333387989981888e-03
7.121855217314210749e-03
7.182437951867767616e-03
2.596673338403901118e-03
-5.706530966156193267e-05
-1.601151803076851206e-03
-4.767871601216914709e-03
-3.735027281101288218e-03
-2.353798541520119372e-03
-4.334136157563340565e-03
-1.891664028928878756e-03
5.911835804651731363e-03
5.181331915339378036e-03
-9.564566194292144696e-04
2.029007031505225718e-03
2.310271677792691248e-04
-8.129160879282164298e-03
-5.062388845029580295e-03
-1.014454591408913515e-03
-7.841118079012608525e-04
3.405807713923627526e-03
3.731780599380961176e-03
1.187691554696951291e-04
-1.322847119422344451e-03
-1.367926221003720093e-03
-2.846832892929035928e-03
-4.418516633497443676e-03
-8.135311283519103048e-04
3.057036406351833213e-03
4.065248630414666255e-03
3.310440433192801939e-03
-4.997168175049741812e-04
2.038598119227760016e-04
2.800448362076538977e-03
1.157392259328785585e-03
3.133568231023540563e-04
-2.090004471300401390e-03
-2.936529399320265011e-03
-3.440657740103113087e-07
1.874705924490911941e-03
6.043516653924602480e-03
5.467140443414411632e-03
-4.483521206329240121e-04
-1.945774840286797550e-03
-4.231556623658520692e-03
-6.137874768488691714e-03
-5.973499795713058981e-03
-4.915880212681611114e-03
6.287433158951856275e-04
2.588815149120187505e-03
3.600596067353256397e-03
5.566583631508852971e-03
-7.091971648669300647e-04
-3.462021182782566882e-03
-1.676864318391801771e-03
-3.165409939705846661e-03
-6.123646112333908402e-04
-7.677735318025324539e-05
-1.744093351443569287e-03
3.063639765790783596e-03
7.772794516013647147e-03
7.572525680881676650e-03
2.431623233179298297e-03
-3.060012313509589358e-03
-4.497633734056971470e-03
-4.319535523426184555e-03
-2.460255038699934917e-03
-8.901898504814168434e-04
1.582822793144406060e-03
4.845417520218955887e-03
2.530520436381974905e-03
9.000472732010328250e-04
2.944656818618200059e-03
3.715601453954262869e-03
5.098674802592391073e-03
3.766929290469381644e-03
-9.342072212329633136e-04
-3.252546858579897972e-03
-2.857066412586276027e-03
7.234413643426767571e-05
2.359381375782310022e-03
1.502747472544941135e-03
-3.091293638926241507e-03
-7.574884140901437697e-03
-5.680461262152524879e-03
-5.544195735842890986e-03
-7.838129844749580286e-03
-3.667823012066204983e-03
7.513416690711060154e-04
1.309647843809131663e-03
3.826965686404490961e-04
1.822874777257110931e-04
3.381865512145049851e-03
5.942195892437769460e-03
3.760258443286879689e-03
5.210643056758696096e-04
-3.338662330385934593e-04
-3.212316255982446828e-03
-5.031696811400169708e-03
-2.222776223535753801e-03
-1.068596181244013503e-03
1.993189823561097168e-03
8.076806749932297861e-04
-5.798793639820109223e-03
-4.220831555653505388e-03
-5.237819105019633943e-03
-4.556868468248717954e-03
3.356333110873885132e-03
4.306914074540623034e-03
7.665084140552793322e-03
9.477166671753148308e-03
7.687125726912310240e-03
8.939498589609675902e-03
2.189851888844682789e-03
-4.869015673712642615e-04
2.153055658021523627e-03
2.946775738882478641e-03
4.472836208328411813e-03
1.118319063495440023e-03
5.181441290821668134e-03
7.279424154442216445e-03
2.771751224395152015e-03
1.876337804501815049e-03
-5.756914127509700843e-03
-2.811115293635555422e-03
-4.290752494902598394e-04
-1.293265144111134307e-03
8.639175069535560275e-03
-2.472827415105037941e-03
3.461638327623841639e-03
5.930079056810008513e-03
-3.528184003313192263e-02
-2.803229530842941269e-02
-2.133037387371794838e-02
-4.205581421737394909e-02
1.005597669504676743e-03
2.190541879422348501e-02
1.785041189859231433e-03
8.483579527840368409e-03
5.832731056424282634e-03
5.091263279576783984e-03
8.125693731160683886e-03
2.177192324104335920e-03
4.613761643531400988e-03
-4.852020799635116226e-04
-9.979469582888410642e-04
4.028983708930156636e-03
3.632954929400601923e-03
6.951948576373384245e-03
4.235942011302096764e-03
7.905454792217568583e-03
1.183564453918053115e-02
4.062971094202955623e-03
3.164524020412441858e-03
-9.800568448426647764e-04
-1.302858328914721902e-03
5.620913646464127840e-03
-2.492837928478946964e-04
-2.315661858725762915e-03
5.262407896821786734e-04
-2.535884616430015507e-03
-3.437018176114128073e-03
-3.606697882824949283e-03
-4.286740817836276821e-03
-4.655511299921693581e-03
-3.022385493396200894e-03
-3.681466151306712811e-03
-7.279760540164884747e-03
-2.754922217470662064e-03
2.810465175836285474e-03
5.551531841891973844e-03
7.277897160143952104e-03
2.381016166409363408e-03
5.230645261815234336e-04
1.469698869709138225e-03
-9.494212624937180484e-04
-1.904512954709419942e-03
-2.963450991918576641e-03
-6.301886540218524678e-04
2.142490302786372296e-03
5.512124412519168754e-04
1.735442180035548119e-03
8.539113121656207762e-04
-7.141453641089948135e-04
-1.924175506920571248e-03
-1.311313911104983534e-02
-1.681169892804130692e-02
-3.353914664020158677e-03
4.058492506326548746e-03
1.199887963389898848e-03
-5.400463254994860608e-04
-1.137377236195000370e-03
-6.512103348443945561e-04
3.391723988602516390e-03
5.712583950288460145e-03
3.754411706172005453e-03
3.671452832989857175e-03
3.931248955986132304e-03
1.917702101875254622e-03
2.061733420083077754e-03
2.800243047442584586e-03
1.951224391767911832e-03
1.417084029606460391e-03
2.448661034970554644e-03
-2.141610769368349528e-04
-6.273688080992672125e-03
-3.684853493884135932e-03
5.339877299902551829e-04
-2.858930412683929000e-04
2.972815481504579010e-03
4.700471068058520094e-03
3.467119879328988373e-03
2.845324279707647439e-03
2.029826763754469156e-03
4.007610534859352112e-03
1.724969393056709601e-03
-3.402870415723663940e-03
-6.437167538386414159e-03
-8.819569561440969430e-03
-2.304452636645697335e-03
4.142360558473769279e-03
2.010870219654351670e-03
1.265992040709724509e-03
4.662753964986941649e-04
-1.889724751221840988e-03
-4.219923923801232116e-03
-3.121193579770004112e-03
2.076989002735216572e-03
1.177369125178377371e-03
-1.868316344803868691e-03
-3.449431727418371396e-03
-4.271478071278925898e-03
1.941640943640503096e-03
4.327398333638645886e-03
-9.219212527065046188e-04
-2.907352133837505515e-03
-2.596206376773901349e-03
-3.034540633569897134e-03
-5.046880284310695762e-03
-4.347373214473226367e-03
-1.226716179018935184e-03
-1.305832372666224529e-03
4.162026772786426090e-03
1.170349569257223520e-02
8.450375705210507599e-03
2.416476081229020339e-03
-7.752304849859749532e-05
3.293280982249382084e-04
2.867597367645440508e-03
2.815326517837419586e-03
3.503757681617004731e-03
5.155786497452230326e-03
1.708765244992784416e-03
-7.145851679297273102e-04
1.622532207250056407e-03
2.115953986784113901e-03
5.425515732522573527e-04
-1.025799177037732925e-04
-1.350873883990099051e-03
-1.213634919477070331e-03
2.090536579513499298e-03
6.694161287441924334e-04
-4.988632864639862968e-03
-5.597639971545995304e-03
-6.132630617146054772e-03
-9.321030730565869199e-03
-8.258490165491527008e-03
-2.802033008925838148e-03
6.982775328132269713e-03
1.387879715570734980e-02
8.886865062735671561e-03
4.126629246747915217e-03
9.290632713132386533e-03
1.342305265453849587e-02
7.861966232291042050e-03
-1.328040090040581169e-04
-4.324386912300048381e-03
-1.122486541998087006e-02
-1.706695300626370412e-02
-1.424436908102025452e-02
-1.309713028864314954e-02
-1.522462084586986147e-02
-1.292540138326714154e-02
-7.617945596101080054e-03
-1.837677872637681967e-03
-3.793950518862779708e-04
3.331471660253249121e-03
1.574264458109982459e-02
1.942756946204045668e-02
1.003709026916184757e-02
2.945855064134392937e-03
5.391623334721776239e-03
1.142834019432535306e-02
8.592270360928355721e-03
-6.493328333237925352e-04
-7.984365626112606418e-03
-1.466042543875886381e-02
-2.098788798436458311e-02
-2.463348264367822005e-02
-2.207703516460112619e-02
-1.622800074265787207e-02
-9.976898204872500578e-03
-3.898012485429463731e-03
-2.470811906094313136e-03
-1.692803381811796909e-03
-1.889451749893554045e-04
4.657593258561257277e-03
1.624189416892199075e-02
2.417154189129419248e-02
3.440797315264904066e-02
4.915746086679623206e-02
5.102090766593074533e-02
3.753473623231736583e-02
1.618352914524309044e-02
-4.305569120726011195e-03
-2.077813149706950538e-02
-2.171718048469269829e-02
-5.465457195158623591e-03
3.395553125718338890e-03
1.292860684822632646e-02
2.826703282807973075e-02
3.872008896381810145e-02
4.403558976401557995e-02
2.690916847496074849e-02
8.823123159898929591e-03
-2.461177705847272280e-03
-3.325617813042468229e-02
-6.453026218347883425e-02
-9.908437301937729480e-02
-1.194357411707061695e-01
-1.050368811813848502e-01
-8.353404885478238340e-02
-4.945323764354171703e-02
-3.315685601593007514e-02
-2.350509653115197967e-03
8.927376330983168018e-02
1.247424120086864513e-01
1.079097712901853634e-01
9.423248537262288171e-02
4.654507903642023797e-02
2.213196543418158996e-02
-4.719271745335696516e-03
-6.975075287761033083e-02
-9.028450954987260468e-02
-8.425942794079778475e-02
-5.993188646764286559e-02
-4.294542343157290928e-03
5.762474448957000811e-02
1.346072309952444923e-01
1.381871964824852028e-01
3.314065549244537418e-02
-6.110640351621713512e-02
-1.074187608671767075e-01
-1.106397560282660480e-01
-6.517694085033354234e-02
-2.574753366083712761e-03
6.371550854473639891e-02
9.614363293537794841e-02
5.827770102957331722e-02
1.048053154021709107e-02
7.900295856567755848e-03
1.763696528820132836e-02
1.288539716024016818e-02
1.774473365628210370e-03
-1.158849637064037104e-02
-1.440436183319611894e-02
-1.037950569558181158e-03
1.831189003194216847e-02
2.155755369401412061e-02
-6.771545652704616391e-03
-3.032201155018227762e-02
-3.187422541117754943e-02
-3.134073836929524709e-02
-1.955724471028574135e-02
-2.875063768428895439e-02
-7.869014411191412040e-02
-8.794138897184634873e-02
-3.550159526029159074e-02
1.322927063787660180e-02
4.773992932162372804e-02
9.934820138817367086e-02
1.604222576553135660e-01
1.715141680179765593e-01
1.061930150531675832e-01
2.220139642026846757e-02
-3.820961946995484609e-02
-8.137494604792440411e-02
-1.064664968523729577e-01
-1.287866001601181976e-01
-1.264177499142217775e-01
-4.855673501718597851e-02
3.112271070983156293e-02
4.981729582943994483e-02
4.329058783078563316e-02
1.956731015210992630e-02
4.771687973764470597e-02
1.244862218994842867e-01
1.021360982791775091e-01
1.711414480449445844e-02
-5.944745794678530509e-02
-1.703263395333916297e-01
-2.402354111907504253e-01
-2.033275344284840302e-01
-1.060818989405954427e-01
-1.853907822430907182e-02
2.358472987190314216e-02
7.471914364894770288e-02
1.218454137437851026e-01
9.407734309668756845e-02
-6.294391128070893826e-04
-1.180318734389289997e-01
-1.597061454825561833e-01
-9.225040216938465432e-02
3.246692417095812383e-02
1.810433936482905848e-01
2.454623384109836937e-01
2.210301363932870855e-01
2.078139291308148395e-01
1.472234720053963997e-01
1.628517419372544836e-02
-1.220691228694587849e-01
-2.192742408681135624e-01
-1.875693975141746461e-01
-5.253641229692475323e-02
8.961766967541714979e-02
1.983792007173513228e-01
2.324447831436869671e-01
2.020379951864463841e-01
1.212479084168122528e-01
8.953666263493070127e-03
-6.222956740429662348e-02
-9.334582358123889867e-02
-9.537740353269560933e-02
-6.967065175941257460e-02
-6.944021573815245540e-02
-9.568566978226927811e-02
-1.313848558522766885e-01
-1.288542619299271053e-01
-8.561665366314057113e-02
-1.257656452171313222e-01
-1.514126933308584666e-01
-1.390382886063405189e-02
6.937789847222762540e-02
-5.013876499542244125e-02
-1.813885757686161393e-01
-1.912474996529010818e-01
-1.300882438741355063e-01
1.234576630762448946e-02
2.226253254106610180e-01
3.172390493528210453e-01
2.563480672891020884e-01
1.552733660876361166e-01
4.344736578137355781e-02
-4.268193488298485661e-02
-1.080887636362289628e-01
-2.318174452255941376e-01
-3.466575923593899766e-01
-2.904208279508608270e-01
-1.261820432683786741e-01
-1.308518434165210128e-03
1.846018501412978186e-01
3.983633004704807412e-01
4.736212973505096735e-01
4.764635592246749263e-01
3.613920589251229387e-01
1.188844164564957229e-01
-7.138453203541995917e-02
-1.932008512071994033e-01
-2.279020124081680976e-01
-1.750134127240346171e-01
-6.955003798103866208e-02
7.683518278080279928e-02
1.300374969233147882e-01
9.456895241674173613e-02
5.885786344759772609e-02
5.168173935711561917e-02
7.638449330525433345e-02
5.323672161683087184e-02
-1.727570273549645583e-02
-2.048775521764709673e-01
-4.529796795407002308e-01
-5.167240496667128147e-01
-4.111125161489421198e-01
-9.193173343846107459e-02
2.107810256053716247e-01
1.004172428826618502e-01
-8.706832150276720694e-02
-1.356048244482723486e-01
-9.207851871319976123e-02
1.310122836298888982e-01
2.300127859435885380e-01
1.131279812609582297e-01
1.196054804850884244e-02
-4.570637139881933431e-02
-1.049033306775299821e-03
1.641832767524852299e-01
3.151225126400457044e-01
2.319166376251080852e-01
1.840975696748474791e-02
3.046874695356006565e-02
1.041896910080713778e-01
5.437910351391204294e-02
1.182644914125322889e-02
-3.365688007650785574e-02
-3.725321486601060328e-02
4.213673688920478201e-03
-7.815936562518366413e-04
-2.365476282657855492e-02
-7.494873853842975997e-02
-1.539117775256399756e-01
-2.206802340195441470e-01
-2.166576993797542927e-01
-7.346353339592309739e-02
8.129569989710901112e-02
9.016701975193774921e-02
3.164010960037492992e-02
1.843026364330754494e-02
2.204901065024026524e-02
4.751549547872702811e-02
9.594906943018539913e-02
7.175119827572691567e-02
2.300623574704770830e-02
1.445814611883754902e-02
-8.480104356347106798e-03
-3.112471225789848264e-02
-4.844270027665154021e-02
-3.650085768595218855e-02
4.122021952023889602e-02
8.243384048271283626e-02
2.486365712439765271e-02
-5.053442284932682660e-02
-6.721516454986802003e-02
-7.598371812694469651e-02
-8.971994927305676493e-02
-1.554517031895710950e-02
5.340211911343806239e-02
1.952555535961519179e-02
-1.230129361313611093e-02
-3.829142099171099073e-03
1.273887297634284169e-02
2.794841036231059117e-02
3.941455601262427305e-02
4.081955967920590511e-02
1.498046245065590490e-02
-7.905637573915451702e-03
-1.268012437172047827e-02
-1.031052468788888621e-02
4.268486841766596686e-03
1.330403819278371327e-02
1.248907824950690887e-02
4.912455483797159052e-03
2.665860742572769481e-04
4.040999420586802995e-04
-1.455030082470380390e-02
-1.045798721435144650e-02
1.166743260392131068e-03
-2.220462666978482644e-02
-2.650332027171873120e-02
-5.928889977124769672e-03
-1.639907589242825558e-04
4.969121269965785792e-03
3.908859897447762577e-03
-5.567033596447081706e-03
-4.605283398912495864e-03
1.182517805188817647e-03
3.717900174665492250e-03
3.911846685209463895e-03
4.876298872412090750e-03
7.532496414104502061e-03
8.312845971444606311e-03
7.411442458675320671e-03
8.930610845660031868e-03
1.226900681356831412e-02
1.107328353469953439e-02
3.811810501838479304e-03
-2.353893706689777574e-03
-2.260256613115331492e-03
-1.904149710966887305e-03
-4.136775921289866098e-03
-7.251316741918285326e-03
-1.217459873607542806e-02
-1.174456614481380473e-02
-7.541549336223679796e-03
-6.841715792270016902e-03
-3.172350369817113561e-03
6.642707306908064799e-04
-9.099673396118968969e-04
-1.735838809642738017e-03
1.062214306248731796e-03
5.588096991503989884e-03
7.445155059819823749e-03
6.306243653800234009e-03
4.712985004230902351e-03
1.741478075847169120e-03
-1.170760286391572640e-03
-1.964571858211119383e-03
-1.127497264947183858e-03
-3.260293026126576642e-03
-6.267824142152373171e-03
-1.876316914576130375e-03
4.567413975933074140e-03
5.186920683925123378e-03
1.164596231489758299e-03
-9.870336857342348110e-04
-7.204726264286457141e-04
-3.461654746586432206e-03
-2.303225594572447590e-03
1.135496694889279526e-03
8.747471088990524737e-04
2.913021031212461014e-03
-6.181237148128983705e-04
-4.793103200715777279e-03
1.918558399637975819e-03
5.498563446418061954e-03
4.197375204292643283e-03
1.408662903504517708e-03
-3.189459360964576329e-03
-3.173116892298644392e-03
-2.737577654143991731e-03
-1.339400896750953147e-03
2.348120892040902064e-03
4.249123127731753609e-03
4.827755011355999888e-03
1.768251995289348098e-03
-1.215360950959930991e-03
-3.686968771234306556e-03
-6.154786662423019847e-03
-5.879476630647448993e-03
-8.494824098679600727e-03
-7.311476666340801026e-03
-2.744261784204415824e-03
-3.210120972718419168e-03
6.444186747178858466e-04
6.418324572766782345e-03
1.110345844859828186e-02
1.347453595456595161e-02
5.293866197042815594e-03
5.658886930443263142e-05
1.220220771906198190e-03
-6.818625183891985223e-04
8.735888738865488570e-04
3.231679956168358788e-03
-1.407382872592363591e-03
-8.548848597714568329e-03
-8.462677463181090751e-03
-2.406308245296546761e-03
-3.639237526152768951e-06
2.784109223165799965e-03
5.388311704117087347e-03
1.861611326299738526e-03
-1.620434862530681450e-04
2.393275417790422747e-03
6.558342376685418092e-03
7.616828011002127127e-03
3.334358127155549918e-03
9.748556389304709798e-04
-1.524652916266904998e-04
-3.054851599235035645e-03
-4.039084401104983506e-03
-4.780446282690322367e-03
-3.911322114310605315e-03
1.133257727461100509e-04
-4.473998670595715106e-04
-3.152700824471920023e-03
1.094494201052553404e-04
2.288793465047964017e-03
-1.764298030640108804e-03
-6.797967478871505195e-03
-7.995240008262101752e-03
-3.071038446453224109e-03
1.659143621404717418e-04
2.628482193163590068e-04
5.022679138531647471e-03
6.656835274826632641e-03
4.892816605947598006e-03
6.496298126815471495e-03
3.105639923676055229e-03
-2.307409908616787127e-03
-2.134315318988533414e-03
-5.688369808940011959e-04
4.660694620372635372e-05
6.081609202499890093e-04
4.658299907616215117e-03
6.332718451852508736e-03
8.740540522598435648e-04
-1.904479895715182627e-04
2.925160794432026565e-04
-3.156004584521894876e-03
8.141784602051511509e-04
6.592468158966402307e-03
2.692779016998510851e-03
-1.577733286734667910e-03
-4.778776951841729554e-04
-2.401143535683181629e-04
-1.344254848764566031e-03
-2.240310155098961149e-03
-2.391446683831074862e-03
1.134496151463221334e-03
3.849993315310271721e-03
3.544231634852104598e-03
5.194234306671051231e-03
4.510001300681181803e-03
1.727972923991949288e-03
1.654760620848066445e-03
-1.277105266321314561e-03
-5.374895325846909544e-03
-7.089167300854698310e-03
-8.909448771125766040e-03
-7.792891437971011595e-03
-6.678326637799597912e-03
-6.542973208193169840e-03
-4.668110855458719975e-03
-5.624003751061843609e-03
-1.993789561810053058e-03
5.337518629739922832e-03
3.356288039497708729e-03
3.175303466072097128e-03
7.861575067157310082e-03
4.675799756421305381e-03
1.905014198207709156e-03
5.002229850975341806e-03
6.441335193495500294e-03
7.238661509120177841e-03
5.779017129114811732e-03
7.589067547277964822e-04
6.908671348178627766e-04
1.639842764809830780e-03
-1.104711192806252925e-03
9.244938984121097618e-04
1.077290068877352668e-03
-4.434300856717717128e-03
-5.068089335839823413e-03
-3.610216731088470871e-03
-1.393558006774976666e-03
-3.368716679378005899e-04
-4.748565130809208681e-03
-4.708855153392033088e-03
-1.195483493904386796e-03
-3.716550089063486455e-05
1.219141497539439961e-03
2.458300116614438877e-04
-4.017436746580205090e-04
1.782321767481706998e-03
1.201281704149580014e-03
-4.372523385659727799e-03
-4.669109534843377332e-03
1.644591082850809264e-03
-3.107343079470296487e-04
-1.558004701955570913e-03
4.329665773543068044e-03
5.154495606374150801e-03
5.901111866280660603e-03
5.625666076755811429e-03
5.066495534784200283e-03
6.881192453672837529e-03
4.584352584578370825e-03
5.086570291970200081e-03
1.365921263764725531e-03
-1.177243128693941914e-03
-3.715559888346887159e-03
-3.409543575894293660e-02
-4.088695731011340873e-02
-1.512377840712897815e-03
1.341139533685604263e-02
7.321806727673569118e-03
7.414360357709417690e-03
2.612156525077051310e-03
1.011750820909077322e-03
1.866634052496004333e-03
1.803396673670866566e-03
2.524404782312414993e-03
1.220375400639537493e-03
2.036441609617195211e-03
2.143451287102306115e-03
1.492483757530887155e-03
3.099275889263349883e-03
3.301091429132946547e-03
2.137181427094613732e-03
4.034698108605054448e-05
-1.629852528729399883e-03
6.848513684822440592e-04
6.174790692995712343e-03
6.512594304184634968e-03
1.862490887938949647e-03
2.795219923630950414e-04
-4.054866438200444533e-03
-8.646931002000137964e-03
-6.482325513243163834e-03
-4.805810166252775205e-03
-2.857923733472947370e-03
-3.025500677163078626e-03
-5.465765849134488451e-03
-1.190547007853623267e-03
-1.289671570427327815e-03
-9.103324430909611256e-03
-8.091959755427249532e-03
1.151836885335814258e-04
3.707670770012916860e-03
3.552781609694178905e-03
3.803641242380165384e-03
4.411581395999295344e-03
5.869191988224023611e-03
5.627858091364842247e-03
3.098664403753820847e-03
9.628840395291645609e-04
-2.526873247256303766e-03
-4.173852983260091867e-03
-3.326920219654382928e-03
-3.603542611616081508e-03
-2.421615596613405173e-03
-4.330946101268605170e-04
3.155161271173665197e-03
2.920039858042828770e-03
-5.738619488827179614e-03
-4.604151630693911063e-03
4.543431414332098697e-03
1.888515395197680686e-03
-2.980045774490088558e-03
-8.334799857910847555e-04
-1.416258890984766318e-03
-2.514872938872944694e-03
3.154496874984888052e-03
4.883179747792502912e-03
-2.418817032680502916e-04
4.069729782419492705e-04
9.466797552008423666e-04
-3.155248503067893586e-03
-3.573281629634312770e-03
-4.345295670840746555e-03
-5.424857169720988075e-03
-3.149782573909336129e-03
-2.060748103585820744e-03
5.150072645443662823e-04
4.181958781182801115e-03
2.619903173424838975e-03
-1.137588232904771239e-04
2.993900161957105898e-04
-2.924469019675051047e-04
-4.176564086786907319e-03
-5.731121739031728654e-03
-1.286156432897983841e-03
3.462231986278705483e-03
6.349187304360228920e-03
8.873886953594452634e-03
6.722697324135095201e-03
2.486310419326107947e-03
2.100541577860223579e-04
-3.549533710621144509e-03
-3.514028659452402611e-03
9.254887511777779930e-04
1.020145089564474406e-03
-1.290749178782124194e-03
-1.330239079788330010e-03
3.929348609755328736e-03
8.205312322962990748e-03
3.196509173370656095e-03
5.227459606224190911e-04
-7.349840055996663965e-04
-7.796459111118959895e-03
-6.326657688676391375e-03
-6.470062703178517532e-04
-3.113064981767673690e-03
-6.069830355585607851e-03
-6.823849748841265793e-03
-7.523478098220866446e-03
-8.658205673077597544e-03
-8.439437797108680431e-03
-4.775537995565621967e-03
-1.000112271624106937e-03
3.946879781584309785e-03
6.866664265688087604e-03
4.221844062487638966e-03
3.895560849636894429e-03
5.593614093970892057e-03
4.023360570610224132e-03
-6.044652195827069372e-04
-2.167394430031986154e-03
3.335417090446342065e-03
3.901133465170030738e-03
-7.416591865566611597e-04
1.005317169425668953e-03
4.032148934810989190e-03
5.428475308761323247e-03
5.217399791840180399e-03
1.309256177137858163e-03
-5.540149216997525706e-04
-9.057432081668418148e-04
-1.222906289142662020e-03
7.485133495934956664e-04
1.181205224941874864e-03
1.915067816280147865e-04
1.534390479813245835e-03
3.348318499760801620e-03
7.933664195538095475e-04
-3.995077526340058000e-03
-4.819809683636393574e-03
-4.415860135537259118e-03
-4.632833692989985971e-03
-3.200683658701660231e-03
-1.673063821662872964e-03
2.063393376186543025e-03
3.738089582424126284e-03
-4.979333800164154620e-04
-1.367884258260283151e-03
-1.042975300900681346e-03
-4.661495814368225507e-03
-6.692121098901056275e-03
-5.584223802681963569e-03
-2.989774381155333588e-03
-4.758069278939465463e-03
-7.421417770110074266e-03
-6.807065983965787052e-04
4.523468417831891589e-03
2.265802018322203050e-03
2.456002235292655683e-03
3.492373891627242530e-03
3.029295428989520114e-03
1.874959815860634304e-03
-1.318722446994925702e-03
-2.843477491188294102e-03
-3.035995240957022664e-03
-3.930010796813132243e-03
-5.518698642030073036e-04
4.725698163715813006e-03
5.560344869389095487e-03
5.468655810230363921e-03
4.047534034593798513e-03
3.449873944891820388e-04
1.957438721606097939e-03
5.618115999635547864e-03
5.529550664610664509e-03
6.893353543070658389e-03
1.007931020166871576e-02
9.556316942810909668e-03
5.478316516740820707e-03
2.606697019025828056e-03
-1.157172459106414059e-03
-5.168177083412561941e-03
-5.185040265456907459e-03
-7.024028119473234126e-03
-5.678090824800101702e-03
-1.450368244325049615e-03
-3.640918689912430502e-03
-1.991150658276439125e-03
-3.148997189930716721e-03
-7.508593558568127553e-03
-1.458669124013297356e-03
-1.280416867372069067e-03
-1.475963791806908076e-03
1.454215677326071770e-03
-3.032901023212264749e-03
-7.192753154301547748e-03
-3.392947700210453832e-02
-5.132155921452181274e-02
-1.175752840324208008e-02
1.630376781769734065e-02
1.672194224402433205e-02
2.563330475592322938e-02
1.929202239425967594e-02
9.474534773314467750e-03
7.168906077359924085e-03
3.332646943018097510e-03
9.498985945733128683e-03
1.045064781725068073e-02
4.587195339852030707e-03
1.409178122016377767e-03
-2.965563313459323221e-03
-1.219551220421383978e-03
-1.373151241129658964e-03
-2.323015445469274638e-03
3.756761118672452462e-03
5.571830577453870149e-03
2.634677180963235048e-03
-9.334280202630294626e-04
2.954440651995359412e-04
-1.374836790007383507e-04
-7.339124174793446032e-03
-6.111825966671508015e-03
-4.270236312676415312e-03
-5.473476196413947295e-03
-4.225672269685031013e-03
-4.780330615807786877e-03
2.988409442692523945e-04
2.393456027801046590e-03
3.623485762073008938e-03
4.101690353287340204e-03
-1.054710553471181235e-02
-9.731917237775795232e-03
2.695534000744411775e-03
2.272824079471025792e-03
5.988477873057868918e-03
5.427062372551900646e-03
3.293055601680487578e-03
5.154699162209718313e-03
1.191851294588107011e-03
3.510314366438916592e-03
2.220069736741896518e-03
-1.179165015401645051e-03
-2.552215827970578748e-04
-4.289953648207547529e-03
-1.471412298824728701e-03
-3.351005808684047677e-04
2.000620031529277282e-03
5.522830780665681678e-03
1.812583451170494834e-03
8.635858555248700913e-03
-1.818601039195280947e-02
-5.083140851087952078e-02
-1.134038913489958215e-02
1.319813755843803234e-02
-2.817816090114995224e-03
5.035054733077881997e-03
9.220346466256044982e-03
7.423868124448284277e-03
8.945163561267689342e-03
4.213500019488568109e-03
6.800829661112932183e-03
3.460501378277678220e-03
-4.944596697748767505e-03
-6.040155865678274900e-03
-5.080893025875076775e-03
1.515185074254442711e-03
8.181684281462469482e-03
8.692264669808037053e-03
4.131169808194095489e-03
4.167385713779657138e-04
2.530601728003683323e-03
8.800229095123097024e-04
-2.071613591151903831e-03
2.498158879896140430e-04
2.129235380929839043e-03
7.653327282200165929e-04
-2.520001120289122425e-03
-1.418534889266907014e-03
2.196497986142803647e-03
8.358438996251675059e-04
-8.761351071590950737e-04
9.574495198387116554e-05
-6.336187998323174198e-04
-3.650078661933086211e-03
-4.864639316801216799e-03
-2.741479754835683333e-03
5.547922178729190572e-04
2.186170424293266620e-03
2.785447346601598040e-03
2.730039918762795521e-03
-1.920648223273952338e-03
-3.904691067271009574e-03
-1.579164361272065303e-03
-5.447897547711363399e-03
-5.630193041515896106e-03
-3.100213257447508941e-04
-1.632171047484516722e-03
-1.358604631271766866e-03
1.917325884850024954e-03
-3.131213749288090545e-05
-4.544695947588995623e-04
3.060388137767734544e-03
1.540800382733842171e-03
-1.014823664683561864e-03
-1.446094861203298327e-04
-5.440409421275136520e-03
-6.264884583715361714e-03
3.368984105530726733e-03
5.216640344127132858e-03
5.081794340652534547e-03
5.801038059553659428e-03
-3.455043393313923079e-05
4.063620661848261844e-04
4.612393213291890448e-03
1.822863891275247703e-03
-3.387225636413064393e-03
-3.422099580013470473e-03
3.621797555384287663e-05
-2.147728216737899119e-03
-2.701717708970613301e-03
2.616564897534874156e-03
2.832361925086366704e-03
-1.226099950811597558e-04
-9.379413061888269756e-04
1.817732831992475095e-04
-1.073177270434293965e-04
2.099149236545105250e-05
4.750779134236543869e-03
2.454193164364546192e-03
-4.019757346173494054e-03
-4.385346182839407712e-03
-5.691524478062623231e-03
-2.973125290627308751e-03
2.604898889721746821e-03
2.950264260179994921e-03
3.902107934247267367e-03
2.882654587446324343e-03
2.069600963276622095e-03
2.576726446299289295e-03
9.604427130209211051e-06
3.290620207925453941e-03
3.616817532916390306e-03
-3.208756776082970566e-03
-2.761421511568573975e-03
-3.193826707120106696e-03
-3.390726852512356872e-03
4.116785321604117878e-03
4.382015475273329762e-03
-3.073008884279169756e-03
-6.225814670816941579e-03
-3.365587877986099801e-03
-2.026107561348805628e-03
-4.013972255216782803e-03
-6.326798366709316789e-04
2.625979342185418963e-03
2.404980410299490702e-03
3.186336778060607378e-03
-1.301573485540489421e-03
-4.130898881567741585e-03
-3.162042157129962361e-04
5.502632220039967289e-05
-5.984865321792598230e-04
3.814977195713937998e-04
3.584926890640561625e-04
5.793701828395122523e-04
2.048586391877571002e-03
3.400475034734153079e-03
1.937257480369084092e-03
1.733098013941815558e-03
1.736458904753991747e-03
-2.197600750140554782e-03
-2.827931491184738824e-03
-1.081666275643899423e-03
3.186913248052780667e-04
3.211350627291283989e-03
2.020740836980814120e-03
1.199455732396715419e-03
4.247783267686672942e-03
4.432386811078792635e-03
2.382286808187085783e-03
-1.310337732520583647e-03
-3.027685645517548280e-03
-1.620319659387164501e-03
-2.754594716198390924e-03
-2.440115738988998112e-03
-1.100660415639147065e-03
-2.076336238467267441e-03
5.190854996771672317e-04
5.015176948701985556e-03
3.725083895492825418e-03
-1.541659123179381754e-03
-3.685069152994283493e-03
-4.302233562025871080e-03
-4.439229795380701671e-03
-1.588613492842266351e-03
-5.081937630247654325e-04
-1.176198527060576867e-05
7.446494282603645137e-05
-4.408451663129417560e-03
-7.712471825510175231e-03
-5.623714546861774757e-03
2.522656668164048252e-04
7.421389974962350677e-04
-2.037334690033217217e-03
2.785712516249885373e-03
2.562605735165889454e-03
4.184047221738838320e-04
4.978054396811468219e-03
3.276088427220192733e-03
3.030133296572109277e-03
5.451173226589608317e-03
3.127321695710536236e-03
2.742745720065715813e-03
3.014591327586651440e-03
4.077836375826976792e-03
3.947130256740228119e-03
4.781324624412722039e-03
5.471122940642248259e-03
1.955275410211199452e-03
4.892986250001939499e-03
1.302525778521518209e-03
-5.660292794149401549e-03
-4.612097151542688019e-03
-7.277315691800023863e-03
2.159634334894245267e-03
5.735916574915548953e-03
2.839772167824459580e-03
1.295107114424404703e-02
-3.473705699462544742e-04
-2.700892240944133228e-05
4.475373842047675231e-04
-3.775453000891450250e-02
-2.201446293045738675e-02
-1.012742598256674217e-02
-4.267547056523932070e-02
-9.435912863903108197e-03
1.855750342102088432e-02
6.757469374311791954e-03
1.818420675953415916e-02
1.160737450919924890e-02
4.329113679902751497e-04
4.899495123132317949e-03
5.033959478451925824e-03
8.035823580003752589e-03
2.308495051553527324e-03
1.795455723860301398e-03
9.021721572446629936e-03
5.754618104676259387e-03
4.697295145407663110e-03
2.293300784054634871e-03
-5.953268840259140753e-04
-1.441188418015131771e-03
-3.883747953295671029e-03
-4.170339145661807931e-04
-2.428416555235935381e-04
2.088088100866178787e-03
8.964568067230309009e-03
3.211202328888852157e-03
-3.003075006278718446e-03
-1.777525795308311897e-03
-2.784051115888484633e-03
-4.459573422847564785e-03
-3.058394870909466375e-03
-1.324007990440224502e-03
-4.869892725578103473e-03
-7.925314526777747434e-03
-3.037794441916715805e-03
3.270098193688645780e-03
2.998450242547074165e-03
-2.227990336082670542e-04
1.033551227571072187e-03
9.547346778293087921e-04
-1.504236154168906749e-03
5.906076795122465386e-04
8.897995967102251052e-04
-4.151839364156864327e-04
2.031340566302641034e-03
2.027740254178244522e-03
-2.934166246449376736e-04
-9.414772214301467051e-04
-1.017771740356542996e-03
2.807576947794368592e-04
-4.718210312607482027e-04
-2.811408148357752781e-03
-1.732874788244953383e-03
-7.279576880472513750e-03
-1.274695538980059883e-02
-9.004121449252704178e-04
8.032972926755529292e-03
5.489713038561359199e-03
3.731446613619304048e-03
-1.745852376525003228e-04
5.375336500925044373e-05
1.597994856257331682e-03
2.444291948353193196e-04
4.222937070624238620e-03
3.319441842603313309e-03
2.205737619149238538e-03
5.504519700826566303e-03
1.234113450238103588e-04
-2.096679645848438262e-03
1.399408479928776830e-03
-3.767058011402473687e-04
-2.993864435578354362e-03
-4.954854468898930824e-03
-1.188945707641321905e-03
5.990339588279810189e-03
5.063895671722566140e-03
1.650161699280522191e-03
1.257635787988449667e-03
6.618900308495941943e-04
-2.837740393665896810e-03
-6.562095990683648392e-03
-4.736567313342815791e-03
-2.836371895039075264e-03
-3.962122499675918043e-03
-2.765942796770452534e-03
1.505371241401231392e-03
4.847570986110657371e-03
1.675849435080294363e-03
-1.211303848791231907e-03
1.776226620414667881e-03
1.575942101674255268e-03
-1.396219342209563830e-04
4.966087473830254218e-04
-4.818152163245390863e-04
4.271634047138956865e-04
3.460836225115022230e-03
2.622386838666788782e-03
-1.725136623775770130e-03
-3.582115242840331042e-03
-1.363606283950304305e-03
-1.216114308166474020e-03
-3.602185239605490332e-03
-2.719646621354882519e-03
9.779001191745943181e-04
3.165707176219623772e-03
3.538035754274179278e-03
2.911935788582201319e-03
9.478445880103528523e-04
1.487128850592573694e-03
2.934771777756034136e-03
-8.703438725850043455e-06
-1.795688318592324542e-03
-1.683211694704103267e-03
-1.516620757874515739e-03
2.425773042749429422e-03
3.228767986061155046e-03
1.011807690124823321e-04
-1.564758592609420435e-04
-2.713874992430627495e-03
-5.007392214118349186e-03
-2.229932056013034930e-03
-2.182796492211311942e-03
-2.802271228251556386e-03
-1.073021505941991818e-03
-1.772526939689416953e-03
8.589582795486812392e-04
4.606241068802467697e-03
1.982441060444556195e-03
1.277758334738651443e-03
2.593602353360240347e-04
-4.107539876243134803e-03
-1.661941717298895524e-03
2.584993736910186791e-03
4.156399633202603056e-03
4.217285535903786062e-03
4.873788387303085211e-04
1.351904412552983655e-03
3.710448931410217921e-03
1.040208760175290485e-03
6.734385274501427515e-04
-1.471919221685760813e-03
-5.353156180697427914e-03
-3.162063271422826168e-03
-1.683362025201883645e-03
-2.226119251294485582e-03
-1.058181659235623337e-04
1.232055265163763038e-03
3.614675502665681784e-04
-9.771022296153439746e-04
-4.969318527329394256e-04
9.369148990433146841e-04
2.813165555054523894e-04
1.088731901098725051e-04
1.812815514719658995e-03
3.998920911556421050e-03
4.816499978936819755e-03
2.303231357575216166e-03
1.851619831113882075e-04
-1.766284712217488237e-03
-5.495920228493444276e-03
-5.995339599168518323e-03
-4.475605856270411902e-03
-3.411950283156060630e-03
-2.341707706907283307e-03
-1.054292364767280476e-03
1.017655111969645483e-03
-2.386154286212996151e-03
-4.870772069740379046e-03
1.552529183089903023e-03
3.517316338074730469e-03
2.203161250297332261e-03
3.281024613401534000e-03
-1.324771151920844589e-03
-4.053996193856732565e-03
3.369465526941606542e-03
9.760610532466809652e-03
6.598320976276649333e-03
4.198980928825415612e-03
4.841287583680886283e-03
2.089623706135089400e-05
-1.538462144921582916e-04
1.678311931380511816e-03
-4.304789007835698941e-03
-4.217327820832284836e-03
2.610007884738995299e-03
6.600511775002072812e-03
6.292475176311986343e-03
4.542656469704387315e-03
2.216613580436614227e-03
-2.035309270553146196e-03
-5.058339209835617870e-04
-4.188227832899127367e-03
-7.406699842975356281e-03
-5.901066815695853477e-04
-2.614770986050868329e-02
-4.575042977535350580e-02
-9.577655292521764646e-03
9.431112147550980290e-03
4.146004216805012320e-03
1.297274685510640437e-02
1.103351739862585071e-02
6.335692254691775889e-03
8.035278952286560236e-03
5.241473678949381057e-03
3.445985973884520704e-03
1.902358923808374676e-03
3.750702952533042315e-03
3.994183133373642967e-03
-3.158395317621241847e-03
-6.569904893649256700e-03
-3.453979423983421539e-03
-2.072377592063101050e-03
-6.647113055211199828e-03
-3.814784993289791013e-03
6.566044436630682178e-03
9.114760032882137514e-03
1.100415025595204155e-02
1.342360031380123928e-02
1.151062611237026537e-02
8.133326440086708145e-03
3.482862686487501157e-03
5.513225325273827040e-03
7.390434209847767180e-03
2.819103343972348755e-03
1.292214871034267363e-03
-3.293527442729381454e-03
-7.799609277686485667e-03
-6.881418288895428670e-03
-1.156275832215881982e-02
-1.835988299657744655e-02
-2.143725958088515612e-02
-2.107938698692550170e-02
-1.825322754048373450e-02
-1.762008817761194501e-02
-1.306452412851945646e-02
-2.339861612461272607e-03
5.267546884905922530e-03
9.674416005920038683e-03
1.237789882649931866e-02
1.193791778119416246e-02
1.141082759660073248e-02
1.029525159018076542e-02
7.317753814418285173e-03
3.463351942625027876e-03
-2.954054868083941764e-03
