5.494303325922222231e-03
7.048771123494557145e-03
5.216658049927962691e-03
3.970527113670362790e-03
-3.380637263225343353e-04
-2.707046171800867214e-03
-3.820610445125008359e-03
-4.723988566057656080e-04
3.017776961871438193e-03
5.356541555605711432e-04
-9.839351544645642475e-03
-3.073371385338354370e-02
-3.065550618603427036e-02
-6.053515674510062151e-03
3.568306495242913774e-03
5.017668736838333705e-03
6.399268944911610385e-03
-6.646203526035553925e-04
-6.890860230281095795e-04
5.320953538270763693e-03
7.980322151746646261e-03
9.040664665547031020e-03
6.665792798436528943e-03
3.746041437583569941e-03
3.868731040762995229e-03
4.662830550726390459e-03
2.770213718505739383e-03
-4.585634640947851108e-06
-8.980531550308969765e-04
-9.242434747969838953e-04
-4.572309306748223489e-04
-1.337020597261745448e-03
-5.819995858729303927e-04
8.365318224835859625e-04
-2.082048005347358378e-03
-1.164875230055880924e-03
1.421120419193419668e-03
-1.344096314991123165e-03
-2.496204787244975503e-03
-1.527453995581197141e-03
-9.649189671814561737e-04
-4.819518407590962891e-04
2.094585531699685518e-03
5.812171968360240609e-03
4.099143683390082775e-03
1.626724165752558779e-03
7.135203556397434971e-04
-6.344462754698822465e-04
-4.078303356439953210e-04
-1.895599821048450130e-03
5.052850488713618842e-04
4.829482764011854175e-03
8.926289529092829673e-04
-1.991135452820114952e-03
-1.514416635061115440e-03
-2.967372383341041874e-03
-2.873935507575734686e-03
3.016310611181457677e-04
2.421042065747757051e-03
1.397989070410171977e-04
1.402580987787713880e-03
1.931468171140496076e-03
9.117110954652208650e-06
3.527501034705952249e-03
-1.350678084292880263e-02
-3.452701569031504936e-02
-1.524350376479035457e-02
6.188204400446684593e-03
7.189967651983844750e-03
9.403183893049452818e-03
8.187594606023577970e-03
9.527951724877744416e-03
9.685031857139050904e-03
-3.402121398391724696e-04
-7.495925494403675405e-04
4.088041107259261092e-03
3.019550001493275090e-04
-2.790478468336147089e-03
-1.831597992177389856e-03
-6.605451266809760514e-04
-1.486074704460546309e-03
-4.225654497851232157e-03
-2.163897288133710597e-03
6.939038573576281760e-03
9.668805605880717927e-03
2.455712413389215740e-03
-1.095968351993464223e-03
-7.973855547730593699e-04
2.381963061332582096e-04
8.299716853262999270e-04
-4.133863669186550564e-03
-5.811197310887988680e-03
-1.127697873539247218e-03
2.396095044852813733e-03
4.099534408822040621e-03
2.762953287374372846e-03
1.745221752317996453e-03
1.810814147403741990e-03
1.581653515792741773e-03
2.906591269130702135e-03
-7.569443825055208099e-04
-4.753148645574431161e-03
-2.628117453976657608e-03
-2.321921401728067273e-03
-2.698420115578268729e-03
-2.502428066910429572e-03
-1.103902917072091582e-03
3.706772292928089008e-03
2.331248156389362572e-03
-2.658992055438097035e-03
-2.015137124903137924e-03
-2.013095468069671899e-03
-4.385345621837919393e-03
-2.870916555152120287e-03
1.341230510477917645e-03
1.931262698853939124e-03
-2.642231103382788101e-03
-8.459260194539746855e-03
-7.084228057856935962e-03
4.587417133758167620e-03
9.317970364819560050e-03
1.772428560246342962e-03
1.049533210733639152e-03
4.450541315145386048e-03
8.949491492657861186e-05
-3.094382164952612455e-03
6.017812655546892582e-04
5.212594354900746893e-03
4.057812832835696291e-03
1.441707861330827380e-03
3.419412794135802403e-03
2.547268069362300727e-03
1.211952264745093334e-03
1.728243257028509716e-04
-5.179037146022517912e-03
-1.205428274777577569e-03
3.389505328392807861e-03
-2.527963190736875771e-03
-1.245508573896647207e-03
-5.265017972207446800e-04
-4.819586966452652117e-03
-2.857017456313505751e-04
2.246217022414765795e-03
4.973062988109476501e-05
-1.778608943849822833e-03
-4.461358219727770170e-03
-1.057358907385596994e-03
3.661392245144771962e-03
4.094446965143268106e-03
2.440394814723700206e-03
-1.311295016347859346e-03
-2.749880983316719835e-03
-3.056850677042436716e-03
-1.352715602376966877e-03
3.825176314127075924e-03
3.597609820945072215e-03
1.069910151871558386e-03
9.910529333561756294e-04
1.029027078042767763e-04
2.030292512775946651e-03
1.560175124828747616e-03
-5.305139602205851540e-03
-4.346867848951480214e-03
1.673384785447790124e-03
3.976764537487455459e-05
-2.132111109003152326e-04
1.810593135820813245e-03
-1.574879337584428893e-03
-1.753938331616085528e-03
-6.621725744083349586e-04
-4.101400350814811933e-03
-1.347153229973527657e-03
4.073185544914496338e-03
9.723071714034679704e-04
-1.828594254731546196e-03
1.803820611385713790e-03
2.106217147327893013e-03
-9.959340936628203068e-04
9.285604223613137158e-04
2.901099825738347356e-03
9.681104736809425593e-04
1.206603682981448843e-04
-1.275597089088076385e-03
-5.143401267258036584e-03
-5.561252743890465755e-03
3.052105225342918639e-04
3.469501871191708452e-03
1.282323454260020801e-04
-1.134815286147717456e-03
-1.973744651956997435e-03
-3.722875258064573239e-03
5.172003245943521512e-04
4.110225165329025113e-03
2.314180209518054265e-03
1.248706680265150235e-03
3.595668444860300288e-03
7.646679626315973019e-03
5.961248426141422217e-03
3.445668087133437222e-04
3.131590328758918703e-04
1.812992476923106075e-03
2.562260271574901254e-03
2.151587387614179413e-03
-2.912256492033871332e-03
-3.374227850323582422e-03
-8.137667211904530339e-05
-5.068456598094295490e-04
1.279171489019422132e-03
5.494348359833600226e-04
-3.549800029827036331e-03
-4.134170092278496855e-03
-2.166202899995053627e-03
6.405027769799530313e-03
9.516347754303810039e-03
3.277030192042919982e-03
-2.761266841840118082e-03
-2.383933986299480515e-02
-3.387395787023984167e-02
-7.926590387268639751e-03
7.425444177930564174e-03
5.042379770616216283e-03
6.426830551514271447e-03
3.204595569166721752e-03
3.372152329261595641e-03
7.368155860854870391e-03
4.617761032836180564e-03
1.786298897456516837e-03
2.378577005195346098e-03
1.768888285523265765e-03
-1.731266571990920308e-03
-1.643769957259469936e-04
3.672670470755394576e-03
1.975122249128759885e-03
1.758962134335732407e-03
5.138602155695471199e-04
-3.551844331452728293e-04
3.986712124969907581e-03
4.832609172969067751e-03
5.331272426553707033e-03
4.052535930676774700e-03
-2.703509818892238081e-03
-5.382875677192985354e-03
-5.368714764439665339e-03
-3.327678561708842780e-03
-1.286040343650793422e-05
-4.857524091513608974e-04
-1.222589793217606887e-03
-2.194089223627140872e-03
-8.849148881060716395e-04
7.623214361156850638e-04
-3.026974783898279172e-03
-2.160123379516509703e-03
2.061116164078402330e-03
1.036093085241774660e-03
-3.014720762140279844e-04
-1.077269747441927418e-04
1.284370511279248278e-03
9.518567184574993874e-04
2.891304708675232948e-05
2.584895898875056667e-03
-8.994839523639568146e-05
-2.678555727340260501e-03
1.400655238151920058e-03
-2.736946364117464345e-04
-1.002065856414856683e-03
2.607099266402309809e-03
6.374538354914505026e-04
9.841091905245708850e-04
-3.376940357224904321e-04
-6.398126639790433813e-03
-2.196583210626767112e-03
4.959850472472672120e-03
2.589711474192721297e-03
-4.662522855217081721e-03
-8.203047344392335599e-03
-4.089194284649251207e-03
1.254106413372653656e-03
3.188172412524004507e-03
1.842403692722753561e-03
1.672339207532920003e-03
3.642065227890456825e-03
2.330157896087819958e-04
-4.275315644971228028e-04
3.468873653618136099e-03
1.731139293876704901e-03
-1.081259122417560460e-03
-3.316790206689576061e-03
-1.949150643053826197e-04
6.911963261139970026e-03
4.883076207006805877e-03
9.335629310577909547e-04
-2.355937755209202254e-03
-4.384420739175065758e-03
2.042814462200100243e-03
4.338533991571446799e-03
1.130844228578927694e-03
-2.209848606058400339e-04
-2.219529351336600037e-03
-6.800569475504254476e-04
7.585965062506766325e-04
-2.639928013563917070e-03
-4.830327033584878513e-03
-4.670761232565608968e-03
-3.530755564114277864e-03
-2.157603935981682259e-04
1.727315141010980770e-03
-1.149817328488093957e-03
-6.172399504260493892e-04
2.182913534371793644e-03
2.258287747827782382e-04
1.473900970596964555e-03
1.314698700703890956e-03
-1.942341874850393507e-03
4.426665188065784609e-04
6.027251893554444375e-04
1.937860207472339238e-03
4.728709182563163582e-03
8.813578146313900529e-04
8.380143271983311361e-04
1.550397451243199507e-03
2.415455757333935419e-04
2.410171243570108542e-03
3.708045170273715141e-04
-1.489975875256423915e-03
-1.686812329430683460e-03
-4.364526074029751596e-03
-1.821477163816120123e-03
1.414977807420764785e-03
4.766749499587528928e-04
-1.048261364824448955e-04
-3.834736401782390391e-04
-7.561125811258104235e-04
-1.556181441709345113e-03
5.293153278462691449e-05
2.835598226927350547e-03
1.327340250098716463e-03
-6.444350117615602102e-04
-1.941569034599093099e-03
-3.227626284723507724e-03
-1.950749707905369626e-03
-1.011314398519729289e-03
6.733369507838303210e-04
2.657747758270727258e-03
-1.251147872737903193e-03
-4.721403856503252755e-03
6.519086010659940486e-05
6.462965492246714946e-03
5.038453539040796403e-03
-1.362652563376975283e-03
-1.310481521156015104e-03
2.977641011668634864e-03
2.442881611925751435e-03
1.342211164780708285e-04
-1.571743868981428710e-03
-2.373765120481024365e-03
-4.826729805669784882e-04
3.832530132053422675e-04
-1.198422869145139390e-04
1.206172614845923237e-03
3.155770693899051516e-03
3.526935793395167846e-03
2.944707377975696715e-03
1.860765043994085620e-03
-1.136839431300246551e-03
-1.395350033612383122e-03
5.200592736372511120e-04
-1.352989163714233547e-03
-7.413848723627049567e-04
-3.041846375311702574e-04
-3.472893052905585629e-03
-1.961551562644556126e-03
-2.062238373313358183e-03
-2.443374316575660978e-03
3.458195074395664713e-04
-2.698887125255817511e-03
-8.521513626897406473e-04
3.509112106388211604e-03
-1.137139528003734820e-03
-2.018683743491578048e-03
-1.072548126954654029e-03
-4.890568164819298919e-04
4.911354026491136261e-03
3.377436287813984171e-03
-3.631008277914868441e-03
-5.506496273538863048e-03
-9.569335639258335280e-04
3.894248813808506154e-03
1.909893648323851166e-03
-1.023266534912841558e-03
-2.122785250847043087e-03
-1.441696603536057354e-04
3.082320637434381259e-03
-7.305338011708814886e-05
2.452589059431189381e-03
5.958988393800332753e-03
-2.621445706981380581e-03
-5.425490229416588851e-03
-2.904182813427014058e-03
-1.231274825954822199e-03
4.431936385195175271e-03
3.516188803058832926e-03
4.353410988781109041e-05
5.831798935518930352e-04
1.434295990760731197e-03
5.553601749696846293e-03
6.492186437938974632e-03
2.908114993352339459e-03
2.095286364690243305e-03
2.977461726770516855e-03
9.198252646596235182e-04
-3.885992132692006693e-03
-2.674418891100029724e-03
6.570003698548307130e-04
9.828559478368352584e-06
-1.331946384846585240e-03
-5.020488549565057558e-03
-2.123581228084153814e-03
4.103591183753339984e-03
3.332621597862617507e-03
3.263359043110500811e-03
7.488368722421968838e-04
-2.358639805291704191e-04
-8.162452474691175852e-03
-3.145342981080322120e-02
-2.743206607623883617e-02
-1.848339974451707968e-03
5.421681348510676290e-03
6.322597951675346280e-03
5.418199018165539664e-03
4.672170160385306394e-03
8.788572706130160991e-03
7.090078289682081800e-03
4.863039143406332372e-03
2.999718411143742058e-03
3.679592679974545829e-04
2.117541618756696670e-04
3.479794865887331700e-04
4.188797310456029988e-03
5.230252205732224997e-03
2.352297040407131355e-03
6.967223340732983097e-04
-1.642058252744794120e-03
9.341602518012629601e-04
3.371986937399851312e-03
3.570321136384013889e-03
4.804874271131072232e-03
1.545074363151985059e-03
1.047933840589290472e-03
4.350192049796440747e-05
-3.747320174981949234e-03
-7.322445766425925671e-04
-7.402885936048048208e-04
-2.479945966122263680e-03
-2.314186864688524102e-03
-5.333079760634382854e-03
-1.926399615771302734e-03
1.392731311632946795e-03
-1.951561169882195428e-03
-1.516018979369435212e-03
9.307048391267003879e-04
3.599763789928976578e-03
4.726885836917717534e-03
4.094112599978511438e-04
-2.888493685428808119e-03
-5.024422518220330106e-03
-9.337822501931537095e-03
-7.093639088134036201e-03
2.348744037818641280e-03
3.343126085138325727e-03
-2.972906243545281151e-03
-3.311592739339724346e-04
5.180782604494367852e-03
7.415505034404114293e-04
-2.341888228573103890e-03
3.171514730516266246e-03
3.653759982126900010e-04
-8.222175344986868903e-03
-3.700558049105057753e-03
2.237994330180326751e-03
2.376311566466497282e-03
5.313109072601352768e-03
2.281464144641710042e-03
-2.782097315989160487e-03
-7.976395886345162903e-04
9.720760986372370448e-04
2.675896452069324773e-03
3.780087692459400267e-03
3.847188956220261476e-03
5.958302097146889013e-03
5.556873975945711766e-03
1.985548346143291721e-03
-2.635697564139615878e-03
-4.414555321958447444e-03
-5.851174346136687457e-04
1.903724838103156404e-03
1.456166839996820856e-03
5.884845899283132429e-04
-1.045363160239232798e-03
-3.748790845300846789e-03
-4.465610219222007800e-03
2.330831323207436297e-03
4.645802250433188167e-03
-2.243198996560627489e-03
-6.400775890088874175e-04
2.645600271489824667e-03
-2.800238583101446067e-03
-4.896178053156550504e-03
-3.194569931018990169e-03
-1.990270573706807468e-03
-1.230953412326502711e-03
-2.129127843174411124e-03
-2.160808949777041910e-03
-1.972114699124777673e-03
9.095776377598740548e-05
3.007549169591618079e-03
1.200344543335870760e-03
1.038471395258436345e-04
1.474766904598130311e-03
2.806335604864994542e-03
2.237614598223255404e-03
-2.231266652425216261e-03
-2.731577737023038310e-04
3.115591360403175639e-03
-1.186915457933988014e-03
4.520412583640144588e-04
2.220339680312655162e-03
-1.267714324796627174e-03
3.315435510219683166e-03
6.347060760018403969e-03
-2.956588947701138713e-04
-4.665235915822260257e-03
-1.547576123052518422e-03
1.458156774424050877e-03
6.468828233378618548e-04
2.255297310385049551e-03
3.202306446296851287e-03
6.953671070612000866e-04
-2.780968443863827619e-03
-6.096244051462073980e-03
-1.473651220708434469e-03
1.992032614825286520e-03
-1.575193303569069310e-03
9.733911536315417246e-04
1.592334827214258617e-03
-2.617874349939555267e-03
-7.768712952700034848e-04
1.625063786214355280e-03
-4.246798818118912113e-04
-3.253329524014294313e-03
-8.023456996398753210e-04
1.169461435948521534e-03
-2.051158991038492564e-03
-5.737714036603571398e-04
6.693645980810163359e-04
4.489732896656436025e-04
3.394982360636008417e-03
8.260318612585052346e-04
1.484455818089410102e-04
2.584221450799299193e-03
-1.473660829617395081e-03
-9.785297170255237084e-04
4.036659970303134448e-03
2.780539974996656602e-03
-3.362640296062228734e-05
-8.134656010295503257e-04
-2.144923883147607964e-03
-8.306951603904336829e-04
2.350157076411184959e-03
-7.978323670222740643e-04
-2.117134250750702436e-03
5.150657852540304303e-03
4.635062684419259671e-03
-2.072884976638325865e-03
3.155468633113560958e-04
2.189163465653875748e-03
-2.948916694303452182e-03
-3.859541962929121609e-03
-8.297073801166495854e-04
-1.325408715292419838e-03
-2.543696312373721746e-03
-1.232170249893872619e-03
2.484315002911457169e-04
1.212289691379811116e-03
2.189666981707945673e-03
1.419800452362027969e-03
-1.073834369167403751e-03
-1.101654178129695977e-03
1.497714507758953189e-03
1.440551038816224741e-03
1.621246231890939517e-04
1.928167017009364348e-03
1.221596182216210143e-03
-3.440258656433680274e-03
-3.017770011509411827e-03
-6.141731741626168942e-05
-1.640535109527265552e-03
-2.032555560949960219e-03
-1.392348014198245077e-03
-4.538951193090828319e-03
-5.162507314956438741e-03
-6.847851255932555599e-04
1.522395737055127173e-03
-1.403205917655214979e-04
-1.424382320333988363e-04
2.082092479505149793e-03
4.543095462764049769e-03
4.728856478566232681e-03
8.162981622843752791e-05
-8.493655151650238502e-04
3.972334149166600187e-03
5.326755015672439766e-03
5.464126825011593469e-03
4.448267971292336163e-03
4.047677928154569437e-04
8.911889786631532360e-04
6.105680354177094385e-03
6.875079810628565227e-03
-1.475286904653641789e-05
-1.867392500112518292e-03
3.653944433315803927e-03
1.980491829438658404e-03
-2.319031943237084836e-03
-7.259977950516228800e-04
1.602270964511300728e-03
3.753069123727432749e-04
-2.960186239022886186e-03
-9.563051455725406561e-03
-2.733543008137595542e-02
-3.156929737515747070e-02
-4.969963952592365217e-03
9.434659714886720755e-03
4.024687616128425939e-03
5.947420137903162117e-03
6.441003381116667571e-03
2.528126795311148867e-03
-2.098104019745281523e-04
-1.163242717987320518e-03
2.385842044888374265e-03
2.540861933972402616e-03
-6.681880787870478561e-04
1.787163704418219805e-04
4.124725893243441112e-03
5.507354094043235768e-03
1.948224342850923135e-03
2.897682970565622178e-03
9.731057496081958053e-03
9.883524681971097084e-03
3.578744500536204954e-03
2.536554024776464192e-03
4.673733320268700676e-03
9.879184111203558136e-04
-3.387699249190543292e-03
-4.396755849218679339e-03
-2.571803658873724353e-03
1.220921645160366348e-03
-6.739589480829452682e-04
-6.072184317918780279e-03
-9.056586206443808379e-03
-8.348563072026469675e-03
-2.830024081122119867e-03
5.333220290075389117e-04
-5.913744648233516636e-04
-1.456018273091986420e-03
2.829402390282569242e-03
6.621039905434784878e-03
-1.474660407019015530e-03
-6.397038622178258423e-03
-2.165522520438930253e-03
-1.431818101099628518e-03
1.117562367441465171e-03
2.053918011184981986e-04
-3.853172273522278372e-03
2.380116470590323049e-03
6.604008674976837197e-03
3.236476281498637617e-03
9.798982341570651455e-04
-1.160531159993306166e-03
-1.882720204374703412e-03
1.637830516675192055e-03
1.979970726446931423e-03
-4.812583384027487379e-03
-2.894675972612763097e-03
5.849762833132975473e-03
3.793764875744221315e-03
1.055088862767147905e-03
9.267335977617251067e-04
8.415006347030690908e-04
7.127329919649397390e-03
5.691535592801249231e-03
-1.539474931949223616e-03
-1.466737464000844224e-04
4.605135395022510471e-04
-1.602529981060771139e-03
-1.911591925566956439e-03
-2.034161035691563896e-03
-1.595101600313976725e-03
-9.352519401253362027e-04
4.109355345049358309e-03
7.578572157292544006e-03
1.467882126662416013e-03
-2.067145792232827350e-03
-1.813528153944484345e-03
-4.402695607721130236e-03
-2.740779224693406287e-03
-1.676048563365252963e-03
-6.721352501302765674e-03
-1.101950810814791328e-02
-1.360161733846190941e-02
-1.088383900591279214e-02
-6.120127719829061320e-03
-5.389372725092119072e-03
1.372063995065761965e-03
9.751755657013479184e-03
1.158961356944254208e-02
1.241084464849835645e-02
1.036213325916396887e-02
7.436531305550366823e-03
2.864902489017660901e-03
-2.692601109645288270e-03
-1.124801202263882001e-03
2.604224511582552398e-04
2.279539195867251802e-03
3.401066098011341996e-03
-3.696506288529403939e-03
-3.604919296782194138e-03
-2.486177579203629074e-03
-7.211458138192705127e-03
-8.504059905450138922e-04
4.517203077184324921e-03
-2.994756782334847840e-04
-4.535368991429184100e-03
-7.082186561088806356e-03
-4.521244859771249638e-03
1.803890702150698962e-03
5.897132951844481080e-03
9.242398630088624265e-03
1.264359959002673423e-02
1.261186479073721223e-02
8.705726785029123740e-03
6.190978149423380546e-03
4.259318735160332568e-03
1.990338367738130661e-03
1.722498418576676182e-03
2.388575902164271660e-03
2.168383852960158956e-03
-4.243725720052824064e-03
-8.839865005047561897e-03
-5.762495165773056163e-03
-7.419215461474070600e-03
-6.455414369102902353e-03
2.046048971677369606e-03
4.517269195698595322e-03
2.275039266362760375e-03
4.225420575987943669e-03
1.015715961348089696e-02
1.699511902755639244e-03
-2.472794354411646245e-02
-4.578559822460654544e-02
-5.209901722876198599e-02
-4.052718744607099882e-02
-2.357834359200584179e-02
-1.083002583483775975e-02
1.715803950994247359e-02
4.312067149922425846e-02
4.455747034107800097e-02
3.506907511326082943e-02
2.037515846121509475e-02
1.298862014607345995e-02
1.331855767049728440e-02
6.777436532929758013e-03
4.090463188988702203e-03
4.876435588353803322e-03
6.849198470708034534e-04
-2.725259871713999870e-04
3.252025430355034129e-03
5.192852438741507939e-03
1.354119740287959388e-03
-2.801310629337878683e-03
-2.098457262382226376e-03
-1.715366817063316597e-03
-1.034076365247432868e-03
-3.372509815201318005e-03
-9.782355632052236460e-03
-8.943614789530427919e-03
-4.718839497593415103e-03
-6.220776960327942945e-03
-1.088767143879431493e-02
-1.184729362958712034e-02
-6.380236311029605784e-03
-6.358101370992052734e-03
-1.300725127566714975e-02
-1.492867570581392356e-02
-1.139292260906931732e-02
-8.735944719225641761e-04
9.855458346662937172e-03
1.442222890916656543e-02
1.729399605180629781e-02
1.041242148595050536e-02
8.745468401971496185e-04
2.432192083698122339e-03
4.231271096324678259e-03
5.651892525219099489e-03
9.463870340321752644e-03
6.506731040238556384e-03
-3.713179935301431402e-03
-1.052532376886831759e-02
-7.267591013275640464e-03
-5.843302676738772530e-03
-7.609371825530082852e-03
-6.535383160593674287e-03
-9.572249737575007703e-03
-4.796582621858122043e-03
1.078027575169085255e-02
2.728124784589290239e-02
4.506281680493422204e-02
3.779121815588700611e-02
5.975075066077219915e-03
-1.194284679917071920e-02
-1.630979961204643072e-02
-1.073674548518337678e-02
7.597857459305789977e-03
2.603369096369074001e-02
4.463937211065223398e-02
4.639868189729570713e-02
1.115354555886270867e-02
-3.244391446426952985e-02
-6.386603788695474626e-02
-8.535478279703673232e-02
-7.745846164307441939e-02
-4.728456248680026203e-02
-2.130486701927526705e-02
9.457192044668855102e-03
3.880900949706073827e-02
5.787226443840761542e-02
6.878529491112976568e-02
3.455837910536935925e-02
-3.313792736678278228e-02
-7.197755201797857716e-02
-8.164254358474049011e-02
-7.643292563670162076e-02
-4.574869732729035243e-02
1.527676620829774472e-03
3.684091698032262996e-02
5.233959359507234926e-02
5.808647968185569332e-02
4.252159949836574471e-02
2.087412436770699417e-02
1.958168057800722950e-02
1.398911625570394349e-02
3.526961889559865771e-03
6.324034379599855968e-03
1.406145329831109611e-02
2.224720435846217967e-02
2.213576211972071578e-02
1.997340924657221850e-02
2.558454668851244465e-02
2.621303627548981358e-02
2.236108598151572910e-02
1.786250407895069794e-02
1.094199321153301041e-02
3.803828082666558478e-03
3.843330149428049632e-04
2.040268684160231102e-03
4.482685581027873851e-04
-2.384822916980796834e-03
-5.628144979782091252e-03
-1.082626431511330735e-02
-1.810231877041202850e-02
-3.411154149980755168e-02
-3.235381225735600719e-02
-1.807043262397063296e-02
-2.271815354483661467e-02
-1.947352929216013620e-02
-3.530414411541421549e-02
-7.534655637207561540e-02
-6.544001480950178973e-02
-7.008125811237185532e-02
-1.245838228457591679e-01
-1.106195814429362101e-01
-3.116831759056567022e-02
4.460459803053794942e-02
1.036076025404980561e-01
1.122995446368992983e-01
8.008739445365377352e-02
3.387440891252101877e-02
-2.099768083679143249e-02
-3.331093507986790381e-02
-6.836877065784944868e-04
3.531973292991165414e-02
8.054092540688392865e-02
1.017139177132839051e-01
6.691429792483147287e-02
2.571061771420425981e-02
1.605275988930358194e-02
1.955925791702451191e-02
4.851002547657490629e-03
-1.177608118027227008e-02
-5.811859833290818241e-03
-6.556122248547637497e-03
-8.427948675641609710e-03
1.737660817023062299e-02
4.658137251704289744e-02
6.122187775292974032e-02
5.297840159681466154e-02
1.976386338827925901e-02
-2.493986291687531453e-03
-1.722525729773930966e-02
-6.743124329482896862e-02
-1.261523998542188885e-01
-1.373379810157961955e-01
-1.141078143531544936e-01
-9.693778430598100349e-02
-8.948058695924014649e-02
-6.417989577387957223e-02
-9.010231475803478704e-03
4.332987853897889152e-02
5.972414225631179213e-02
5.308413087722226725e-02
6.576366822755441710e-02
8.312868473108929457e-02
6.491266515753689459e-02
5.619627818884499748e-02
3.604727240393364174e-02
-6.326945279985995985e-02
-1.298351866552365230e-01
-8.569439033524728355e-02
-4.331045543246092588e-03
7.208956817309448983e-02
9.701149119900058515e-02
5.947332970976035998e-02
3.703966441499680767e-02
4.727700205923710680e-02
4.446751818589480404e-02
2.839912856106150546e-02
2.121408364641589120e-02
1.737024964457990761e-02
2.328106763881930899e-02
2.861987459043131843e-02
1.618747838773859984e-02
-3.671306493201233374e-03
-7.706605249577153094e-02
-1.545938952130381516e-01
-1.234886493392485379e-01
-7.078499993019450598e-02
-6.549126541368810450e-02
-1.007177674908558695e-01
-1.399698959549716681e-01
-1.250084681843444644e-02
1.889847069816809888e-01
1.908070921390191688e-01
7.481680918301514271e-02
3.394222445413877780e-03
-3.897130042438563813e-02
-5.542377113590500615e-02
-3.852258197661183325e-02
-1.421440791570998709e-02
1.325936073416167198e-02
4.616757235309242730e-02
5.651172371286922874e-02
4.135008700115359870e-02
2.257422323040335008e-02
-5.330011859990699263e-03
-4.748163990270515972e-02
-8.130560862425023627e-02
-4.512316960477665007e-02
4.314325642437473463e-02
8.931859631470526195e-02
1.193939720424526951e-01
1.429246363787675111e-01
1.112587895053764320e-01
7.365456439169622282e-02
4.154457190807789302e-02
6.483615402568471478e-03
1.776990677289031493e-03
5.100153958929429417e-03
-4.710149871582837433e-03
-4.278927427084611851e-02
-1.010530592637747804e-01
-1.380104474359999389e-01
-1.406063409199276304e-01
-9.961039680682279296e-02
-1.069310161000211340e-01
-1.818475398515645991e-01
-1.397332092777522350e-01
-8.198770554277441669e-02
-1.508309931251144154e-01
-6.838570652592811105e-02
1.705931598362968316e-01
2.754596682301863053e-01
2.611900069746982411e-01
1.127910771044879912e-01
-1.652999254771289339e-01
-3.060290753840058664e-01
-2.941505242409865883e-01
-2.112073053969273084e-01
3.736483289366790417e-02
2.890057454641160040e-01
3.413172076777222230e-01
3.004988773950756920e-01
2.545905526131110874e-01
1.868117150270134363e-01
1.317701863295178966e-01
1.176688181840791492e-01
1.029956174994596102e-01
5.154296360051663362e-02
-1.284889298747215330e-02
-6.270090063046153406e-02
-9.516349204221009883e-02
-8.797605434986201234e-02
-1.277873145029510132e-02
-2.332482185766499710e-03
-1.939263462816382400e-01
-3.671179905811782773e-01
-3.625248615426238108e-01
-2.793985360533733919e-01
-1.562638346641821371e-02
3.161013358158473174e-01
3.305135478559951268e-01
1.590526517573140619e-01
4.582199398385140843e-02
-1.298666192759642957e-01
-3.580787723862599026e-01
-4.346718909750907356e-01
-2.781912342825162421e-01
-1.956566935211729100e-02
1.736562941875123833e-01
2.793299148444149393e-01
2.802040056086292918e-01
1.698511443795903686e-01
5.795013919978576900e-02
1.220421434835303361e-02
1.726914108004196438e-02
4.065457595222773945e-02
5.450366788490461356e-02
6.059629587013379282e-02
5.307242734820393631e-02
3.208666738881227332e-02
6.217915705397703864e-03
-3.225455289035063927e-02
-4.691184996143060032e-02
-1.687048899571348334e-02
-9.919588180286320611e-04
-1.339104632933007556e-02
-1.129639897198321183e-02
9.631980906408595805e-03
3.130039693559152209e-02
3.195373988248559338e-02
9.716151960075428791e-04
-3.388542498743093295e-02
-5.035564973399809380e-02
-4.788236560494379956e-02
-3.568334191676061917e-02
-4.134547119830431910e-02
-4.477409393440252849e-02
-8.321822609752319369e-03
1.366410918521796837e-02
-8.279312149415213318e-03
-1.746921853847178616e-02
-1.085950560760431081e-02
-1.175427908159285863e-02
-5.286586643144862256e-03
5.733699879767521941e-03
9.949719435149795635e-03
5.651529261838749221e-03
-3.882982021036387142e-03
-4.331249626514892606e-03
8.260436165644921081e-04
2.319834871944348540e-03
7.568173562184173433e-03
1.454730504725751036e-02
1.490678172019670872e-02
7.922451542254431087e-03
8.488076654499627453e-04
6.230114844763080806e-03
1.650493220602231373e-02
1.457351037332314456e-02
9.864624242776252883e-03
9.613230187800657356e-03
6.323819784006386342e-03
1.066236545209110417e-02
1.973802068760790659e-02
1.639579828597325858e-02
1.213365360764510383e-02
6.482765091072734132e-03
-4.844645855396357767e-03
-9.977034045215120786e-03
-1.632664974142371273e-02
-1.784453756082285750e-02
-1.269388187190645216e-02
-1.247421369554088319e-02
-6.581571291880545377e-03
-1.580178337177089859e-02
-3.680707839545199755e-02
-2.702509366925025594e-02
-8.105863283091412769e-03
9.979360979787755756e-03
3.466043544650329600e-02
3.171576740347110263e-02
1.102325343071044843e-02
2.627404915359685036e-03
4.056022484012307069e-03
7.087310435283033887e-03
3.555627523849770859e-03
-1.340360139034151889e-03
-1.363498233059292145e-02
-3.179464622009887248e-02
-2.297216908142222722e-02
2.443395172847527205e-03
1.342976768894552607e-02
1.282552999354042052e-02
7.913113007900877266e-03
6.101801596030096385e-03
5.919619986845087514e-03
-1.152334009733768996e-03
-4.687657282058815128e-03
-4.036662314880676001e-04
-1.187277536248938304e-03
-4.083049159696926743e-03
-1.878499820251291639e-03
-4.295896413654013389e-03
-7.899833247158233318e-03
-4.761533667418767907e-03
-2.938051202284127934e-03
-7.622635517809776828e-04
5.990803910924330598e-04
-6.194935130971878246e-04
4.859209480439512577e-03
5.295137150121868169e-03
-3.444902868125872524e-03
-2.687394891718161618e-03
5.400499288277635715e-03
7.726974990102638934e-03
4.489109543026699803e-03
3.239395305315600875e-03
4.346946670456899170e-03
4.416212115689467643e-03
4.678450343002736253e-03
8.466231155916661370e-04
-4.323636126288033475e-03
-4.394729349372589015e-03
-5.565630953759621857e-03
-6.695214822213099368e-03
-2.559506156823245383e-03
3.343510213512157665e-03
3.872541846365148716e-03
-5.514934719608537671e-04
1.420877998171345353e-03
5.266020061762199250e-03
3.355088884975027282e-03
3.164935404842462736e-03
1.434677808806573886e-03
-2.198325836533468903e-03
-2.613092283826293216e-03
-3.945697701980313034e-03
-2.176178709410361584e-03
-3.329281368391761881e-04
-4.689453579272058817e-03
-2.700414094872326948e-03
3.628615311493857583e-03
9.166090989254865960e-04
-1.597032739211506425e-03
2.890388530816625709e-03
4.567791159797742612e-03
3.372518324368149224e-03
3.274528449238734394e-03
-9.197344539392125675e-05
-3.912381070856336789e-03
-3.359314429900039142e-03
-1.720354535806456388e-03
3.140084065553260320e-04
2.559426993896420088e-03
1.280295857880172587e-03
-1.921821340065541905e-03
-1.478421657000772525e-03
1.335717019330321569e-03
1.416730527059489528e-03
1.182112407166990798e-04
1.386476804849526854e-03
3.047322675865659757e-03
-3.042193238761862280e-04
-3.173451499240214149e-03
7.260872102543740672e-04
1.157964936326290849e-03
-1.607322151530767539e-03
1.708864275846199657e-03
3.187881211275108134e-03
-4.236579679793118038e-04
-4.292404389401170695e-03
-3.785856389858314238e-03
4.525857284061199359e-03
6.695036658828244260e-03
1.298441238581826609e-03
2.771369457851732311e-03
1.598400965605353092e-03
-3.095012848383828750e-03
-6.722572461928851949e-04
-1.909766755982092489e-03
-6.086265263984371246e-03
-3.607731431252204825e-03
-2.038320068691930331e-03
-3.977399874558794693e-03
-3.268870606662418760e-03
5.018553925639419096e-04
2.057061370077703944e-03
1.389678693993209781e-03
3.086042513961512017e-03
1.410767571495819906e-03
-3.026086631859205029e-03
-8.128633126500821879e-04
1.321079945817198393e-03
5.617120240462635883e-04
1.113064421308820277e-03
-1.298437241743356394e-03
-1.294403811141553624e-03
1.325990906063343475e-03
-8.704049244674604523e-04
-1.484867573341696126e-03
-9.029701291851000185e-04
-1.457019673995118766e-03
-1.109670498815018471e-03
-3.202342871866833453e-03
-5.670650553808635839e-04
3.706660308539565067e-03
1.107441693336361872e-03
1.830978715486624190e-03
9.785239104571701822e-04
-3.205955942388602400e-03
7.803944786786763503e-04
3.237628791064778560e-03
3.476997477321175541e-03
4.815686952554237323e-03
-3.955117771590025452e-04
-1.651268712084337249e-03
1.561962168128577322e-03
1.447408163451173457e-03
5.181479313869322145e-03
5.680524006051439895e-03
-1.394921331650856222e-03
-2.371333484775645616e-03
2.745993266345196724e-03
3.631294132189352535e-03
2.411241288714824783e-03
1.873984094554969303e-03
-4.857101058010159129e-03
-4.160265259841150129e-03
4.103864270908351777e-03
-1.462960434437405276e-02
-3.302613407262764561e-02
-1.231406644611807329e-02
5.639483790373903301e-03
3.446252117582671807e-03
3.486313902009428520e-03
4.214341131645493906e-03
4.517842965863720812e-03
1.028012396086122474e-03
-3.343059676457856965e-03
1.113736130385819482e-03
1.543297003840690901e-03
-2.851222457682735072e-03
1.302570346967986100e-03
6.488687004459539436e-03
5.297628106369758894e-03
2.237513236030529758e-03
-7.141991333652423493e-04
8.357827659946076701e-04
7.226547857763931763e-03
5.404122135276879894e-03
-4.815550102429760567e-04
3.359396666635666110e-03
4.212624060963959458e-03
-2.854710135831104063e-03
-3.936803264052235810e-03
-2.077746371847869443e-03
-4.052601728750934891e-03
-3.358677776732174689e-03
1.066237468117322076e-03
-1.218507766748644144e-03
-6.287307795556416543e-03
-2.033965675583014436e-03
1.245604834822637433e-03
-2.776839950471492006e-04
3.816861776874377714e-03
4.852263181419095781e-03
-5.373916811190841128e-04
-7.108208577980848703e-04
8.823699249202750618e-04
-1.555076424713512911e-03
-2.070407545958003002e-03
1.117571275641085081e-04
5.903300854462708485e-04
-1.315663320166442739e-03
-3.538741640780357790e-03
-6.387115557963186138e-04
3.650129234141890559e-03
2.462316462883582142e-03
3.061695907646447713e-03
2.680082848975555085e-03
-5.421860763243556598e-03
-1.035447218544018576e-02
-8.450768801412381764e-03
-3.743166788860365513e-03
1.571402127555396972e-03
3.468213452840605230e-03
3.551866986741850432e-03
3.007485396467476750e-03
6.370695252094210745e-04
-2.325180198251630432e-03
-2.993765386763986083e-03
4.937303828720039081e-04
2.942590178697461045e-03
2.339973278469557709e-03
2.683348362335511317e-03
3.119468565813654417e-03
-1.037618460998040819e-04
-4.566598803692500409e-03
-3.023803421023238663e-03
1.358046750802988480e-03
2.905105378064998418e-03
3.941887377575270350e-03
1.609345960468459846e-03
-2.065651736270150262e-03
-9.117638915497663097e-04
7.807593838238135629e-04
1.597584377254665424e-03
6.005453556781979035e-04
-4.197849285596559447e-03
-4.596277098091528131e-03
2.006305825106474792e-03
4.796673309245033656e-03
-2.749325337879982619e-04
-1.777013893742869673e-03
3.840751844921065725e-03
3.843021593336652664e-03
-2.263459171336794796e-03
-2.019258868639289741e-03
1.741189769329490496e-03
-2.173202214405424351e-03
-5.832813157895986277e-03
-1.091855422539720960e-03
6.241466256950839713e-04
4.095230981448010586e-04
3.810684661992577455e-03
7.445518175555899932e-05
-6.115605533858975776e-03
-3.660805262860239266e-03
2.032603761625135477e-04
-1.412099178392187083e-03
-4.018888076290461769e-03
-1.429725190335738453e-03
2.419749702256529956e-03
1.642442640499966250e-03
-1.828857567836319770e-03
-2.661072476627014769e-03
1.545955708627895411e-03
4.282450907940211875e-03
3.721671930317170269e-03
2.458720770862176785e-03
1.203865005329887499e-03
6.293045321759812086e-03
8.854259320111801390e-03
3.229269899262147492e-04
-4.064043009611190138e-03
-2.434209525435737567e-03
-3.461905589949602988e-03
-3.639485802841934889e-03
-1.635721765762587158e-03
-5.320545013073740967e-04
-2.440967514702453668e-04
-1.207210493462181907e-04
-3.182139164710732636e-04
2.789633948396988677e-03
3.777861880807858487e-03
-3.106078584325297313e-03
-6.417562688473461320e-03
-5.912376035124747298e-03
-2.558172639999090666e-03
4.656196377350393587e-03
2.216140851385993513e-03
-1.562735959596793294e-03
-1.048616456573355556e-03
-2.371102147947656662e-03
1.108986749836164253e-03
-6.945294676186835117e-04
-8.500537945839799128e-04
6.490527180928473867e-03
9.150566777827041226e-04
-6.218488263136611989e-05
4.362585289553562104e-03
-2.901503561874655031e-03
-7.602602661660296619e-04
4.286565540120096211e-03
1.231276033906091808e-03
1.663171186553133365e-03
8.753255706670787359e-04
1.555743914271359414e-04
-3.252847283305082202e-04
-8.745254524113209912e-04
2.049931875969275043e-03
-2.890450021885581809e-04
-2.889653284101594954e-03
-3.087606729876984056e-03
-4.597674743824950797e-03
2.833791052253903028e-04
2.836441434558079934e-03
-2.094627112328662812e-03
-2.442150637628377752e-03
1.372629473811781253e-03
1.659074718522862701e-03
-2.652150311341609648e-04
1.681197664505290146e-03
2.413410903419955979e-03
-6.589250133094224499e-04
-4.691688900961489181e-04
-1.604944480093082985e-03
-2.732456868909850182e-03
5.774958893878338060e-04
1.770934677053970013e-04
-9.356484297082784786e-04
4.589241231399687477e-04
7.767534250124798895e-04
1.044350206007793819e-03
-2.447335846362281610e-03
-4.917365630025889028e-03
-2.067194912747824000e-03
-4.115718048029024315e-03
-6.574414167121992239e-03
-1.965771739864604749e-03
1.970451650633421939e-03
3.344907570836952622e-03
3.653324551873487341e-03
3.310924705774480337e-03
2.958233423322085935e-03
6.665393210613864165e-04
1.911625835486997207e-03
5.129125317194692391e-03
1.577334650383976824e-03
6.810442047525781806e-04
3.545756657276420958e-03
-4.305116659821378849e-04
-7.749747168552730556e-04
5.349513541914897689e-03
5.223061327795736931e-03
1.636133501573083099e-03
-9.980933699617274045e-05
-3.337923141304438438e-04
5.339714612783081401e-04
1.065474814092686340e-03
2.427241848891389595e-03
1.671054264877442188e-03
8.993507194427982371e-04
-2.563475910866965576e-03
-2.336942441991017930e-02
-3.315418233394767239e-02
-7.961072618093079784e-03
7.287210009965718917e-03
2.756691775686476338e-03
7.212295398051899245e-03
6.229291501962352408e-03
8.355199466776643815e-04
5.093391430427550437e-03
2.077450752185473412e-03
-2.746216376892007295e-03
1.385221649619560900e-03
1.187925610889823151e-03
-2.812261473610701040e-04
2.302093669917162824e-03
2.679560591991759968e-03
1.651945442041169009e-03
1.572639005285878097e-03
2.947047418201391867e-03
2.395480452441335444e-03
1.379290529974203008e-03
2.860198606229354470e-03
-9.652404509586990072e-04
-2.845575621480605621e-03
9.692681727096958463e-04
-2.819590725273083201e-03
-5.268979793670165203e-03
-2.895525087747561309e-03
-4.437423701578047629e-03
-2.002712162552786144e-03
2.619928705693015843e-03
3.271581802566781664e-03
2.798154678218532729e-03
1.735444955734424810e-03
3.986847978503998491e-04
-2.029863748298810526e-04
2.761425486624101769e-03
2.247073383094019220e-03
-3.240497693382895106e-03
-5.216600993932015307e-04
3.684614352187402190e-03
2.371853879277304768e-03
1.832049079098746524e-03
1.183650110855565245e-03
9.031386553034832147e-05
6.578004443164579178e-04
2.941830045343996232e-03
-1.153294324130820945e-03
-4.423165362822340484e-03
2.748945778142895639e-03
6.197346124146452945e-04
-6.476036375514205787e-04
-3.559238537846614193e-04
-2.462245073829964423e-02
-3.033294465078500632e-02
-4.021544359997373218e-03
7.841232284832409458e-03
8.518709525420161549e-03
6.210869068275394825e-03
4.138616935957844557e-03
8.229021924498512025e-03
4.285866842917941330e-03
1.245579655368998784e-03
4.714192039273029135e-03
3.090588388987097323e-03
-1.160245945189230095e-04
-1.457697200395171363e-03
7.531195669339929262e-04
2.740642575830955566e-03
1.264598789426365230e-03
7.223968891791836657e-04
-8.809442369373701558e-04
-3.053993210648702546e-04
2.014557547942891300e-03
7.470196716855453164e-04
1.795929124436670314e-03
1.084463704682419758e-03
-6.334071339561889169e-03
-7.644197983652816462e-03
-6.017753769467453330e-04
1.361624697332104196e-04
-2.593065953629569275e-03
1.322851039342812750e-03
4.742293722036708273e-04
-3.114428332957972639e-03
1.217693993261532591e-04
1.529582655107250138e-05
9.043144276223340564e-04
2.926281287535452674e-03
-1.049555271391447052e-03
8.721431462982736542e-04
1.301651757353652038e-03
-2.157998322893760288e-03
3.316263598995267733e-03
2.990426647320090347e-03
-1.117060692818035378e-03
4.402430762189581126e-03
5.505612952824664660e-03
3.019373381797649052e-04
-1.327193407483120329e-03
-1.104255866398073027e-03
-5.079893950116990547e-03
-9.229405794134762711e-03
-3.438502220179775852e-03
1.600371064498902702e-03
3.936237398185940366e-04
2.343925006994692761e-03
-8.233876431791328603e-04
-5.365917797947097716e-03
8.760089815194140907e-04
4.242880039491276657e-03
-1.526921841568713249e-03
-4.919349411874101609e-03
-2.715598284438044789e-03
-6.887903323503024406e-04
-8.065098144705510469e-05
1.088433766606572255e-03
8.941260527047149116e-04
2.435082818152529537e-03
5.158458162982442093e-03
3.500396622485474861e-03
2.158590154505058215e-03
8.170448144644952559e-04
-1.580537302055296921e-03
-5.319830354043902812e-05
9.006447430803774272e-04
4.359899864155942963e-04
9.035510079212732797e-04
-1.058001646467255849e-03
-2.284524245279712356e-03
9.224310118321515017e-04
4.064912120404025678e-03
2.470028276745616421e-03
5.441033134813467748e-04
1.474516814612351900e-03
-2.125205871787317919e-03
-6.624801055032782625e-03
-2.197529859837071050e-03
7.294832032400937628e-04
-3.666438759078767019e-03
-2.670823370293808324e-03
2.897958616768997269e-04
-8.339370897087018198e-04
3.028715778920333147e-03
2.973476539929824011e-03
-3.666281532522143970e-03
-4.314254088164758269e-04
3.128507507942530907e-03
5.119264133979218017e-04
1.252227127615464057e-03
-1.010017303231059175e-03
-2.685647131908589294e-03
5.251004031990833031e-04
-1.816345914410579833e-03
-4.143783780202884778e-03
-4.066439937813844845e-04
1.681040184223588389e-03
4.690448975725985525e-04
-5.480824599331324612e-04
-1.837214518840634726e-03
-2.245372069598649580e-04
5.439045830823348478e-03
3.056992197079042017e-03
-2.554782602518240612e-04
5.747029792579994543e-03
6.475447993369124215e-04
-9.610073969202891780e-03
-4.097000349133676778e-03
3.695590746856770772e-03
3.894343516417190891e-03
3.477376538167074069e-04
-2.441568433112802430e-03
-1.038778491968349923e-03
3.872709699176837090e-04
-1.491272086855725170e-03
-5.079257497153025561e-03
-2.257632114151327148e-03
3.389925593621174581e-03
2.269399954445931457e-05
-2.245548672681968710e-03
1.907014930176345081e-03
4.028085873397624014e-03
2.308649190291149449e-03
-2.347480468110968704e-03
-1.880314470366764102e-03
3.490794741240285919e-03
3.755383486590923095e-03
1.484281109423543632e-03
5.333135495352844596e-04
-1.286598547142734240e-03
-3.784898737991585892e-03
-1.467375840742340910e-03
5.310303775725751588e-03
6.863539105103364478e-03
2.661278486963572758e-03
-1.332603872297985926e-03
-2.777379733167696218e-03
-2.794111854117398066e-03
-8.739635176612256875e-04
3.529671200841731117e-03
4.730923823835117906e-03
5.400360506939707976e-03
-4.079349842931173989e-03
-3.007821461445389644e-02
-2.956299862755025140e-02
1.241013160175748762e-03
1.336798344124824449e-02
7.092981144292537926e-03
2.308903849571317113e-03
2.983860785007694336e-03
5.149391157454027805e-03
-1.225511679782353112e-04
-2.823350939282811547e-04
4.273250684299504353e-03
7.311647533710961605e-04
-1.379304080590228751e-03
-1.781909482786284181e-03
-5.141348508867901387e-04
4.458479965653195862e-03
3.371869548921332862e-03
1.248954236323538032e-03
1.641622331298288199e-03
1.369061149566077164e-03
2.774022030141056871e-03
3.788510870155816033e-03
4.775606471494366935e-03
2.666983856284983398e-03
-9.082918935008228983e-04
-1.235413714231505195e-03
-6.441048691088391807e-03
-8.597426985118845899e-03
-2.269014474987052048e-03
1.503188609666285095e-04
2.152044949830214573e-03
3.293280359248383204e-03
-1.717804738056279363e-03
-6.298627546254601667e-03
-6.171925956646141624e-03
-1.462711730684974768e-03
5.046377336567899963e-04
6.679798794768520990e-04
3.307797757265141560e-03
7.333554639034940573e-04
3.629790779487025552e-05
2.683162371334670698e-03
-1.292474440525153085e-03
-1.922234495821712992e-03
1.665838718283191874e-04
-2.499266719857643967e-03
-1.717224596318132511e-03
7.657330538167482535e-04
2.786851210213161026e-04
2.799594144606303470e-04
5.411669925129726760e-04
1.276435778180754887e-03
2.342047334216439125e-03
6.004076938867581236e-04
1.003007032904971486e-03
2.952422872295658134e-03
-4.450931560667398777e-03
-6.114051389962503816e-03
6.091748700365078560e-03
7.009190862650791290e-03
1.572027764455464355e-03
9.096216617715068399e-04
-5.115598741415400275e-03
-4.755763313435946125e-03
2.389886393018876478e-03
3.637287161321658188e-03
2.018218062677460452e-03
-5.200894618452055369e-03
-8.588475694756817977e-03
-1.303556822453371018e-03
1.519691509709234986e-03
1.438351635577308704e-04
-1.101060988586121878e-03
-2.373621496698807322e-03
1.324133167143447807e-04
1.876986889121041253e-04
-3.603245133659815566e-03
-3.456504598275046691e-03
1.138383716950834828e-03
4.688533946702798556e-03
3.126084865690969758e-03
1.197177135301959530e-03
3.182368606621863508e-03
4.250145332083828630e-03
4.575079029901792105e-03
5.142128743755262389e-03
1.380602985616972023e-03
-1.336742332843312946e-03
-8.208147788171612667e-04
-3.289856342897513192e-03
-5.095618995539486461e-03
-6.354845389715465219e-03
-6.948798235994150391e-03
-1.543606303689305142e-03
2.380217979894784681e-03
2.637862803028662596e-03
3.262912734292172830e-03
2.788637307698179062e-03
2.996331285697279283e-03
-2.567762071267910970e-04
-6.563702090728798857e-03
-4.467366870648780894e-03
3.982159129895925485e-03
6.303073079185698979e-03
3.462183387400938339e-04
-4.269472309340262457e-03
-3.363640303650819105e-03
-4.340314599479526414e-04
4.970866485947472366e-04
-1.845569021062454327e-03
4.170291024775763596e-05
3.496646360153437411e-03
1.484987466272374773e-03
-4.182543639658304127e-04
-3.366695962137851005e-03
-3.743108268808404988e-03
1.135691972299822990e-03
1.864164064876519923e-03
2.866627648166811954e-03
1.920744319821860889e-03
-3.654551748019829911e-03
-2.108075705228464221e-03
-4.823257359959439057e-04
-3.431615819835820598e-03
-3.100475303653177795e-03
-9.609193955410405335e-04
1.045135981698969933e-03
4.604043046055072996e-04
6.121791405751282741e-04
4.427735235441799221e-03
5.602629189801990560e-03
3.860393539755861692e-03
1.942609190287741979e-04
-1.636156742788954632e-03
7.247627504819158131e-05
-6.445254058750863203e-04
-1.455609116140021281e-03
-1.980776275138022673e-03
-1.696864455344471731e-03
5.702773073583261836e-04
-1.948096025284657253e-03
-2.054387056140203130e-03
3.006932594379820023e-03
1.757849641825495225e-03
-2.012845722560369262e-03
-1.504996372495526159e-03
1.591425177287472507e-03
2.619053534576247511e-03
9.608571541002437072e-04
1.166862139859738004e-03
1.436592283117430749e-03
2.421317772340431714e-03
3.341244083952820115e-03
-5.268345731762318507e-04
-4.284458643527033414e-03
-4.626677628668557363e-03
-2.243119220104713117e-03
-1.660676781281595878e-03
-2.203025782596464144e-03
8.432001348579727749e-04
-3.722111238356546042e-03
-6.249187526233397801e-03
5.080695897482319021e-03
6.802146229796679315e-03
3.049202730817758729e-03
4.644671926112805757e-03
-1.726385618641746106e-03
-3.885616601374832033e-03
1.214942576090033855e-03
-1.260486892383186992e-03
-4.117877362179532715e-03
-3.139230044326506239e-03
-2.384024947496963046e-03
-3.066911359530950874e-03
-3.542847164715563681e-03
-1.771750420102331065e-03
-2.304635994894226221e-03
-4.733840280041408150e-04
2.895696402267863671e-03
-1.802363805651343567e-03
-1.957553274005382083e-03
3.725640422062152703e-03
2.914578070787814546e-03
3.686832599183186270e-03
4.241295929408857128e-03
4.216591891140017033e-04
1.278603741842603740e-03
1.749364049741215267e-03
1.599745643267801512e-03
5.205612212890856939e-03
4.202075484712348812e-03
1.855299190366235937e-03
8.003002476214243332e-04
-2.327833481559358000e-03
-1.503127852912471433e-04
3.173076917472308130e-03
3.107208456216888244e-03
5.912645933526613010e-03
3.926832319821291738e-03
-4.397387265560112959e-03
-7.314450193249413985e-03
-3.757601310192413158e-03
1.454871013299363506e-03
3.489003349692032345e-03
9.271485196271304213e-04
-9.140725016702410874e-03
-2.533476660367717584e-02
-2.389153908091272774e-02
-2.778973515020338562e-03
8.578798260440619050e-03
8.104646491343852829e-03
5.507270430892398892e-03
2.144127354213819475e-04
-8.149225063166278807e-05
2.666570135060561744e-03
1.300924425803329839e-03
3.232894777993404554e-03
7.965495757209771835e-03
3.775815112012288841e-03
-4.450557101068557120e-03
-3.114707083768126529e-03
2.085925572861573474e-03
2.445769544019144384e-03
1.830661121559130954e-03
4.660067020096169787e-05
-1.553247529763136358e-03
-1.969788491964753155e-04
-9.740938877121196188e-05
1.031341172524807446e-03
3.695199477912295381e-03
1.437709617262251851e-03
-2.174725363431596632e-03
-1.313850717340377073e-03
-4.179556471285002196e-04
-2.318997741496723990e-03
-2.469204080905803775e-03
-1.298481637864438336e-03
-4.518771786391083314e-04
1.771244612136739461e-03
6.993411728512730335e-04
-2.733856744023673187e-03
-1.387722026966025203e-03
1.698219770639995772e-03
3.332049738202974565e-03
5.470873382064639703e-03
5.395603497692055654e-03
1.215401463369641553e-03
-1.073050573584167231e-03
2.393220799712995309e-04
-1.643540355006416166e-05
-2.413981215080085625e-03
-6.169387946525080671e-03
-6.750176462029251756e-03
-3.152576560752680217e-03
-3.207893808908149087e-03
-2.004077277749237614e-03
2.473607389629669303e-03
2.910572062754920777e-03
7.848644063569094106e-04
-3.842275129557491068e-03
-3.415880533109500600e-03
2.844244038320317951e-03
1.795877413987891471e-03
4.842338559096813293e-04
1.141303337024979735e-03
-4.072175299949710070e-04
3.393037031986104960e-03
4.701753359544238488e-03
3.898331567246703707e-04
-1.885332975094193520e-03
-3.341536200696868398e-03
-1.782714391481917760e-03
1.154323061164963570e-03
5.156602376517496582e-04
-2.907314737153153441e-03
-5.453144498014476059e-03
-2.678926997936671977e-03
1.176804867215012302e-03
1.427548066455078691e-03
8.368981317850164754e-04
1.764549843791805329e-03
7.192474900163416379e-04
-2.847800552013645455e-03
-8.363030230875310653e-04
-1.728231577297864347e-04
-4.001564375454381116e-03
2.297902819166480846e-03
7.547003874756668187e-03
1.850251747403913955e-03
3.602636012538757782e-04
3.174373866597569611e-03
3.808342424824421018e-03
3.817950511461769714e-03
3.649381490338671728e-03
2.027849811045252630e-03
-7.142001954830864367e-04
-7.118862980358179292e-04
1.759827074562883044e-04
2.935699281744744886e-04
4.010819451322113899e-04
-2.099080209828961627e-03
-2.960812853559502758e-03
-1.562618358830225509e-03
-3.233063916948785126e-03
-4.892448546770104649e-03
-5.036259148888833949e-03
-6.031560930731953360e-03
-4.124839383725882602e-03
1.837471517381804092e-03
2.905208641730389584e-03
1.336359739071641415e-03
5.560899137191902160e-03
3.919405315572989552e-03
-4.555724145767149798e-03
-5.027670447797368339e-03
-8.646619525587110212e-04
1.667619893966811994e-03
2.555549059106656043e-03
1.097204809487067716e-03
-1.197588567156354514e-03
-1.892613083441245904e-03
-6.157598333221618288e-04
-1.925206130842710200e-03
-2.383462400194935604e-03
-2.251905529072641392e-03
-7.426764101449444093e-03
-4.107697030968570154e-03
4.490770387232130741e-03
3.138645084121678610e-03
2.084610226001428271e-03
2.559938887880266155e-03
2.630937744418400479e-03
6.217162267373639757e-03
6.864736091888590241e-03
6.202154205325715285e-03
5.057334264354224410e-03
3.147406767944335888e-03
2.911236929592136979e-03
-7.059902849553207141e-04
-2.847464246595157126e-03
-1.343442179164330754e-03
-1.240685563377574895e-03
-2.142627936594384760e-03
-4.376585129059194432e-03
-1.071687997358317448e-04
5.810369857747461723e-03
