3.457563563233337356e-02
2.281975896054654757e-02
-1.432918060640516605e-02
-3.221569926382696070e-02
-5.223825542813986811e-02
-5.082049079986249163e-02
-4.887439519160993034e-02
-5.146145448817876500e-02
-4.287658920918539091e-02
-3.537284249230528838e-02
-1.557663985068102885e-02
8.924256080390836551e-03
3.594545589009037756e-02
6.817414521765069457e-02
8.466360183453604249e-02
9.621941775882644765e-02
9.703901134625905756e-02
7.860121731562805247e-02
5.760654658803042449e-02
3.304321361500914961e-02
1.206792588675257953e-02
-7.008273966181781910e-03
-2.551326723161046958e-02
-3.331315859510214361e-02
-4.117417120847719630e-02
-4.335946027453466134e-02
-3.751516185392961278e-02
-3.708581687725021059e-02
-3.667846660373212664e-02
-3.338851788839498902e-02
-2.526872529778689119e-02
-1.434054855468118971e-02
-2.575366152035692136e-03
1.528813912729209967e-02
2.935846959068450987e-02
3.652607040367157609e-02
3.910276604346892004e-02
3.302788124391888014e-02
1.940539859253143443e-02
2.577760605945556656e-04
-1.026353541197646407e-02
-1.102458041101382277e-02
-1.485435867356956277e-02
-1.477186206423873951e-02
-1.364303760098507963e-02
-1.371661697528597616e-02
-6.805671527893682876e-03
-4.916334136955739786e-03
-9.376917104330572197e-03
-1.132705458409351794e-02
-1.357365269728529923e-02
-1.238924868505949378e-02
-7.359435626543684231e-03
2.758490485633214358e-04
1.359665129890312921e-02
2.331021495707526203e-02
2.330941774586645088e-02
1.621301713709983466e-02
3.164823699842388670e-03
-6.203412022688087682e-03
-7.047525812883945716e-03
-7.542693241220848471e-03
-7.657491768270251013e-03
-3.218428716019094016e-03
4.949631793131767203e-03
1.388977929335840841e-02
1.797776542189097673e-02
1.503863695153777151e-02
6.673392219712265087e-03
-4.082540559033609288e-03
-1.040294153092136305e-02
-1.293918617865547072e-02
-1.304803226481881205e-02
-4.828419779866522515e-03
3.700358708765619058e-03
5.582315095149338081e-03
7.483158979129203234e-03
4.731075701977253620e-03
-5.101050959551787188e-03
-1.162427284554188450e-02
-1.361406095977928284e-02
-1.302914952986975947e-02
-6.526412790559339011e-03
2.057881133723867169e-03
6.286022925971348693e-03
1.247790166762230424e-02
2.102585573179047498e-02
1.833649424170636852e-02
8.232842818165353807e-03
-3.275111019917328241e-04
-8.952521821130791577e-03
-1.329159407173961457e-02
-1.231899231734135368e-02
-4.706957331083085755e-03
7.020707348757145722e-03
9.997238013928051725e-03
8.457246596757717755e-03
6.124911129735815217e-03
-2.697302250974623842e-03
-1.209703873411565114e-02
-1.595992808106098601e-02
-1.122340893037073427e-02
-5.597070660937155696e-03
-2.529661870314872142e-03
5.649405617759572368e-03
8.158032157840200069e-03
9.757642832834716520e-03
1.640796786241490585e-02
8.925837009340929773e-03
-1.947001254803249750e-03
-7.526588901634794458e-03
-1.343164119768246179e-02
-9.406457905667311992e-03
-2.004767341184723883e-03
5.306761765808644914e-03
1.166551767957863320e-02
1.065310362395756674e-02
8.626972598515988619e-03
-2.194436134464148279e-03
-1.508039705434728074e-02
-1.595910747080297315e-02
-1.167584445454746510e-02
-4.547679377301679484e-04
4.882550741618923648e-03
5.047843727670222463e-03
1.451632895060419454e-02
1.993543674335612401e-02
2.247670852020251450e-02
1.344466721265466860e-02
-2.927942659423425804e-03
-8.798298313481745306e-03
-3.762839324038687316e-02
-5.278613594768274964e-02
-9.848247326978420979e-03
1.532002267520757299e-02
8.753677804681146007e-03
1.297384194326589579e-02
1.088820758344379372e-02
4.596238631508965016e-04
-5.859002718870449586e-03
-9.960998591332497279e-03
-9.847657576650516512e-03
-5.287647750881797198e-03
1.431632151094984571e-03
5.932796874066900185e-03
9.011271240614297101e-03
1.384987372266649128e-02
1.759621909241382287e-02
1.345219583748706246e-02
-2.734512263283953915e-04
-1.093409846041345189e-02
-1.101336703748421325e-02
-6.646680122059989149e-03
-1.807097987631237773e-03
6.595291178363198864e-03
1.471106874561478595e-02
1.109439125684513403e-02
2.868005998274985972e-03
-4.388568831138584848e-03
-1.406760696427801841e-02
-1.619494212023019422e-02
-1.454836669973261741e-02
-1.155949724932194521e-02
-9.181026349143133576e-04
5.343787304697657746e-03
8.438486058530252076e-03
1.397287958314945462e-02
1.451322059042903581e-02
1.007338109690679093e-02
1.359414524405039553e-03
-5.882003903449781364e-03
-9.337135646511833531e-03
-1.197414043444314583e-02
-7.847488333285400700e-03
-7.124992943254549686e-04
6.176795631260010959e-03
1.366522920859811023e-02
1.056573142135726687e-02
-3.240934223016304211e-03
-1.488888162417349552e-02
-1.711273026180692297e-02
-1.082958711165431243e-02
-3.229429602649447513e-03
1.639342960613975313e-03
4.665244050858606203e-03
7.255650190186898989e-03
1.291421832664789958e-02
1.905956673181929267e-02
1.496489073145718975e-02
2.395007991992751176e-03
-9.880577702256709144e-03
-2.019912556744713969e-02
-1.866924188660041423e-02
-5.896920126856216443e-03
1.959015902756485166e-03
6.919776459202724335e-03
1.050277343061926071e-02
6.078861948351204497e-03
-2.551385080357378935e-03
-1.035500170185894853e-02
-1.197472213739948950e-02
-6.117155669600207735e-03
-5.556782523348144896e-05
2.278223915415019188e-03
4.840090380816341152e-03
1.024136180172775627e-02
1.296252771093208897e-02
1.456540876520955215e-02
1.338344908117325774e-02
-1.219935290501041362e-04
-1.016621491833782399e-02
-9.431951020032658742e-03
-1.259067534250805920e-02
-1.000588694180207412e-02
1.115358154787670199e-03
8.248978868199124265e-03
1.414013580226084789e-02
1.108045268949608281e-02
-3.515945049157058987e-03
-1.226380263316038249e-02
-1.469560555813877352e-02
-1.502307695453725285e-02
-9.340962945837421802e-03
-5.847773746834518827e-04
6.536346918793190137e-03
9.161553832826064420e-03
1.258410295867953485e-02
1.573399300338105752e-02
8.277587832886020014e-03
1.041824156002591709e-03
-1.850152780478664209e-03
-9.058186302028436304e-03
-1.158836964378087350e-02
-9.206687318626918110e-03
-5.308020042256621912e-03
1.359072892349754867e-03
5.045060439921728035e-03
8.002731171937062585e-03
2.210371557720416762e-03
-1.111305857565203677e-02
-1.121652976025286352e-02
-7.791962397679182487e-03
-7.190639779199922005e-03
2.625005227951276478e-04
6.454546838603694540e-03
1.040034884884449666e-02
1.403202633154777140e-02
1.427877286369567435e-02
1.174308570823125869e-02
3.098087455914343407e-03
-6.252523502218046945e-03
-9.228779271996145547e-03
-9.681007946362136379e-03
-9.655793287482788631e-03
-4.458857014543477632e-03
6.811288934484549182e-03
1.107562665066151412e-02
6.434878843830149631e-03
3.720290796645014074e-03
-3.354887176001737029e-03
-1.267535242665835532e-02
-9.728076483226790611e-03
-3.220310992768538483e-03
-3.342407923324580352e-03
-4.703622430900218469e-04
6.796788242518407054e-03
1.130378033456866209e-02
1.539115556027287335e-02
1.327284172257401501e-02
1.066911627660542712e-03
-8.154283601387729563e-03
-1.509708746876765699e-02
-1.805953974968133036e-02
-7.051662048820063651e-03
1.390504212519206098e-03
2.786963859819767408e-03
1.019794966478212127e-02
1.219359335089982913e-02
2.992697342908219073e-03
-6.809599843458952369e-03
-1.307793601997918331e-02
-1.175724150471324503e-02
-4.262698459698509822e-03
-1.490963114199547052e-03
-1.637619222432327212e-03
6.614238660946950531e-03
1.613109323408930956e-02
1.590836445841374916e-02
1.045147949278015832e-02
7.565373419216959777e-04
-9.117341172785070266e-03
-1.095963311931752102e-02
-1.017504576272477285e-02
-6.183538231083806312e-03
2.552017280490896309e-03
6.911816112302503548e-03
1.005910704610805430e-02
1.138846538901763794e-02
1.834715545249517629e-03
-9.008793440894996910e-03
-1.341460506403404154e-02
-1.443590845278668738e-02
-1.110654195816850910e-02
-7.988579735718471381e-03
-3.714713838302822688e-03
6.943085372593781231e-03
1.342103728187253944e-02
1.408249182609586959e-02
1.398180008050531158e-02
5.472399981363658926e-03
-5.827406902199348468e-03
-7.920565016467555688e-03
-8.564234780239529665e-03
-1.168108823773687799e-02
-5.362790513529492459e-03
7.629583207718149650e-03
1.248992443874973046e-02
1.127778772622999547e-02
7.248489188772451984e-03
-2.015332382152795407e-03
-9.023853314615750201e-03
-9.166590759011130490e-03
-5.028062717396881293e-03
-9.273804271168652061e-04
4.926457066388906063e-03
1.408816147304945386e-02
1.590725438622960300e-02
1.399421055557579889e-02
1.151620240390460390e-02
7.783717574849638920e-04
-6.824523755227447294e-03
-8.590670129702996510e-03
-8.020864231709638401e-03
-4.927451323055172250e-03
-3.576429838001968925e-03
5.730014405807014148e-03
-1.497452674596474846e-03
-3.335673644247645619e-02
-2.713986017453814958e-02
-2.713113131894684914e-04
-1.042506901926225360e-02
-1.963377391258004645e-02
-4.726758087622641089e-03
7.023297678869370834e-03
1.201692579527049998e-02
1.350178419441389228e-02
1.381914653039824532e-02
1.540418366959436444e-02
1.272832509738401792e-02
6.863797376194704335e-03
7.208585144738283417e-04
-5.054762996069842029e-03
-7.759419685060280243e-03
-6.794166061995055711e-03
-4.905884719348854034e-04
7.328418060599641362e-03
1.091175416019935993e-02
1.435346576298126425e-02
1.058431246154274002e-02
-5.642858641404251488e-03
-1.469838416651752210e-02
-1.196542328864267681e-02
-8.340781019216866182e-03
-3.989337159712340493e-03
-2.504991599337037063e-04
6.855308901866807858e-03
1.675391214303734513e-02
1.580066431984284217e-02
7.232969720637881517e-03
-8.730806905866008534e-04
-8.994290943081167250e-03
-1.241843902764055291e-02
-1.393724575196827499e-02
-1.444886647458670792e-02
-5.061290783693015403e-03
6.684284247029410354e-03
1.061166447260121493e-02
9.550580144725012710e-03
3.462204406234459676e-03
-6.365075398546287538e-03
-1.369571365576315036e-02
-1.341759255260296414e-02
-6.602127657906342421e-03
-1.742159423735948308e-03
1.047463137731739205e-03
6.610456113322824012e-03
1.290496939038872880e-02
1.693359141397535531e-02
1.383517049655728394e-02
4.649151916631885650e-03
-4.192231936973813029e-03
-1.289899073936247656e-02
-1.855516251178811193e-02
-1.426650980266375678e-02
-1.229893466228625717e-03
1.026588088111715473e-02
1.441945585460954748e-02
1.411097697078578239e-02
8.095073453722160042e-03
-9.022591571559573920e-04
-1.005866123768634629e-02
-1.937863479601503042e-02
-1.560965653071056010e-02
-3.147566909198370316e-03
7.804488458223996341e-04
2.583545015226413038e-03
9.335090881355105966e-03
1.781595328382287041e-02
1.763228607838713755e-02
4.495506599029875858e-03
-5.621602057054820786e-03
-9.404467113745085954e-03
-1.231728068436893989e-02
-9.903390623619617514e-03
-4.450575060729872537e-03
1.529636866388214226e-03
7.835334810655281840e-03
1.046083942506599931e-02
5.081279000774015578e-03
-6.067500765532456847e-03
-1.038027478472319451e-02
-7.331083105193810651e-03
-5.950271331076676523e-03
-3.284505127575179217e-03
2.259863017828814789e-03
7.629388895739807816e-03
1.153302159429048235e-02
1.231265823936538925e-02
1.139512250846301013e-02
7.169206233900901268e-03
-1.878826022564681350e-03
-7.247816882634224196e-03
-7.390894486169159033e-03
-9.438418588857728705e-03
-8.564984373676740037e-03
-7.483174010129176133e-04
5.643878949592712364e-03
7.157765671948299914e-03
5.270235299201107317e-03
-2.480221253585883096e-03
-1.333294539308451689e-02
-1.573997286919893296e-02
-8.853734862938505631e-03
-2.870204026854197149e-03
2.798185852275922054e-03
8.276986410516573925e-03
1.159037895768694724e-02
1.699523335274401997e-02
1.644407935360741452e-02
5.905952246941712641e-03
-4.418918084608869368e-03
-9.549795717152302632e-03
-9.711303342518613421e-03
-1.041892915368786143e-02
-8.439101663122866581e-03
7.044612820127583910e-04
6.451922214821968066e-03
9.072433071179044836e-03
7.689381726204366947e-03
-3.863164737295964827e-03
-1.402367824377207320e-02
-1.630060696117585639e-02
-1.145904494666651757e-02
-1.788815135254045400e-03
4.133404972542839041e-03
6.713537645921069559e-03
9.630717183356897818e-03
1.422114290707465409e-02
1.580944032103068567e-02
6.981012472896553495e-03
-3.698236044421047281e-03
-9.963083332639795231e-03
-1.246715680692478921e-02
-8.720383267092148699e-03
-5.296640678629822505e-03
-1.610082872848016614e-05
1.202557326578959467e-02
1.431453976521420389e-02
4.415863743950172206e-03
-2.738795114414055085e-03
-7.952957751324188709e-03
-1.111499992787728062e-02
-7.032944656151832695e-03
-2.540331805312417719e-03
1.060115199766288076e-03
7.588412362546854625e-03
1.174631588470388330e-02
1.393400427153052880e-02
1.507435664776411027e-02
8.606447485288716906e-03
-2.978531190420494450e-03
-1.148589794135053063e-02
-1.272912591319074090e-02
-1.047664459393762848e-02
-6.939356046983473358e-03
1.365463781210464944e-03
6.065479578748165200e-03
4.307124349687828022e-03
2.294405994482621482e-03
-4.017463980263847288e-03
-1.114339608424190324e-02
-1.360425404597702392e-02
-1.147189696886816851e-02
-5.251932966531971600e-03
-1.217761737903271836e-03
4.105662056959624023e-03
1.147538674219140443e-02
1.534041636484601186e-02
1.791709658795207633e-02
1.175217856466448732e-02
-1.890405408415759712e-03
-1.107604223297938700e-02
-1.546942902062044788e-02
-1.321688024128459850e-02
-7.165459647516772730e-03
-8.565725235715909193e-05
8.009343650391936853e-03
8.124735238727262901e-03
3.306555274072982276e-03
-6.392985044195354958e-04
-6.361781168944586132e-03
-9.039627395323790796e-03
-5.963836684718031543e-03
-2.210851550052756603e-03
-3.964501603203085837e-04
6.335406742274514447e-03
1.842453940756343805e-02
2.264497823370363247e-02
1.858910844149877506e-02
1.188094820034659403e-02
1.749947018898624597e-03
-6.425008089396647484e-03
-9.438624996792212632e-03
-1.025778699502363431e-02
-8.617804266158043264e-03
-2.872108757955352948e-03
4.982889550669989537e-03
1.006527626752619364e-02
7.722204267419077207e-03
-1.640732198898642508e-04
-8.183837925977618596e-03
-1.512720397740777677e-02
-1.227141154735142750e-02
-9.009257060192312622e-03
-2.652561196922936099e-02
-2.836681024670657109e-02
1.586798055874222291e-03
1.584818212610201310e-02
1.599638338639140789e-02
1.737460546124878005e-02
7.169647326175524436e-03
-2.809348596929712831e-03
-7.302149644644805385e-03
-9.081778582618767887e-03
-3.966433269303662815e-03
1.257604745230549636e-03
7.855833435597968720e-03
1.502210389573327247e-02
1.258662598732045688e-02
2.623130924470895662e-03
-6.716361291205097915e-03
-1.069908439914228279e-02
-7.863384110166781252e-03
-2.103087418512270424e-03
2.119624336316986921e-03
8.547279995670460651e-03
1.400715475619548726e-02
1.207966348775119797e-02
1.166975742608646234e-02
9.171059743402555295e-03
-3.110783522859408325e-03
-1.316623359668069905e-02
-1.576095487533313300e-02
-1.309917212480291547e-02
-6.710256407266538582e-03
-1.987326996464406845e-04
4.564360999977916389e-03
8.226069704522028306e-03
8.394385714439204713e-03
-2.576228099726013323e-03
-1.211906772540465894e-02
-9.768490874012771344e-03
-8.307131035091912599e-03
-4.088148747435894209e-03
2.474346845185877112e-03
5.123914476601076559e-03
1.153701493431619728e-02
1.629293667180234384e-02
1.575827515408327259e-02
7.431230902526032682e-03
-4.842519692278633714e-03
-7.263376004720037936e-03
-1.151056581072771624e-02
-1.614826976666671257e-02
-8.650239528566491462e-03
1.323399345448602726e-03
8.533185260810509029e-03
4.810911400759565471e-03
-2.810427042145641902e-03
-2.753078174117725829e-03
-7.060233668873429694e-03
-8.868229195498893158e-03
-5.218307330570625714e-03
-6.555704394901076988e-03
-4.631009355863744889e-03
3.891469518103659632e-03
1.405434340751662847e-02
1.808905529010482877e-02
1.578190167563534377e-02
1.321488494331436205e-02
5.047258494341503275e-03
-5.035959200446407311e-03
-1.143953345023814711e-02
-1.282714422771350816e-02
-5.909257050630024703e-03
-2.005815188706840720e-03
8.013137819841641661e-04
1.041720309713939710e-02
1.166939396399396117e-02
1.012806878599047892e-03
-9.799471558381194283e-03
-1.411175440801983906e-02
-1.257434472660140523e-02
-9.323324440786824596e-03
-4.331329854279032145e-03
6.187042954926328352e-04
7.170529215808595092e-03
1.634398286870320308e-02
1.851332736824795253e-02
1.111612433322933455e-02
-2.780553479106388087e-04
-7.685935699795083502e-03
-9.277443991017229885e-03
-1.154704187483338550e-02
-7.417435403777954649e-03
2.431637801275545862e-03
4.471297068492788643e-03
6.295943387650229650e-03
1.036259551633630926e-02
4.537932542954870030e-03
-6.726092316947858939e-03
-1.288240317130100350e-02
-9.994045041821757874e-03
-3.045139728620231950e-03
-5.885121903334354469e-04
2.720386206129952935e-03
9.470199758794999381e-03
1.222773576217400446e-02
1.341589042324919934e-02
1.289133811347315667e-02
2.158855418997948639e-03
-1.241583907497814838e-02
-1.561800389697774391e-02
-1.109603669470833262e-02
-8.593308610565146208e-03
-1.622384487613315546e-03
7.101871598835565388e-03
7.950411467596027112e-03
6.598270904116236568e-03
7.098815544889214551e-04
-8.672994967637863775e-03
-1.131614962333863349e-02
-1.246040339139436667e-02
-9.489163273467233345e-03
-1.127019950732974056e-03
1.985721881397250078e-03
6.424515652996821979e-03
1.671864927252886962e-02
2.253945237359359158e-02
1.494589353356541583e-02
8.568758375076119789e-04
-4.979540806333985874e-03
-9.888916029620399215e-03
-1.517816577459307065e-02
-9.857332919536518009e-03
-2.401073535120634098e-03
4.786909346392631374e-03
1.142871670337980428e-02
9.314848254519326326e-03
2.443267441928599452e-03
-6.184102557273572255e-03
-1.232636943850624195e-02
-9.938404913227396123e-03
-4.178279603458018819e-03
-6.343998319931129764e-04
5.227347018294280830e-04
4.008019268214557153e-03
1.165737748971452589e-02
1.827223685254828270e-02
1.601174999905400839e-02
3.053432192856561037e-03
-7.643190323643695404e-03
-1.225453006134550292e-02
-1.360446069917900166e-02
-6.871173871550648009e-03
-1.646293677824782475e-03
3.664503979811280232e-04
7.350728027684983595e-03
9.111874699745232953e-03
2.531031467728591094e-03
-6.883568894120351174e-03
-1.330487211756824217e-02
-1.131717247462124890e-02
-8.461539233807957930e-03
-3.296614598408334831e-03
5.636604586973861797e-03
8.164340899475141036e-03
1.177693152247017913e-02
1.737113945539944110e-02
1.229673118829925985e-02
3.573951367294679604e-03
-3.657819609265212154e-03
-1.160317757643588264e-02
-1.333890076518851574e-02
-9.334710152463874394e-03
-3.429319293692625892e-03
4.324806256719095250e-03
9.558012975408616135e-03
9.579748855935777893e-03
2.285087352002876382e-03
-7.869191422701945701e-03
-1.174933341783210294e-02
-1.340790321819386975e-02
-1.112543749754265829e-02
-2.465101195354246592e-03
2.102706823179496115e-03
8.758885487784353815e-03
1.801527429637363870e-02
1.759338813673156851e-02
1.505534576200978289e-02
9.358523079354370833e-03
-1.542776389981836364e-03
-7.240899649465162499e-03
-1.255978896630044299e-02
-1.202794157445135660e-02
-3.085522327474410267e-03
-2.000221842628937922e-04
3.068856380273053946e-03
6.883749714146572378e-03
3.330477735199906253e-03
-3.121154471840748880e-03
-1.240755300812526087e-02
-1.415851089364076297e-02
-8.876091675504007780e-03
-8.171129003217513995e-03
-1.188845049150327911e-03
7.315415825752182369e-03
1.138650903526692605e-02
1.821222111440000402e-02
1.238809920202170282e-02
2.116953754721760000e-04
-1.010473624418422364e-03
-5.759319316183625012e-03
-1.223118029010012396e-02
-9.339864138688237782e-03
-3.321227698716147821e-03
3.998388948946138104e-03
1.022722368167734187e-02
1.078092463446539591e-02
4.205096588252714082e-03
-6.032554617082988742e-03
-1.032044870249603473e-02
-9.944193239653316765e-03
-8.367388329134806124e-03
-1.953335514266806711e-03
4.796755970342227345e-03
9.908990749421541649e-03
1.629962928058404856e-02
1.880915294409044383e-02
1.498461410079585630e-02
3.927345061292574803e-03
-1.161907833739080076e-02
-1.724645222942386077e-02
-1.345332230279012824e-02
-1.049325319052651570e-02
-4.496076145616189138e-03
3.447490463596767848e-03
6.975774415553796792e-03
8.278918070620797098e-03
1.035820300884575211e-02
7.324471348078806163e-03
-2.605495991989389276e-03
-4.449814058002097769e-03
-1.056166213258821415e-02
-3.271560032067581669e-02
-2.720488245520967518e-02
3.138114247776487703e-03
1.292306601641899852e-02
1.598257580998501542e-02
1.815763506912286551e-02
6.036868044062898217e-03
-9.670524022949982413e-04
-1.902893746234133416e-03
-8.967374531220701286e-03
-8.875621013007470306e-03
5.059840956190546791e-04
3.335300416919410697e-03
5.815111566529838211e-03
1.454493845001164111e-02
1.143944991853788722e-02
-1.965008934841076804e-03
-1.130042486621578475e-02
-1.272421725154569867e-02
-5.031108434026505122e-03
-6.583868635095419279e-04
2.593824687014035287e-03
1.188261633530026708e-02
1.562973412736836515e-02
1.733678811239003706e-02
1.464158852867181171e-02
3.358945518625017397e-03
-4.438687291087515391e-03
-1.021683639115812843e-02
-1.315936691822921015e-02
-1.161858030147619979e-02
-8.556101696911823373e-03
-1.901074809229464464e-03
2.194352207582889354e-03
1.582551758895978794e-03
-3.613900005284868214e-03
-1.049186044716034737e-02
-1.514052944916421950e-02
-2.113960997969343766e-02
-1.916155219675530832e-02
-1.038244773314757688e-02
-2.383605761450932267e-03
9.044972595829875103e-03
1.617939167709277204e-02
2.098995412257268628e-02
2.388729167868953313e-02
1.533748926689205289e-02
4.617261230676974158e-03
-1.783394212197518232e-03
-3.415356528262364442e-03
-1.490155042899730161e-03
3.688847615421026946e-03
1.269241092342775733e-02
1.572090016819849972e-02
1.315258383566099420e-02
3.063871864163398087e-03
-1.070453442434639128e-02
-1.483397418177541567e-02
-1.990054906159680753e-02
-1.805777558355392554e-02
-6.609342132594250505e-03
-3.242556438315519034e-03
2.751945361386202646e-03
8.873731951376214941e-03
1.441385819316249629e-02
1.733769401006331895e-02
9.689772956608198179e-03
1.146061375414090741e-02
-1.293570685569823964e-02
-5.185688470327927402e-02
-2.524874233405403900e-02
5.868495373741848715e-03
-5.731837353107564065e-05
9.589278995339059128e-03
1.294578332521185635e-02
7.904871512450178592e-03
1.159951416488671713e-02
5.050543012933389822e-03
3.093564079044458948e-03
5.731163225001249459e-03
-7.569909865379989989e-05
-7.098771342982057066e-03
-1.078574238511115745e-02
-2.081740888540409545e-03
6.295595388707616626e-03
4.090174965717881771e-03
1.827263128838265988e-03
-1.010082889820816329e-02
-2.313832586606160910e-02
-1.857008267865838461e-02
-1.152896227120119022e-02
-8.481806857276039807e-03
-1.112897429500762491e-03
7.672051344069412762e-03
8.980543632370822926e-03
-1.243790300339298613e-04
-8.440277199490257148e-03
-8.564852821951102202e-03
-1.118207057351224866e-03
1.771442295327559091e-02
3.709489317843221029e-02
4.026158171047413553e-02
3.674640006591616687e-02
3.287500138272921729e-02
1.639740971225829916e-02
1.937307697526411288e-03
-1.191463042672204339e-03
-1.995613646778684677e-02
-3.798696209418699066e-02
-2.691975466192603195e-02
-1.386758596300323096e-02
-6.026854638287896387e-03
3.186428635684219503e-03
2.091745697716360271e-04
-3.999411053559673648e-03
-7.581119183863325485e-03
-1.905907772502847541e-02
-2.373917648858182156e-02
-2.218028378343251533e-02
-1.876177155474798713e-02
-8.905587431614066934e-03
1.227730072865080083e-03
9.306256283694479964e-03
1.355230730566577349e-02
1.628162746013946116e-02
2.225969325428178713e-02
2.349473358252512911e-02
2.089547445697028868e-02
1.112422692981838816e-02
-1.243524490429932620e-02
-1.976495209063691347e-02
2.260157417447906589e-03
1.941734145597041536e-02
1.984442315507253807e-02
1.636189956395960390e-02
4.281245918056265053e-03
-1.667905839424500825e-02
-2.736251665912453959e-02
-2.597583564650909199e-02
-2.754031289739839947e-02
-2.036000650593615749e-02
4.618929436469483302e-04
6.160461814507614021e-03
4.226881487761982754e-03
1.694431099814322494e-02
2.317335278637949747e-02
1.403583123503489294e-02
1.948774418780423656e-03
-9.828320289313798377e-03
-1.355731060530844349e-02
-7.686723959285218441e-03
1.273145288741181621e-03
1.083098098495748583e-02
1.535656816534477012e-02
9.015313670021072104e-03
-4.643116588096580523e-04
6.624871921418474781e-04
5.511866740699131184e-03
3.450557263650488090e-03
-4.144799643769358252e-04
-4.344036153067726801e-03
-9.216632676512378011e-03
-1.393462195075440696e-02
-1.086226495835988272e-02
1.624346421118809131e-03
-1.522428936984795023e-04
-2.201764709306533799e-02
-3.615024242258396692e-02
-2.572101125394728877e-02
-5.445240175997700417e-03
1.435821942026347352e-02
4.520815611046872379e-02
5.892639749827294215e-02
3.882979365400063276e-02
3.327924909198717862e-02
3.165729837077486952e-02
2.817909006829084125e-03
-1.541847018023862620e-02
-1.742226292021519657e-02
-2.197028604083112527e-02
-1.847972412061404945e-02
-1.299431092115944930e-02
-1.427905379258832992e-02
-1.118485506180812161e-02
-4.875812737695440525e-03
-3.234014189131230108e-03
-1.526947805364445776e-03
-2.619982595718345613e-03
-4.774816453230400562e-03
-1.347681335137630634e-03
1.240801578764337380e-03
8.934832937569778949e-03
1.227830805933678195e-02
1.710638054365792035e-03
-7.598324764788946632e-03
-2.333514309520488827e-02
-3.483747008013625412e-02
-3.982956849796287502e-02
-6.292157569757632352e-02
-7.744696931939162865e-02
-5.681835706445166612e-02
-8.861146527308047570e-04
6.460891774172175528e-02
1.033605792698459036e-01
1.173552307206165435e-01
1.023221225295758985e-01
7.215462468101682680e-02
2.648093161075205926e-02
-3.877275146649779985e-02
-6.081851784203472916e-02
-6.212604614409118764e-02
-6.215100624982453775e-02
-3.011362754046014584e-02
-1.571375049978368174e-02
1.337726221515461722e-02
5.349772132912280348e-02
3.507249393225190387e-02
9.390189879095591635e-03
-3.517726216027557140e-02
-5.999450852451276156e-02
1.464691664250462877e-02
6.715462581076780957e-02
5.346513241772127278e-02
2.804739717885858935e-02
-7.120902955124203820e-04
-8.441843549293934212e-03
-2.395189692210060797e-02
-2.634130673648757415e-02
1.312371020999106123e-02
5.474519754314706790e-03
-3.755425095438384014e-02
-3.945421209257330558e-02
-2.685996001205946324e-02
-2.193341676508215460e-02
-6.273532808099242970e-03
2.796577445385674265e-03
-7.003923560043859818e-03
2.724243920707705279e-03
2.993073351688661093e-02
4.201957201399780101e-02
4.417548657401507844e-02
2.652250828865671331e-02
-1.361133745010428657e-02
-4.416081963596528437e-02
-5.407540171084177644e-02
-6.378752339167273466e-02
-7.325294610845235754e-02
-3.968922752414503347e-02
2.160600260793076738e-02
3.993210633306274598e-02
1.901466811037535662e-02
1.303785640437365827e-02
3.538240939828709436e-02
5.033465881308515910e-02
4.921073545060159621e-02
4.856725360869838110e-02
1.201431749861459237e-02
-5.325726998568933862e-02
-6.219534692746946092e-02
-2.403753510433159768e-02
-1.143505391224223892e-02
7.372670063826119308e-03
6.073395398329869965e-02
6.908202658612409841e-02
1.906911982581127943e-02
-1.295029950914707018e-02
-4.476151439870597673e-03
-5.370603618856898721e-03
-4.093821596631782439e-02
-3.825602269476466311e-02
5.374584858883206702e-03
2.637272265371233895e-02
6.508120501104015798e-02
8.394997125611142197e-02
1.138573787964700969e-02
-6.630220985700376046e-02
-7.966476724226378980e-02
-4.801714043881119554e-02
-1.787943272003925804e-02
-1.671743999899505742e-02
-5.938372931721293269e-02
-1.188530818288256047e-01
-5.956671646475916043e-02
6.437719086521546952e-02
9.125579099717752440e-02
1.043119460274829213e-01
9.373956191324873954e-02
-9.234146440403564679e-03
-5.938953177841847786e-02
-3.241467317761414363e-02
-1.945441863660693146e-02
-2.409987288743859618e-02
-2.338419400423076208e-02
4.688546599935321940e-03
1.417964760299952887e-02
-1.473843399191150129e-02
-6.184136203644098780e-03
4.062757844693571513e-02
5.703351861088902519e-02
2.793831729266341851e-02
9.887620144752617621e-03
3.847879023442066226e-02
6.488310294221980024e-02
6.780810762247031775e-02
7.234032783157942625e-02
3.470908150444528689e-02
-7.166645998810411422e-02
-1.394188967459779049e-01
-9.924756154038261169e-02
-2.264326573143619903e-02
1.407950874660499584e-02
-1.615105559512627215e-02
-6.751832898991597109e-02
-6.790810240950354015e-02
-1.928702668313258747e-02
5.778285329022388173e-02
1.029238016779447373e-01
5.755361798376511934e-02
-1.059269672083791580e-02
-6.107417625192403804e-02
-1.025765869829915605e-01
-8.548125364444145169e-02
-1.871730921515725454e-02
2.727809152561331066e-02
2.835794516438180923e-02
-2.523574383531003180e-03
-1.570502214093575169e-02
4.058560118446143117e-02
1.123753847550826857e-01
1.132537105542326256e-01
4.841993759037293427e-02
-1.964456205922392867e-02
1.303567577844672552e-02
1.067186655751256041e-01
5.110674556820358344e-02
-9.151403685738429550e-02
-1.068616909395749132e-01
-4.081231036330140727e-02
2.032960153722156854e-03
-4.361584642980154310e-03
-2.633071766398882574e-02
-6.968038024979610577e-03
-3.143377056450340212e-03
-2.740751404253129533e-02
-3.905279464627807451e-02
-4.671987047187426551e-02
1.140331328444253549e-02
8.381474925867700432e-02
6.278717999297954433e-02
3.492203578995908136e-02
1.022530905357932687e-02
-4.263509530041099949e-02
-4.949278663137012674e-02
-2.824591924595139941e-02
4.956976099434350601e-03
2.893453596019059798e-02
1.032837526720467754e-02
2.134402207526115564e-02
2.773831082530570785e-02
6.183478654269363578e-03
1.901810461176022329e-02
1.996562144865396751e-02
2.130919220156655275e-02
3.289357142597348557e-03
-5.160152880349643673e-02
-3.131122020640709352e-02
-1.110706866929757689e-02
-3.616394463341646853e-02
-4.639782906813339630e-02
-8.598436411443401151e-02
-7.215123889228600151e-02
1.324083976250233418e-03
5.670297262793426440e-02
9.189330663820241551e-02
9.517887426643951987e-03
-5.995000997877785592e-02
5.384415910828045833e-03
1.290975206914082678e-02
-5.094180409942888899e-03
1.333560757674912868e-02
-1.288287421230922911e-03
1.548606415576500930e-02
3.263833828966896528e-02
3.059118321944938323e-02
4.603505091543018402e-02
1.847568557512993884e-02
7.068048651529293576e-03
5.296779106728037589e-02
7.308326981191741456e-02
4.677529811646324170e-02
-2.211462227847785580e-02
-7.718416374774586530e-02
-6.098395797108884658e-02
-3.236128112423321962e-02
-2.451645155574823723e-02
-1.028816812038981475e-02
-4.077955028112571594e-03
-1.678487115570509100e-02
-2.258777313598517994e-02
-2.532284795324694915e-02
-2.623702711030866108e-02
-1.240697389831433087e-02
-7.935271076822833503e-03
1.565762606617097756e-03
3.467442730023724551e-02
4.540281095786298515e-02
2.242046504955788611e-02
-9.647412574230386506e-03
-2.416477363164619765e-02
-1.046011644397405738e-02
-4.668725225733093981e-04
1.630024334287361563e-03
1.234105472906296339e-02
2.514159886966481003e-02
3.078771823424115289e-02
2.697535579148085255e-02
1.963651388617455862e-02
4.161730339389597792e-03
-1.153539310326667788e-02
-1.756252808035607682e-02
-2.462624329746101667e-02
-2.003349658326153415e-02
-8.258838308632974329e-03
-4.514469728261460806e-03
2.165620644799274783e-03
9.527212109911325014e-03
2.190652417244663697e-02
2.444289888275824954e-02
-9.440187996916885038e-03
-4.562141579923812557e-02
-3.421280662052399862e-02
4.775874710095205991e-03
-3.919331542706730107e-03
-1.757946036204223808e-02
2.633385667006159225e-02
1.925480448108090811e-02
-2.453276519962152916e-02
-3.658640489301471631e-03
5.001491707750745433e-03
-1.082973981964963778e-02
-5.649128080093424736e-03
-8.851364029061696212e-03
-2.430826301426541793e-03
9.193343994139478725e-03
9.904711880265870683e-03
2.000203342833625775e-02
1.910326870148358266e-02
5.827672651435441935e-03
-5.290874930023722195e-03
-1.343343306858665702e-02
-1.100876338122127110e-02
-1.071405936435250103e-02
-7.588958789300426049e-03
7.126511902666906803e-03
1.654774114504723240e-02
2.372178251879636379e-02
2.511872777474527876e-02
1.383083889701199054e-02
1.429344569012826888e-02
1.980758189851056575e-02
-4.830522130012940805e-03
-3.242255996776166604e-02
-2.188826919643177549e-02
-1.236467313592552741e-03
1.263203290301707395e-02
2.491870007421866789e-02
9.937489453677679496e-03
-1.121915261177802020e-02
-4.817289137559289253e-03
-3.660002227643724057e-03
-1.880866150289286359e-02
-2.225218546416518617e-02
-1.044679657830326416e-02
-3.403857868324453723e-03
-9.472799852576777035e-03
-1.537190858215220675e-02
-2.113283594219338146e-02
-2.525263665848210756e-02
-1.901551773760969122e-02
-9.060918419044451319e-03
7.545158436030517841e-03
2.189255290399757387e-02
2.337731299668310836e-02
1.996290907690435185e-02
1.608728830224980325e-02
2.720605459215165445e-02
2.942430931740268318e-02
1.122783583460282980e-02
1.028994358690554778e-02
-9.610050101915307980e-03
-4.073357481949620856e-02
-2.016725836976909422e-02
9.359335140128001093e-03
1.522038973152461776e-02
1.387350700116142185e-02
1.960080107638229388e-02
1.585104336698808791e-02
-3.100239459612262605e-02
-4.254910438901561565e-02
-3.323488877185721939e-03
-5.557827139429307936e-03
-1.291915377282619459e-02
1.646931472567620585e-04
1.821681940780513946e-03
9.255091031891895387e-03
1.559342466662095271e-02
1.620278818397634032e-02
1.081166073985202411e-02
-7.881477523391177634e-04
-1.655801726792012572e-03
-2.943604718805852786e-03
-2.586524538453014582e-03
1.585070274091987010e-03
1.228735711300773603e-03
9.829023511352518588e-03
1.664128616595378363e-02
1.189787782159077746e-02
1.416493011120062559e-03
-1.393333881203649358e-02
-2.120090186918783745e-02
-1.840982452052575269e-02
-1.350807001070963853e-02
-1.010809614633997183e-02
-5.086421066801832119e-03
2.726401692458265465e-03
5.539684109782141291e-03
1.229991931742670241e-02
1.427098300113753375e-02
-3.662972100331507008e-03
-1.282834874456976332e-02
-6.914207877629710564e-03
-4.054640678027458811e-03
3.032628216391822316e-03
1.449733788108794122e-02
1.873738171107134504e-02
1.402533990466913946e-02
7.183601887325762742e-03
5.706895943643402807e-04
-8.719488996274511738e-03
-1.270631199499945227e-02
-8.588143940971109530e-03
-4.590669569436687386e-03
-9.919094142053928777e-04
2.367687831050491708e-03
8.104038245930512974e-03
1.726314171634803565e-02
1.756460639668119827e-02
1.139935913904224080e-02
5.233449068660393604e-03
-4.465664814640840294e-03
-8.056332796957221820e-03
-1.991532348263503824e-02
-4.440774298047717172e-02
-3.219171464369532942e-02
5.373178235710702848e-03
1.734664577782451395e-02
1.438202242257255979e-02
8.403601641649514897e-03
-2.105149085909808516e-03
-7.397537731226698152e-03
-8.271618806768445131e-03
-6.499006077233155515e-03
-4.236748121634863022e-03
5.107969410546630076e-04
1.121113468472550653e-02
1.796404108368429217e-02
2.008027458461391496e-02
1.862027278291198892e-02
7.448908467401401182e-03
-4.110699880162558932e-03
-9.903511010333470449e-03
-1.209027062002799614e-02
-5.503245594827811497e-03
4.098397877947445797e-03
8.573240004873451670e-03
1.195987445845697779e-02
8.922111498135217034e-03
-4.572521164465336713e-03
-1.571749745630326642e-02
-1.786176405933624645e-02
-1.370410672550606730e-02
-7.018578303034235868e-03
-2.183954520832379932e-03
2.571502665128963007e-03
7.487921315430919045e-03
1.128341315305723437e-02
1.503450111100944342e-02
1.195020088292184784e-02
2.945665643518155085e-03
-2.799878256968884541e-03
-8.173845130063226577e-03
-1.158707204111244712e-02
-6.269707785683027550e-03
2.296617819216098533e-03
6.759772279054832023e-03
6.801711050459674848e-03
5.830137943723947939e-03
9.647485881091003457e-04
-9.913895187727676112e-03
-1.642484076335920876e-02
-1.386928030357524426e-02
-6.911610130879739661e-03
-2.092105526561746599e-04
3.478283395054293514e-03
8.245422252084248088e-03
1.441125172651602261e-02
1.422304869011357595e-02
4.565477208299878291e-03
-5.604645857474256643e-03
-8.724450568348680532e-03
-1.138303610521817881e-02
-1.280715908774133008e-02
-7.714706903034661799e-03
-6.468375083354498383e-04
8.811323268758896460e-03
1.524885807261256061e-02
1.200713855657238247e-02
3.703235469221870593e-03
-7.933522467550475910e-03
-1.472117171719119870e-02
-1.108612272833984884e-02
-2.988886060781082918e-03
5.218498099402436169e-03
8.510528682651384916e-03
1.072932077399023180e-02
1.649412066541194877e-02
1.877170640176194574e-02
1.079943713861088346e-02
-3.685037092931542184e-03
-9.870785467887955786e-03
-1.092524950727124730e-02
-1.438476451598036734e-02
-9.439178159864277523e-03
-3.383523806417030634e-03
7.502889702769364837e-05
1.010157899069712671e-02
1.171157155256197582e-02
2.233847125004731135e-03
-3.146062945536294911e-03
-8.304534082006896634e-03
-1.458455768898818915e-02
-1.164950668962826640e-02
-4.079267587266875023e-03
4.785149490282414970e-04
9.087485750690042427e-03
1.702607255138868445e-02
1.519486104652967295e-02
1.045995129266942547e-02
1.546816990396430568e-03
-9.156979182606640733e-03
-1.148466974421638066e-02
-1.114366509187286573e-02
-9.317311944947091057e-03
-2.981571653360075812e-03
3.052001804790629470e-03
8.712294755173129526e-03
1.055691787523663563e-02
4.146314092348723189e-03
-3.774780117660151736e-03
-1.039867377065484960e-02
-1.490610131579816859e-02
-9.103542099238814272e-03
-1.528406414982821926e-03
-8.644693429803523236e-04
6.376900557701685630e-03
1.440148650141918896e-02
1.356532602306584345e-02
1.261175121223221535e-02
7.186894838215755581e-03
-2.763457096373463876e-05
-4.526781774273077631e-03
-1.126608565746562395e-02
-9.078444930724991618e-03
-7.106801526132273863e-04
3.906385736070985479e-03
8.065341068899093205e-03
8.013885739072138664e-03
4.410809025478220138e-03
-5.810989436550451082e-03
-1.725423327095359366e-02
-1.260493140473159697e-02
-5.359046565726868251e-03
-3.558889092495975265e-03
2.039711930208750780e-03
6.960596923999764173e-03
1.275268374620932947e-02
1.794456588999727292e-02
1.670554861129613239e-02
9.082867032207652888e-03
-4.590762501127543076e-03
-1.274172606236142341e-02
-1.368314101881896658e-02
-1.316781568689607759e-02
-5.099124289037850963e-03
3.814648132245421555e-03
6.298075585667263152e-03
5.863010204374788023e-03
1.732951804380400114e-03
-4.270950523240815179e-03
-1.041589972585513398e-02
-1.411017009960520777e-02
-1.192133761977105626e-02
-5.675511305486705647e-03
4.085502992621161886e-03
1.307944864990027121e-02
1.747345632785094610e-02
1.883879595215065192e-02
1.390407622369339846e-02
1.684709144326893915e-03
-9.596107403410263081e-03
-1.410386030826029161e-02
-1.545508506108107978e-02
-1.071515499811228310e-02
1.381551846621576407e-03
7.041559537557925443e-03
9.571728118154430517e-03
1.199649024781069412e-02
3.677604543535883952e-03
-5.101178234669228109e-03
-1.132868957015383329e-02
-1.606633547969334164e-02
-9.554323314971737910e-03
-2.509259815891562873e-03
2.737326867740767257e-03
1.261757287165403765e-02
2.026815076735503929e-02
2.125112318951283968e-02
1.292647791404127021e-02
4.444926710022090686e-03
-3.004371150765100962e-03
-1.284072871942338982e-02
-1.229485110997103128e-02
-9.051545301814248323e-03
-4.418297694617519603e-03
5.453606076033295710e-03
8.506851388832418689e-03
1.067710364428291550e-02
2.631027958153633883e-03
-1.251541198438012488e-02
-1.396253618557642164e-02
-1.884863629617281391e-02
-1.866619285653139601e-02
-5.070566737017002425e-03
1.498543761060092301e-03
9.060965771749076789e-03
1.520124538238853615e-02
1.736682196719377402e-02
1.772513428048986400e-02
3.505651279960435296e-03
-8.468609977558237689e-03
-1.109754262236200065e-02
-1.529154529596988069e-02
-1.242432918520371653e-02
-3.863863336238479700e-03
2.888447007301908794e-03
7.283392016667345099e-03
1.091872329212712454e-02
9.656347843877024703e-03
-2.653650633374005172e-03
-1.334453171637981113e-02
-1.210402619154727841e-02
-4.361015634823891575e-03
5.482641013183459869e-04
2.381939359155427205e-03
1.046164775185602462e-02
1.929076987962159706e-02
2.056449299658608121e-02
1.620172486128542561e-02
9.102206466824878939e-03
-9.675530855004043479e-05
-1.106653932784193960e-02
-1.408112766163728026e-02
-1.004551080312582508e-02
-3.740465695808010277e-03
6.081518239269909608e-03
9.676669831130031707e-03
1.008370538354247739e-02
4.762363268623408599e-03
-9.546567960789637680e-03
-1.484141173943194503e-02
-1.315423056044270206e-02
-5.955453271229562556e-03
-3.061114242123715804e-04
-2.500167531674252555e-03
1.286465422726430340e-03
-1.185743943036576993e-02
-2.133760209540330050e-02
6.154281961216875353e-03
1.265145457753181872e-02
-1.255465972245989109e-03
-1.288029582240661497e-03
-7.538494434219827380e-03
-7.094340533928693120e-03
1.024041914741090223e-03
4.052722927764568217e-03
1.309210641303517469e-02
1.467399982037379327e-02
5.757462024118541882e-03
-1.818752981241819004e-03
-8.182857594195975387e-03
-9.436775158994083201e-03
-6.660128382893268709e-03
-1.670986534034306532e-03
5.491654700442860290e-03
1.000717240332880953e-02
1.242017520729011767e-02
1.755510235887361090e-02
1.946517832262981140e-02
1.020562971680299968e-02
-9.868833985028377474e-04
-8.778668707463941484e-03
-1.469262815487778172e-02
-1.446517678414114758e-02
-9.227593406985002203e-03
-1.357704893321009122e-03
3.745002673246083762e-03
7.237578782689647189e-03
9.731783216649003351e-03
-1.604033003716335984e-03
-1.170996126197204786e-02
-1.047218087239751294e-02
-1.295260320256672905e-02
-9.334657035069372430e-03
-6.609913102576089796e-04
3.974921035347210585e-03
1.379410083853861886e-02
2.000198015894772904e-02
1.582605064753301108e-02
6.902239919666278145e-03
-5.084819627152439327e-03
-1.259676085230764485e-02
-1.258022751585608119e-02
-1.087486648089863554e-02
-9.611014457768470021e-03
-2.605125051036432694e-03
8.118916667842743240e-03
1.194950271970793461e-02
7.889054735393159073e-03
-6.694277885169480462e-03
-2.095820017384994460e-02
-1.574572510968126615e-02
-4.745724809066816791e-03
-4.359194511017567501e-04
4.704999467970238589e-03
1.038107110639585780e-02
1.386642729972469359e-02
1.587840680728677678e-02
1.657786484949054506e-02
1.100973041488422302e-02
4.471655889724602585e-05
-6.235161206988705171e-03
-9.533562472630213377e-03
-1.198245235615055630e-02
-7.855883729127856319e-03
3.204897906570851329e-05
6.967356996090854834e-03
9.198277218220585194e-03
4.844157624202180372e-03
-5.273296788208862128e-04
-5.981080856184308077e-03
-1.438126551417579467e-02
-1.707630074470915457e-02
-8.530841654189290357e-03
7.919132010743745904e-05
6.423174917927991674e-03
1.311214230167081878e-02
1.479738921942329311e-02
1.492199417434921307e-02
8.210456964275872349e-03
-5.802139655127128322e-03
-7.659179264343102429e-03
-5.904377860321118748e-03
-1.011444391028668531e-02
-6.958880027178519605e-03
-1.277115466799031828e-03
3.293668807416966215e-03
9.484921465059243176e-03
9.157232553747219478e-03
1.367777205339295839e-03
-9.473450059416639590e-03
-1.598552616395879089e-02
-1.286926610116490531e-02
-5.486171435035809216e-03
2.926028802712448383e-03
9.050023620991788295e-03
1.075116243391305987e-02
1.370637059739884811e-02
1.507988390090354673e-02
7.554208655594535013e-03
-3.092006553443007143e-03
-8.742007564227525368e-03
-9.081198638096610667e-03
-7.106576080005071010e-03
-4.287689450329795933e-03
3.172187279035096168e-03
1.114840958390693644e-02
9.097675386064570449e-03
2.243570684615157820e-03
-3.266641493040551344e-03
-1.084454719919832749e-02
-1.768362899564675933e-02
-1.562909170665470124e-02
-5.597114257627233171e-03
-1.774521433222928926e-03
-3.136892038696124062e-05
1.285257250413421835e-02
2.156440174042400723e-02
1.797289028835956023e-02
8.948821424277678127e-03
-3.299075382446850068e-03
-1.014394116347136846e-02
-1.293422289967686295e-02
-1.319695234348197861e-02
-6.879970507862731913e-03
-2.263390766778466782e-04
6.120048188963224736e-03
7.407636131634198762e-03
3.238495164493339178e-03
1.352917224430946839e-03
-4.098131832760066283e-03
-7.774395814262879262e-03
-6.830769179209559942e-03
-4.988533021955827637e-03
4.319964935872070734e-03
8.131651552775839148e-03
6.657417288426423913e-03
1.313058839789212756e-02
1.494103009398913690e-02
1.083927170199906753e-02
2.023083326870831790e-03
-1.007112340899160401e-02
-1.059875099029994501e-02
-8.173026463506639222e-03
-5.540211573247426705e-03
3.298255155966748568e-03
5.772152282666632300e-03
8.158630781327202638e-03
1.206509573915230324e-02
1.999318688792518610e-03
-1.070770499872800673e-02
-1.352036246371037496e-02
-1.452281763322335432e-02
-1.378203106924767024e-02
-6.002793994729074475e-03
5.483287995585475706e-04
3.412165707546274598e-03
1.052473054796787891e-02
1.471117480614311801e-02
1.083098328827193126e-02
2.875012514953623720e-03
-6.344501967759877230e-03
-8.761810289704135765e-03
-9.977952536391361885e-03
-1.051700058818944537e-02
-1.919965806155509574e-03
3.820642494673769790e-03
8.308240795659860636e-03
9.982925802445004673e-03
-1.839216502956069876e-03
-7.549719335512548174e-03
-1.028458136947321688e-02
-1.810242277321524179e-02
-1.022620731122979472e-02
6.429626932860528759e-04
3.493285328164222846e-03
1.155917625865423778e-02
1.768804721171016517e-02
1.859047589253546781e-02
1.689832832960655104e-02
6.518288072963025932e-03
-6.490928045232650934e-03
-1.046846771859550294e-02
-8.666654998864341264e-03
-6.102799332296300616e-03
2.935862367594369027e-03
1.155586511748138423e-02
1.249205360587661920e-02
1.341889260014242184e-02
6.951484445378436350e-03
-6.866704823652986477e-03
-1.345274520535386098e-02
-1.403302934409643779e-02
-8.578251949541816981e-03
-2.242960500293114667e-03
4.612838920471900705e-04
1.015176542612322187e-02
1.935534769330785054e-02
1.905436130910794640e-02
1.462438443058027525e-02
4.592118896451158165e-03
-1.749615585008215332e-02
-4.343848861969690223e-02
-3.053148427726671069e-02
9.648773842151747021e-03
-3.446551380976927911e-03
-3.584921701287727136e-02
-9.499046043502983039e-03
1.998807213607642005e-02
8.128315626603920332e-03
-4.833820910046227569e-03
-5.278610517087858195e-03
-4.240395819819367008e-03
-2.444659210026296770e-03
2.409601714566535213e-03
8.264346379954868455e-03
1.169144429197782088e-02
1.641721839503755900e-02
2.100669777443645719e-02
1.700615588717790255e-02
5.937227412618316033e-03
-1.075250449713459865e-03
-3.355341091494697201e-03
-6.823005593254524541e-03
-4.960976286785302725e-03
1.716150734838119011e-03
4.992237148807063957e-03
7.419179553531202349e-03
7.015877787011538629e-03
-1.370576305440782345e-03
-1.251980568678415402e-02
-1.746972712677128878e-02
-1.587286885230617881e-02
-1.214144418273349971e-02
-6.156785858855704993e-03
-1.997454099016413628e-03
1.292414864284394246e-03
1.034425340563254435e-02
1.818981799236738320e-02
1.633696162030696258e-02
6.321256575258874313e-03
-2.891676111576534612e-03
-7.049007078575822427e-03
-7.333988064897803763e-03
-7.895838986521320439e-04
4.803457355954039373e-03
5.316134780808730309e-03
8.257363446259524328e-03
1.082884654441044342e-02
5.583646023526937612e-03
-6.878260607808633041e-03
-1.250288593023286994e-02
-1.172096055628182518e-02
-1.272982618757145801e-02
-6.615371918042125925e-03
1.537430780120657096e-03
1.066198794276622917e-02
1.896218151108230651e-02
2.305039198670397541e-02
2.204071248777717679e-02
-2.094058627951519633e-02
-4.904011736121325488e-02
-1.022365039466191332e-02
-2.027048516759187569e-02
-4.806967467158067275e-02
-2.363339634102751968e-04
2.428983717232234552e-02
1.817183641403652058e-02
2.673983256943712750e-02
1.119327304138594686e-02
-4.790464658552215718e-03
-8.026837255558152973e-03
-9.780823254352890433e-03
-1.825280444338830792e-03
5.754076324546587417e-04
4.165715042707894902e-03
1.123618248778104380e-02
1.479007978981958238e-02
2.099181123534568649e-02
1.706995124999588845e-02
6.914916110791532317e-03
-2.972177514835128414e-03
-1.259494195962402793e-02
-8.207072055869547855e-03
-1.287905311771646039e-03
1.685521010949611598e-04
4.335794521383669331e-03
5.869052918722993117e-03
4.317379745647254539e-03
-1.548188245308896932e-03
-1.187172588848480967e-02
-1.746254540554092669e-02
-1.646112369588144733e-02
-1.210197749598499947e-02
-6.394838421139649974e-03
2.579719652888166122e-03
1.103617594064452805e-02
1.440366308651851862e-02
1.822570936650886111e-02
1.517886794407147938e-02
3.770130472193792756e-03
-3.275047655203163974e-03
-1.134028107996493985e-02
-1.662501936803494756e-02
-9.602017264722500015e-03
-3.072098065735533005e-03
2.290298456445458760e-03
9.894936852647105707e-03
8.642266926893592272e-03
-1.700275252911099839e-04
-7.757569269283065214e-03
-1.189177545295638794e-02
-1.335107548205839365e-02
-1.114870676135678793e-02
-4.699399296532600495e-03
-9.773219162683181253e-04
1.163110926404677548e-03
1.034623604070599757e-02
1.899228010378026590e-02
1.781871399009384363e-02
9.817372785828252721e-03
-2.130812607226474122e-03
-9.330177277576050948e-03
-6.409298797828501086e-03
-6.354923510007544178e-03
-7.118665200304473244e-03
2.519197340127725393e-03
9.890512480987892485e-03
1.009812212610528698e-02
6.950494661380720793e-03
-3.747467372338762672e-03
-1.145624779938974637e-02
-9.755407551372975716e-03
-5.424999734486967568e-03
-3.037043533414983312e-03
-1.351018464453197310e-03
6.879096202442080803e-03
1.320072168549087446e-02
1.385393632006793121e-02
1.503726517572965930e-02
5.930765092316989291e-03
-6.801373578463226419e-03
-1.090534454285544720e-02
-1.071692171477371149e-02
-3.800298132526365880e-03
2.179203184951779802e-03
2.996237241227573192e-03
6.036085007402233402e-03
7.549361827646848717e-03
5.524437745271811376e-03
-3.755059548712338414e-03
-1.559754864536460651e-02
-1.602581800807588441e-02
-1.239822794160230952e-02
-9.460855731173183417e-03
-1.258612317675811753e-03
6.024043800578708120e-03
1.042050588023500819e-02
1.602130417260482290e-02
1.545210401997484245e-02
4.634730535354976595e-03
-3.863742657053811404e-03
-6.969594886705276007e-03
-1.301601467029350756e-02
-1.395313999342242921e-02
-2.359368258543687469e-03
1.151447085474263145e-02
1.768258052894295523e-02
1.699614718639443425e-02
1.432512688456548909e-02
6.065583832678770812e-03
-5.859596688583219859e-03
-7.897037359715374655e-03
-5.142939301642819247e-03
-3.610499289972469300e-03
-2.120348413650270485e-03
-6.774914459600107908e-03
-9.340847368883511623e-03
-6.869804782253963182e-03
-8.322658486697238206e-03
-1.325765841586307170e-02
-1.906855959042217177e-02
-1.869203848569417348e-02
-1.478770684828588887e-02
-9.236142036854036452e-03
6.030138649824299396e-03
2.267785316572485527e-02
3.373913797057246505e-02
3.722363087865710601e-02
3.667463968224284054e-02
3.279270586815160454e-02
1.344376397503021028e-02
-3.014954718502308242e-03
-6.889615758291829477e-03
-1.226719535661068006e-02
-1.654527854361309558e-02
-2.573814389614329304e-02
-3.262588082303971571e-02
-3.366215000175059452e-02
-4.047114833636632908e-02
-4.450947854905507040e-02
-4.532071483891609437e-02
-2.969046062532177191e-02
-5.254063012469486170e-03
7.434361499725986727e-03
3.510548367276709880e-02
5.092337662833252426e-02
4.205672710637933104e-02
6.333226820981778526e-02
8.844483302481036258e-02
7.703199249937589532e-02
5.611085751289388024e-02
4.109303524402316971e-02
1.721992424593281334e-02
-5.944442201187678798e-03
-1.816718524066607277e-02
-4.196809866266480726e-02
-5.557182595569350875e-02
-5.567845164002092201e-02
-6.303473136916758202e-02
-5.468104486066105441e-02
-5.281135254502887511e-02
-3.704968771488188761e-02
-3.373083570551389798e-03
1.311340450530164292e-02
8.070242557816090234e-02
7.959806701226497527e-02
