-8.966373023719796664e-03
-8.129217512292554945e-03
-4.611539531727413405e-03
-4.502398458082939106e-03
2.945236946487557548e-03
7.033505269159546006e-03
1.418839679251792177e-02
1.698757242465802342e-02
8.949204493206795383e-03
3.883118872753069540e-03
-2.245169094185622393e-03
-5.300481635121560495e-03
-3.482116632881826317e-03
-5.141531625932751343e-03
-5.083704204127069068e-03
-5.936412567485930929e-03
-1.326491662593913892e-02
-2.280355094108011196e-02
-2.173126624778413951e-02
-7.946932242441674676e-03
6.378299127504445838e-04
2.489482436528345048e-03
3.079222087970734812e-03
2.076473491218986615e-03
3.584871706231252189e-03
4.780970388561712157e-03
6.215529203289573562e-03
8.696622519454700814e-03
1.024516472756200822e-02
1.042319841487701453e-02
4.306939588285403978e-03
-1.918449186183750134e-04
4.700788052846701856e-04
-3.608127074697845384e-04
1.488364011640480730e-03
3.507623691116746700e-04
-4.936837272678751450e-03
-5.457412863208217606e-03
-5.348937826631568540e-03
-2.931349410514498457e-03
1.415239921616365899e-03
1.129898211699156092e-03
1.566465457252596422e-03
2.644617836516028470e-03
1.724337752541011976e-03
2.272232706306380901e-03
3.191075822413172534e-03
4.354981930741652976e-03
4.624005661133041151e-03
1.312031188036805488e-03
-2.558642247094258543e-03
-5.097734099658258675e-03
-4.132682646412162014e-03
-5.000996792687154914e-05
7.938308355351810083e-04
1.021928565237090007e-04
-2.877748383798221787e-03
-9.111244007740847139e-03
-5.993251309265226930e-03
1.286998610660909344e-03
2.032830315369945663e-03
4.322253214145475517e-03
2.991926947386382239e-03
-4.201641820194970851e-03
-4.480886976205254550e-03
-6.773127954274319384e-04
-3.613937017688000812e-05
-1.770371072406485072e-03
-7.100047178641773638e-04
3.626494266811784110e-03
1.767824186843477193e-03
-2.329711040225283109e-03
7.223253689887398519e-04
5.787753293514440699e-03
7.183296951852204300e-03
3.339660943864047188e-03
-6.021475094839307722e-04
3.003214976904574089e-04
4.066484594181339748e-04
2.943648354306486266e-04
1.562359136524812432e-03
5.738526927891863909e-04
1.414298690501203772e-03
6.143393641580268544e-04
-4.902641267537326611e-03
-3.552939526726909235e-03
1.713575674623529083e-03
2.187098069420557577e-03
4.245734650034043009e-04
-3.576132068550278396e-03
-4.876178620958663071e-03
-3.275026803929479736e-03
-3.648857855385626622e-03
-1.334111579381030261e-04
2.852016970417909844e-03
1.448986716836830977e-03
2.594551036397182639e-03
1.541636860605906725e-03
-2.174370898839961784e-03
-1.763107303886968626e-03
4.934201004314942322e-04
1.284132169884527348e-03
7.369209429778808508e-04
5.873407327175369239e-05
-8.732440532743678983e-04
-1.823907780767877263e-04
9.180539150449745257e-04
-3.864413446313745538e-04
2.161040777026633063e-03
4.033737253594875047e-03
2.271905591978191449e-05
-1.111933008523718035e-03
-1.489936854500837141e-03
-9.323204189149869462e-04
2.722584285506422872e-03
2.270030569361227574e-03
1.823876310227939574e-03
1.384340051784144210e-03
-3.575597679616934147e-03
-4.802981400720228271e-03
-2.540128122476744679e-04
3.600013688596761206e-03
2.556937049776286837e-03
-1.612886211461176322e-04
1.631610741412408544e-04
-6.024613627369948370e-04
-2.431082548928283245e-03
-2.468384847277707746e-03
-1.843719666679757580e-03
-1.348209321579586100e-04
-5.523420977380194379e-04
-3.287130112608367162e-03
-3.664152224074037918e-03
-9.973490984855049295e-04
4.651375254544934737e-03
7.318668242196453393e-03
2.356203291409497518e-03
-6.863110705425296042e-04
1.495368352906869700e-03
2.322866599422122001e-03
3.189308546021363180e-03
3.792930134256719370e-03
1.324490417397424348e-03
1.140715799322497125e-03
5.841820746855292843e-04
-6.249893221719826815e-03
-9.046478374049635174e-03
-4.084167298086883828e-03
7.766598225217376424e-04
3.618007700166200966e-03
1.660958596959141763e-03
-1.157104218770121755e-03
6.365493108892333906e-05
-7.897745338445553986e-04
2.647305665367590422e-04
3.017459025290432622e-03
2.549840525142511773e-04
5.835898359286269092e-04
2.015912734776584107e-03
-1.742473538535838128e-03
-1.997961165522742135e-03
-2.398733775358204352e-04
-1.613551509330093253e-04
6.582553336845969405e-04
-3.430780668117449630e-04
-2.713640020928040353e-03
-2.563833501506960696e-03
3.599279158448178556e-04
1.776016887392241990e-03
3.013056011960089670e-04
-1.353954206518754666e-03
-2.369129386460775040e-03
-7.887647720860401336e-04
2.978285253755774426e-03
4.403597485833733033e-03
2.214186980128245424e-03
1.959781957140584521e-03
3.896026421442193126e-03
-1.842790516358514940e-04
-2.271443015052592145e-03
2.612535850192998499e-03
2.453479617884985094e-03
-4.910823602263849610e-04
-2.604111904947999014e-03
-3.538884886616165855e-03
-1.481488646180900877e-03
1.341285520596890253e-03
6.485750672861854971e-03
3.266177076767589997e-03
-3.836918113078526937e-03
-1.171776107034019259e-03
-6.000499923645916112e-04
3.342959324434650534e-03
5.828894933959957378e-03
-5.945909001908281132e-04
3.080277214809005190e-04
-1.229672768764255089e-02
-2.539781872903169521e-02
-7.548331037293457522e-03
4.188421920421401753e-03
4.276755886782321325e-03
1.031083063311311054e-02
1.111314332965219337e-02
7.208758582519306235e-03
5.367328454567123945e-04
-1.873964304228682059e-03
7.251529987655416917e-04
2.593396976955066741e-03
3.954624420303487660e-03
-2.446511116498483341e-03
-4.230095753354778422e-03
5.463385142612768456e-04
-6.395208909711802732e-04
1.104470726018850699e-03
-3.444391498148450864e-05
-2.727935513867814528e-03
7.538914788380663345e-04
-4.218999224554394471e-04
-1.516984948663068541e-03
-2.077369537425979070e-03
-1.929804114123024423e-03
3.862220656450096080e-03
2.965130586023277930e-03
-5.124302787163216404e-04
-1.633380417232399053e-03
-6.054498000318162335e-03
-5.089428213781549762e-03
-1.096615286946472012e-03
5.667442724061595938e-05
3.739272720878452499e-03
3.971343659975794076e-03
-1.371117348192058124e-03
-7.723716879445328238e-04
3.073683693908832969e-03
4.349871815661407286e-03
6.221723254387795735e-03
1.924137066491727948e-03
-3.084850064327334784e-03
7.402739277300526702e-04
2.134939813598148682e-03
2.889144671196830494e-03
4.213289058476546792e-03
3.701673177934059790e-04
-3.554006511554027832e-04
-1.621253006938200032e-03
-5.089910749652133345e-03
-3.352905589497395984e-03
1.842434321128486811e-04
8.574655735897852241e-04
-4.266464454320196241e-03
-6.402145399762928200e-03
-2.615677799797401330e-03
-3.445735137931718248e-03
-3.051560980742169370e-03
6.761546200066708865e-04
1.538563392270757496e-03
1.935439582488062728e-03
3.636047430199676120e-03
4.310434455349581098e-03
1.398973416674949614e-04
4.723365620395311932e-04
5.885281639230678825e-03
1.305971740773482657e-03
-4.096107847759675701e-03
-3.410303374404166036e-03
-3.131618366129889069e-03
-5.004652190316890127e-04
7.548224187016005626e-04
7.963967106639941200e-04
2.539154938658450510e-03
2.367611833010192009e-03
1.107848096169734104e-03
-1.844176369749901158e-03
-5.865412821001290576e-04
4.109258614938988800e-03
1.622930066666560369e-03
8.921341639058576840e-04
3.101812490158304368e-03
-1.196113938452657765e-03
-3.088601569751994996e-03
9.067140076756371233e-04
3.498184319710618325e-03
2.580717566056359505e-03
3.645735054586708029e-05
-2.482171887376339106e-03
-5.372981672388452840e-03
-4.914418028363010983e-03
-1.966174846557402957e-03
-4.420624668927353130e-04
3.357538163382340398e-03
3.832274624299922619e-03
-1.927892168030705513e-03
-2.515164156891045583e-03
1.226445278924481221e-03
2.381433433235321823e-03
7.984575748455574693e-04
-2.588805152379494018e-03
-3.503332212377034422e-03
-2.262292232357842551e-03
-2.606223248811359930e-03
-1.163394813030606267e-03
3.656146214386546585e-03
5.107018050206269325e-03
3.764769206407976923e-04
-2.278974236754885679e-03
-1.233919897649163756e-03
-1.409540319470132348e-03
1.151204135582588849e-03
4.795422090988428303e-03
3.918865985119454436e-03
1.163726827746908469e-03
-2.001300214043306644e-03
-2.768151645860197300e-03
2.217671389615217799e-04
2.932069820633877513e-03
3.764603948101356585e-03
3.004866087911603912e-03
1.476212556044270707e-03
-2.306948756913687615e-03
-4.529401348643721271e-03
1.753031127149550601e-03
6.713660779673504345e-03
3.403576566823210501e-03
-4.276204330571676832e-05
-2.651265602514861659e-03
-4.689781461505383893e-03
-1.816151734467962584e-03
9.347082570991751974e-04
-1.829592156699937858e-03
-3.511188251629705510e-03
-3.081118915942167909e-03
-5.321781669797690656e-03
-3.553255321582806346e-03
1.403390528345715288e-03
1.463105310003195341e-03
8.201930279314786215e-04
2.173994554989884184e-03
3.936642543570155646e-03
2.126420371871873532e-03
-3.115807635907658513e-03
-1.204642764472955985e-03
2.647452791097695390e-03
1.451704482495884017e-03
2.109854092665034916e-03
1.999105358562205362e-04
-3.884573429128486757e-03
-2.749854452904824682e-03
1.610949720334963907e-04
3.067394028175346368e-03
3.033529903358359991e-03
5.756747896378637541e-04
2.303825837632847049e-04
-1.436150054344575685e-03
-1.999264827141916320e-03
-1.826593096676657510e-04
1.283498684883085461e-03
4.116289361482021805e-03
1.817743640655432704e-03
-2.427187166009828635e-03
-4.806200532546410021e-04
1.475505186804629710e-03
4.942938039783600045e-03
7.193986434629647680e-03
2.412554476942911294e-03
-1.604713815100392146e-03
-5.538271220484619270e-03
-6.807591076564785751e-03
-3.215702595794368238e-03
-2.000107435149202795e-03
1.911633499278615669e-03
2.841061212420965126e-03
-2.771617248082524233e-03
-1.227813332461516341e-03
1.456861490118612412e-04
-1.312631346046226697e-03
2.432043502893321222e-03
2.949155055272707163e-03
-4.081195783960920621e-04
-4.026957227692488407e-03
-5.791603329917367066e-03
-1.273763332570565510e-03
2.350869168653112098e-03
3.478749187129811810e-03
5.433970003284636224e-03
3.868241559853957158e-03
6.715752798681234609e-04
-4.842386395660577825e-04
2.548085433722029492e-04
1.912201879293281507e-03
1.947539613199594918e-03
-9.820878973303918263e-04
-5.574346794366887362e-03
-5.900600858267608662e-03
-1.710087674290072237e-03
1.636809887130615416e-04
8.530326025835106374e-04
1.952671897836861072e-03
1.796205949343152204e-03
6.487333102914469123e-04
-3.541278651887739236e-03
-7.531437363144107867e-03
-6.657550302871511651e-03
-2.262402110187733233e-03
5.096164619645008297e-03
8.333663107939053363e-03
3.897803965555119397e-03
1.800947531912056076e-03
2.045738006237635045e-03
5.014766383039855622e-04
2.495135745870502835e-03
4.747811464667304852e-03
3.863965041840310643e-04
-2.123443263611402270e-03
1.448763738136742314e-03
1.071202686328820430e-03
1.413544831946178049e-03
5.145151441358283839e-03
1.782808887863978828e-03
1.634085000402070702e-03
3.788731559329842468e-03
1.943144894901180017e-03
8.595650727756521531e-03
1.300585705741466504e-03
-1.937163132250592848e-02
-1.523410949256861872e-02
-4.986522281614087261e-03
-2.864436646838085850e-03
1.624455030116008772e-03
-8.013339777092899326e-04
-3.825034953478723869e-04
1.450543186323515529e-03
-3.911057496410914013e-03
-2.350404586871378265e-03
-4.119037102874394639e-04
-7.616416309098231587e-04
2.059000298329284086e-03
-4.320445276111815501e-04
-1.343233502551364773e-03
1.222798296000314738e-03
-1.040384499025916176e-03
-1.862065645864929234e-03
1.540348658413668616e-03
3.193105363608995679e-03
1.383214934023991845e-03
1.310624243552207515e-03
1.478678155005852318e-03
-3.169941280270937439e-03
-2.697745960337067338e-03
3.321270723616277440e-03
4.447813501937040656e-03
5.597006334950500352e-03
6.355052940168875834e-03
2.549531336686134981e-03
1.913942042035689456e-03
4.336148847287205413e-03
4.947237537661702649e-03
3.044540308366415829e-03
1.315972765318635393e-03
5.327131656487221929e-03
7.329906376396740780e-03
3.072039886316866187e-03
-1.394857775124144338e-04
-6.027945440274630820e-03
-1.007506358032790594e-02
-8.645739719133824913e-03
-9.312342773709987934e-03
-4.682277551250066741e-03
6.755974838718872225e-04
1.144968818210172472e-03
5.910710058507303612e-03
3.774766622970089289e-03
-3.271550346081241161e-03
-1.025802748713587793e-02
-2.620689688080886717e-02
-2.181183012155343479e-02
3.870338127686497303e-03
8.509213858435216854e-03
2.501433553723425574e-03
3.858751256911834362e-03
2.396270654531699063e-03
3.948649357971579718e-03
8.647118548485403441e-03
8.217860408581268220e-03
5.228040212702170751e-03
5.492600467789284782e-04
-2.872566649308168574e-05
4.921898864701189195e-03
4.022416040698778561e-03
2.232038462158360183e-03
4.697498974468437838e-03
1.053040301356351427e-03
-3.049588743561685526e-03
-8.461795560674015065e-04
4.632650696180632983e-04
2.292513089263758207e-03
4.390697967717236035e-03
3.173272484656382286e-03
1.934122969084278460e-03
-2.689190928575720379e-03
-8.468999480750454695e-03
-5.928915577691418019e-03
-2.354996737700099617e-03
-1.964259934214168581e-03
8.139627034843613645e-04
3.080702518468549176e-04
-2.096511481987730664e-03
2.724768286941390378e-04
2.663443421139678399e-03
3.886793459330318504e-03
4.003360717589594595e-03
3.240607465762065584e-03
1.239295794390592870e-03
-3.638404523954960612e-03
-6.582089224402075216e-04
4.469674866052459651e-03
2.368537769877904903e-04
-1.123889460203965091e-04
-5.214275247919000203e-04
-5.800722261403022835e-03
-6.264696163749474203e-03
-6.205168853869659495e-03
-2.118095064425561634e-03
1.069239681532058693e-03
-1.767476178912563830e-03
-8.861856348986121455e-05
-6.789125123836109790e-03
-1.189360860689509143e-02
9.814293345784489558e-04
2.927092323612989766e-03
-2.803805734726605870e-03
6.037266278621087256e-04
-9.856690636588100738e-05
-4.287826119865179421e-04
2.115496807441348288e-03
1.838223053737108670e-03
4.417133995956462438e-03
6.106738614387191739e-03
3.924795270631625636e-03
3.150989977610730956e-03
4.288565017871607231e-03
7.756871382441393042e-03
1.319088291346072125e-02
1.570722603392641151e-02
1.438529306178666645e-02
1.045500452585811611e-02
2.255554455790491613e-03
-5.994231691293238837e-03
-1.237513610558921111e-02
-1.817535466825982368e-02
-1.515798735336106561e-02
-5.727827226928248333e-03
-8.582923623227826449e-04
5.970744360688266198e-04
1.950952660736868368e-03
3.152733864385516734e-03
1.966534313670314257e-04
-4.379445306127776813e-03
-3.551817694096756715e-03
-3.711251514377382314e-03
-4.567618624267991319e-03
-4.452148296182814775e-03
-6.772116541679360120e-03
-1.883154085275352699e-03
2.438038962427160113e-03
-1.269760419075810715e-03
1.254999602979333263e-03
2.553697085145754768e-03
-3.460765463171767845e-04
3.371833901761420171e-03
5.242596784612299152e-03
2.151158386055947429e-03
-3.178117524721973172e-03
-6.631372211071678326e-03
-3.054276844382344293e-04
5.698494635730562072e-03
4.797129440367741207e-03
3.961009002823603908e-03
2.677598881795616344e-03
-1.445790811948980943e-04
-1.883248712624243379e-03
-1.461219172074970738e-03
4.694833499974838259e-04
2.771917935097400164e-03
2.477877346123607497e-03
3.586574358965404527e-04
2.354441749187386693e-03
3.590860529173523982e-03
2.072364966374459338e-03
5.104385047429758383e-03
7.597507490945284298e-03
4.293380233338361940e-03
-1.824114387255652836e-03
-5.250338028436770527e-03
-3.210985150146560517e-03
5.475472584606606505e-04
4.793114710371901288e-03
2.313609220156999293e-03
-4.715188261095216993e-03
-3.799736566377211796e-03
-4.703417351593981027e-03
-6.514757702464458490e-03
6.965631664014366618e-04
5.965062334098067062e-03
4.589633841415113012e-03
-2.676044788978436222e-03
-7.955988424987526716e-03
-4.510173746181143917e-03
-8.707258441989877695e-04
-1.661796848789932977e-03
-1.527827509480179577e-02
-2.564255655188108288e-02
-9.556102412329375850e-03
6.587151027960125825e-03
1.031671117975934901e-02
1.194226155763758977e-02
1.081813132228867658e-02
1.249913611107591853e-02
9.100340083708685981e-03
6.742038858824348012e-05
-4.475150851183761283e-03
-7.607752853719144601e-03
-3.801624110966234874e-03
1.991672056316973541e-03
1.635859845465263912e-03
1.750385851503681069e-03
8.926001927225006224e-04
4.738798391197105320e-04
1.359606957125958967e-03
1.697845732954230856e-03
3.738024339251122367e-03
4.422396504721010958e-03
4.193083585127745962e-03
2.686112965934025088e-03
1.886583400985258722e-03
3.265868974865564905e-03
-3.352848174462503758e-03
-1.286520198862055146e-02
-1.237458623208359532e-02
-5.233499247875899457e-03
-6.955299727421181523e-04
1.591038370812427553e-03
9.304535173151018759e-03
1.410009120394467574e-02
9.690286996908537703e-03
6.243745701294795003e-03
3.292787211170952397e-03
-2.523765538484041508e-03
-8.143862704676825548e-03
-1.077791961926305095e-02
-7.859875018306528710e-03
1.070187141897276052e-04
4.715860062144638931e-03
-4.618164896572911522e-04
-2.638403143409885198e-03
1.102969139285686151e-03
4.220676730585566465e-03
7.374930591901171333e-03
-9.193064126925632254e-03
-3.079098404943200751e-02
-1.905000850152576905e-02
-1.785039103094411897e-03
5.907501238105871289e-04
6.069715114749752935e-03
1.089359050289159109e-02
1.067211569317214233e-02
5.559859619034443826e-03
3.886064030360961413e-04
3.233299397856873123e-03
5.650664750199083097e-03
8.801857119434555732e-03
1.513456323487092151e-02
1.293583792961797325e-02
6.845933513283234718e-03
5.530391920876686490e-03
3.459688921484279332e-03
-1.461374722091672356e-03
-4.887916464742628024e-03
-4.171130950736058780e-03
-3.900597563020496115e-03
-6.665116573393166724e-03
-3.431228209388236059e-03
4.055255390935264860e-03
4.452296049784219834e-03
-1.959207667432099741e-03
-1.595158382007011086e-02
-2.857203820587898499e-02
-2.219888582134856361e-02
-9.926065963054866298e-03
-5.489928765481704755e-03
7.747522782338692919e-04
7.851388297737337332e-03
1.110285592268713852e-02
8.903818866804575141e-03
-1.391469192075606934e-03
-7.176984901788807658e-03
-5.020145389905483063e-03
-7.470107279737780819e-03
-8.145436534091325675e-03
-4.674868408252857294e-03
-5.147011026899185084e-03
5.717371191359290998e-04
1.075728179475129997e-02
1.799553140978113475e-02
2.462515724801837835e-02
2.386777168098176347e-02
2.588534690865952267e-02
1.923834308578263944e-02
-1.564844852586904853e-02
-2.578167560426109992e-02
-2.410254126584590161e-03
2.941663500206168763e-03
4.816633762425187072e-03
1.449411753038553317e-02
1.338868756034343813e-02
1.220857847535007298e-02
1.712135410753876097e-02
1.836813658607174340e-02
1.052330129370410844e-02
-2.036920761156774118e-03
-1.937893931246145729e-02
-3.618138830602882910e-02
-2.919318089436815158e-02
-6.436298526524418702e-03
9.481771475550042003e-03
1.742949760541443946e-02
1.609354890728369875e-02
5.431061090379563257e-03
-1.994752172951064217e-02
-4.917501559876762129e-02
-5.423309188513744661e-02
-4.404253531176711978e-02
-3.694868341143589530e-02
-3.052547304874268091e-02
-1.510004117987123404e-02
1.563857809749003361e-02
4.381217438725575064e-02
5.275638431131902256e-02
4.471301870023541153e-02
2.499715581990557753e-02
9.416681202136806955e-03
8.337495390133699974e-03
1.196156426047935081e-02
1.254524552487096267e-02
1.042284276430983404e-02
3.463756728916238693e-03
-4.623788466372752252e-03
-1.571577450632332231e-03
8.553641965551216086e-03
1.090143434458425847e-02
6.023123943679518227e-03
5.540077683952828640e-04
-5.261724733778629613e-03
-1.190599145261832942e-02
-1.649753761370580107e-02
-1.709449327294170276e-02
-1.607562542608143366e-02
-1.797001409440853251e-02
-2.169886414182845349e-02
-2.135601515280393520e-02
-2.035115238782638988e-02
-1.797768555549527497e-02
-1.053487660841615284e-02
-3.369533956315534651e-03
8.107060981563747951e-03
1.911174112936655373e-02
2.354631531548928569e-02
3.356672624976603236e-02
4.025246235839682885e-02
3.899619879347066692e-02
3.717565648549472912e-02
2.451809347645007853e-02
6.524715050345760055e-03
-9.829419787246091930e-03
-2.485072909496017363e-02
-2.452223459864279198e-02
-1.234270776932073869e-02
-9.828910152362374184e-03
-1.927057391825982846e-02
-1.836621480119457472e-02
-6.378593384294741105e-03
-3.763483502233104039e-04
7.494846270902072796e-03
8.617657085658649366e-03
-4.965693676185057789e-03
-1.368899188998921358e-02
-2.284167825227629428e-02
-2.981381525293326507e-02
-1.675746256804351575e-02
4.021409209645356725e-03
1.339089704012116910e-02
1.573975000016530554e-02
2.254626902529171389e-02
2.430983966044365785e-02
3.096884393378843137e-02
4.018180576620903471e-02
1.124535882693241187e-02
-1.671134592333021682e-02
-1.398769963651890630e-02
-3.637481008877646582e-02
-6.845807709230558591e-02
-6.373409116334860514e-02
-2.826339877000283440e-02
2.514275484262176730e-02
7.503841046512078894e-02
9.321950897167431693e-02
6.551456902618617295e-02
1.455452643729825482e-02
-2.461019812001735696e-02
-4.129719159422436114e-02
-4.010096983520493319e-02
-3.553571303500089457e-02
-3.731913650535177707e-02
-5.513692916386420811e-02
-5.117591936432101807e-02
1.495609953334695041e-02
5.240959385808224152e-02
2.034944722002642731e-02
1.236755726813176803e-02
5.527819944072099451e-02
9.626046471926523462e-02
7.660696634818355000e-02
1.967007740873266686e-02
-8.307801028644536470e-03
-4.243043459245762067e-02
-9.542307403068749083e-02
-1.079527085787614776e-01
-7.804892793028390952e-02
-3.917106951327065101e-02
-2.462348947135146841e-03
2.670650955628003920e-02
3.666477161494806347e-02
4.933869028661091310e-02
6.615095580745194992e-02
4.692207223220318246e-02
2.106368013965763397e-02
1.850209156431553009e-02
2.362974970836785246e-02
2.159057943075919778e-02
-6.074499425041428834e-03
-1.594068589125810509e-02
-2.576110667088584404e-03
-2.133427763722814050e-02
-3.289673754504846004e-02
-1.563609483316667770e-02
-6.158143861823915655e-03
-1.438706804733936272e-02
-4.522007035268132275e-02
-5.644000064922969490e-02
-2.388724515002457055e-02
1.803930139881013139e-02
7.514145220718954077e-02
1.147217094087836370e-01
7.184445155946600492e-02
6.381187679195090764e-03
-7.408100146407003636e-03
5.204026174871896962e-03
1.535490331651818453e-02
1.417330978845372444e-03
-3.636810802411444971e-02
-6.283125699742289627e-02
-9.032361128060666100e-02
-1.216917512336669061e-01
-1.177147216924207679e-01
-7.215889199516772878e-02
-1.685435160632139245e-02
1.402929099414182250e-02
5.712086032336795988e-02
1.177512381634515937e-01
1.162236092195100406e-01
6.520242920597332792e-02
-1.439453048826366995e-02
-1.136910601835570273e-01
-1.477871510168913272e-01
-1.308716471377931456e-01
-9.838482953272748022e-02
-1.190538989785166167e-02
1.050034978859317181e-01
2.093597187252717595e-01
2.363552390008908100e-01
1.504605875645657898e-01
6.147517050656209348e-02
4.071702093125617594e-02
3.968481830182774006e-02
3.107795351883244073e-02
3.288233067772526608e-02
4.062874800429305128e-02
2.256151437083039196e-02
-8.044249404872021170e-03
-3.970417788151660299e-02
-1.018916203237430068e-01
-1.679652761076251000e-01
-1.920599623998333894e-01
-1.623873224038582253e-01
-9.854626078555794866e-02
-1.927698538648910109e-02
1.263308307676382358e-01
2.258706884049870578e-01
7.438459218756550417e-02
-1.640266320776445907e-01
-2.513069963087317671e-01
-1.972093474404849611e-01
-5.793161530291413702e-02
8.191199729452507128e-02
1.926915732242589774e-01
2.400468155601389320e-01
1.603323776935885459e-01
7.216744512947879941e-02
1.120955645310587299e-02
-5.729392989359728683e-02
-7.105628657718979224e-02
-7.241203871433044004e-02
-2.783483399024179114e-02
8.937300651127237650e-02
1.513349367961764891e-01
1.176683321761947953e-01
-3.220112810472177019e-04
-7.328445819825252228e-02
-9.006118245423795632e-02
-2.172511753284109004e-01
-2.523395327469082905e-01
-1.050741838141050627e-01
-3.173875702667674527e-03
8.233650242053450197e-02
1.077069000136056526e-01
2.391295962011058367e-03
-5.058253258885501980e-02
-5.041657978783635474e-02
-7.190216689692141561e-02
-2.653912671934781017e-02
1.022034968510240477e-01
2.075898832546100858e-01
2.350225026814208307e-01
2.551982679631538131e-01
2.403869983898877516e-01
5.646171066460011628e-02
-2.065262520119079681e-01
-3.395256474913396771e-01
-3.283237349699020813e-01
-2.213485236953989521e-01
-2.248363839786045142e-04
2.156779352435157504e-01
2.609152278625720967e-01
1.892777916643283709e-01
1.247184156073914418e-01
1.004274284215350144e-01
7.076492215899009286e-02
-2.629769986734775342e-02
-1.445225542306495248e-01
-1.969717431769145155e-01
-1.958905760284899433e-01
-1.800490607777922025e-01
-9.613307336105772483e-02
2.486452753204387162e-02
7.439378850133588923e-04
-1.027941233138227883e-01
-1.061876312669137595e-01
-4.855196815718734044e-02
9.275832160964875284e-02
2.520545828647606790e-01
2.120097550891194560e-01
1.003265527568258514e-01
9.158288499601484334e-02
3.602485655382108021e-02
-1.302621628035498247e-01
-2.160657419479631303e-01
-1.455597908191425538e-01
-6.000076111333746409e-02
1.477462464677437720e-02
7.284695265101946704e-02
5.655847482854473723e-02
7.405073305964048058e-02
6.645790791253433638e-02
-4.485243444814595443e-02
-6.721959759789590538e-02
-2.596947858965845471e-02
1.604087090679907901e-02
1.092782221610820864e-01
1.445776463053967953e-01
1.517334639370326865e-01
1.398744396956759228e-01
2.040055071637289844e-02
-5.698402937685202035e-02
-6.840142932056531011e-02
-1.606076788225788976e-01
-3.159880373530367659e-01
-3.873225703810062037e-01
-1.794629053192136059e-01
2.019978213002777689e-01
3.273586021320393225e-01
1.244783952020376838e-01
-2.353976418139155924e-02
7.007798255852767944e-02
2.175043333771297938e-01
2.408720359930315580e-01
1.322448918920481609e-01
-1.374610312326265266e-02
-1.310338087103431748e-01
-2.033638742517074327e-01
-1.763798018848947435e-01
-9.302424013097795874e-02
-2.102187199594551456e-02
-5.187777103427366684e-03
-1.032509848114932238e-01
-1.098611859240378463e-01
9.377096540905970751e-03
2.420717791793829815e-02
1.057307551122514122e-01
2.452119696911454760e-01
1.483424019689019713e-01
8.074441431077231113e-03
-2.638338953209068069e-02
-1.698765622314813428e-01
-3.959533324620608807e-01
-3.259436412535219874e-01
9.589159498920982183e-02
3.108561574712059294e-01
1.665518629172748899e-01
5.746980619553045122e-02
1.858343152197128659e-02
-1.639874436858063111e-02
-1.113029917988331459e-02
1.065376003635259625e-02
1.103372211953543014e-01
1.726255889852056635e-01
8.264712929886615378e-02
-1.194074091283453543e-02
-7.111953328437120581e-02
-7.587176698091609162e-02
-7.849142532204391592e-03
-1.717400046662235710e-02
-9.016751810268924805e-02
-1.062459418317016485e-01
-9.120169247979839633e-02
-3.887184020031272946e-02
6.242136537582128331e-02
1.148200935394512040e-01
6.959419756272701429e-02
-4.830337260164260446e-03
-4.125279123471425197e-02
-4.533649273937287449e-02
-2.403908610923572234e-02
2.899478041122933655e-02
4.725642741103631278e-02
-2.018826071064580042e-04
-2.652825796135899541e-02
-5.537222262584327176e-03
1.924801226704851015e-02
4.102032007195222096e-02
3.997105313551686107e-02
2.068278971706972308e-02
2.149488349082031083e-02
2.006546564850800879e-02
-6.910226379577249188e-03
-4.203871273637052597e-02
-6.219629052399216346e-02
-4.685023044455366437e-02
-2.236626544661596966e-02
-1.171712878128873883e-02
7.616771739779800397e-03
2.102866741075390400e-02
1.437309476515750278e-02
1.496167001777392799e-02
9.014854730224059268e-03
-1.873574451150763348e-02
-2.824501000839023390e-02
-1.025472899231437418e-02
4.732022747210615221e-03
1.401235423890351099e-02
2.316745066772163408e-02
2.439739378898002353e-02
2.084075573632128767e-02
9.970539777151397540e-03
-1.395541572240885549e-02
-2.421264190211377954e-02
-5.425474104140493546e-03
1.153955570521430704e-02
1.061723487654970058e-02
7.569291856562758783e-03
4.805400603029356087e-03
-5.394271336118084716e-03
-1.238032282574887469e-02
-7.834062544857195096e-03
-2.386600144181167337e-04
4.542773374966482293e-03
6.311423162946693498e-03
8.964622112012829783e-03
1.217902450713627058e-02
1.005944550883048315e-02
6.228642444996586834e-03
4.550702738244501340e-03
5.049569861616962953e-03
5.465381620813496155e-03
2.123351874928782520e-03
-1.589990767489827010e-03
-5.085801539336752379e-03
-7.010132860263897092e-03
-5.194030930770003260e-03
-5.289548706435305905e-03
-5.783055646442377545e-03
-4.519287691911362710e-03
-4.562438508514863288e-03
-7.306392096948012213e-03
-9.178653156578439609e-03
-2.243056538480738080e-03
1.448917130854491826e-03
-4.837463606508126887e-03
-4.725750524018745846e-03
-1.247782783836929622e-03
1.644407086382612508e-03
4.992540010987165343e-03
3.308514691660248853e-03
5.298453156361390692e-03
5.802168281751947203e-03
-1.079250163113120581e-03
-1.994259501271087101e-03
1.819949675726422259e-03
4.595341034646861951e-03
2.013706803087931315e-03
-3.928375093094790133e-03
-1.637903064718117599e-03
1.042071968514687169e-03
-2.059900069168840719e-03
-1.189597301935654675e-04
6.002332793910783448e-03
6.226117170213759516e-03
2.021184797844006661e-03
8.010257788854069046e-05
-2.526108076036617106e-03
-4.861666981089533129e-03
-5.024659102249115321e-03
-4.897991757348160724e-03
7.454213347531698629e-04
2.892775100998123267e-03
-3.938241267557096581e-03
-5.311134912766276965e-03
-1.997364535321408899e-03
2.519422201489998191e-03
6.684230016888594028e-03
3.235498840547804816e-03
3.602089865870123264e-04
2.254720729116174542e-03
1.125459026607275289e-03
-1.262993849937639598e-03
7.884671779759617116e-04
4.297967926750294321e-03
2.418142144713056937e-03
-2.370354026479777002e-03
-5.664766560556584556e-03
-6.257832669238482838e-03
-2.414444451039744581e-03
8.680600471950084603e-04
9.828580129677925038e-04
3.361395877853103889e-04
2.129496401992455961e-04
2.000425224215401140e-03
2.151319316978343808e-03
1.072785157715891273e-03
1.726054450401012146e-03
4.630004294622583772e-04
-8.453554269116727877e-04
4.334342216528269632e-04
4.155229432804088713e-05
-1.880995567475862631e-03
-2.837948725163469063e-04
3.381027474031725755e-03
2.368523483273162356e-03
-6.392167612301648000e-04
1.159788520707720461e-04
6.138586503887552255e-04
-1.753916512425766211e-03
-1.974503121663974316e-03
1.251886485015468557e-03
1.220118928455813821e-03
-2.249842632470731331e-03
-1.800563614905838520e-03
8.062599025967915039e-04
4.153379957076028467e-04
-6.394861438187304532e-04
6.456588531583847771e-04
2.132392011080930759e-03
1.600044860792158158e-03
3.842647927965561522e-04
-1.992160556877485729e-04
1.124989431277874808e-03
1.415859234601749700e-03
-6.427593712871181465e-04
-1.749695107672161664e-03
-4.014584357811690728e-03
-3.794863549315322278e-03
-2.343515913319091371e-03
-5.492640019451127363e-03
-2.672433991776168236e-03
-1.165709864920971882e-05
-5.453958258786560827e-03
-3.799519775327675226e-03
1.930255569061286453e-03
2.415671774520670567e-03
-4.935225114282438662e-04
-5.105712375896663720e-03
-6.812671558303773182e-03
-4.375433513302015229e-03
1.285635926095528639e-03
5.498441673626822471e-03
6.914116486412059601e-03
6.780382042698222290e-03
2.119824403471575348e-03
6.166765923839921497e-04
-7.471245392605124899e-04
-3.703062366764474714e-03
2.821473966023805343e-03
6.558642420562393015e-03
6.884200115754799017e-03
9.253590191843510601e-03
4.841226492255911937e-03
3.612064326212595031e-03
3.327576477262569801e-03
1.366053228079322241e-04
3.320239144210643430e-03
5.117868789560975004e-03
4.621674371238174844e-03
1.788753519138536760e-03
-5.772466818830339873e-03
-8.818619173717878387e-03
-3.941672640600734148e-03
3.648895959306203141e-03
2.717085584072980245e-03
-2.718959391753777814e-03
-3.578081990567541070e-03
-3.915263346786017860e-03
-3.076016657917405878e-03
-4.377655130112889474e-03
-3.350398552421435944e-03
-3.008543756139276434e-03
-9.405213063401708304e-03
-2.222250992088806339e-03
-2.760802122501835199e-03
-2.090318332451563885e-02
-1.311865397256410659e-02
5.265489578305133749e-03
8.354404562561798531e-03
7.180504462517387984e-03
4.005797823952548728e-03
5.521400237307399518e-03
6.891336275500000060e-03
3.946110493990300123e-03
4.667467614178502991e-03
4.531405661597630481e-03
2.604583096879569196e-03
1.519611137527726108e-03
2.333594118229261050e-03
1.892744206753616204e-03
8.155296574348478312e-04
3.780328367329287547e-03
3.331933279332687219e-04
-4.441699853919687038e-03
-1.967801829406739395e-03
1.016147880528025507e-03
6.746036534734673601e-03
6.998164579702688924e-03
1.990648753348340117e-03
-3.102818878428331402e-04
-6.524696853162925692e-03
-4.486674364995328623e-03
3.679558472166561366e-03
8.132525793493737987e-04
-1.056662983721255592e-03
-4.267713876148083031e-04
-4.902198701270633549e-03
-4.401043497385780448e-03
3.711956615659945313e-04
4.148042011496640450e-04
2.115879586085756513e-03
7.278870011767408013e-03
5.313114596171671783e-03
-8.778787486846188716e-04
-3.427808901750273047e-03
-8.819623728722240062e-04
2.419520021368611398e-03
-4.254028252325660017e-04
-1.437064664066144137e-03
-2.018237856655465188e-04
-3.781193072741757897e-03
-5.969338165134125372e-03
-5.468595690312544680e-03
3.726223000372150956e-05
-1.143260456147104573e-03
-1.715909012643107925e-02
-1.573367984607672299e-02
1.263713008324480937e-03
4.728954388859219621e-03
4.616057890441881487e-03
6.154896820533367792e-03
3.226349374931817247e-03
1.259492066435572615e-03
1.301890520737541621e-03
9.380643834479563932e-04
-1.184693276198483473e-03
-2.766584853591107403e-03
-2.715204252654344202e-03
-2.854074298670236827e-03
1.965349335066027465e-05
4.231435847679230165e-03
3.320699054321429172e-03
3.142896537865766740e-03
8.908420888439308460e-03
9.849478277840066978e-03
4.123735060746202240e-03
5.590722847518571608e-04
-1.424287783877431707e-03
-9.395601954854429201e-04
1.335721744914214514e-03
1.745998775053744616e-03
1.886328933334191233e-03
-1.583513492135579402e-03
-6.688287579994532661e-03
-5.953527201791786530e-03
-2.139896591306001631e-03
-1.702928396118555203e-04
-4.963813553040508867e-04
-5.046130890589869663e-04
-1.198623824779692574e-04
-3.343200780281847817e-05
-8.612264745711318333e-04
-4.554275116941706308e-03
-3.101270159033513076e-03
1.069914764321302147e-03
-3.262176757125844536e-03
-7.138391905043822878e-03
-9.205328882432264881e-03
-1.433931555286817143e-02
-1.240998945670864807e-02
-3.687955791601099480e-03
8.414658708624606033e-04
-9.769361703084269467e-04
3.077904145415792105e-05
6.158045462402476564e-03
7.851997352247173587e-03
6.251871664538605558e-03
5.739541521225758648e-03
7.039149561012029988e-03
9.141185034271543525e-03
3.165793927839735244e-03
-5.186005997540916665e-03
-2.602475553508197970e-03
4.675714065484029743e-03
7.637441907359495720e-03
3.814111869025984224e-03
-4.594845256151613988e-03
-8.332180342824100500e-03
-7.065890076155077054e-03
-8.038162902182264397e-03
-6.871783273868971136e-03
-1.713860025185488670e-03
-1.996907172533311878e-03
-6.446856319751085793e-03
-6.502516544173323441e-03
-9.738225972113271050e-04
2.850683262401455288e-03
-2.630103112688109016e-04
-1.760938228192423594e-03
-1.600761117715125866e-03
-6.964653442566562727e-03
-8.795270855135669738e-03
-2.732181300951997890e-03
2.436233338157020936e-03
7.956574029274865846e-04
-8.310613027689656238e-04
3.569801726748113128e-03
4.857402668836870684e-03
5.876209183961188590e-03
8.970777324586841003e-03
7.684083131978138026e-03
9.429676284010448523e-03
5.105913207841016217e-03
-3.953371923834604097e-03
9.444324024875713069e-04
3.718106783721678802e-03
1.846041238797533918e-03
7.320187670906094270e-04
-1.250122680154369670e-02
-1.596943190807314714e-02
-3.534749096162162658e-03
-1.345066169644473179e-03
-2.662680716615535743e-03
-6.952512146312186427e-05
-8.859756001976238065e-04
-3.107468641715243826e-03
-6.991272722170899234e-03
-9.205185868605738828e-03
-4.903643639989809476e-03
9.226990944950878848e-04
2.987810902903969071e-03
-1.373769085714407956e-03
-6.464247625445175907e-03
-6.682955970466977584e-03
-8.849264455720992975e-03
-1.081581102540097108e-02
-1.016760286412559181e-02
-8.027965537909329680e-03
8.701078553541687424e-03
2.576669508065652925e-02
1.920392963083676283e-02
6.166047997123621539e-03
1.709541927624791456e-04
-6.708906042081894984e-05
2.806973295540007331e-03
3.404005928643002760e-04
-1.043868983761788490e-03
1.258838542608838040e-03
2.564659324980088362e-03
5.182764745811787623e-03
4.366796851718401581e-03
-1.391197395055308070e-04
-5.101052370489586076e-03
-7.385952084023484666e-03
-3.927580239420228395e-03
-2.565492278256743548e-03
-4.044667530252328211e-03
-4.432740571413981354e-03
-4.715166088656183759e-03
-5.395676267581110339e-03
-2.505573944463059498e-03
9.123128787228694872e-03
1.484576389961309029e-02
1.099113679839554443e-02
6.220439974453496543e-03
-4.816022074938396298e-03
-7.420283690609903206e-03
-8.751935389422951100e-03
-2.410757409889963121e-02
-1.715974380697450966e-02
6.013378462807731153e-03
1.090354198075669037e-02
8.195746951320186102e-03
3.895724140402585540e-03
5.167179464503246673e-04
1.500379566448647138e-03
6.480841426055787644e-04
-1.442149367030735006e-03
-5.229671921041983106e-03
-6.871605969149221192e-03
-6.590667023638370481e-03
-5.348567786689837657e-03
3.159859385559747429e-03
8.512565540677145132e-03
6.194932444223071738e-03
3.345834355191793300e-03
-2.194461845206876691e-03
-5.662084056101806748e-03
-2.082001970062810018e-03
3.855244081321002308e-03
7.557562443220009613e-03
6.702054033748730197e-03
2.481659400462502777e-03
-2.084907452540492052e-03
-4.184579511824155877e-03
-3.586286206447405773e-03
-1.002444107842748091e-03
3.501368300107163874e-03
3.329713878763663169e-03
-2.287384228158712788e-03
-3.549180008083846396e-03
-3.498199012500077809e-03
-6.464361707105139264e-03
-3.556903272792222553e-03
3.380592839181832177e-04
-3.567136392669819668e-03
-4.301244729340521211e-03
1.312143651781382111e-03
3.096870518269551672e-03
7.403583178162836953e-04
2.293727673521084353e-04
3.198391899876035747e-03
4.252621706367040212e-03
-1.233244746245132839e-03
-6.039233581322901029e-03
-2.527132896341083897e-03
1.480696923297365091e-03
5.742904305829147878e-04
2.642934799616942750e-04
-1.687040641451109354e-03
-2.636461116532393643e-03
1.504144838928172167e-03
1.803658344079666536e-03
1.273847811709351036e-03
2.426973512426735830e-03
6.742375968578768726e-04
1.305096114763287362e-03
-4.677546281948066331e-04
-5.973188027591776889e-03
-5.132990666292946633e-03
3.305435223452628376e-04
5.036519650389619483e-03
4.584482321518507097e-03
-5.974564569472924977e-05
-2.445934346762290192e-03
5.935750286403301736e-04
6.740576114404263700e-03
7.212827689311838292e-03
2.314943703764435479e-03
-1.129697838585457187e-03
-2.991901597306507576e-03
-5.674115317634080037e-03
-4.610164729485492774e-03
4.953999370606114970e-03
5.760663666479225176e-03
2.350054016376588745e-03
7.705828170367963297e-03
-1.092286279780384402e-02
-3.131066702978933802e-02
-9.809382906672929614e-03
7.303343576600378889e-03
-2.934805063993616687e-04
-3.288227277894093491e-03
-1.731836391136420831e-03
1.257608667035759755e-04
1.571239201755938878e-03
2.922717574764139518e-03
4.923030689670960212e-03
5.285694018236200380e-03
5.225731103798933810e-03
9.149809433125334710e-04
-3.029260873781654869e-03
8.969048341327478082e-04
5.586251704392221178e-03
5.500556877098800902e-03
3.767573564914947475e-03
2.588054485593228610e-03
-3.351169441485460799e-03
-7.162800079373523796e-03
4.105928893102503202e-04
4.750986924007935715e-03
3.000350535099591959e-03
1.515722681276826566e-03
-3.961221875576507144e-03
-4.828118459886308021e-03
1.709871291096165470e-04
9.561511513273430454e-05
-1.182120815815535398e-03
-7.294360203306853507e-05
-4.830948267665090344e-04
-1.272241236808630991e-03
-1.193547013270432160e-03
-2.319799965843129426e-03
-1.280692986368090662e-03
3.972778750880975179e-03
5.567471276780404203e-03
1.004256378794342493e-03
-2.411762458960640780e-03
-1.479862693305810089e-03
1.170827576634560999e-03
3.186917646769011226e-03
-1.653065630024136705e-04
-7.837920889558817189e-03
-7.270217809109771195e-03
-1.134151329734961683e-03
7.193019590633150826e-04
3.651509575341644817e-03
5.190868347496520666e-03
1.338462485496958072e-03
-1.963817462165318682e-03
-2.125826798924482924e-03
5.289945915329670022e-04
-1.190054729705868281e-03
-5.662816070728513528e-03
-2.578378623966033015e-03
1.415919136826564043e-03
1.210422877487000439e-03
3.713433690629364603e-04
-1.396840317545815485e-03
-1.375868886349252817e-03
1.825793132871416377e-03
4.289012138971921677e-03
2.151705677488459714e-03
-1.620624080598112582e-03
-9.332339515751862701e-04
2.468418082085952620e-03
4.193902920974476589e-03
3.454033494711518295e-03
1.446336415246213822e-03
4.433782537090031565e-04
5.628343850007426702e-04
-1.090661785102706817e-04
2.732396977231069286e-04
2.778276584825759531e-03
1.947448066859356003e-03
-5.280548419942875755e-04
-1.032099346856324342e-03
-2.708827340785864828e-03
-1.311310548795550012e-03
2.983432382138243846e-04
-2.700701001685595470e-03
-5.350312946315151971e-04
1.878618480835401094e-03
-1.060329002149626009e-03
-2.045203780062035577e-03
-3.523521474865169267e-03
-3.337845228892672919e-03
-7.095916595731164775e-04
-1.204835274584595750e-03
-3.104959101099629662e-04
4.373547341974627959e-04
-2.770670407641680211e-03
-3.097732494335381833e-03
3.530993070747192458e-03
7.654275405482030212e-03
2.371153919146538371e-03
-4.835650072547756470e-04
6.493813159435715254e-04
-9.721750530013740501e-04
-1.197469185346482353e-03
-1.715043102559178460e-03
2.392917160467675436e-04
2.660451578689221851e-03
-1.621480627803931250e-03
-2.363311008316404307e-03
-2.469326366818232026e-03
-5.123083545163584912e-03
-9.882989424564348098e-04
3.505318354815494149e-03
5.675900621397163975e-03
4.839173204070562097e-03
3.131988833021070139e-04
4.338781862748884808e-04
4.965050797431566458e-03
9.304774971471214268e-03
5.680000796312443222e-03
-1.965651664120898149e-03
-3.572724072440725072e-03
-2.746446499812875159e-03
2.448679864692162970e-03
-6.657683796805786026e-04
-1.102572103670435705e-02
-3.170078003232457923e-03
2.251343671939369431e-03
-2.318801120018555532e-03
1.924170396002214097e-03
2.586150913322241354e-03
2.164357817724723437e-03
3.457445690708060588e-03
4.034700944715183257e-03
3.452183382829823993e-03
-1.607537819097584406e-02
-2.565218323408577361e-02
-5.550928502889494048e-03
5.056954183672447700e-03
5.103661421815772203e-03
5.848978371901698142e-03
1.212742125959286998e-03
2.778835563951197922e-04
2.009998219194341750e-03
1.687963421306911890e-03
1.586698532095289372e-03
2.611421172737148858e-03
1.941707540902496603e-03
-2.870125457396848108e-03
-1.215393215853264675e-03
5.148627689879471496e-03
4.917425472449877405e-03
3.150950562466375143e-03
1.353453191589379465e-03
-1.994962799607015880e-03
-3.150849208307770610e-03
-2.877120965744972645e-03
-9.217387228110698579e-04
4.518481048935672761e-03
6.810702398667447220e-03
-1.309854851781642451e-03
-9.006799036881047923e-03
-5.074814194208394566e-03
4.201266774856970412e-04
-1.392525574760778069e-04
-9.409297933872694188e-05
1.868631190452319435e-03
1.032853120264498907e-03
1.791976947563771183e-03
4.267779763696467367e-03
2.745810782173583285e-03
4.408823215265308265e-03
6.280891114625736238e-03
-2.112572912094238034e-04
-6.761781053044182456e-03
-7.606353430143091877e-03
-1.180857421358953805e-03
4.612902658897858471e-03
4.517635512082833482e-03
4.823749262332512056e-03
-1.359502670016594136e-03
-5.417515180498035272e-03
-1.844735666163159482e-03
-2.932325488939283541e-03
1.308372345766590627e-03
-4.267474402509349903e-03
-2.243666391874558214e-02
-1.451525529349716181e-02
1.478955704133237724e-03
2.971093765692222038e-03
4.806853958747211650e-03
5.087601855368325404e-03
4.165321064376540164e-03
1.911409858667175105e-03
-2.531131155761264830e-04
1.670121297565492317e-03
2.349410021229841200e-04
2.389616773530290391e-03
6.640725910071571154e-03
3.836769249268700156e-03
2.730925000299767522e-03
2.231538087168013617e-03
2.405156902869535574e-04
1.076583061874720505e-03
2.947994644425383070e-03
4.412689619754306923e-03
2.009789970446618137e-03
-2.160414392351677881e-03
-2.565408975852696317e-03
-1.452135688511768013e-03
-2.097316980099921905e-03
-2.812128565344896875e-03
-2.548441265660828111e-04
1.894672078286447660e-03
3.044605609532363309e-04
-3.244162646365189757e-03
-4.928590888368881984e-03
-3.443857901128715630e-05
3.548680715536750314e-03
9.243962438405634811e-04
1.320104573711725700e-04
-1.343586264154251770e-04
-1.953004871120918827e-03
-2.423249811560079271e-03
-1.833182437357312516e-03
1.209394735349846907e-03
3.273549304479221513e-03
-2.261488162810142404e-03
-7.331535381431405693e-03
-2.798475990321967581e-03
7.973951566446143852e-04
8.497318465066183279e-04
3.693865894821291018e-03
1.916779227111138455e-03
-6.252530224440685071e-04
-2.017622156905491044e-04
-1.663209362144169165e-03
1.482081629765165257e-03
8.380699518738449249e-04
-4.828548037214558039e-03
-8.114555517479850712e-04
3.370584556386663124e-03
2.755460447983553406e-03
1.744906561767337570e-03
2.609726639031972775e-04
1.585089977751422390e-03
2.235048229002197743e-04
-9.675779696416736582e-04
7.239333454495064119e-04
-2.076543637635434609e-03
-2.646197021793113193e-03
2.350973606835424917e-03
7.370479783817520530e-03
6.365980956688534198e-03
-1.148759979299507518e-04
-2.097814347717965027e-03
-4.743247320433924101e-03
-6.271838479459105296e-03
8.588136397347078809e-05
1.244153310815675944e-03
-5.197757316253005886e-04
-2.301083960004150167e-03
-6.094210692132823355e-03
-1.285900532291521167e-03
1.318895557194719233e-03
-7.293003866004305969e-04
5.443587633110653912e-03
6.645655164912238691e-03
2.888619672242859725e-04
-1.682807876952822999e-03
-9.034439329773011861e-04
-5.423261910012008424e-04
-1.568786486045352585e-03
-2.183363829444628663e-03
-9.148050288101687490e-04
1.095552593176055654e-03
3.428468621256696314e-04
-2.598929121846467200e-03
2.850844444782009348e-03
9.483823412047709053e-03
4.803736319636608271e-03
-1.130365586037725871e-03
-2.793244121205768361e-03
-2.333552834253435453e-03
-2.792394357661900223e-03
-5.281661800479675595e-03
-2.506908039439142023e-03
4.911391952290920359e-04
-1.825025291870140121e-03
-3.790454801155538136e-03
-3.226294913856726614e-03
3.281394151161908055e-03
9.780220338976129343e-03
6.309191847684018917e-03
-1.007880900672230868e-03
-2.988547085059101507e-03
3.317247529908285276e-04
6.898221318751390470e-04
-1.427478989099227472e-03
1.269163086493060128e-03
2.494674183165973818e-03
-1.935172310991117601e-03
-5.725887630451243111e-03
-4.055327484736674475e-03
5.011300226058638171e-04
1.587741485760823211e-03
1.842779022841869356e-03
1.703402721579959323e-03
-2.288893231975159745e-03
-4.445316761672510157e-03
-2.083617723007477520e-03
2.160357191190660428e-03
5.288384798167158375e-03
3.976529260938525476e-03
8.228732699029645686e-04
4.407761703455434802e-04
2.235197822486368637e-04
-2.691780939839403847e-04
3.962933182589727273e-03
4.714020013180234003e-03
-8.673072759886268045e-04
-3.028693402943801426e-03
-3.515520135863174720e-03
1.317016153562480286e-03
5.122286701599015196e-03
-1.892862040751720504e-03
-1.626824327323443328e-03
1.665639962175728206e-03
-1.527194888284081438e-03
-2.749948913891261601e-03
-6.451471268741911826e-03
-4.068826233119791913e-03
1.107555104380981807e-03
-2.725025126217112126e-03
-4.325764753253603760e-03
-7.603523728777364030e-03
-7.543820477532310262e-03
1.623989073440257509e-03
4.667129690094264614e-03
4.917617642786562687e-03
3.326113586317676167e-03
1.146019375431851046e-03
2.142367112305546429e-03
1.402224702253408836e-04
2.363547458089222068e-03
3.722505656929769348e-03
1.284652948272140341e-03
2.790049373781751385e-03
-1.578179248742275559e-03
-3.580670766447632998e-03
3.031721605749638192e-03
5.366173343302450827e-03
3.537234771441474281e-03
9.787315268686854440e-04
2.259209187562025243e-03
3.640503005499879860e-03
2.081759578878484510e-03
2.380947905276085443e-03
2.543588757326201155e-03
9.456563479826955373e-03
5.085326136485872339e-03
-2.222556904890096371e-02
-2.632406678894055191e-02
-6.038764952750752708e-03
1.806511973013011320e-03
2.063146234482806513e-03
-2.336359277818242895e-05
-3.124979289314814244e-03
-1.098198703852182366e-03
1.513208894356266607e-03
1.787467539495270555e-03
6.630208539041971931e-04
2.570011833058920975e-03
3.311163430503561832e-03
-9.167164688610367294e-04
-7.223925377254469652e-05
2.628465633760671081e-04
-3.085841201050061339e-03
2.437356128570857417e-03
9.092944883467441938e-03
7.326508566097212315e-03
2.496785247359734755e-03
-2.609694307326616489e-03
-4.044162999373570461e-03
-1.541356691756642222e-03
8.554211410192654732e-04
2.660789071870887489e-03
-2.369132908148750296e-04
-4.838741397859192342e-03
-3.146203428792166464e-03
-2.885711604438684764e-04
1.139254732151368530e-03
7.985131800140727026e-04
-3.741815050354828712e-03
-2.024445249110299379e-03
2.659263050521113586e-03
-2.787551773846780583e-03
-5.459674103795147254e-03
3.716995394873052723e-04
2.463201140350760460e-03
2.249408262627178735e-03
1.797750790704428451e-03
-1.624030155226271338e-03
-2.514696120807949874e-03
3.318037220010584213e-04
1.671674977373561587e-03
2.879845423688160745e-03
3.782955746724075106e-03
1.184354530655003538e-03
-3.966527059662017804e-05
-1.119592769285827081e-03
-1.839756998655053301e-03
5.477827605591286536e-03
6.208275881457858171e-03
-2.640174182500483815e-03
-3.051635587280686346e-03
-4.016184290639901802e-03
-5.670765913668374819e-03
1.414108534215383160e-03
2.706777831796459890e-03
2.927084860809519955e-04
6.491709872916214159e-04
-2.543305659157266575e-03
-3.524609144933207525e-03
-1.893396759685767516e-03
-6.081096356703910143e-04
1.842815383931653865e-03
2.201098506072693157e-03
5.191458896492272702e-04
-3.641474655840420179e-03
-5.159133419151610764e-03
9.461018445124634059e-04
4.082630908469517782e-03
3.242409647982463176e-03
2.022239491544782202e-03
-4.491379605366976370e-03
-7.159131023913026942e-03
-1.775340768844094978e-03
6.237130833670655530e-04
2.380785587183743748e-03
3.754258139159820287e-03
4.911440832756897284e-04
2.022400034150345464e-03
3.646256011174299830e-03
-1.544872629497585220e-03
2.381283960828937588e-05
7.045857645482735826e-03
8.045194491165499201e-03
2.152295197115852536e-03
-4.821915398230434274e-03
-4.004929135931721562e-03
-1.059490596965365983e-03
-1.805824851240391687e-03
-3.171669808643944564e-03
-6.048745943642688631e-03
-3.566216839481415896e-03
1.161236088662367548e-03
-4.657884249165716211e-04
-4.422123832453399642e-04
8.000511276774089839e-04
1.418438850755131871e-03
3.145295063559694175e-03
1.172540396469766216e-03
5.564319111318498986e-04
3.701274254294740704e-03
6.292699578788539354e-03
9.276798161411451207e-03
9.632849375609200612e-03
4.639148643539801366e-03
-1.747304047498184727e-03
-4.266687493838967893e-03
-1.677550524534565180e-03
1.240566100735632747e-03
-2.640161549035282326e-03
-1.138082460046555174e-02
-1.439136219367517441e-02
-1.474692981196123326e-02
-1.600732277665763842e-02
-9.826790299334061188e-03
-3.127038382541184013e-03
-3.303347956140796193e-03
-2.650776384207450230e-03
6.022655511614629807e-04
4.947891159450697705e-03
9.701303016751504360e-03
1.203139889955031142e-02
1.272310861038773028e-02
1.206503511722149639e-02
7.272665483816966731e-03
2.026850701786049591e-03
1.620347879943081788e-04
-3.698775322603604053e-03
-3.990469785138539213e-03
