-3.124197730362164407e+02
-9.804048809440772629e+02
-4.513152082428860012e+02
-3.400097308958580925e+03
-2.423802180138632593e+03
-4.084618938736023779e+02
-2.882950203411116945e+03
-3.422255456701716867e+03
-9.382672399732920212e+02
3.570657835690659567e+02
8.648116109453612808e+02
1.487023410272191313e+03
1.791845127411013891e+03
2.381330548204502520e+03
3.020491411333117867e+03
2.920416822973506896e+03
3.332227176299513303e+03
3.271956840324933182e+03
2.746732662778702434e+03
2.525618291987967041e+03
2.210614385019019210e+03
1.716616337276661397e+03
1.508695213753648204e+03
1.065923272954965341e+03
6.613091501910216721e+02
3.628862548202664016e+02
1.666284555416592639e+02
4.626962956454539722e+02
7.912648000685682064e+02
1.104416817492280870e+03
1.711329431316356477e+03
2.218019393546690026e+03
2.772574891146887239e+03
3.427068255139238317e+03
4.037525990882570113e+03
4.093969611459123371e+03
4.135405058256082157e+03
3.846865719059176627e+03
3.638374611149100474e+03
3.154952734755714573e+03
2.271519576704681185e+03
2.429112705399762035e+03
1.390648246461921644e+03
6.353341787902645592e+02
2.567317499088771342e+02
5.913740397994968134e+01
-8.035952961599640787e+01
-2.318899781096461936e+02
-4.633769218468508910e+01
8.222558670561186318e+02
1.312735580648713722e+03
1.363155184136691332e+03
2.105476466495052591e+03
2.770037555946911652e+03
3.010454594449593969e+03
3.106921017958934499e+03
2.619550956498742380e+03
1.946214101253245190e+03
1.572635488494193396e+03
1.724344842738801617e+03
1.328939296709287191e+03
6.692859966224528989e+02
-1.116983382995722422e+02
-4.669137242966094163e+02
-5.775255110506451501e+02
-5.816236573846302917e+02
-5.681499293951314939e+02
-5.512433199083271802e+02
-2.379103860627497227e+02
2.459043620203188141e+02
6.561501355786149361e+02
8.378013726287903182e+02
1.184941530781763277e+03
1.743534183103567102e+03
2.241504124708963445e+03
2.283779302592823115e+03
2.064431573160847620e+03
1.878424507805094891e+03
1.389736465638387926e+03
1.096292924183494051e+03
7.960449885794090505e+02
1.108902624114178792e+02
-5.202309768954866058e+02
-9.693197559496996973e+02
-1.567431456397787770e+03
-1.631718782537034031e+03
-1.436206458461420652e+03
-1.293945242204457827e+03
-1.090915694923588035e+03
-7.051087247156903004e+02
-2.406017346744444581e+02
1.176022425026992551e+02
8.744860741333075111e+02
1.285039311541833740e+03
1.173270147817107500e+03
-4.209294574845879424e+02
-3.530594101086504907e+03
-6.422697192311965409e+03
-6.038268232457077829e+03
-6.219403284664203056e+03
-6.672161471600802543e+03
-3.000621039763092540e+03
1.211738104558375539e+02
-4.008609969591787490e+02
-8.248504915992233464e+02
-1.232567838032725831e+03
-1.569064173259305107e+03
-4.684513359547981054e+03
-8.203942259189872857e+03
-6.462338401112036991e+03
-1.290763681415061001e+03
6.098170181557504748e+02
1.495392743532525174e+03
1.765946152475250301e+03
2.124510273656276695e+03
2.156064761606740831e+03
1.758543382515906842e+03
1.374921278480118872e+03
1.313151426344420997e+03
8.712276132324716400e+02
3.781002585086943100e+02
-2.172086402146549915e+02
-8.917581886216134990e+02
-1.531583549195520391e+03
-1.824685716578538404e+03
-1.847128426819210517e+03
-1.963941964990963015e+03
-1.460152525875675792e+03
-8.997448396905023174e+02
-5.827289921689020957e+02
-1.300569052927688460e+02
4.433196416994146603e+02
7.553587365500170563e+02
9.900872433173440186e+02
1.377543835646363050e+03
1.369744551935651771e+03
1.403669382892442854e+03
1.211314035624475082e+03
8.267118182036405187e+02
8.818938232741343199e+02
5.398104581540854952e+02
-2.455304608368380741e+02
-8.741542465676410529e+02
-1.796058206037334912e+03
-2.054296384334311369e+03
-2.134850908099340359e+03
-2.458733487372889613e+03
-2.561952676991292265e+03
-2.262438394395215710e+03
-1.531176620478764562e+03
-8.161568870940089937e+02
-2.403182640426852856e+02
3.033831813020952950e+02
8.449820410289803476e+02
1.151543495711428932e+03
1.417040339175598547e+03
1.479491145281705712e+03
1.421993940058182943e+03
1.541644612209095840e+03
1.581407565381454333e+03
1.149229259297171438e+03
2.531696252483686749e+02
-1.213529888390554561e+03
-1.491137774106986626e+03
-7.106944898530392720e+02
-6.771904712615439621e+02
-7.765660699077013760e+02
-1.371809311449594361e+03
-1.008911231688829048e+03
-6.717416884288662686e+02
-3.062494174146942782e+02
5.464844917643489453e+02
1.103543516090044250e+03
1.834953979330994116e+03
2.257722610369745780e+03
2.373859632879106812e+03
2.733399390899591253e+03
3.036398820213640647e+03
2.572894171406414443e+03
1.964934871366756397e+03
1.515509452139804125e+03
7.625965747351641539e+02
2.821934811792282858e+02
-2.517009472542873425e+02
-9.171167947799999638e+02
-1.006076353367247521e+03
-9.885567975541538317e+02
-1.133522707203715754e+03
-1.078988332419931794e+03
-3.768752709302623884e+02
3.568266936902084581e+02
6.451491968360077180e+02
1.155096795437834999e+03
1.439687037006136279e+03
1.611967584664852211e+03
2.026980767989510696e+03
2.389724865923511516e+03
2.190186414969869020e+03
1.625385344561623242e+03
1.309298764290264216e+03
8.249156189785965125e+02
3.612227610189393658e+02
-4.557913560962924180e+02
-1.173180096738146631e+03
-1.233942996015215840e+03
-1.479096009598349383e+03
-1.510661479028152371e+03
-1.644618017279459764e+03
-1.424991730213269193e+03
-7.587485975236709237e+02
-3.959445138546557246e+02
-2.015278702726248241e+02
2.764971495217997699e+02
8.891248860740100781e+02
1.302402351021360801e+03
1.156190403371842649e+03
1.566474660179835610e+03
1.583336814167432522e+03
7.978154041903371763e+02
1.208864694261090790e+03
1.220310823605646647e+03
5.991194560601600188e+02
-3.397143830495923567e+02
-1.293301582418537464e+03
-1.865713996129382849e+03
-2.278789929402541020e+03
-2.257528209963618337e+03
-1.946923540305599090e+03
-1.503127623155243782e+03
-5.928878207025159099e+02
-4.385324931316081916e+02
-6.391775931778615814e+02
4.841831155932241018e+02
1.472762304036327123e+03
1.781623685162524907e+03
2.484663993102992208e+03
2.835565919975710585e+03
2.802502409211800568e+03
2.550095381311595702e+03
2.361798113359814579e+03
1.832184260963198540e+03
1.188635484296612049e+03
5.524315758522322994e+02
-6.395569140332471392e+01
-5.472227669267304009e+02
-1.150959670785373419e+03
-1.299376039841100692e+03
-1.170126209399013305e+03
-9.936994584932622274e+02
-4.219295234951096631e+02
-1.798718871524873180e+02
-3.438010721839871309e+01
4.583178751206735342e+02
1.077751597032322707e+03
1.592310434884629785e+03
2.164989497745678364e+03
2.949926780391456759e+03
2.595484878951381233e+03
2.629159771345473473e+03
2.638669156863109492e+03
2.685219840662810839e+03
2.200381224017729437e+03
2.154512260151208011e+03
1.230783283912741354e+03
6.339762052539506385e+02
3.548205572840210493e+02
3.792846692977702787e+02
4.404911717799936923e+02
6.292102253893185662e+02
6.534276127862460726e+02
8.003467643348224101e+02
1.121929870546337497e+03
1.942171968523676696e+03
2.258805504625393041e+03
2.591885208693169261e+03
2.713701262058719749e+03
2.981497490319620283e+03
3.018984016230244379e+03
2.983883281602959869e+03
2.560067214728596355e+03
2.102319299376916206e+03
1.974684083086842747e+03
1.087428197338116661e+03
-1.255444990703251051e+03
-4.159753504870163852e+03
-7.908396450991375787e+03
-8.152560228961756366e+03
-8.074559510804681850e+03
-7.816620550361672031e+03
-7.075593399434161256e+03
-6.455254376291064546e+03
-5.641542221370335938e+03
-5.294601866679584418e+03
-4.577373086171298382e+03
-4.013690199339271658e+03
-3.439878272974122410e+03
-2.858918810985438085e+03
-1.919383344051050017e+03
-2.666304352987250695e+03
-3.076115628730668163e+02
-1.759395985227745541e+03
-4.800731366003421499e+03
-5.225942507561691855e+03
-6.439037590516514683e+03
-6.336753140922934108e+03
-6.411106289913104774e+03
-2.762248206942702382e+03
1.031716638173379806e+03
1.388184623395979770e+03
-1.507886723033286955e+02
-4.933411844757339168e+03
-5.188800694962743364e+03
-4.801042560843583487e+03
-4.158991965194591103e+03
-2.758216883257848622e+03
2.146612957806444228e+03
2.223721111006827869e+03
2.165882356691259247e+03
2.653738651813162960e+03
3.493411497424483969e+03
3.678002758537571026e+03
2.711497858906024703e+03
2.486840938908457247e+03
1.800324758255959978e+03
1.227909936574083304e+03
1.145474653520037009e+03
8.978760795179464367e+02
7.201710852328784540e+02
1.139769943911133396e+03
1.572040500439246443e+03
1.572974544029957087e+03
1.996310906651921186e+03
2.169201848029019857e+03
2.665975826572677306e+03
3.141562116024859733e+03
3.288787367628003267e+03
3.557609416973979478e+03
3.612232130253968080e+03
3.276805755319645414e+03
2.943133195531316233e+03
2.815434398520507784e+03
2.281863643454261364e+03
1.428484804632911846e+03
2.555025477161486549e+02
-3.152219212578581278e+02
-2.325014494599793835e+01
-3.285004838453981506e+02
-2.087838184824817347e+02
-8.300049654470558380e+01
8.109695765380851640e+01
8.597492085799624419e+02
1.168897944460537019e+03
1.431449106555671051e+03
2.088619536404238715e+03
2.694731446342808795e+03
3.036502574794566954e+03
3.193072428639510690e+03
2.992442853877228572e+03
2.428450415024002723e+03
1.412375366153745972e+03
-1.499916353309701208e+03
-8.524144431665858974e+02
5.318369614555481917e+01
-6.839919877981759555e+02
-1.209556242335211437e+03
-1.238605435331799981e+03
-1.734337769743587842e+03
-1.701875395787670186e+03
-1.582145817417989065e+03
-1.331872885033178818e+03
-6.721972884926899496e+02
-1.820769915239488057e+02
2.505702121878134676e+02
8.237146910854609132e+02
1.062858912117096907e+03
1.303130916004305163e+03
1.482270172766608084e+03
1.690218767402628600e+03
1.326124131161098148e+03
6.428530742703849228e+02
4.145046827207990532e+02
9.624373532185617819e+01
-5.760821369216538415e+02
-1.708496975116044268e+03
-2.293963049476566539e+03
-2.759549482210808492e+03
-3.063222866201248053e+03
-3.078929658404383190e+03
-3.017775205649204509e+03
-2.535690496966536102e+03
-2.048655195129592812e+03
-1.450944767219251617e+03
-9.605178170696641473e+02
-5.972085797942369254e+02
-1.479446139162476754e+02
3.983791571546915975e+02
7.409300981301252023e+02
9.666536988364064200e+02
8.862904362698491241e+02
4.906702016947327252e+02
6.482179023886472180e+01
-1.682373359792442216e+02
-6.112424173599878259e+02
-1.609099461754353570e+03
-2.159067323099568966e+03
-2.490126151880906036e+03
-2.786182958180803780e+03
-2.991648263581083484e+03
-2.784806747986178380e+03
-2.345478314715109263e+03
-1.864582816391626920e+03
-1.427112465187846055e+03
-1.093075723742131231e+03
-5.165816084412792861e+02
-2.815992589300371378e+02
-1.680159077896287044e+03
-4.352338386401071148e+03
-3.669175284611022107e+03
8.472876965021104070e+02
1.145128648630551652e+03
9.312428165553931194e+02
2.234315939394410009e+02
-5.122764403874674599e+02
-1.032956465620365179e+03
-2.152789519733357793e+03
-2.549763082468307857e+03
-1.965955493558901253e+03
-1.788631240368908493e+03
-1.330566011432869573e+03
-7.185273591327622853e+02
-1.585403141644753688e+01
4.133643241565778794e+02
8.901844979449118682e+02
1.405406648206210548e+03
1.883892789906340795e+03
2.241719174952126195e+03
2.658887002937205580e+03
2.811371992160032278e+03
2.840045931682556329e+03
2.715724574189076975e+03
2.292337652616681225e+03
1.880866440405530057e+03
1.333206626698383843e+03
7.322168244804179267e+02
-1.615252010492891088e+01
-3.239993638450197864e+02
-3.436269291541577786e+02
4.786401373174815888e+01
4.563633163406272502e+02
4.959266259720938592e+02
1.028657524821541074e+03
1.710419975628758039e+03
2.374023556329767416e+03
2.849451358135741430e+03
3.399706118226761191e+03
3.508800607274261438e+03
3.770683051597832673e+03
3.916195451360248626e+03
3.479290161408635868e+03
2.990036079688611153e+03
2.601200034086640244e+03
2.363617673582026327e+03
2.038430196939292273e+03
1.532645165325401877e+03
8.011462592443477888e+02
6.006697021826247465e+02
2.603393649881403960e+01
1.892630686369110435e+02
4.102786873278818689e+02
7.340165621607512776e+02
2.087416897612232333e+03
2.021448647141171250e+03
1.663126814241323245e+03
2.279365437894398383e+03
3.574175200867677177e+03
4.013571019564874405e+03
3.771427369419624938e+03
3.184674063309941175e+03
2.796252702973828946e+03
1.095160354795629701e+03
-1.495566665773845443e+03
-1.949953612573112423e+03
-2.095019713631902050e+03
-1.360810861415765885e+03
-1.591365271817351413e+03
1.784149785467038100e+03
1.957587497297958180e+03
1.035063317519205611e+03
-5.514658832730293625e+02
-3.585083997038090729e+03
-5.747948042577548904e+02
1.681474280293342645e+03
4.018656063755978494e+02
2.239425933421027366e+03
4.271058869203503718e+02
-1.530901675466751328e+02
-6.972337402492491947e+02
1.203748820825655002e+03
-1.992104142170682962e+03
-2.632780288377767192e+03
5.436255077453459990e+02
-1.068597576999674743e+02
-5.160196583602282772e+02
2.293019900613236587e+03
-9.917899335403676560e+02
-4.390425809133706935e+03
-3.265775036847336651e+03
-4.278755674748897036e+03
-5.882377392767614765e+03
-3.242660810726471937e+03
-4.573412097403819644e+03
-3.151633623840169548e+03
-1.660399313011825598e+03
3.015337035543816910e+03
3.921816775585397863e+03
2.902069598687260623e+03
8.690791146258950448e+02
-3.348067090306032696e+03
-1.318249563980026551e+03
-8.433506674634164710e+02
-1.133103241240419266e+03
-1.196397960405086451e+03
-2.028243417013659382e+03
-1.443879394305038204e+03
-3.319223683768331739e+03
-5.769103932569465542e+03
-5.087486665268691468e+03
-4.133364041237250603e+03
-3.363558290069501254e+03
-5.333911485579817054e+03
-7.262325340663565839e+03
-5.808673319661527785e+03
2.331691313451991903e+02
3.950245137644657461e+03
4.690581267161722280e+03
4.306336852446148441e+03
5.256048926743225138e+02
-3.578507476898780169e+03
-4.759780785162052780e+03
-6.034037294941936125e+03
-4.267188693324490487e+03
-1.920340632059461541e+02
2.589639791567472912e+03
2.175561357391756701e+03
-1.554319164167921599e+03
-3.924904444609020629e+03
-3.391770907121051550e+03
-1.660765741195432838e+03
-2.119873550336202698e+03
-1.885917890095315897e+03
3.801831434038957127e+02
-1.553375589777517689e+03
-4.346648920287660985e+03
-2.466553942122646731e+03
4.310552284220548813e+02
3.580501297749240166e+03
6.241407978267425278e+03
8.735226000193473737e+03
7.143282129443185113e+03
4.775688189344580678e+03
5.310428985920942978e+03
5.901203029816948401e+03
5.109261062261086408e+03
1.990358570928037125e+03
3.017565621854135316e+03
5.726427340365663440e+03
5.907778192098375257e+03
3.663858178360151214e+03
-1.132886412615227528e+03
-6.488068399323904487e+03
-8.039379938538043461e+03
-5.584809812623222570e+03
9.055956413355785344e+02
4.799043279549474391e+03
3.550352135918104068e+03
2.789698216903780121e+03
3.033035855977021129e+03
2.739548572384546787e+03
1.008307663770656859e+03
2.460311022008318105e+03
3.120611983158221847e+03
1.897225241031908354e+03
-2.198742676124434183e+03
-7.399257552372151622e+03
-9.080349712147084574e+03
-6.379137977867840164e+03
-3.418616584392163986e+03
-4.153769845459344651e+03
-4.129560983950997070e+03
-3.928384403086648149e+02
2.595379771143888775e+03
2.674043380212008287e+03
1.457260047621821059e+03
1.983088409262054029e+03
3.493521186932353885e+03
1.602579761516441977e+03
1.631290310742770316e+03
2.815614230129663611e+03
5.025590146960784296e+03
1.048725500861554065e+04
1.480862679288067375e+04
1.153164514571779182e+04
8.029281752288421558e+03
5.713504644822537557e+03
3.377289339070923234e+03
3.813643539637228059e+03
6.916514669732299808e+03
8.751876384371917084e+03
7.008684727532421675e+03
4.715861174292005671e+03
5.081374847780662094e+03
4.038168067617283214e+03
3.398243924762510687e+03
1.457573068847888862e+03
1.018169034829349357e+03
4.258048861638242670e+03
1.955315912115301217e+03
-1.671972672580759763e+03
-2.782284049598838919e+03
-3.085622845978155055e+03
-2.228904273976688728e+03
-4.705196196430983036e+03
-5.745569568499021443e+03
-4.571106305375190459e+03
-5.330989572276571380e+03
-3.650284621765717930e+03
-4.733084887484523279e+03
-5.972507265783875482e+03
-7.327612328669859380e+03
-1.071640828371508542e+04
-8.415933840921157753e+03
-3.793317785467936574e+03
-2.660598352457670899e+03
-2.723816209179614361e+03
-1.353106682887648958e+03
-2.234460842539157511e+03
-2.457949219166131115e+03
-3.986577167035350726e+02
-1.267783468637511213e+01
-2.680841925833692585e+02
4.881112657895124016e+02
4.628455856141449658e+02
5.889910579559227699e+02
1.659381214162784318e+03
1.659861092679435387e+03
2.414348014865495315e+03
3.623751960233473255e+03
1.349931560109476095e+03
-1.429179395738754010e+03
-2.565681319896166315e+03
-3.259664520447362975e+03
-2.889201466928455829e+03
5.996230221855959144e+02
3.967785337966862244e+03
4.016250744627493077e+03
1.743938203083521785e+03
-1.128258192156686164e+03
-3.777384045139576756e+03
-2.884538409674749801e+03
-3.578096172031067681e+02
-3.482256966428653868e+02
8.501048865354091504e+02
4.885071111638394541e+03
4.753571119487070973e+03
9.075523866265142487e+02
-8.000562600285173858e+02
-1.161368042518740822e+03
-1.123539376477790483e+03
-5.985998994701378706e+02
-1.124608939396680171e+03
-8.776198714201383382e+02
-1.507708366296016607e+02
2.559766373719122896e+02
3.196791821937995906e+02
-2.345825863431965388e+02
-5.885998872868052700e+01
5.166974031825309339e+02
4.438983581237447424e+02
8.797272690747273600e+02
1.038120736835115849e+03
-1.228042295719354343e+03
-2.032748227963262707e+03
-3.259845734068810998e+03
-7.732506532849794894e+03
-8.599915663603920621e+03
-5.509159204410805614e+03
-5.167283256650510339e+03
-5.279368788156982191e+03
-3.890462054783538406e+03
-3.701621164495760240e+03
-4.465803905459563794e+03
-4.234003129201868433e+03
-3.220295228340126414e+03
-1.187714111036245640e+03
1.087661407078029328e+02
2.981929624500564273e+02
4.055302137783629064e+02
1.064727956774984023e+03
2.074822386095265301e+03
2.568801701879288430e+03
3.440678657616689634e+03
4.520425496713146458e+03
3.478993358401085970e+03
2.051343116598538018e+03
-6.535720887109788464e+02
-1.858808363641706137e+03
-9.293332053568356059e+02
-6.911693551314222077e+02
-1.739367276707985411e+03
-2.221926438968491766e+03
-2.371766676410001764e+03
-1.861918413690066700e+03
-7.603295753759242643e+02
-9.309751684718540901e+02
-9.388227462287977687e+02
5.041739134898135148e+02
-1.549638197697686337e+02
-1.794220727142158466e+03
-1.104608772910178459e+03
1.094885519102008175e+03
3.079304367244581499e+03
3.155728612247154615e+03
2.168104120350221365e+03
1.964441385914221200e+03
1.316676295496357170e+03
8.058045566750706712e+02
3.968378069934309451e+02
1.166864163040888656e+02
1.234764175683261413e+02
2.642431545099099139e+02
9.120306713865912798e+02
1.604780875940414717e+03
2.616534259899614426e+03
3.120379855316435169e+03
2.680446805635428063e+03
2.016745177442906879e+03
1.909459260451174941e+03
2.098705951240172453e+03
2.561322516982460002e+03
3.363317422520255604e+03
4.634604857442487628e+03
4.457253113364663477e+03
3.122974812812435630e+03
2.659973604686739236e+03
1.227369486089261954e+03
-4.373914247481111772e+01
-1.476291390517113314e+03
-2.800862071014836602e+03
-1.808873628043064400e+03
-1.043467300002018447e+02
9.236410417908070940e+02
1.931117832824307015e+03
2.056512770052896030e+03
2.635558982959974401e+03
3.441100062445488675e+03
4.250858634236042235e+03
3.461464431112466627e+03
2.502508189651229713e+03
3.798330586689067331e+03
3.644818123978693620e+03
2.608157890998200855e+03
1.223691352001859059e+03
1.125296754236559309e+03
1.376650159342441157e+03
8.877361614012263544e+02
-2.250997708830837780e+02
7.949077601947149105e+02
1.387630388959798893e+03
5.033603314988306465e+02
-3.578152896575167574e+02
-4.451419284699701251e+01
2.755183956920000696e+02
-5.326926275176167564e+02
-1.239755633444639898e+03
-2.112295386344579128e+03
-2.160927525925053942e+03
-5.315520045750807867e+02
2.240872134113478751e+03
4.841316378760689986e+03
3.858706904792150453e+03
2.685222740371216332e+03
2.692117129035886592e+03
1.807345238477234034e+03
-3.313910932536956579e+02
-1.523100951454722690e+03
-1.332781722839476743e+03
-1.406227109719450027e+03
-9.033980310017574311e+02
1.143192007595296467e+01
6.448510982041796069e+02
2.049655698421887564e+02
4.509839377888496870e+02
1.610483709067331972e+02
-2.855176430664088230e+02
1.184403624766847543e+03
3.217665893326378864e+03
3.534299804789275186e+03
4.019067993652876339e+03
4.387720386707354010e+03
2.860261690654863742e+03
-9.470559830428589976e+02
-5.665977816326749235e+03
-6.321557386353162656e+03
-6.340989737258145396e+03
-7.196417449598440726e+03
-7.561674728404497728e+03
-7.737811028959467876e+03
-6.559107936382202752e+03
-7.134176687688861421e+03
-7.951641002270204808e+03
-7.688902773445263847e+03
-5.942160585311792602e+03
-6.856464950416609099e+03
-7.057759358009455354e+03
-6.403137668877471697e+03
-2.764280698741225024e+03
-7.030667147043775458e+02
-2.395678343457151641e+03
-2.328128297555483186e+03
-2.251309028079575910e+03
-1.030962962217846325e+03
4.104582077881260375e+03
4.831182879998556018e+03
3.529958564590747756e+03
-2.988882873173223288e+03
-6.062047466068536778e+03
-6.123372891068973331e+03
-5.893086027252055828e+03
-2.297492306326144899e+03
-3.339611736497839161e+02
-1.555357951583301428e+03
-7.623065504890844295e+02
-6.788044437537793101e+02
7.031393305352046355e+02
1.313612089835577763e+03
1.997791970557606874e+03
2.301449090502752370e+03
2.192609359333059274e+03
3.477418604397125364e+03
4.854186249604590557e+03
5.703060954691182815e+03
5.306870976980081650e+03
4.586245419090148062e+03
3.044106478639404486e+03
1.753712499989091839e+03
1.773013597107622445e+03
1.697739627214534494e+03
7.058806701512844484e+02
4.846626624141701427e+02
1.068175957150573595e+03
1.367364894453784927e+03
1.470202890238293321e+03
1.826981868190372325e+03
1.868585954192891450e+03
1.952955588869729127e+03
2.103988362335030615e+03
2.013453779833442240e+03
1.602357372632102170e+03
1.817261776134905404e+03
1.194259290756259816e+03
7.793052877654869235e+02
7.334943329293356555e+02
3.576575967594504846e+02
7.395260881262694284e+02
6.580729544951677781e+02
-9.642477953517629885e+01
-4.308707044739228422e+02
-1.047329297383961375e+03
-1.396430447996456905e+03
-1.825177995662965031e+03
-1.971461564440337270e+03
-1.778238672852959553e+03
-4.655366147209628735e+01
1.041971881766781053e+03
1.179250240545245134e+02
2.283590615045457071e+02
6.385239747642633574e+02
1.132332756730495475e+03
2.164097749808127901e+03
2.666687599892024537e+03
2.166932978085686500e+03
1.716177310966139203e+03
1.013255384564021711e+03
5.207123526958637427e+01
-1.032373793393608139e+03
-1.398053840523193685e+03
-1.023781973492377006e+03
-1.581011860288052958e+03
-1.664002439605120117e+03
-1.230502525998887450e+03
-1.411396543657499706e+03
-1.017774522682647898e+03
-8.784264219023715441e+02
-3.673586457746807810e+02
-9.802562441548843708e+00
4.133891839864554640e+01
3.912099924448200454e+02
1.567695614334002812e+03
2.492793459848204293e+03
2.622523870585294844e+03
2.105824175521548568e+03
1.628750466506045086e+03
1.563201451831146414e+03
8.531305554233983912e+02
5.458226114431753331e+02
-4.680105377418808388e+00
-7.944429906346941834e+02
-1.407450747282687871e+03
-1.947825555085915539e+03
-1.864838083204287386e+03
-1.092504587687235244e+03
-3.946002037259694362e+02
-2.719081586167770865e+02
2.637180934296743544e+02
8.223437299155733626e+02
1.095687818617182984e+03
1.368601591656976552e+03
1.582296276872062208e+03
1.508602916890813958e+03
1.007218311085454729e+03
7.444425450344105002e+02
9.455894804994275091e+02
9.994969599061024610e+02
1.811622647395745389e+01
-5.646049911625694904e+02
-1.189800636311382277e+03
-1.392302702515993815e+03
-3.019163982687851785e+03
-5.713465779430662224e+03
-9.594214501859431039e+03
-9.046386222268953134e+03
-3.050884275166757106e+03
-7.537527452820713734e+02
-3.600455415193762292e+02
2.283636822052104165e+00
5.423804279780325999e+01
-8.662587218202866097e+02
-2.083930219655190740e+03
-1.297327723254432499e+02
1.720408652948477993e+03
1.709680138269360441e+03
1.481763247978149138e+03
1.449309035154157300e+03
1.085437337553456473e+03
3.191760774573331787e+02
-8.516615600407171769e+02
-1.100986879068334929e+03
-7.887400005945144130e+02
-1.134013135591727178e+03
-1.542892289619289613e+03
-1.586484008101317613e+03
-7.597593867927383826e+02
-1.336230910444581355e+02
-2.320858989106073693e+02
2.928051822212982529e+02
7.110100071055588842e+02
1.403573283659396338e+03
1.699453280085316010e+03
1.870543275057985056e+03
1.938988937369144196e+03
1.983832880200024192e+03
1.445207210648064347e+03
9.300141189182108974e+02
6.100561341543452727e+02
-1.946800734398742350e+02
-1.082076253552119169e+03
-1.157132388749976826e+03
-1.552913734205567607e+03
-1.821468645869428201e+03
-1.707922858319397619e+03
-1.309163115079664067e+03
-9.931659448076691206e+02
-6.510564911878950625e+02
-1.916996291825474259e+02
1.060576124477024109e+02
2.940469008898551806e+02
6.071026422589598042e+02
1.536185077255669739e+03
2.186416361538984802e+03
2.407884246018513750e+03
2.294535879407012544e+03
1.956384385198371319e+03
1.622390583964467623e+03
1.016556139837184560e+03
3.488274440385961270e+02
-7.218386512734547296e+02
-6.384319265549717102e+02
-6.649997860845745663e+02
-1.184573116727915021e+03
-1.675166582356486970e+03
-1.307792376223405881e+03
-9.803289720380302015e+02
-2.750668095693388793e+01
9.125226904320088579e+02
1.391644715089911188e+03
2.084897169690235842e+03
2.503228013636844935e+03
2.708631364329788994e+03
3.032169902799786541e+03
2.986805321190676295e+03
2.987465035197299130e+03
2.965538466290263841e+03
1.146908731481568566e+03
-3.104438651874518655e+03
-5.126399921874113943e+02
-1.723687640988029443e+03
-1.134536097601922393e+03
-4.514329746746038836e+03
-1.873138950477433355e+03
-2.855909572891258904e+03
-3.771690171252517302e+03
-6.674494336594269726e+02
-4.617760951529658087e+01
-7.997507022320615988e+02
-1.055129073897337776e+03
-3.250450401198040254e+03
4.353621337593868361e+02
2.931397950181495617e+03
2.999692978453750584e+03
2.952162054738538700e+03
1.675509628872060475e+01
2.651258246852523470e+01
1.421495772432042486e+03
-3.227464312624887953e+03
-1.979382010701102899e+03
1.266836841657576997e+03
7.682246399733512590e+02
1.896746493289207365e+02
-2.657828106780712460e+03
-2.429181609626738918e+03
-2.403709735714753037e+02
1.986845049415437927e+02
6.939129192664786387e+02
9.481820575269343863e+02
9.273571367028310988e+02
-1.348598614067324206e+03
-2.033486171496031432e+02
1.893117262793628242e+03
2.555648474824379264e+03
2.280297392339147791e+03
2.293213389687563449e+03
2.339371017328484413e+03
2.057640616481432062e+03
1.678978295475821824e+03
9.223190068840633558e+02
2.146070595498821092e+02
-4.221875178086810934e+02
-1.040970563880796817e+03
-1.124782300854580853e+03
-1.124589723146201322e+03
-1.061387417242511901e+03
-6.593005104465788691e+02
-2.173783955336929239e+02
3.774822675710151429e+02
9.462402814023143947e+02
1.235916271850182738e+03
1.933613097620703456e+03
2.079470893303850517e+03
2.048640674277726703e+03
2.136067519488069593e+03
1.810748447740932306e+03
1.447764154438507148e+03
9.330824521841988144e+02
-1.275324918150983422e+03
-3.299689568448461159e+03
-2.194912054323045140e+03
-1.565945396385048980e+03
-1.898875082894704974e+03
-2.009651179825489180e+03
-1.163225192659294635e+03
-1.050971358036376387e+03
-9.588509376208729691e+02
-7.428798452559195766e+02
-3.029431468556368259e+02
1.157955276210035862e+02
4.233782055258411106e+02
1.161938419412255826e+03
1.539377508363990501e+03
2.222527828811434119e+03
2.194582163429458433e+03
1.910296049844889467e+03
1.671863053943414570e+03
1.396146237897545006e+03
8.572709267022053155e+02
2.391864465446945474e+02
-2.002598386119265683e+02
-4.129121489059995156e+02
-9.018365844939703493e+02
-1.517342067355811423e+03
-1.651427999020542984e+03
-1.440228087574723077e+03
-7.706608141798935776e+02
4.926087413249095448e+01
6.355326227343682604e+02
1.024208642707717445e+03
1.726189183319836729e+03
1.918443699448189591e+03
2.430968467088418038e+03
2.622806444496413860e+03
2.678962733805486550e+03
2.436513294674477947e+03
1.916533389635790400e+03
1.842852110272496475e+03
1.488424289500233044e+03
1.186320082654017597e+03
1.505128711931740497e+02
-4.430883335721470075e+02
-4.985063050181722701e+02
-5.646677049288960006e+02
-7.786339448819952622e+02
-7.653571022257439154e+02
-9.208517237238157804e+02
-2.068176409972374952e+00
1.040021352367667760e+03
1.702438314945945649e+03
2.221165606655998090e+03
2.325280611857568147e+03
2.759821699342351621e+03
3.377713424662610578e+03
3.456969850098673305e+03
2.079561048875083543e+03
-1.204942336546006203e+02
-3.218164825479059800e+03
-5.861443891930650352e+03
-5.980312382795609665e+03
-6.407813664089757367e+03
-7.636902115402381241e+03
-7.647630006297086766e+03
-4.045047267390722027e+03
-3.550509936290688415e+02
-4.426692864086420741e+03
-7.094849562441648231e+03
-6.479571569992226614e+03
-5.855841561522950542e+03
-4.795641175487049622e+03
-4.503985489455942115e+03
-4.301813501892655950e+03
-1.342043161017133343e+03
2.829353995648484215e+03
3.593406165010345831e+03
3.938166374863354122e+03
4.127668822662758430e+03
3.988904661652771665e+03
3.409821468836054919e+03
2.473479958191131118e+03
1.726866495258722125e+03
1.135968189470595462e+03
7.678579125464402750e+02
7.645015745877200288e+02
1.150937468945251112e+03
1.042191970601185403e+03
6.853275855387792035e+02
1.541414161200600347e+03
2.111443281528610896e+03
1.955364859835626930e+03
2.173234109163927315e+03
2.736145734313800403e+03
3.174174429906075602e+03
3.177345501615880039e+03
3.264668646408070344e+03
3.376235046222420351e+03
2.769034657736057397e+03
2.300102680175675232e+03
2.157510035169722869e+03
1.359244444273384488e+03
5.043105455352862805e+02
4.571568760259995656e+01
-5.555219113582473938e+02
-1.172389968006559684e+03
-1.293849548289982295e+03
-1.054891963370811936e+03
-1.050456256524116725e+03
-7.994651671617901911e+02
1.850732303338514839e+02
5.671878936110903169e+02
6.829502185625669881e+02
1.102458280660006494e+03
1.449770847811157182e+03
1.182826304974520326e+03
1.433669937062313011e+03
1.493426235482282436e+03
3.330928710868986400e+02
1.936051445423888140e+02
1.768784217429669354e+02
-2.469352802512965468e+02
-9.934615427775216858e+02
-1.844384705516518352e+03
-2.219994385735802098e+03
-2.488536558455530667e+03
-2.970954382116404759e+03
-3.496417493704055232e+03
-3.404874033920550573e+03
-4.560129057101688886e+03
-5.000149387765151005e+03
-3.609901713509638739e+03
-1.355479631709007663e+03
-1.049643619839721964e+02
3.507780624909396465e+02
8.927425709667788851e+02
9.409527315649610273e+02
