6.958682589883800347e+02
9.542595836328425776e+02
9.459279144997052526e+02
3.589888857751482760e+02
3.963984078326077451e+02
5.820542367139049702e+02
2.868816099529802273e+02
3.159631872207997390e+02
4.721148654279909920e+02
5.012323848542004043e+02
4.745322813621054365e+02
8.190213827225043133e+02
1.052684771228593490e+03
1.085536860985292606e+03
1.334614788999830353e+03
1.432835272866384685e+03
1.685150086690616035e+03
1.945593776816308264e+03
1.882143553551204150e+03
1.465914818010091494e+03
1.159873586463646461e+03
-1.700255328237840757e+01
-4.258667797853765478e+03
-5.745092909912718824e+03
-4.651238055883101879e+03
-8.441332521388517307e+02
-2.600819433344656318e+03
-5.956393897564470535e+03
-5.258750850237240684e+02
-5.391652337183251120e+02
-4.112268398216565402e+03
-4.804179882086502403e+03
-2.689900680857527277e+03
-2.938398006244709904e+03
-2.244594113702290997e+03
1.508466712509213039e+03
1.528772869790285768e+03
-8.366350991356392797e+02
-2.063735027691138384e+03
-1.327496400593351154e+03
-5.710873335269318886e+03
-4.007838191889427435e+03
-3.051435136437810343e+03
7.484245040119410532e+02
2.276792017702561225e+03
1.857630058510468871e+03
1.475936428555629391e+03
1.045697871349636443e+03
8.249771001821794698e+02
7.707935539863019585e+02
7.520534685427348904e+02
1.241773351817836783e+03
1.571078483861708492e+03
1.629029810355779773e+03
1.555734841592215844e+03
1.724210656857359027e+03
1.771462233024792795e+03
1.409503709662531946e+03
1.442420557598310324e+03
1.869204113454607977e+03
1.728880931434205877e+03
1.805512906317837178e+03
1.525132176573493552e+03
8.427285864713251158e+02
8.003434448322623211e+02
4.950131441560299095e+02
3.157329967861755335e+02
2.852319840311539423e+01
1.214127639544527568e+02
-1.086070181060352411e+02
2.323525985076137204e+02
6.933366162427406607e+02
6.117996359985895651e+02
1.311829842708195883e+02
1.714649060159165117e+02
1.894958828102629695e+02
1.071070304558617607e+02
7.786521279544608660e+02
1.736037222117768579e+03
1.429181421540678230e+03
6.680176457946355413e+02
6.666391027178459581e+02
1.887029259380038297e+02
-1.142049485724732449e+03
-3.761751385891997870e+03
-9.814967752061942292e+02
-1.419315328196286998e+02
3.898261189049453037e+02
-1.521877059035820594e+03
-3.494722488387311387e+03
-5.279373390536991337e+02
2.078854459485498296e+02
1.730400710027415130e+02
4.904366899671830993e+02
6.379562405297955365e+02
5.352321138827818459e+02
4.462812307856247571e+02
5.721656574226543626e+02
5.589847172812314966e+02
2.386599907132156773e+02
-1.280118375127341324e+01
-5.228518125651455506e+01
1.382233878267328464e+02
6.671969010338284534e+01
-2.458664580860757383e+02
-1.896231102664967807e+02
-2.525112034884878085e+02
-4.035545562398719426e+02
-6.478052409180080531e+02
-4.003755032342268123e+02
5.468951235440113834e+01
3.185073096674838666e+02
1.602097466400250596e+02
-6.411124159519617649e+01
-2.565011043877663042e+02
-2.599674277588478617e+02
3.104550679472912975e+02
5.527164643851143637e+02
3.417304406301273616e+02
5.175676635593998753e+02
6.662833244426631154e+02
5.248246171976404639e+02
2.961976856051259119e+02
-4.436121937604432901e+02
-8.986526236836579073e+02
-1.181951648869176779e+03
-1.486477651542266585e+03
-1.332256860846101517e+03
-6.253460529443181031e+02
1.482113345624632643e+02
2.043896315753448221e+02
4.571706130215079611e+02
6.155839960948469525e+02
7.176357465709319285e+02
7.872536964790228922e+02
5.254201253879294882e+02
3.961814054479704055e+02
3.285724223329517031e+02
2.535018506020699363e+02
-1.206496974307820835e+01
-1.027158957589778538e+03
-3.256774528510420168e+03
-7.504975338541130441e+03
-9.186848980179256614e+03
-4.428493311622261899e+03
-1.242956807861376092e+03
1.298628808143025637e+01
5.771839733329866249e+02
4.946157781424427071e+02
5.142466266547157829e+02
9.069371594948208894e+02
1.020700636418338945e+03
1.377514501499025073e+03
1.511329423258725001e+03
1.330168792343864880e+03
1.487038200543920084e+03
1.532904244226385799e+03
1.572711471121128170e+03
1.442469884838502139e+03
1.315111530047583983e+03
1.061592465123296051e+03
6.959015978196316610e+02
4.509869776110293742e+02
9.283459096855844450e+01
2.514388176564017101e+02
3.947070172486446040e+02
8.466223676220773768e+02
1.057125343897061612e+03
8.032718936260880582e+02
6.970215546547335634e+02
7.352595129009829407e+02
9.449876902184404344e+02
1.213267621589722012e+03
1.260126370833202600e+03
1.619461803962295789e+03
2.324236163769319319e+03
2.548389975698177295e+03
2.372918792826680601e+03
2.191829816986337391e+03
2.054127413144644379e+03
2.355783114685383680e+03
1.888828504821032993e+03
1.239186731010020367e+03
1.061752569379945726e+03
1.233522744582398218e+03
1.410473869936128040e+03
1.328600022142065882e+03
1.135862149519203740e+03
1.333255263144879336e+03
1.479772747914020783e+03
1.640409335995062293e+03
1.761142308604483105e+03
1.861966638240745397e+03
1.891896574194011691e+03
1.985920963885887886e+03
2.179103453318005450e+03
1.898451141581144384e+03
2.028902487694731690e+03
2.841431675229624034e+03
2.693021373419825977e+03
2.438648607978551809e+03
1.985306591970043428e+03
1.676018283161695081e+03
1.712779477260786280e+03
1.923588509934830199e+03
1.740400140253972950e+03
1.525199287649417329e+03
1.136023716931832951e+03
1.264900932303725540e+03
1.447903503151911991e+03
5.059318916690229457e+02
-2.348992594301143981e+03
-6.817756143963986688e+03
-7.995417843157745665e+03
-7.003017451158711083e+03
-6.890495121582074717e+03
-6.887847320269881493e+03
-7.445052656468486930e+03
-5.350188820726597442e+03
-3.375224988005933028e+03
-2.331217687385450006e+02
-2.013805977256106871e+03
-8.148300418281390193e+03
-8.042579109149306532e+03
-7.467655948817816352e+03
-7.539480971866780237e+03
-7.348055095702131439e+03
-6.903362405050053894e+03
-3.730460958885458240e+03
-2.417301405857617738e+03
-5.750837244517457293e+03
-5.472030444482267740e+03
-3.800844071740573781e+03
-4.598223910990328477e+03
-3.919155142460023853e+03
-4.093592266521985948e+03
-4.191555936134114745e+03
-4.270049141857497489e+03
-4.753990722348951749e+03
-2.981342862075371613e+03
3.063927314144767479e+03
3.487836313928649361e+03
-2.757664270940338156e+03
-5.781483875429872569e+03
-5.778629004830034319e+03
-4.157099312467014897e+03
1.082172945410276043e+03
2.540170560022056179e+03
3.461931372300828116e+03
3.609476855095530937e+03
3.784847207404069195e+03
3.834090918002433227e+03
4.072265966862965342e+03
3.646350454863791128e+03
3.548370944997305742e+03
3.638327225685142821e+03
3.372290511373008485e+03
3.483235953647890256e+03
3.320183175579927592e+03
3.099186754042503708e+03
3.392277379859401208e+03
3.242444283839103718e+03
2.717675965361754152e+03
2.591028194890573559e+03
2.092481111507561764e+03
1.916052662491944830e+03
1.651762307594075082e+03
1.795650814661215236e+03
2.120677447744726123e+03
1.872842056186223090e+03
2.041208468444059690e+03
2.244766110444379592e+03
2.286564320947296437e+03
2.691363866318354667e+03
2.812474889172162420e+03
2.873239873584720044e+03
3.197744782973988549e+03
3.305600432495894438e+03
3.244221192894340220e+03
3.006327382537490848e+03
2.966116793072552809e+03
2.714391899933753393e+03
2.590777154840524872e+03
2.515979319180384664e+03
2.392082955463726194e+03
1.893068724447462728e+03
1.386583002901916188e+03
1.406850809008423539e+03
1.363658255219090734e+03
1.506472191411123731e+03
1.825262510694516322e+03
2.087607199151651002e+03
1.974369980760483486e+03
2.252665990875053467e+03
2.205456268033295146e+03
2.515414398649820214e+03
2.700653909181491144e+03
2.776930934762085599e+03
2.311559274851752434e+03
2.186732820799406454e+03
1.909077187252483100e+03
1.750514179026326929e+03
1.815085861662648767e+03
1.639944397431754169e+03
1.369104103039154325e+03
1.418352388334846864e+03
1.307658845005728608e+03
7.972279760962508135e+02
8.721861661457122636e+02
8.706969340984787777e+02
1.076752043705263532e+03
1.308198838547526066e+03
1.376563840375179552e+03
1.192754590525255026e+03
1.469054007277947676e+03
1.788336206721896360e+03
2.058579635177342425e+03
2.037999906604761918e+03
1.685508822281791026e+03
1.147183140666376630e+03
8.430556461839057647e+02
6.491544416341274655e+02
4.645889496159657028e+02
3.304504132139149419e+01
-4.877580866167141380e+02
-1.035102914318746116e+03
-3.221962200995525563e+03
-7.153105052841461656e+03
-9.076417257038143362e+03
-8.755026629344441972e+03
-8.251967428460689916e+03
-7.049984846336083137e+03
-8.121643826840850124e+03
-7.156877417672900265e+03
-6.968377148590417164e+03
-7.271440880010283763e+03
-6.802965859910594190e+03
-6.270377015089796259e+03
-5.904138205370503783e+03
-5.643184395323090030e+03
-5.886381964933832933e+03
-4.291725694128902433e+03
8.180658028242819455e+02
2.885282909950693011e+03
9.832124869672184104e+02
-6.017207942011732484e+03
-8.502156998743294025e+03
-8.871455327182969995e+03
-8.754017929067267687e+03
-6.052549183117401299e+03
4.298063428921034301e+02
2.193503962865575431e+03
2.701735481020277803e+03
2.760909279104309917e+03
3.048429605126436400e+03
2.807374468193114808e+03
2.742723384052622805e+03
2.867165016122719862e+03
2.647890919641562959e+03
2.483054996173537802e+03
2.551126167531404462e+03
2.086974210226836476e+03
1.903459255565379635e+03
1.775624436036659290e+03
1.567023419741098451e+03
1.371371390944835184e+03
1.292571299678790183e+03
1.134015077117400551e+03
6.360072659930979171e+02
7.984546548664845886e+02
8.350730810831723829e+02
1.026839961323850957e+03
1.232435478027349745e+03
1.317868739645996129e+03
1.454559605372524175e+03
1.373412024351032869e+03
1.344596859324587740e+03
1.372259106717891655e+03
1.607206700392674065e+03
1.449292405339650713e+03
1.038269524876884589e+03
1.248057308575710522e+03
1.615082763778398203e+03
2.301035043374462930e+03
2.368572618045451236e+03
1.913050743022140978e+03
1.139400444731289554e+03
1.056125399412453589e+03
1.354327649265905166e+03
1.428243406779144834e+03
1.477704546351583076e+03
1.381077134342255704e+03
1.237964923969774645e+03
1.622073081465405721e+03
1.571769432494759485e+03
1.940089291705644428e+03
1.831794599483692537e+03
1.689894872680195022e+03
1.586920962787386998e+03
1.150457301373227210e+03
8.004428765925883908e+02
6.518596156337572722e+01
2.294716567789085389e+02
2.454409422688829068e+02
4.360791170831134878e+02
4.400125698595190897e+02
-9.516380746583060102e+01
-6.078119945488467124e+01
-9.887795535024847027e+01
-3.878820688303324005e+02
-5.800470338180865610e+02
-2.254352761771435780e+02
2.248396031128109769e+02
1.221204816944402580e+02
4.885761021765686110e+02
6.591219442614083164e+02
5.230528204547167661e+02
5.516154440405099422e+02
4.371116194185168524e+02
5.635933989009922698e+02
4.963947344259065630e+02
-1.236174049668972827e+02
-4.127502114756252354e+02
-1.309830245826376995e+03
-2.046985559575105981e+03
-2.115630484787748628e+03
-2.380947970473601345e+03
-2.356327712525261632e+03
-1.866160568024047961e+03
-9.174695063236542865e+02
-5.019718746169479004e+02
-6.164327715589288346e+02
-1.222431722584791714e+03
-1.522926706599541603e+03
-1.882690855444082899e+03
-1.793628192840390966e+03
-1.692024644537969380e+03
-3.441192459644393580e+02
6.830922358990661678e+02
5.048536025772054927e+02
2.040734956391489163e+02
1.106785112008185052e+02
2.200485492632482831e+01
-5.302675484920074496e+02
-8.799490920295493197e+02
-1.188556382412969015e+03
-1.603229642413861711e+03
-1.628176035922396522e+03
-1.590521670762694839e+03
-1.856690529064292605e+03
-2.372516777906629159e+03
-2.127343736598003943e+03
-1.740866879460720156e+03
-1.154062190687945531e+03
-1.054281356314529376e+03
-7.978236648880082384e+02
-3.773816411285949926e+02
9.025408043996043261e+01
1.908518219871854740e+02
2.444746162668535021e+02
2.681881930616114573e+02
-1.412499269764762175e+02
-8.665974234633133619e+02
-1.107603584818174568e+03
-1.620608436490791746e+03
-1.697885041980606729e+03
-2.234877577683404070e+03
-2.699807411788788158e+03
-2.197336624593331180e+03
-1.752517490257494728e+03
-1.449891960471627499e+03
-1.097040804358234027e+03
-7.568026772373375479e+02
-3.455190535019946196e+02
-1.012378389443572786e+02
4.129228597946797095e+02
5.183566244401343965e+02
7.049286632237218555e+02
8.552170848621134382e+02
9.806449882824623501e+02
7.957773659207234687e+02
6.510258354548369653e+02
8.120205286633611195e+02
8.935461719535097700e+02
4.187739867376337770e+02
-1.480835504894059795e+01
-2.671806791409895823e+02
-3.170743810070293307e+02
-9.341015655566961584e+01
-7.670459525638695197e+01
1.410024535335608959e+02
4.507917267680001601e+02
4.584444872287978114e+02
3.555960852709464461e+02
5.909192664315299908e+02
9.518211842003069023e+02
1.377227133879274334e+03
1.935952225479377375e+03
1.752882092215653756e+03
1.924524309741426350e+03
1.876501770805587284e+03
1.700759500832394679e+03
1.664134649250024268e+03
1.426542337819166050e+03
1.125746376969842231e+03
1.058640603610512017e+03
1.115885596219536410e+03
1.191183042279301617e+03
1.731058146884701500e+03
1.853201202296657812e+03
1.926416172564308908e+03
1.888211661839812223e+03
2.174185471045866507e+03
2.384583911769987481e+03
2.651007448639110862e+03
3.198580400824898334e+03
3.281263542322726153e+03
3.548020349191648165e+03
3.622738388901567760e+03
3.676140996576643374e+03
3.493950229419080642e+03
3.414164342240248061e+03
3.204928340342873980e+03
3.204239899182141471e+03
2.816051445078062443e+03
2.012280866749318193e+03
1.465726169206761824e+03
6.394070090539959210e+02
-7.374494163736922303e+01
-4.566076953722512371e+03
-6.007641340617159585e+03
-3.418009599162474842e+03
5.257545678714360520e+02
-2.686128278321454559e+02
3.442811086113741112e+03
-3.411934190605316530e+02
-1.415543167036016712e+02
3.306884002232786912e+01
-1.498398886639774901e+03
8.027183665006506317e+02
2.396920748626050226e+03
-1.929195548237489390e+02
5.363653143608872824e+02
1.618092000123008063e+02
-8.057240448705899780e+02
-6.490858063691885036e+03
-1.963453511971708167e+03
-1.117700480610119484e+03
2.231165147984684154e+03
4.657934861598370844e+03
4.245510134265178749e+03
-2.390672815614797742e+02
-2.098919915364125700e+03
3.517501775280177299e+02
1.565801933773251733e+02
2.509294381292964317e+03
4.234319262710359908e+03
3.720976646102013092e+03
1.793111830512510778e+03
1.646969523504289100e+03
1.691607835753334257e+03
-1.046938011562525617e+03
-4.717611563230665524e+03
-6.258559767174428089e+03
-5.552879211411550386e+03
-2.068526216031325930e+03
2.336770878831415303e+03
5.946132816450195605e+03
4.239696430545716794e+03
8.403776546308354227e+02
3.671409716511857368e+02
-1.425083783986596927e+03
-3.280475692496736428e+03
-2.845042660599785904e+03
-3.067643283803752638e+03
-2.379924854099217100e+03
-1.310691929921601513e+03
1.443852718145265726e+03
6.649503431373974308e+03
9.244346530437012916e+03
8.683537878649998675e+03
4.580490458487077376e+03
-3.867881138020329672e+02
-2.431141624569127544e+03
-2.826394966606845628e+03
-5.497625001973671715e+03
-9.751458872643088398e+03
-1.073343892653827788e+04
-5.326400378600785189e+03
2.893951028110049265e+03
4.680279803218615598e+03
3.537165205217966559e+03
2.557847595553018436e+03
-5.380581098100877171e+03
-6.757457490748539385e+03
-7.959885505410041333e+03
-8.563461764334348118e+03
-1.111810252958571800e+04
-1.862892404575513501e+04
-2.565505765775968030e+04
-3.062912812995311833e+04
-2.619278860754068592e+04
-8.776823679653101863e+03
7.879300141090783654e+03
1.440154175516156465e+04
1.208669126302252516e+04
7.744756825252016824e+03
9.034231139570738378e+03
1.360331986442290508e+04
1.111792836200137208e+04
-4.057394323596299728e+02
-1.423561628024554375e+04
-1.808455232233309289e+04
-1.286444182342153908e+04
-1.778320255607291983e+04
-2.161273092180497770e+04
-1.995804972929285577e+04
-2.008301544183852093e+04
-2.195631745567890539e+04
-9.098681231071423099e+03
9.838197166114614447e+02
9.884310831717413748e+03
2.082782268633059357e+04
2.670533389116792750e+04
2.424086210562486667e+04
1.942151633129039692e+04
8.967367086280286458e+03
-4.959494771690080597e+03
-1.290792201408170877e+04
-7.692858629431739246e+03
4.980815241817494098e+03
1.955803493365062241e+04
2.680192097794202709e+04
2.370380832982896027e+04
1.654175650841016613e+04
4.831762542811007734e+03
-1.481629288559280440e+02
6.945953027139412370e+03
7.633092518737293176e+03
3.636429374104233830e+03
8.482077003131806123e+03
2.064999643113657294e+04
2.084326701080835119e+04
1.287306277008530560e+04
4.009445812184581428e+03
-4.449648774578306984e+03
-3.612240278118881179e+03
2.446756684371473057e+03
3.637517604998668503e+03
4.761437594160656204e+02
1.372518440883584617e+03
2.547595662382815135e+03
-2.206008038968141705e+02
-5.287929835266285409e+03
-6.504248856404826256e+03
-3.324638415691315458e+03
1.430944931505244995e+03
4.763683328282841103e+03
4.797608049863969427e+03
4.819580073650103259e+03
3.515661707762308197e+03
-5.030322340532360613e+03
-7.958367007714672582e+03
-2.107340959275586556e+03
4.004668629450020489e+03
5.309923277621725902e+03
2.393302107501118371e+03
-3.423297354337990782e+03
-1.308593348088174935e+04
-2.156560443650889283e+04
-1.621429518540423851e+04
-1.158405516614882799e+04
-1.689384761590094786e+04
-6.415723033926659809e+03
1.071619166104883516e+04
1.839998083940623837e+04
1.773060555185678822e+04
1.484996567325695833e+04
5.931085011125387609e+03
-3.396077116050188124e+03
-3.593462094607210474e+03
3.511859817030325303e+03
9.463789933464100613e+03
1.093729609762946711e+04
6.642310816156222245e+03
1.487138597901782191e+02
-5.077532087259047330e+03
-8.765437747364296229e+03
-7.576082940120981220e+03
-6.594455333638557931e+03
-3.161622504911879332e+03
1.964422468572581693e+03
3.752554920922496422e+03
2.439604788307660783e+03
-7.526334268691227862e+02
-2.319182836452533593e+03
-5.930004670675341004e+03
-1.196914460060903548e+04
-1.547169376139675478e+04
-1.091180445014798715e+04
-2.927446523465645896e+03
-2.417139741130269783e+02
7.033134414419979521e+02
-1.517384849700848918e+03
-6.728960350370287415e+03
-5.427453957016883578e+03
-1.747758981847473024e+03
-2.307965488288642064e+03
1.301614922668539066e+03
5.529843878421771478e+03
6.065645362579100947e+03
3.070025082627644679e+03
2.530939760150387883e+03
4.590276036991905130e+03
3.389939524154257015e+03
2.719902844264669056e+03
3.117106295059670174e+03
2.473962609078226649e+02
-3.732801886032755760e+02
2.447024865364087873e+03
8.532096791225553716e+02
-4.635835573480935636e+03
-3.367173331095994399e+03
-6.292697703103081949e+03
-7.744591719587147054e+03
-1.320998147725030867e+04
-1.039895106312112875e+04
2.254455243424227319e+03
5.902174144500352668e+03
5.977155674687398459e+03
5.160373664377279056e+03
6.190769812730133708e+03
-4.006157467746240854e+02
-8.336822390281658954e+03
-1.510002241817959839e+04
-8.556355582178461191e+03
4.191282382610157811e+02
4.775389547029961250e+03
5.097402640408845400e+03
3.473140648532981686e+03
5.127497240420114395e+03
4.262449178385297273e+03
2.850922932331470747e+03
2.119166457492052302e+02
2.555394124275567719e+03
8.062783559999129466e+02
-3.826440903493091355e+03
-6.044797855325627097e+03
-1.214675459332327955e+04
-9.711318166130884492e+03
-1.042458286348712682e+04
-4.875636822882171145e+03
5.120507147721022193e+03
7.852832371337809491e+03
5.372333122322175768e+03
2.225025915838733908e+03
-4.009099967404077233e+03
-8.773004071846071383e+03
-1.415667980381094821e+04
-1.613116815077914725e+04
-9.656521785388669741e+03
-1.928689715338278575e+03
3.567341664532004415e+03
7.624421498916793098e+03
7.029593154583821160e+03
3.183844155109872190e+03
-4.305808661173495238e+03
-5.057399303359810801e+03
4.225082069001323362e+03
5.970642864685329187e+03
3.999298836819333246e+03
4.197090602286943977e+03
4.996050830275165936e+03
7.352187981223625684e+03
9.532507099514174115e+03
9.010088831160275731e+03
5.824945041329157903e+03
2.343132498499404392e+03
1.407623375456759504e+03
1.153457168919326023e+03
1.724642533541710463e+03
2.678214600007414901e+03
1.412201707342909685e+03
1.629626584638069517e+03
2.089605346156120504e+03
-1.537746220764059444e+03
-5.537206446719374981e+03
-3.677001976746551463e+03
-1.275872450152149895e+03
-7.399151139516797002e+02
-4.332497091043794626e+02
-2.571143652741038295e+03
-3.672978550816006191e+03
9.618022186830843339e+02
6.457468252371827475e+03
9.776137203084846988e+03
7.576487209973856807e+03
3.531775226668720279e+03
9.614837652279735494e+02
-1.360795447154141129e+03
-5.236664213855342496e+03
-4.209501509431416707e+03
-1.773043623064786800e+01
3.456110301516763229e+03
5.053963881060805761e+03
4.148887976813105524e+03
2.449894151139626956e+03
9.240900434753183390e+02
-2.074147549667044132e+03
-8.763111632322279547e+03
-7.927662258959386236e+03
3.392285294727738346e+03
1.018042296908977187e+04
8.975770463737515456e+03
5.365565201145975152e+03
4.642794731188655533e+03
4.332529819188313922e+03
4.290845398206780374e+03
5.387199159248081742e+03
4.385710582218554919e+03
9.791399092934018427e+02
-2.389712499858794672e+03
-3.083102257097093116e+03
-2.225141947263765815e+03
6.861876797502883392e+02
2.742256706296571792e+03
4.211306400267015306e+03
5.223161657026033026e+03
3.580924029040878395e+03
8.486799341861808443e+02
-1.488701247365012478e+03
-3.771692402286147967e+02
2.963238035761484298e+03
3.786526192418188202e+03
1.160539189392432490e+03
-1.791998710422830527e+03
-4.530935082924530434e+03
-3.099020527658355604e+03
-2.202950258866065724e+03
-1.935571595515438730e+03
-2.857995778207509375e+03
-4.714288433724890638e+03
-2.202571736216715692e+02
-3.022741214651347946e+03
-4.178941939282608473e+03
-4.979433453033793739e+03
-9.755547774711760212e+03
-9.263891318322963343e+03
-6.811205966554369297e+03
-2.501453213673333266e+03
-2.804038701275668700e+03
-5.983360025592659440e+03
-5.408388292904327500e+03
-5.246081645718588334e+03
-5.701214007613745707e+03
-4.468277347798250958e+03
-1.048243383582362185e+03
2.661690618175523468e+03
2.144152638348102755e+03
-2.982304260001336843e+03
-9.596044652290443992e+03
-7.351533219510349227e+03
-2.250114085208853794e+03
1.296404234336813943e+03
3.424634630914246372e+03
2.320272686795234222e+03
2.079842468061509408e+03
1.680176195572157440e+03
1.372716390760333525e+03
1.285862073904955196e+03
1.206910199531738272e+03
8.196153330273658639e+02
-1.429999870163278501e+03
-3.405354688136378627e+03
-3.480325319893036067e+03
-6.987630637470221018e+02
4.700857756199187065e+02
2.349192213173149867e+03
3.875437852323887910e+03
4.337468550231097652e+03
3.789516248918177553e+03
2.930186954430280821e+03
2.309736000679826702e+03
1.491721428054695934e+03
1.594671357985530904e+03
1.428379018502903136e+03
1.704796152279923263e+03
3.116356240908587694e+01
-1.764898490595596741e+03
-2.380040781987666776e+02
1.602593258290172571e+03
3.184357585488784025e+03
3.951839250143368645e+03
3.195678813411569081e+03
1.675923096416906901e+03
1.608023787902260210e+03
2.827380936612859387e+03
2.375316205286584136e+03
1.462087746982718954e+03
1.493511139367424448e+03
2.360326804095280295e+03
2.284774256442512524e+03
1.016014215994314554e+03
-3.960847213648083454e+01
3.824352847293268951e+02
1.761488068873002021e+03
1.941903490595353787e+03
5.503675383502547902e+02
-8.481642610102314848e+02
-1.528356672031706921e+03
-7.799488003101649838e+02
-1.346154104305368264e+03
-2.225318811483987702e+03
-9.696216385552521615e+02
3.009206507154412407e+02
6.826402350729701993e+02
1.843635733301027813e+03
9.229890241284444983e+02
-4.226732483395371105e+02
-9.366878488250534929e+02
-2.285722246547834857e+03
-1.829357913574674512e+02
5.549136055768542519e+02
2.121546149073560059e+02
-2.298384367238917037e+02
-2.955688359246474874e+02
-4.569543017105363560e+02
-4.990412288527899136e+02
2.041006544269865515e+02
4.242662719215863945e+02
-5.617799972785815044e+02
-3.108716185191967725e+02
2.224641266880327635e+02
-2.371979077043058055e+02
-6.496011205809039666e+02
-9.361182023713895433e+02
-6.755227662686517078e+02
-7.564341910712716981e+02
-9.564673453386573101e+02
-1.219675763968342153e+03
-1.483816179225387941e+03
-2.186411824373196396e+03
-2.079122481268263982e+03
-1.654972280661441346e+03
-1.975929919606539897e+03
-1.991348546012065071e+03
-1.875251863079585974e+03
-8.388851081641488463e+02
1.235755884130350495e+02
-8.865838926445032087e+01
-7.294058405659167192e+02
-8.864922751256452784e+02
-7.410098242007808267e+02
-3.907127528457538119e+02
-3.529946883735137675e+01
-7.668926846257686520e+02
-8.151152652553651023e+02
-1.072378508025798283e+03
-1.529404753818414292e+03
-1.541021754086791134e+03
-2.289010555002135334e+03
-2.664084929740977714e+03
-8.207173916402692839e+02
9.968402283489056117e+02
7.578818760199329745e+02
-1.749474926443041340e+02
-9.797754455789856820e+02
-1.253368662902432789e+03
-8.744492897195574415e+02
-6.301673340116366262e+02
-3.897477937112925019e+02
3.060646235325137923e+02
1.419291814480485982e+03
1.690841783854202276e+03
1.814961291407345243e+03
1.772487286333958536e+03
1.716076703592623062e+03
6.711984587969114955e+02
-1.377543775628217873e+02
8.016595797728925845e+02
2.857869162552121338e+02
-1.114251343147553541e+02
-7.975605959737092689e+02
-1.427354037666958902e+03
-2.086811383609980567e+03
-2.680408613466533097e+03
-2.756903147591565812e+03
-2.949246336220055582e+03
-1.337543796240161782e+03
6.338711088782288243e+02
1.609198599737261929e+03
1.620494182173455329e+03
1.681749131819172817e+03
1.555565534352791474e+03
1.727135014153534939e+03
2.605745518500721118e+03
2.797560940721215502e+03
2.652346946172517619e+03
1.906246155140666588e+03
1.604280002430969944e+03
1.426584721844815022e+03
9.297850036806535172e+02
4.301574169447200120e+02
7.986212206429825322e+00
6.421408109077900690e+02
1.475988621636079415e+03
1.409853866595819227e+03
7.839336785243431223e+02
3.336970826075523746e+02
-2.236136330368973191e+01
-1.684981883814853276e+01
-3.433303461208830640e+02
-3.326478451982342222e+02
2.074884788137112537e+02
9.660570512373889187e+02
1.593215095929416293e+03
1.451740692100261640e+03
1.935900900108571705e+03
3.029431849883487757e+03
2.389406301265599268e+03
2.236842172354794002e+03
2.453033265335770011e+03
2.548215401231536816e+03
2.059743521923096523e+03
1.333179094499835401e+03
7.626555544322023934e+02
6.766021075618165526e+01
-3.015438998406887094e+02
-8.010625572137973904e+01
-3.591126547659659423e+02
-6.607352548384059219e+02
-3.290269333927713546e+02
-4.373204651982456426e+01
5.453890072001150884e+02
6.334154807601613584e+02
7.792407072664760790e+02
9.308277518314685040e+02
7.540752689255064070e+02
-1.200891448337399794e+02
-1.250510456321778747e+03
-1.969350070934179485e+03
-1.738532757423350859e+03
-3.743730000929445850e+03
-7.547886599232664594e+03
-4.287407484158118677e+03
6.226263593898781892e+02
-1.846659308044683883e+02
-3.430901496377254034e+01
1.888802269250938366e+02
-2.530126469611929224e+03
-2.552795172919087690e+03
-3.518272705439071160e+03
-5.526494639169354741e+03
-5.096013316152128027e+03
-2.898608430267859148e+03
-3.060309752406794814e+03
9.029005201758625390e+02
-9.177839265053028157e+02
-1.670734324678660187e+03
5.027472484399966106e+02
-1.385350364474336175e+03
5.407427335062864415e+01
1.433242818276112530e+03
1.370236168910862489e+03
9.500272852889007709e+02
-2.341194853224273629e+03
4.296377965047547320e+01
1.255974494390464315e+03
1.097880497663674987e+03
6.338893337213423820e+02
6.976190590875407906e+02
-1.854709756538890360e+03
-2.844275082332464081e+03
-3.263057097576495835e+03
-1.073061319114702201e+03
1.120630667606386169e+03
1.760199965994178456e+03
1.799905094102890189e+03
1.611818449444645694e+03
1.651772524061372906e+03
1.958653578017181871e+03
1.659251807015124541e+03
1.783600183084484797e+03
1.832705318499451778e+03
1.257580145658992933e+03
9.014909556904840429e+02
6.876078969411342996e+02
2.010150223302470067e+02
-9.556077777776445714e+01
9.257137375151124559e+01
3.365303093418550588e+02
3.806795100353178327e+02
6.261502908385165256e+02
1.053993479437108590e+03
1.089885686781116874e+03
8.149067275182725325e+02
9.459515890302386651e+02
1.543422590377051847e+03
1.979453352841444712e+03
1.982533752940007389e+03
1.947267632246909670e+03
1.416579603395737649e+03
1.075431423342438620e+03
4.771490745135550355e+02
1.284494840855921041e+02
2.111460259166404896e+00
-8.161532977339372792e+02
-1.667865847870503785e+03
-2.551513844338207036e+03
-2.665725966749315376e+03
-2.172557837734228542e+03
-1.183019899314112536e+03
-9.945325416256554263e+02
-2.931789565982470776e+03
3.240927556627431017e+01
9.687432122495794147e+02
1.220444292250314902e+03
1.331439282710734687e+03
1.588675878536399068e+03
1.353979068893918338e+03
1.300698514486986824e+03
1.347843366810449879e+03
1.295467548724986045e+03
9.624282672116452204e+02
6.016358193340843172e+02
1.671258227446613489e+02
1.188178204582282405e+01
-4.870979448314272418e+02
-6.967691411061737199e+02
-9.839553559805797249e+02
-1.130685201368007483e+03
-1.224069454136009654e+03
-9.613480910809773832e+02
-6.244394354939064442e+02
-3.724140691928773208e+02
3.769338469494874744e+01
5.989410498612439824e+02
1.030434365134569816e+03
1.368253183483205476e+03
1.110357640861687287e+03
8.117364723992255904e+02
9.393689648434145738e+02
4.032527460805887358e+02
-1.876151984576077894e+02
-3.091016403738644271e+02
-6.220045998871383119e+01
-2.201532176452515728e+02
-4.705196096028792141e+01
2.011044061833152341e+01
-1.286272427915256173e+02
-3.051134430846305463e+02
-1.672765076376133209e+02
-1.022591684742645555e+02
1.158683957515980723e+02
2.622285981171642675e+02
3.708814643433312881e+02
6.247353878650169463e+02
6.937165726674293182e+02
8.458867833840622552e+02
7.983639038398897583e+02
7.361364828015225612e+02
1.100086581722145866e+03
1.362103224209498876e+03
1.257255711979677244e+03
9.706733120207090906e+02
6.433960070968586251e+02
1.213757981954984757e+02
-3.315275403369096807e+02
-7.702254488103166068e+02
-1.072723308085827966e+03
-2.270030450102874511e+03
-2.378223138185719108e+03
-1.250288949741761144e+03
-4.673089401550477646e+02
-1.571401292265407221e+02
-1.127029694427075128e+02
5.449505059623718353e+02
1.064867145916141908e+03
7.807906700274202194e+02
1.478544908826758153e+01
-2.470831758640513556e+02
-1.047890290877625290e+02
-1.083771406622580429e+02
-1.068299902193249693e+02
-4.121840436551856897e+02
-5.735092355550141292e+02
-9.075039825749782096e+01
1.822166150983614941e+01
-1.036603067940057059e+02
-5.354914282414728177e+02
-6.301694608358081950e+02
-4.306870894126893177e+02
-2.150689937654146604e+02
-1.233548693243612036e+02
2.825162363672692436e+02
5.686093455102566168e+02
3.648826387453690359e+02
-7.666657132107215489e+01
7.799959449572516235e+01
-4.841747329018126607e+02
