1.360024793634903972e+03
1.349090589381856944e+03
1.466427389756421690e+03
2.235055091417249059e+03
2.634112060766557079e+03
2.694591990740545043e+03
2.986538647100007438e+03
2.885015395781778352e+03
2.562075168723769821e+03
2.705771645275488481e+03
2.440171159391796664e+03
2.349318936954481160e+03
2.126245277679192895e+03
2.396935029612071503e+03
2.111398358863731119e+03
1.155706893150677615e+03
7.448546074254177256e+02
1.517915439615381956e+03
1.478928578640367277e+03
9.198863707502040370e+02
1.253857807329274465e+03
1.399888045396832695e+03
9.538189160465677787e+02
1.043741219344670071e+03
8.268510444884540220e+02
7.220412058495793417e+02
8.642408006929952080e+02
1.587417005969133697e+03
1.200447402789238140e+03
1.342028915968007368e+03
1.718129079506822109e+03
7.482683195208753659e+02
2.676417187883824909e+02
1.381909849777618092e+03
1.566656061696587130e+03
9.269950860896913127e+02
7.735010301500782361e+02
4.279199904575137907e+02
3.283850213742300070e+02
1.533633366892877063e+02
5.713821562992020375e+01
3.935729044739722440e+02
3.444243486427340599e+02
-4.363201395392414383e+01
-1.846577551949458211e+02
1.783731338258545236e+02
5.183964691706697749e+02
9.103832058296189871e+02
7.401642389731089224e+02
2.445253958169227246e+02
9.786116231100253060e+01
7.994433560090766377e+01
-4.521126478343879285e+01
-1.746521375212178100e+02
-1.474201605169865275e+02
-3.284133947806802780e+02
-4.186145421953140158e+02
-1.070379311659243484e+02
-2.826808513804889458e+02
-2.850615850200207646e+01
3.255515617772186374e+02
5.343470451561027801e+01
-1.548373043517030965e+02
-2.002605952919898584e+02
-1.258096311390794000e+02
-1.945349183697204580e+02
-1.044634171232572868e+02
1.973527108682188498e+02
2.239715465573781046e+02
5.084243025194791699e+02
7.946771956189852517e+02
5.566583138463093974e+02
1.103678353012087427e+02
-1.260954167305532536e+02
-7.427148877191236807e+02
-9.155492760646169472e+02
-1.100537181456327744e+03
-1.136710293721723247e+03
-5.460729443276882193e+02
-9.306479722293330497e+02
-1.031462405426534815e+03
-6.435823562101929838e+02
7.396567908880490450e+01
7.662569986141039635e+02
8.923035446217502340e+02
4.159806740000691434e+02
1.282473482126872568e+02
5.540910499779087104e+02
1.017467287869117740e+03
8.574164289206057674e+02
5.169926065170770926e+02
1.211920684833086028e+02
-1.470519326415470402e+02
-4.687799383068568773e+02
-1.077958021782483911e+03
-2.471610543110308299e+03
-4.912728851926755851e+03
-5.292360913888215691e+03
-1.930563863793335940e+03
-1.052321961833745490e+03
-9.886614504840991913e+02
-8.636686216479187124e+02
-4.872396661207633315e+02
-5.441951532525811785e+01
2.837577866057081337e+02
8.921388676751550975e+02
6.387114422379531788e+02
1.130533974590695834e+03
8.796034042136260496e+02
6.478545646892321201e+02
6.012654374335744478e+02
6.748335742849892540e+02
7.525077659975379447e+02
7.012672618680319374e+02
8.371543821785209047e+02
6.611510337026256821e+02
1.191574028541323003e+02
-2.188434865497812041e+02
-6.082526762906991280e+01
1.791291905729066798e+02
1.919798642773901065e+02
2.667819857796775977e+02
-2.494318129770169890e+02
-4.006758409334195221e+02
-4.296423049119862725e+01
5.576869373837125750e+02
7.632310408675236886e+02
9.436540914603353940e+02
7.359321758605808554e+02
4.539355850900562359e+02
6.396100059093189429e+02
3.290360086872804573e+02
2.362197923391448171e+02
2.561834201308118395e+02
2.778964598006654114e+02
1.264176772905072283e+02
1.286703272714567561e+02
-3.153643599739647243e+02
-2.816950302442647853e+02
-1.453672772558009285e+02
-2.813427900563521575e+02
-5.646523663532119599e+02
-6.783026444950652376e+02
-4.653071511610031621e+02
-1.706763777497950230e+02
3.666133399273313671e+02
6.655313241740893773e+02
1.117057274162478734e+03
9.682520062157078655e+02
9.781264190692592138e+02
1.100720169035456138e+03
5.560182383441810998e+02
7.599737861921020965e+01
3.117451094342695797e+02
2.032421810802954951e+02
4.664158976403545580e+02
5.525695296998019046e+01
-1.732847483981527148e+02
-2.242186585605837763e+02
-8.294893101688867318e+02
-1.790123229986774049e+03
-3.924234447813571478e+03
-3.273548931642851585e+03
-1.300947460707685650e+02
1.304582408516243731e+03
-1.201035699819768752e+03
-1.104919824004904740e+03
-1.685052458014169815e+03
-1.864393709573695787e+03
9.670836363698766718e+02
1.637333106185235238e+03
1.448393183582650408e+03
1.216310880918827252e+03
1.294101870986995209e+03
1.119787489279102829e+03
-6.137084485588011376e+02
-3.363426475952486726e+03
-9.224736354390337283e+02
-1.047849200697646211e+03
-3.687445163832640446e+03
-3.504230429642340368e+03
-4.589057738386524761e+03
-4.635693529500495970e+03
-1.112213771520893488e+03
1.015319339185468380e+03
7.959251870517006182e+02
6.045002197650625249e+02
6.358795017613800837e+02
4.729357823265117418e+02
-7.831015442604061718e+02
-2.166095396786853598e+03
-1.764143995876674126e+03
-8.423342992587902245e+02
1.564681740001705293e+03
1.807106197778454089e+03
1.645699354514776587e+03
1.075297093654770606e+03
-2.119051374018954903e+03
-3.584636209305813281e+02
6.430434408848167323e+02
1.386025141624127173e+02
2.181629256241326118e+02
4.735581508455859421e+02
7.307728505077868704e+02
8.780584739402835339e+02
-2.060559506441038138e+03
-3.513126029013730658e+03
-8.756196435565007050e+02
1.145008214644123882e+03
1.200973644033998880e+03
1.611470723473065391e+03
1.776607443914003625e+03
2.131120812970083989e+03
2.010582721992891038e+03
2.206863930189819712e+03
2.361106082084746504e+03
1.812444637563143488e+03
1.414857805781653951e+03
1.016441997536083477e+03
8.933005944125944779e+02
6.914722145414600618e+02
5.728580547381145607e+02
5.540710818714601373e+02
4.020286203061590982e+02
8.601474030941495812e+02
5.637096650319142555e+02
4.926554283346706029e+02
6.289605450079960747e+02
1.075631206477570686e+03
9.927210094706910013e+02
8.888266192091030007e+02
9.746995699629438832e+02
1.209781535141372160e+03
1.310754264801898671e+03
9.734320591597302155e+02
8.421842397728498781e+02
9.578642664458709532e+02
6.747610826299893461e+02
1.624603188003786158e+02
6.575184886532248640e+01
-1.920965569545355720e+02
-4.421932214332288709e+02
-2.218450465426684843e+02
-4.119340538504712868e+02
2.489123985121653249e+01
6.686180704993151949e+02
1.368114848001938981e+03
1.803203423878999502e+03
1.667315721318494525e+03
1.143577932610830203e+03
9.159184759504170188e+02
1.804837566541714295e+03
2.273238874431751810e+03
2.103198343629679130e+03
1.593905190395809996e+03
1.005454554143228506e+03
5.698897073975547301e+02
4.117280280753988677e+02
7.439761175798792010e+02
8.820496470372321483e+02
3.747768325359078858e+02
2.516958329993601353e+02
2.846090602681439918e+02
1.854426454306927212e+02
5.958343991765582359e+02
9.561200369604414391e+02
1.514939639659917475e+03
1.880265559238614969e+03
1.854855340784914688e+03
1.710393086404556243e+03
1.467263371396256389e+03
1.281161120117903238e+03
9.982706090282284777e+02
1.340818885516059936e+03
1.815386955631156070e+03
1.971677455475829220e+03
2.083032128559064859e+03
1.740492255170206590e+03
1.027434757645421026e+00
-5.171960192813892263e+02
4.848417351289850785e+02
5.710938240393751357e+02
6.265581103470195785e+02
-9.979762573688933571e+02
-6.049666437576704084e+03
-2.408177645052776825e+03
7.777720731409764312e+02
-2.698030840080340568e+03
-5.620692110207249243e+03
-1.401016736212753131e+03
-3.654603094027671432e+03
-7.077618018426225717e+03
-7.110285664136878040e+03
-6.953686923420587846e+03
-4.085147734199640581e+03
-5.199765384425460979e+03
-4.369507677768463623e+02
-2.781213989515443075e+01
-5.809582550304908182e+03
-8.071949609100485759e+03
-8.399667163567224634e+03
-8.297901540005903371e+03
-6.989290309211142812e+03
-1.620624614316342559e+03
-7.135203036322810703e+02
-1.113561476110737431e+03
1.543402025160998164e+03
1.776474524380599405e+03
1.856795794154176065e+03
1.852424083086515338e+03
1.946195502058025795e+03
1.967798157953180635e+03
1.850089353682325964e+03
1.674707760149325168e+03
1.353584451965902190e+03
9.129159453338551202e+02
7.966204612349250738e+02
7.379306581929948834e+02
8.271819025544125452e+02
5.771766929886367734e+02
7.138042781258868672e+02
7.664104499325142115e+02
8.053010836508657349e+02
5.241658825410174813e+02
5.536572224207531008e+02
9.547000358286281880e+02
1.075588828214176829e+03
9.646615204294436126e+02
2.201120349218211061e+02
-8.960278709092669658e+00
1.937578259562097571e+01
-5.002136260152524301e+02
-2.946294544170217478e+02
1.729202569745031894e+02
3.754967668054146088e+02
1.235654711343270719e+03
1.829234248482106523e+03
1.297616991502553901e+03
5.080659651292973535e+02
4.644802829488900215e+02
5.927117934611385408e+02
3.025529865418106397e+02
2.316439273697915269e+02
4.360098466473927488e+02
1.810665518675154146e+02
-5.147280580142958684e+01
1.005859880939331816e+02
1.621639038347234987e+02
-3.888375381120324903e+01
9.245639878855594906e-01
-3.715708434238074460e+02
-4.229941911404944221e+02
4.406122915712311965e+02
7.703930925592426320e+02
4.833366069230170297e+02
1.824330192128525425e+02
-5.402118206003319045e+01
-5.540450970284314280e+02
-4.816833121390496899e+02
2.607293647625738231e+01
4.070186752656014733e+02
1.450056469880111365e+02
-3.561612587625095898e+02
-1.942725605609674631e+02
3.017146932373809136e+02
3.740056756325930110e+02
2.245966329520204567e+02
2.021742767679615156e+02
3.058562607487189098e+02
7.394407670930656877e+02
1.092954723024440909e+03
1.300680985609508070e+03
9.698092232735344851e+02
7.373524235350820391e+02
6.400714531641941676e+02
2.598570683110081632e+02
-2.861923438495294363e+02
-5.781386399664254441e+02
-2.799046334594825680e+02
-1.394267548201335671e+02
-2.294748869264457198e+02
-3.432558101195843960e+02
-1.471158442636651102e+02
6.196521540328193822e+01
1.142255323546349786e+02
-1.043698983769788313e+01
-3.102934166538041154e+02
3.160829418012182046e+01
4.024026376142592767e+02
6.500994934348219658e+02
4.109483934748348020e+02
7.687430895155546295e+02
9.682656125334442550e+02
8.393871168268382235e+02
7.151430783403982332e+02
6.796407230523237786e+02
9.887606561185483542e+02
1.224521514900160355e+03
1.208074135444605417e+03
8.972930795602391072e+02
8.049065042558494270e+02
6.136634698907919301e+02
-7.429555526045460567e+01
-1.002872150841799112e+03
-8.581095509622640520e+02
-7.266998953552445073e+02
-6.706110904985451953e+02
-4.641245368663526847e+02
-2.495657847779482097e+02
1.362940689344742623e+03
2.244322495000431900e+03
2.002691106643827197e+03
2.194252751735104994e+03
1.695941576495026084e+03
9.435468161140753409e+02
6.748759633664019475e+02
-6.331819750336883317e+02
-3.169420010609345809e+03
-2.396822057558396409e+03
-3.069739304985944727e+03
-1.044143096348158906e+03
-2.669220653892477912e+02
4.791446678421076513e+02
3.097452177929949357e+02
3.768306417945025260e+02
5.052086974414174279e+02
7.694021425321990364e+02
6.215127441480235575e+02
1.675924228481873115e+02
9.078250149585968529e+02
2.164196831278431546e+03
2.268510111078601312e+03
1.504793092484351973e+03
5.870938496752720539e+02
-7.911215747197232986e+02
-2.185588011563009786e+03
-4.153154448658000547e+03
-4.523953969986370794e+03
-2.375690896488878479e+03
3.323979647703504270e+02
1.054523182072888176e+03
3.003970007476981664e+03
4.630378046471749258e+03
3.307521847529717434e+03
1.329699051842033555e+02
-5.424194809534858450e+02
1.078126573618612269e+02
-6.460827215000855404e+02
-3.242648203534597087e+03
-1.811253783213415545e+03
1.610952164118175915e+03
2.893059644072658102e+03
4.088126173086623567e+03
5.318358867715332053e+03
4.719995625828832999e+03
3.768608190221430050e+03
4.215125522659544004e+03
4.017511518430197611e+03
2.139755637423117150e+03
-3.170428477682412449e+02
-1.159805922090145714e+03
-2.051446678304106172e+03
-3.057603662034088757e+03
-5.056511072333327320e+03
-7.344621608387061315e+03
-7.464020624929815312e+03
-4.254386865332614434e+03
2.059258977591070106e+03
6.658817561052273049e+03
6.205224069870924723e+03
3.844677794363983139e+03
2.311316039163251844e+03
1.829955501221259738e+03
6.637629557901497037e+02
7.727160301866579175e+02
1.772715715022627592e+03
3.162973098146776010e+03
5.028696584707195143e+03
2.635795369558917628e+03
-2.181854890212673126e+03
-4.040338992371402583e+03
-2.624521715149200645e+03
-3.930272439592213232e+03
-6.414594047041890008e+03
-5.014505615878665594e+03
-3.209064961471823608e+03
-7.160056761633230053e+03
-1.048937359918985021e+04
-1.260818325046316022e+04
-1.190646911154037116e+04
-8.068180775887298296e+03
-5.521217122131433825e+03
-5.680448311633097546e+03
-7.170839389007716818e+03
-4.906392535935739943e+03
-2.510211369951873053e+02
-4.360680800325259042e+03
-1.024046134898115997e+04
-7.944107725622686303e+03
-2.897454035636723347e+03
-1.216587251944946274e+03
2.684363062512147735e+03
4.679527108952766866e+03
1.351973044144190681e+03
4.667974128878416877e+02
2.119139074335504574e+03
2.427048206709284841e+03
-1.244524942368707798e+03
-2.531554121208016113e+03
-2.181868924224481816e+03
-1.353247687759492010e+03
6.894138573735913269e+02
4.171297190845876685e+03
2.415319346210394997e+03
2.602272221230051628e+02
4.055982854556951679e+03
7.647671859092351042e+03
5.551460714599595121e+03
-1.475536475480927265e+02
-8.128292669299972658e+03
-9.344726511641794787e+03
-6.125900853428476694e+03
-6.587691668959424533e+03
-7.933082234266824344e+03
1.845984471098545100e+03
9.941541729424168807e+03
1.223157280768605415e+04
1.033624118467887274e+04
9.897045761456558466e+03
1.336588869035370953e+04
1.336562442035075219e+04
8.377273507964115197e+03
6.440765517388872468e+03
5.687093951746764105e+03
4.251415218831522907e+03
4.232935629523035459e+03
5.170571009809860698e+03
5.421156964924904969e+03
5.880689324221515562e+03
3.714403008071594741e+03
-6.062765277375241340e+02
-2.524963566276424444e+03
-3.223168717695768350e+02
-3.153231240973639160e+02
-3.582373315760842161e+03
-4.709450425266584716e+03
1.595004948867346229e+03
6.383455739469854052e+03
8.217953431556969008e+03
9.784316068537815227e+03
6.622563960676050556e+03
1.153550021339620798e+03
2.454640298600601909e+03
2.414355623045247739e+03
-7.592040964597539414e+02
-9.078210692395848582e+02
1.834185129672632911e+03
2.899138477774175954e+03
-4.814957418608963962e+03
-1.204216901281315768e+04
-1.601861941275236495e+04
-1.611430652988495240e+04
-1.496023160230065332e+04
-1.206973042339584754e+04
-6.549852856670590882e+03
9.614861415853097242e+02
7.931293644587681229e+03
1.225448592544482017e+04
1.522906953591175079e+04
1.353720223258602527e+04
1.049981503179759420e+04
8.565817756722573904e+03
4.961276629597069586e+03
3.499187434683413812e+03
5.414510195888028647e+03
4.546182440336575382e+03
1.465198625371768003e+03
2.231558946375732376e+03
7.118160304846568579e+03
8.620935110456941402e+03
5.273884702725966235e+03
-9.679919564016140612e+02
-4.950781400498786752e+03
-5.636433816116836169e+03
-4.853060935458666791e+03
-3.296633089576846032e+03
-2.729091199098019388e+03
-8.086497546509786844e+03
-1.383193033553140776e+04
-1.030248007483971742e+04
-5.270165425364651128e+03
-5.078983575677923000e+03
-8.867056591484271848e+03
-8.489402907172501727e+03
-4.068986105359278554e+03
2.101760407193211506e+02
3.277969150315366733e+03
3.196287406253838981e+03
-3.473737119848884049e+03
-1.222217160371511090e+04
-1.720413898904538291e+04
-1.355266822793797292e+04
-7.143855663050064322e+03
-7.326933925724509891e+02
4.886818850982916047e+03
4.211709781952628873e+03
4.579474747207041219e+02
2.974876729520357799e+02
-2.094740425335966393e+03
-5.202852283757286386e+03
-7.810761054833395974e+03
-6.915459810887562526e+03
-3.884020820630952130e+03
-1.289543798793387168e+03
1.292922630075752295e+03
4.959276658792099624e+03
6.737451796974786703e+03
6.743491723868321969e+03
4.204393702865407249e+03
2.946209126246525102e+03
2.733860298901878650e+03
4.594287316213766644e+03
6.865514370074587532e+03
5.342528996176434703e+03
5.243299987164001323e+03
2.164789432742351892e+03
-1.585111579919326914e+03
-2.048411735940661401e+03
-1.811355437633633869e+02
1.980769866442883767e+03
1.463248514395123948e+03
-1.587044133775277714e+02
-5.210554488126210799e+02
-1.977824395383616320e+03
-2.480000732129398784e+03
-2.752678232833598486e+03
8.400985129294278977e+02
3.348307959226372532e+03
2.219031833641066441e+03
1.031300309698092406e+03
3.375044174277331422e+03
4.836246995278242139e+03
2.963948425305827186e+03
7.441650824227673411e+02
-3.361614995206848562e+02
-9.840393316685036780e+02
2.435502676683026493e+03
4.337475437617677017e+03
3.891905710778783941e+03
2.094961484641597508e+03
2.396193397091415420e+02
4.487201080456711111e+02
-3.357537927750948370e+02
-8.168334591677332810e+02
1.154525871894686816e+03
2.630349325422372203e+03
1.571657604490137146e+03
-2.701530092169926775e+03
-5.150235367760383269e+03
-6.406380303652232215e+03
-7.769932798251013082e+03
-5.000099368276716632e+03
-8.273653859169843372e+01
3.026559475049926732e+03
2.171594080156114615e+03
-1.157751946653999369e+02
-2.637536462728744482e+03
-3.916621825727851501e+03
-1.339978035189828461e+03
1.005354079087206856e+03
1.839481425896600967e+03
1.034446497812822145e+03
-1.604892874734668567e+03
-1.842612662053096756e+03
-2.946063126126555289e+03
-5.812320203679144470e+03
-4.900544722143114086e+03
-2.571955063879416684e+03
-1.954698718224912568e+02
1.710887449269044964e+03
3.434142156819937554e+03
4.005306058150584704e+03
2.371425931439327087e+03
5.765092878155768403e+02
-1.158401240238527180e+03
-7.624681662844842833e+01
2.199929872596445421e+03
2.671064359060881998e+03
2.351218067774106203e+03
1.525529988189412052e+03
-8.049541259644742013e+02
-1.832201419211030498e+03
-3.590202121840720793e+03
-4.326838865835428805e+03
-1.866169975100794773e+03
-4.983703098164272092e+02
-5.142569770722215253e+03
-7.160639334623406285e+03
-2.211633794802572993e+03
1.399454722649654514e+03
4.807735649906786648e+02
-2.554484880830238126e+03
-7.154283433240641443e+02
5.329898313902936025e+03
7.583628629183012890e+03
6.334904063473203678e+03
5.177440347751801710e+03
3.309077318508527696e+03
1.622877371403530105e+03
2.224830853810365170e+03
3.236955642017137961e+03
3.996366961678113057e+03
3.746135782275837755e+03
1.450159659880391246e+03
-9.124813732933957908e+02
-2.135632030114096324e+03
-2.401263780863930606e+03
-1.463525968162599156e+03
1.180633584155129029e+03
2.255231593170620727e+03
1.883396743869589272e+03
1.262079002152904650e+02
5.865644630747040082e+02
1.266124426919440566e+03
3.615347418178369594e+02
-1.644178885139610429e+03
-2.024647530896257877e+03
-3.457057491493039834e+02
-1.125444922455347751e+03
-8.299419169272850922e+02
-1.059245102112634868e+03
-3.289427436931087414e+03
-3.210628701664179971e+03
-5.597184820398796319e+02
1.193315360260673287e+03
1.314864932914931615e+03
-4.038043614608268967e+02
-3.679302867097774197e+02
2.662573006206373520e+02
7.329911685574652438e+02
7.673480289821674205e+02
-1.639519298060693586e+02
6.629566471535067649e+02
2.672553441829549683e+03
2.406775256968271606e+03
1.888573106559153530e+03
1.190954859734718411e+03
5.473240283709135383e+02
1.087350364829324690e+03
1.869442253004801387e+03
1.637854270290322802e+03
1.484240648136088794e+03
1.565316302171442203e+03
-6.762522750114036398e+02
-6.882239153224932124e+02
1.481742862952567293e+03
1.745301618378774265e+03
1.115823982610518073e+02
-5.264940868635445668e+02
-9.387467064017946541e+02
-1.052318176172159156e+03
-6.406655875323771170e+02
-7.955671224733379177e+02
-2.399643775539741000e+03
-3.619740055837333330e+03
-3.884425606467541002e+03
-2.560496933443720081e+03
-6.966683531357396078e+02
3.274635067458475078e+03
6.390001202111345265e+03
6.104690521516248737e+03
4.937765925618159599e+03
3.699769957527871611e+03
2.913613731729646133e+03
2.835671107615076380e+03
3.236249000857349984e+03
3.220647990384987224e+03
2.345410063761677975e+03
2.289127795606995733e+03
2.025035142536692547e+03
1.640231844705572485e+03
4.317293371202399044e+02
-2.356542251390449110e+03
-4.549264346189103890e+03
-8.131027005619517922e+02
1.669895408339189999e+03
2.761397910985414455e+03
4.072612494919443634e+03
3.796979687783966710e+03
2.671319706778725958e+03
2.313543808831595470e+03
2.347721833738135501e+03
1.606785182229957400e+03
-5.553688006896594516e+02
-4.915686903182619972e+03
-7.736246934040917040e+03
-7.880816987071971198e+03
-7.877191197059319165e+03
-8.340464170250896132e+03
-8.732935861956766530e+03
-8.433545528645310696e+03
-8.573939536241789028e+03
-7.259244048531317276e+03
-6.222030113357789560e+03
-6.650310330330034958e+03
-6.805915022945101555e+03
-6.716828383604630289e+03
-5.411647113247142443e+03
-2.796085038780006471e+03
6.983919394380338872e+02
2.392905284916957953e+03
-2.012442877887009445e+02
-5.531266622646875476e+03
-5.871452598692978427e+03
-5.797668609657144771e+03
-5.046114914693115679e+03
-1.336688709330926201e+02
2.207544621913768879e+03
3.935259368420545798e+03
5.235430057602355191e+03
4.011909672577087349e+03
3.730383613941862677e+03
3.581600826787803271e+03
2.491474828316304411e+03
1.332125299789386190e+03
2.228629288609873583e+03
2.537406471441725444e+03
1.656647694640715144e+03
1.549411922823389432e+03
1.971954775276156397e+03
2.329113404222533973e+03
2.423667557618320643e+03
2.447837134177491862e+03
3.328907109887544266e+03
3.320649896305332732e+03
2.758695247287233087e+03
2.103269425398756539e+03
2.027818465906970232e+03
1.627695486358267772e+03
2.095860809677408270e+03
1.291172884257729265e+03
3.335914710958217597e+02
9.279998766625998314e+02
1.584520846335248052e+03
1.128788417556915192e+03
5.418729325721627674e+02
4.660986372085454832e+02
7.703591746973792169e+02
8.480213867879164127e+02
1.161450256869466102e+03
1.395397155548672117e+03
1.518534695550719107e+03
1.304834608662078153e+03
2.572657067495849219e+02
9.259826327053535806e+02
1.591645555206420113e+03
1.571876301751290839e+03
1.173606904116919623e+03
-2.354908050440663203e+02
-9.508848965708554033e+02
-1.387947703830311639e+03
-1.299738623115110158e+03
-8.497926851872879297e+02
-8.908395637592391267e+02
-1.139357870600124670e+03
-1.455750335354454592e+03
-4.867220447598650708e+02
6.998104609333277040e+02
1.596714459863547290e+03
1.806053864714332349e+03
1.460463184925664564e+03
6.018302577569677396e+02
-4.259959036844840057e+02
-6.649082329211789784e+02
-1.292800018157592149e+03
-1.309450339338154436e+03
-1.348889817202485801e+03
-1.396164957052114914e+03
-1.111452281626968215e+03
-8.157760109075304626e+02
-4.068256913397636936e+02
7.631054649086286190e+01
-1.050336947820377702e+02
-1.217105086921896060e+02
-2.889431481961772761e+02
-8.190678685423962690e+01
-3.476443212797292404e+02
-4.099281624827145265e+02
-1.596447492721256651e+02
-2.379084998732874396e+02
1.894196333110171793e+02
2.333107665085968563e+02
-3.092501611279842564e+02
-1.442682034346565842e+03
-1.641019780756838372e+03
-9.729658532492354652e+02
-9.554940511944507762e+02
-1.240885771190833793e+03
-1.183125908509173087e+03
-1.085955697373913836e+03
-1.052350586417187287e+03
-9.763834238512544061e+02
-1.364023856324024109e+03
-2.300656412220532275e+03
-2.474262269275588551e+03
-3.786819045747965902e+02
1.568241871348004452e+03
1.642571623412879035e+03
1.471116263189148185e+03
1.122924763876178758e+03
1.208962222417025487e+03
1.298033813839814684e+03
1.180157495373021902e+03
1.337512687846147173e+03
8.903285145233610365e+02
5.664668720214442601e+02
-1.031765289768542289e+02
-3.133574611800747334e+03
-5.179110379977756565e+03
-2.188070496339460988e+03
-1.216404902982970270e+03
-2.247935155933740134e+03
-1.804560155861256817e+03
-9.742724220599600358e+02
-5.991593954835641398e+02
-5.286014416763392774e+02
-3.626706515642898587e+00
5.197910724158384710e+02
-8.082594577793951203e+02
-5.423580253343832737e+03
-4.152503287228002591e+03
-3.909044818634555440e+02
1.913171936725225351e+02
7.468321863928377979e+02
1.375443494303925490e+03
1.750054527553638536e+03
1.348615609790724875e+03
9.569924763742294544e+02
9.382630050985769685e+02
9.406151171052450763e+02
8.180159461723548020e+02
7.884279786845304443e+02
1.244593234329143797e+03
1.492342347941362050e+03
1.312748964368671295e+03
1.747852857109471643e+03
2.283659497709717925e+03
2.331275959356628846e+03
1.856591541094796412e+03
1.580675758802205564e+03
1.636431119931777630e+03
2.098530817483572264e+03
1.964981117265753483e+03
1.731276861393756690e+03
2.226234775153458486e+03
2.948222037533278581e+03
2.511209803500300040e+03
1.779507425199056343e+03
1.353256714407477602e+03
1.502057686910427037e+03
1.897484854062136264e+03
1.753660714591852638e+03
1.720852150403251471e+03
2.246061844050068885e+03
2.006338869184961140e+03
1.723689442425155676e+03
1.924937333488567674e+03
1.783022799313782571e+03
1.919917660553170663e+03
2.045662974177963406e+03
2.636411330560848000e+03
3.421210787985373827e+03
3.536988204338444120e+03
2.859676801362550577e+03
2.475148195514270810e+03
1.863234218815422537e+03
1.452988979538072272e+03
1.210506994340072424e+03
1.675903556005586324e+03
1.678018290242161129e+03
1.620795686211661632e+03
1.725390172298775497e+03
2.226902075069669536e+03
2.808193719567501375e+03
2.703120720567563239e+03
2.486859602554436151e+03
6.154004541120879139e+02
-1.427263865244700810e+03
-4.804000580575458116e+03
-6.318958288985368199e+03
-6.942312778242360764e+03
-6.805041925794994313e+03
-6.428135657123143574e+03
-6.862465207955191545e+03
-6.897643794310406520e+03
-6.371003534284270245e+03
-6.215634430630500901e+03
-5.552637968450637345e+03
-5.420695797168629724e+03
-4.784742369900927770e+03
-4.931101028806636350e+03
-4.889591787202722116e+03
-1.257121897346835794e+03
-5.986835736008367803e+02
-4.710278465271117966e+03
-6.373963874903371106e+03
-6.161743034068506859e+03
-6.157478744078051022e+03
-6.170149608108808025e+03
-5.945758612122817794e+03
-5.228056790403235027e+03
-4.717168845622922163e+03
-4.440256391730872565e+03
-4.576144132186788738e+03
-2.107705910448004943e+03
2.906047425962037778e+03
1.417200616082746592e+03
-4.702192553360038801e+03
-5.965209914730055971e+03
-2.874757835776424145e+03
-1.247636257182308555e+03
-5.159791891602893884e+03
-5.099296396247650591e+03
3.496930706028998088e+02
3.423119355849867588e+03
4.254770316461995208e+03
3.837697811648353763e+03
3.578162267558263920e+03
3.974326523923229615e+03
4.441251147248271081e+03
4.610970493207937579e+03
4.391464602911281872e+03
4.229736950377447101e+03
4.050873044267719251e+03
3.624972182790631905e+03
3.115999666537320081e+03
3.021992100656326784e+03
2.718001988374039229e+03
2.355147886171248501e+03
1.698626051775324868e+03
1.190493381465903894e+03
1.291270586871145724e+03
1.591021267125081977e+03
1.680865123980142471e+03
1.892760099489727963e+03
2.053867082598723755e+03
1.992311049011525256e+03
1.909072585187205959e+03
2.268166255124697273e+03
2.515677655326953754e+03
3.054765682666461089e+03
2.973719907930284080e+03
3.020556053888340557e+03
2.661137903117810765e+03
2.616421531263531051e+03
2.911382902180168003e+03
1.982978424620716623e+03
1.701184372991208420e+03
1.216945739485043759e+03
1.414427187701410958e+03
1.310763983979422164e+03
1.119085362697596111e+03
1.095375503964470909e+03
1.105581548266139862e+03
1.145585015606149682e+03
1.233286243949716436e+03
1.553747068384792783e+03
2.076138613652400636e+03
2.379312794832367217e+03
1.929277911350991872e+03
1.673106983092792689e+03
1.747915518700771827e+03
1.669635677890927127e+03
1.520949192292232510e+03
1.019234161333826137e+03
1.071099055721551395e+03
1.332465146884189153e+03
1.041468834379175860e+03
8.800415645972155971e+02
5.521693991725992419e+02
7.593818000614636787e+01
-3.986405839916622540e+02
-5.747094816015942342e+02
-8.512358915144944831e+02
-4.221375401731018542e+02
5.695118632214795298e+02
5.776794254270430429e+02
7.173023176235589062e+02
5.254157107502653616e+02
7.580158760177522481e+02
1.190083796435369550e+03
1.284623530465568592e+03
1.206644409626986544e+03
1.197191935507066773e+03
9.901821878835155530e+02
5.845910788442726016e+02
4.793597755179636692e+02
8.935725462404054724e+02
3.862123448965645593e+02
1.471864969629215807e+02
1.095479476267749533e+03
6.990858237550156673e+02
1.499047845718555649e+01
6.115212270537616490e+01
2.225720229151657179e+02
1.562593156391000093e+02
1.361582593822627132e+02
1.192274300690822741e+02
2.854575433183316591e+02
-8.241145570784321990e+02
-3.772453428488324334e+03
-7.087726226985486392e+03
-7.539893715081107985e+03
-7.417940622362557406e+03
-2.849903699536147542e+03
4.312697927154008539e+02
6.835176965882383229e+02
5.478810638700279014e+02
2.232326829196110225e+02
-9.505550001788391228e+02
-6.549447181913694294e+03
-8.495280904347659089e+03
-8.846074852804702459e+03
-8.846011671256150294e+03
-7.485174199647146452e+03
-2.122583800354933373e+03
-5.802054095391506507e+02
1.640233905131111669e+02
7.161451216820356649e+02
1.287184501469547513e+03
1.456111678566385081e+03
1.260988332388177696e+03
1.108697915746986610e+03
8.861977595421388969e+02
3.184867146066908958e+02
2.052295353452263527e+01
-3.256772532036468988e+02
-9.711348947252957942e+02
-1.045823861240704673e+03
-9.837039150262851308e+02
-1.237822975647877229e+03
-1.412230325154517686e+03
-1.460954332352426945e+03
-1.119943687953738618e+03
-6.961974671244605588e+02
-7.607170965549117909e+02
-3.634979047930368097e+02
5.224081237025935707e+02
1.631026519266632931e+03
1.886438197680794246e+03
1.439731798263171186e+03
1.343819601688699322e+03
1.268643381542170800e+03
1.353283133316384465e+03
1.365744560686207706e+03
1.440006295092475966e+03
1.035077447371970493e+03
4.299715110705773213e+02
5.456549386656383831e+02
3.481727776365543150e+02
-3.294443407622007953e+02
-1.094261191302038014e+03
-1.407413751602376351e+03
-1.227909387792276675e+03
-1.379636906412830740e+03
-1.744549622529083081e+03
-2.219582649127005880e+03
-2.294757160130375269e+03
-1.787058291238915899e+03
-9.243979198361969338e+02
-4.877482205320699791e+02
-4.040732800387981456e+02
-5.073995365869359375e+02
-2.097634150750329809e+02
5.904586808023966427e+01
3.849847973208833878e+02
1.251110211097799947e+03
1.355786252722722793e+03
1.432786073854765846e+03
1.241945299465301105e+03
1.180224421280063780e+03
7.506911484836391537e+02
8.963540945352964400e+02
8.491633632922905690e+02
8.481370264748746877e+02
1.790515999092525135e+03
1.103618148232739031e+03
1.529048057441916853e+03
1.647549487260053638e+03
1.699373637355737401e+03
1.700510597990253018e+03
1.754962417937505279e+03
1.895768043518874038e+03
1.110014989303556149e+03
9.207299024297284404e+02
1.408908588026087955e+03
1.514557662046993528e+03
1.304725540716175601e+03
1.037402681287283031e+03
7.365438041586832014e+02
