-1.281988702310378130e+03
-1.341165033633060602e+03
-1.131451433105961996e+03
-4.639025126742802740e+02
3.045142431563944001e+02
8.408335052737650130e+02
1.268039638684647343e+03
1.641316762013264224e+03
2.369761992406343325e+03
3.018364850360541368e+03
3.085292166386772806e+03
2.497614924152756885e+03
2.087378531041899350e+03
1.788550795721104578e+03
1.028898392533717015e+03
4.782611823768909289e+02
9.863691834103049416e+01
-3.279923613319645597e+02
-8.196028370515460892e+02
-1.514080234693719376e+03
-1.993389340903689572e+03
-1.947679170771988083e+03
-1.745001222105056968e+03
-1.458214446283561301e+03
-2.851030449879644380e+02
4.104802699831135442e+02
1.218742900698314315e+03
1.843553579219784979e+03
2.368725585706592483e+03
2.501561284067792258e+03
2.151907386949777901e+03
1.741674267859565816e+03
8.368195060163893686e+02
1.119261061299349421e+03
9.780041031748144178e+02
5.991455196860504202e+02
-8.438763045786051009e+01
-4.076772672153976487e+02
-1.021672344375446642e+03
-1.771282737382380901e+03
-1.991508154490729794e+03
-1.800375011005041188e+03
-1.376833198718679569e+03
-7.859946243624245881e+02
-2.548012182286978202e+02
2.385084063849972225e+01
7.600822153516315893e+02
1.111850773839351632e+03
1.661072123957478652e+03
2.097638379618695581e+03
1.988497443318990918e+03
1.869606347090817280e+03
1.480032172838392398e+03
1.065943180217838972e+03
9.673195629341332733e+02
5.190207856741720889e+02
-3.390459260363929843e+02
-8.528039778587548199e+02
-1.550255040496676202e+03
-1.798497207367182682e+03
-1.865566041408308820e+03
-1.881434587582987888e+03
-1.700999130795433075e+03
-1.113332332086275983e+03
-4.905144045745826133e+02
-1.165564915565923769e+02
5.305797205866282411e+02
8.959228879331104736e+02
1.215517235037375713e+03
1.636339204106149054e+03
1.444330931247442095e+03
1.326488178142786410e+03
1.219827213541866740e+03
9.723793936608615240e+02
7.811785588996509659e+02
9.421380486736970283e+01
-4.845618291181258428e+02
-9.961627953719757897e+02
-1.683665914601052918e+03
-2.109132135399303934e+03
-2.125593606907960293e+03
-2.105947413434134432e+03
-2.002110466097812150e+03
-1.726934630372765469e+03
-1.203484576225062028e+03
-4.260114639540675512e+02
2.974685295432566363e+02
8.750209917331151246e+02
1.562758022320949522e+03
2.013708863956425603e+03
1.981828411908683620e+03
1.992072647066581339e+03
1.662386974659933230e+03
1.325833470629477461e+03
8.993720527090855512e+02
-2.493165135307126690e+01
-6.579651469234926253e+02
-1.131552350977036895e+03
-1.486887773964922189e+03
-1.932336299942126288e+03
-1.919819355307193973e+03
-1.497049954262691472e+03
-1.497259705573349493e+03
-1.495060195844733926e+03
-1.033608543239641676e+03
-6.589569742512890116e+02
8.750382306709992619e+00
5.618807542258253989e+02
1.095370301266118986e+03
1.581066704188923268e+03
1.776918317412114448e+03
1.734907650324783845e+03
1.150210414457476872e+03
8.309804150459322045e+02
2.362091470302873972e+02
-1.031730516550954349e+02
-1.753077767212911340e+02
-6.603566165267912993e+02
-1.537979977940146455e+03
-2.131445659318397702e+03
-2.088509543036753712e+03
-2.094330536978445252e+03
-1.917695213709076597e+03
-1.633640932305620709e+03
-1.166324548466669739e+03
-3.156997445403845859e+02
4.932639999882250663e+02
9.765526231400401684e+02
1.439359213723043695e+03
1.784653364284739382e+03
2.071535801219900350e+03
2.009939879873023983e+03
1.844862746873851393e+03
1.608291040583889753e+03
1.199189969378376645e+03
7.445566051329460606e+02
2.073361013216596689e+02
-2.545245049758773064e+02
-9.209738273143086644e+02
-1.580996187894994364e+03
-2.294716137676018207e+03
-2.166053421689848619e+03
-1.475886612293004418e+03
-1.285219689781182751e+03
-5.450125826398439131e+02
1.567246597363877640e+02
1.120041423810631159e+03
1.202042305899213488e+03
1.661814248068516235e+03
2.197486181907940136e+03
2.710062622830464534e+03
2.693562529091846955e+03
1.947957992876894878e+03
1.570333036077405040e+03
1.105764645168879269e+03
5.451439754496816477e+02
-7.168327796619452386e+01
-7.818184662195558303e+02
-9.293532288407745909e+02
-2.018512371036590821e+03
-4.855273200840240861e+03
-5.300267295912068221e+03
-4.472920858362867875e+03
-1.590254406481341903e+03
-2.603123948950444060e+02
-1.620552857220205851e+02
-1.549514646701517449e+03
7.233631861821953635e+02
-6.936327829383044730e+01
1.989286308615816324e+03
2.583377275562618252e+02
3.697937932068033433e+02
1.289718072205785120e+03
1.825111757940601365e+03
-6.450152874528695293e+02
-2.055749021776654445e+03
-1.611132995838678198e+03
3.077687431111298224e+02
-1.167215372668300915e+03
-4.240235175599439572e+03
-1.437307377017887120e+03
-1.493457001137106772e+03
-3.280722387069481556e+03
-9.453175586436049116e+02
4.357286884136618710e+02
1.093393655536166989e+03
1.986703450502858459e+03
2.597630929200836363e+03
2.959180607241738926e+03
3.346285162655139629e+03
3.678901853362153815e+03
3.733969179646485372e+03
4.097437233289093456e+03
3.832290246229834338e+03
3.156401295732123799e+03
2.709650428166110487e+03
2.085975687236114027e+03
1.520365968645606699e+03
1.141747124476166618e+03
1.225063081999862561e+03
1.300171776483766507e+03
1.247987144369909402e+03
7.324268546291608573e+02
9.554483839980596258e+02
1.317005522822540115e+03
1.711082209599421731e+03
2.277660283428425373e+03
2.707718209408575603e+03
3.195248717626669077e+03
3.279272523820308834e+03
3.476799092470164851e+03
3.317774404660581695e+03
3.088133621379204214e+03
3.169900344467741888e+03
3.480977882052485711e+03
3.360273089462523330e+03
2.643854203997244440e+03
1.726990401895846844e+03
1.046919007703629404e+03
5.075920242978469901e+02
1.032792516188624887e+02
-2.769876374291538355e+02
-4.300619162996668479e+02
1.031444678063889029e+02
3.596061563346772232e+02
6.522975163828123186e+02
1.244305551577002461e+03
2.303731366192440873e+03
3.083605404475130854e+03
3.357921648598463435e+03
3.915705654477365897e+03
3.719193511867793859e+03
3.234305006867905831e+03
3.196558648035045735e+03
3.056165422183149531e+03
2.557174776860496877e+03
1.961459392248176073e+03
1.232982777779711569e+03
2.797861642960046993e+02
-1.080174856917685020e+03
-1.978972013559041443e+03
-2.092604944079403595e+03
-2.107978295014520427e+03
-6.251039063329117198e+02
1.091068756708696355e+03
1.065651883315487567e+03
-1.873055154021757005e+02
-1.390736379892477544e+03
-1.791489219322975487e+03
-1.003514638431808635e+03
2.535920737598263131e+01
-9.272333369781641466e+01
-5.826833516463741489e+02
-5.734901081191161438e+02
-2.211221016457098756e+02
-5.874358655456345559e+02
-2.204203699115120344e+03
-2.949387997884457036e+03
-2.905041137950212942e+03
-3.640096958057761185e+03
-4.831416812441912043e+03
-6.401021339491114304e+03
-8.042050014456812278e+03
-8.521242904134951459e+03
-8.483330159055240074e+03
-8.426318267188999016e+03
-7.128157984275535455e+03
-4.413660056311113294e+03
-9.345711428118793265e+02
2.713347384480725395e+03
3.999290077200890209e+03
2.877214625467336191e+03
1.267175765868113331e+03
-5.438642964333865848e+02
-2.427819827560495014e+03
-2.730347625496069668e+03
-2.579256843413755178e+03
-4.036491782171937757e+03
-7.297019361648759514e+03
-9.875882263502899150e+03
-1.074893854707064384e+04
-1.127779816720525196e+04
-1.092433908026603604e+04
-9.501856363522034371e+03
-7.415263404421372798e+03
-3.168301404861262654e+03
-8.438161943970798120e+02
2.829078457249351004e+02
4.612647777755897778e+02
-8.595729292290009482e+01
-6.165298223510852722e+02
-4.271875141767544051e+02
-1.023001865743717872e+03
-2.840135656208796718e+03
-4.334217320579135048e+03
-4.590572317414642384e+03
-4.532956866317919776e+03
-4.628142972290330363e+03
-4.089649383800753640e+03
-4.765430334437009151e+03
-5.171502152696189114e+03
-4.165337044913854697e+03
-1.883352270835814124e+03
4.097196801429908533e+02
2.490458630660869858e+03
3.374555741979380400e+03
3.088960915147465585e+03
1.859208936039583477e+03
1.462643097848439993e+03
2.877146730409908287e+03
4.420041338896422531e+03
4.631617670952322442e+03
3.804391461930011701e+03
3.547663276109593426e+03
3.500132951079641316e+03
2.965469028934909147e+03
2.627259747671624154e+03
2.096859345515365931e+03
3.114498497472301096e+03
3.794769190230951608e+03
3.893476772006290958e+03
3.590618992871318369e+03
3.592962190132694559e+03
4.154238138008328860e+03
4.891472197939478974e+03
5.595086652365291229e+03
5.794462940520143093e+03
5.571441025499836542e+03
5.229528119219635300e+03
4.897258668997323184e+03
4.975250118143049804e+03
5.647661140414379588e+03
5.832030445258081272e+03
5.460402970667186310e+03
4.660155399225822293e+03
3.047279986295243361e+03
1.111107407078818596e+03
4.510334314418979034e+02
1.042793787719339434e+03
3.639998244830054773e+03
5.956116673243002879e+03
5.175294771858503736e+03
4.413255772417358457e+03
4.359190178394595023e+03
4.914501746014397213e+03
6.319495528937222844e+03
7.285962069257368057e+03
7.655363496098630094e+03
6.902768914053058324e+03
6.512303812054765331e+03
5.571931788732002133e+03
5.063788056864547798e+03
5.216060316516561215e+03
5.992576700273272763e+03
5.640814522622617915e+03
3.177884708837672861e+03
1.118871448203849013e+03
1.154115718828607442e+03
9.185334864631365690e+02
8.270767812772096477e+02
8.737315000372650502e+02
8.794507920516940658e+02
1.040606389836047128e+03
2.225439063535279274e+03
2.924433155014774457e+03
2.594435691468519508e+03
1.135421453864071054e+03
5.903783113670813236e+02
1.158832343457038178e+03
3.824312529661259759e+03
5.262320505365485587e+03
5.353864216924273023e+03
3.744901098098972398e+03
1.690529613482760396e+03
1.640595853417639091e+03
1.191484982167733278e+03
6.040286995057766717e+02
-6.685325175147748666e+01
-2.574991372823546953e+02
-4.455123798898020482e+02
-1.489703094092746369e+03
-2.300964275195844039e+03
-2.839483475735644333e+03
-3.689690984271216166e+03
-3.715705795867498182e+03
-4.213183855061714894e+03
-2.605229462535171933e+03
-6.339539651837243355e+02
6.372587443416438191e+02
1.012651829207156766e+03
1.005723898838185960e+03
1.184153044807121660e+03
1.799903723300638205e+02
-1.581450395179644829e+03
-2.717606772705209096e+03
-3.731773757089844821e+03
-6.129520900950322357e+03
-8.334860939764066643e+03
-9.532029315901423615e+03
-1.120454857804381572e+04
-1.249274789467430855e+04
-1.380895004546120981e+04
-1.552665137645399773e+04
-1.669233899106418903e+04
-1.748317145291532506e+04
-1.704697326607802097e+04
-1.645762920682743425e+04
-1.558550198797401026e+04
-1.521784848569622955e+04
-1.357050412004784266e+04
-9.740037427045072036e+03
-6.820339787557371892e+03
-4.900581444913718769e+03
-3.540525341784368720e+03
-2.787909523811935287e+03
-4.216559135425322893e+03
-6.601921381289675082e+03
-5.101581038953086136e+03
-5.031564092996288309e+03
-5.516764991128005022e+03
-6.653332474429444119e+03
-7.603326197180147574e+03
-8.779557758944218222e+03
-9.715341157032791671e+03
-1.058709019083430758e+04
-1.115970670687818711e+04
-1.150828689934408976e+04
-1.150308476521442572e+04
-1.113109053319046143e+04
-1.030756496089465145e+04
-8.649219667347999348e+03
-7.076916435261753577e+03
-5.672143039898514871e+03
-3.906986955109256087e+03
-2.968426677815776202e+03
-2.900381057461004275e+03
-2.545572266625501015e+03
-1.957706993216661431e+03
-1.064573824832867786e+03
-1.326909308296746531e+03
-1.695876252263447213e+03
-1.904259884198683721e+03
-1.677085437307539678e+03
-1.065943915771665161e+03
-3.075396452900623245e+01
1.027713257206604794e+03
2.196731518049271926e+03
3.056225258700118502e+03
3.740177813912794136e+03
5.145426021834376115e+03
6.009270970987045985e+03
6.243084668317787873e+03
6.057079744149168619e+03
6.799971589033979399e+03
7.321506309173993031e+03
8.058655072590068812e+03
8.604402893293434317e+03
8.729961785110999699e+03
8.457178574192226733e+03
7.945949819706648668e+03
7.593533566160632290e+03
7.349423601301892631e+03
6.893509871101482531e+03
6.382063586251295419e+03
6.537169952183300666e+03
6.901699869300102364e+03
7.609424251557352363e+03
8.251320167865867916e+03
8.141302921548484846e+03
7.939284997813953851e+03
7.446082067321774048e+03
5.798611524782255401e+03
4.075293064622828297e+03
4.342940876174752702e+03
7.542197706779175860e+03
1.116914163753934918e+04
7.980691280630426263e+03
4.431345319342234689e+03
2.846021602311278912e+03
2.201778052983894668e+03
1.479763908087554000e+03
4.800358478521764596e+02
-3.945274701192870452e+02
-4.235207160567307483e+02
-2.890414360419428590e+02
-2.958091270510648201e+02
1.526643262355580930e+02
3.795034859111615788e+03
8.459465727186867298e+03
8.561030076769138759e+03
1.051849448647165809e+04
1.302972243733248433e+04
1.412968643245776730e+04
1.473927786527936405e+04
1.553857650332926096e+04
1.571448676194446125e+04
1.516781601927438169e+04
1.430741753354809771e+04
1.381443455828586775e+04
1.281163988639351919e+04
1.183124446346870718e+04
1.119091088363306153e+04
1.005286251963993345e+04
8.973370281846389844e+03
8.264253426268885960e+03
6.996072075000391123e+03
6.891312054960074420e+03
7.452072857740250583e+03
7.651585835566376772e+03
7.314639123040592494e+03
6.422054440965949652e+03
5.485654748762289273e+03
6.565954339664515828e+03
7.757759550040271279e+03
7.369044892901017192e+03
6.949417053012217366e+03
7.864064002728251580e+03
7.807958527532760854e+03
4.286598666410312035e+03
2.204831372262241075e+03
2.147477299906382086e+03
1.127422749604217415e+03
-8.115004601249388543e+02
-2.586403355877504964e+03
-3.495446618639035478e+03
-2.618006227824397229e+03
-9.038650769450900668e+01
3.823605812390513847e+02
3.553087502793200656e+02
-1.679469801306569934e+03
-4.745846301144500103e+03
-5.392633640640866361e+03
-5.336934565178558842e+03
-5.871170455159615813e+03
-7.029212432611509939e+03
-1.044160356383110047e+04
-1.411735151387050610e+04
-1.339578477438946720e+04
-1.240403222532029758e+04
-1.660013526290316076e+04
-2.227024072225748387e+04
-2.727831783396341052e+04
-3.340141629048165487e+04
-3.289840026335596485e+04
-2.806743267671812282e+04
-2.707865985686932981e+04
-2.246100172786363692e+04
-1.421740194931251244e+04
-6.007782878260635698e+03
7.632442061975639263e+02
-3.695676564018736485e+02
-8.021112295787323092e+03
-1.562884367653191839e+04
-2.259188239511199208e+04
-2.494618683624869664e+04
-2.781779219423537143e+04
-3.226456506605122922e+04
-3.091244221616966388e+04
-2.137025576878848369e+04
-4.819772825492664197e+03
9.911990249861335542e+03
9.905964005679532420e+03
-5.784295188661304564e+03
-1.909531610311735130e+04
-1.681183844993439925e+04
-1.609789480313521199e+04
-2.545340273193098983e+04
-3.313211881045129849e+04
-3.604267711574296845e+04
-3.605080630782894150e+04
-2.539741590133227510e+04
-1.654520385675157740e+04
-1.030677262062168302e+04
3.807977761565094170e+03
1.160410240732896818e+04
1.685593073361006100e+04
2.239798349158910787e+04
1.607468949264271396e+04
5.314476627040299718e+03
3.665547549109920965e+03
2.824966830706864130e+03
-5.639013652741527949e+03
-2.449514910186322959e+04
-3.626711141449680872e+04
-1.336546862908715048e+04
2.571418763427987142e+04
4.280715476638639666e+04
3.964369015786420641e+04
2.983703271085638698e+04
1.947267211709244657e+04
1.324100173009525315e+04
6.392185916116807675e+03
-1.057630878905090503e+04
-2.477120074782116353e+04
-3.073832821613840861e+04
-2.776750103458043668e+04
-1.499824553200834089e+04
6.048393215395464722e+03
3.192078321514171330e+04
5.609824302436129074e+04
6.646212673435838951e+04
5.770774150953521894e+04
4.554830778960767202e+04
3.841009007943575853e+04
3.246629547933657523e+04
1.353428961606785015e+04
-9.741573972008880446e+03
-2.160279417684755026e+04
-1.844118778032856790e+04
-9.333549009223887083e+01
1.810087651883150102e+04
3.079948388515134138e+04
3.578579222327114985e+04
3.522693076901438326e+04
2.116540019905659938e+04
3.742389191068858509e+03
-2.474023911452816719e+03
-8.876722350044845371e+03
-2.481229536867790739e+04
-3.998901641652678518e+04
-3.631942508077316597e+04
-1.742048803091073205e+04
-6.350410115820531246e+03
-5.580799119374184556e+03
4.520133831598832330e+03
2.641544394102264050e+04
3.464224413039212959e+04
3.193357869079347802e+04
2.957472189000669823e+04
2.977920316597529381e+04
2.871398599363985704e+04
1.897687231861339023e+04
5.168822903117918031e+03
-1.227900117462568051e+04
-2.437645963067050980e+04
-1.845941519387613880e+04
-6.994053105714583580e+03
-4.196280745658214073e+03
-1.970217503526533619e+03
-4.588101014082142683e+03
-9.389629014581360025e+03
-9.984196436623662521e+03
-1.195392182239674730e+04
-1.587093183196402060e+04
-1.203254824424206345e+04
-3.428661860169871488e+03
3.584584130300447669e+02
3.318697549652084717e+02
9.083474081668789495e+02
6.044988084001635798e+03
6.139614732196477235e+03
1.357784741800845950e+03
1.085314470306058411e+03
-2.281521372370316314e+01
-4.446945385852460277e+03
-2.833390841851903133e+03
8.259594090532524206e+03
1.821951883401238229e+04
2.353402810865658466e+04
2.327088859555507952e+04
1.911076206179294240e+04
1.609136231703952944e+04
1.329023975074260670e+04
3.479981641803373350e+03
1.180534242484245624e+02
-3.923815175914402062e+03
-3.764909831300026781e+03
-3.443774474029927660e+03
-7.130854600909945475e+03
-1.005342665339433916e+04
-1.173561412522967839e+04
-1.231088298373318685e+04
-7.661528965785430955e+03
4.421124946228999875e+02
1.143655280531610879e+04
1.264956287269353379e+04
1.354767063375842736e+04
1.122952803644130290e+04
8.282877793450348690e+03
1.114539452807360794e+04
1.154461342589657397e+04
8.632090288995925221e+03
5.266481773021648223e+03
5.955390124286423998e+03
7.215472365241874286e+03
4.423421390178943511e+03
3.149819041085012032e+03
-1.922835021604838630e+03
-2.029834209203972478e+03
-3.172533735399330908e+03
-3.979331512021159597e+03
-9.371478555554236664e+03
-1.653216868855815846e+04
-1.651066442926079617e+04
-1.792929703609731951e+04
-1.983144103801260280e+04
-2.154032498692270019e+04
-2.275122573937150446e+04
-2.683937143557129821e+04
-2.719603945211706014e+04
-2.810555302391802979e+04
-2.754517149138139212e+04
-2.405314953477557356e+04
-2.192572137437666242e+04
-2.093107307782410135e+04
-2.283237753931382758e+04
-2.269890138453806503e+04
-1.868581659030567243e+04
-1.114723779893792926e+04
-6.701307172494385668e+03
-5.461170932287425785e+03
-4.782848742760970708e+03
-4.125495663614039586e+03
-5.102399818154846116e+02
1.501926789598768210e+03
1.784969498562997614e+03
6.696771447306173286e+03
5.874205312803047491e+03
3.427282948298064184e+03
4.775026568560175292e+03
8.058398525315471488e+03
1.101032182104155618e+04
1.156883496891569848e+04
1.270496120000164410e+04
1.319274415034762569e+04
1.314730225907957356e+04
1.153170656093925209e+04
9.434062298096090672e+03
1.343371604032266987e+04
1.617582902400950843e+04
1.517538588257547963e+04
1.633937452518183818e+04
1.800204879759917458e+04
1.421408958515628728e+04
9.475380098377645481e+03
5.884050480164158216e+03
5.858481613592514805e+03
8.132951732605029974e+03
1.117773396251870508e+04
8.646035103858523144e+03
6.562049660540799778e+03
9.875986008359224797e+03
8.173113315300275644e+03
3.326513024697863329e+03
6.449813506906547218e+02
-1.401948895891814573e+02
-2.081346132402732565e+03
-4.644232275633132303e+03
-6.742397502195287416e+03
-9.177543321856566763e+03
-9.309408631637021244e+03
-9.156686238818167112e+03
-1.033603766329548489e+04
-1.153204077566347041e+04
-7.856299054315273679e+03
-3.921443873287577844e+03
-6.078080005521134808e+03
-1.069184761978561983e+04
-1.273838860606818162e+04
-1.059823475217792475e+04
-8.371952151604004030e+03
-8.852160743061058383e+03
-1.322333861123522183e+04
-1.449015757068979656e+04
-1.151638943247708994e+04
-8.913673207507166808e+03
-5.266568335146362188e+03
-2.826060944206746512e+02
5.926569566485401310e+02
-4.985325188564161749e+02
6.930999379289237368e+02
-4.628559016695060109e+02
2.081106496731438710e+03
6.420270370036473651e+03
6.009094472333643353e+03
4.811283720588400683e+03
3.723255700305395294e+03
3.192095555979992241e+03
2.009998127395437450e+03
2.341279708900963215e+03
4.430319754251694576e+03
5.109521144381664271e+03
4.354076006012640391e+03
2.088098987029768068e+03
-1.192952937906868328e+03
-4.168769873182690390e+03
-5.793875161934650350e+03
-4.785853904042746763e+03
-2.587514743799687494e+03
-4.641589588168827504e+03
-6.760726359151818542e+03
-4.958659499417702136e+03
-2.311922177829052544e+03
-1.851143833678965166e+03
-2.644560664089629427e+03
-3.091138170965235986e+03
-4.264286062845714696e+03
-4.096613566722027826e+03
-1.358911075209447745e+03
2.677059984742856614e+03
4.214894163386432410e+03
2.568305931383393727e+03
-2.133735382127873237e+01
-3.598390560800584808e+03
-7.384175142894958299e+03
-8.734820532865789573e+03
-2.444384957284329630e+03
5.801747863762676388e+03
9.532216653171848520e+03
1.139117652766083484e+04
1.258468303717734670e+04
1.262740140734112720e+04
1.131632106948543878e+04
8.627530363303076228e+03
7.118548824207704456e+03
8.218556979165514349e+03
7.626611122622284711e+03
3.602444143698510743e+03
2.868004289419908673e+03
4.704493209907569508e+03
6.604746746474892461e+03
6.183401371676472991e+03
5.859282677107453310e+03
6.288080465061591894e+03
7.537535096227898975e+03
8.336099066008044247e+03
7.560378736841298632e+03
7.472232267578410756e+03
8.764441305733920672e+03
8.114901458238347914e+03
3.732568269739793323e+03
6.544724316427754047e+02
2.530379554176704104e+01
7.295431408485451357e+02
3.164730107614550889e+03
5.284023583352432979e+03
5.330508209900719521e+03
5.070783642216212684e+03
4.037125555707097647e+03
2.555246984571585472e+03
1.935445307566287056e+03
2.322502346491800836e+03
2.491094326233499487e+03
2.300954727716311481e+03
1.727144583692297829e+03
3.131919318229772216e+03
5.465217995921670990e+03
5.638552363082970260e+03
6.867766511847460606e+03
7.166465027265446224e+03
6.503299363835548320e+03
5.393459758714644522e+03
9.294834122694897815e+03
9.715047382647995619e+03
7.989717527360254280e+03
5.893583939133532112e+03
4.792798038644858025e+03
4.439626653633566093e+03
4.340125327064902194e+03
3.866387123400907512e+03
1.777828650500815002e+03
-8.689325196068258492e+02
-2.752027701225887540e+03
-2.443097226429609691e+03
-2.767183024886162457e+03
1.221366264152931365e+02
2.958055481111406152e+03
2.599860822924845252e+03
5.732706533607823758e+02
-3.480655492487721858e+03
-2.222856636793644157e+03
-9.624842835051069869e+02
-7.253555452061216329e+02
-1.074446514981988685e+03
2.126068629114864507e+03
2.247715030535108838e+02
3.871543954108451544e+03
6.933668454794824356e+03
5.012405184113177711e+03
5.149730956970089210e+03
1.516018879120081010e+03
-2.411897530285199991e+03
-4.117569844306116465e+03
-7.506590675514247778e+03
-1.007748460977701870e+04
-8.515488893170648225e+03
-8.638973406098966734e+03
-1.010500110512863102e+04
-1.332396127886904651e+04
-1.548251377293027508e+04
-1.636823248905669425e+04
-1.474838655150438717e+04
-1.492849033923285424e+04
-1.427339857834505710e+04
-1.431772092640101982e+04
-1.671954605319579787e+04
-1.469857595885911724e+04
-1.566173981645662388e+04
-1.768743064280002363e+04
-1.783652298749243346e+04
-1.990295503551591901e+04
-1.921458650381206098e+04
-2.084706733592997989e+04
-2.011909265004393819e+04
-1.969735169655044956e+04
-1.646690679664475465e+04
-1.324413105715749407e+04
-1.219967668717803826e+04
-1.044807079835204422e+04
-7.087569739575933454e+03
-4.577055478299243077e+03
-1.481105202532556859e+03
1.818974662139746897e+03
3.026455055429489221e+03
3.236179452512085390e+03
3.591457018945825894e+03
3.834817296362916295e+03
4.763938574994039300e+03
5.507167921317030959e+03
5.627698654848683873e+03
3.430301069660230496e+03
1.245831636698618468e+03
1.080646213912635631e+03
1.342568532974930122e+03
2.848757980705061641e+02
-3.565424033096308563e+02
2.112474852934317823e+03
3.375937475209014337e+03
3.391953367015544700e+03
2.162405677943970659e+03
3.093358714072483053e+03
4.953294475585681539e+03
5.150187867601915968e+03
4.729720208411437852e+03
5.746576894697340322e+03
7.151291361548979694e+03
7.534025393754662218e+03
6.716993498936962169e+03
6.124353213248111388e+03
4.970750639398248495e+03
4.081402219150774727e+03
4.133562084582820717e+03
3.926817977036957018e+03
2.724539421632916401e+03
2.249446722328926626e+03
1.574476835974581036e+03
5.382907242040009805e+02
-3.456782187668524671e+02
-6.069167993503249363e+02
6.132036441422867767e+01
8.302225436250182611e+02
1.137487440905307039e+03
1.066522045151967632e+03
6.734598294243215832e+02
7.647530026566194010e+02
1.028990466334349321e+03
7.592382863628727137e+02
7.538045681993786502e+02
6.058547119215575094e+02
5.274621259675384408e+02
5.670018848889980063e+02
8.629275961151348611e+02
1.045899640626900691e+03
8.730678410302591601e+02
6.183728581888228746e+02
-2.552458441636863427e+02
-5.532655574211181602e+02
3.669350093097390300e+02
1.185681665834107662e+03
1.614184562393862734e+03
3.012611847904222032e+03
4.746363966058423102e+03
5.615755000937650038e+03
5.458764331167562887e+03
5.815152015799049877e+03
6.417522807582866335e+03
6.400966485688829380e+03
5.722523478519970922e+03
5.295364525148147550e+03
5.003047436090170777e+03
4.553741621005230627e+03
3.887557092625067526e+03
2.665901610074706696e+03
7.361376607876374010e+02
4.448387662754263516e+01
-9.092825018496502025e+02
-2.331896840335774414e+03
-2.680092123574254401e+03
-2.638729444766653387e+02
2.585999936437368888e+03
3.812769282878867898e+02
-1.992639023242408030e+03
-1.776653319160602450e+03
-9.039464796020608901e+02
3.185716835073761786e+02
1.316936482160826927e+03
2.683912478132639990e+03
3.969473809988513494e+03
5.567850706554934732e+03
5.398395967253212802e+03
2.261768647870178938e+03
4.861810007761145584e+02
-9.903870536558199547e+02
-1.599877600351355113e+03
8.548155753416114067e+02
2.467642979629074944e+03
3.097434810434245264e+03
3.767043790527672172e+03
3.855366722200225013e+03
4.019485520854946117e+03
4.141542253402168171e+03
4.522174325882722769e+03
4.543117915010065190e+03
4.058844088510737947e+03
3.263814912934008589e+03
2.660862947492403237e+03
2.339362024323126207e+03
1.986741532256851087e+03
2.579839820344031978e+03
3.610980031064601917e+03
3.436073626057417187e+03
2.512602846657783630e+03
1.450199304202209760e+03
4.427977136410677872e+02
-3.496996690658061198e+02
-1.076337835316557403e+03
-3.155084587006117999e+03
-4.478397653150576843e+03
-4.468645207169089190e+03
-4.200323173546527869e+03
-3.531765634477748335e+03
-2.160800790170923847e+03
1.326544039938797823e+03
3.977074601700042876e+03
3.996526510367573792e+03
2.253721017759316965e+03
3.863685694845769945e+02
-2.198689681689212136e+02
-7.221585095853241683e+02
-1.759677543926439739e+03
-2.648490711355964322e+03
-4.001828426275877064e+03
-5.478933137816379713e+03
-7.223163821523762635e+03
-8.282022271379042650e+03
-8.655937837778317771e+03
-8.201793969013584501e+03
-7.999751485480855081e+03
-7.275150299166666628e+03
-5.175349279300296985e+03
-4.053384654076409333e+03
-4.046337935010065394e+03
-4.107338259373652363e+03
-3.728539168794638044e+03
-2.880522765446401536e+03
-2.858813942121715172e+03
-3.456821531138050432e+03
-3.864555368380122218e+03
-3.514184982334955293e+03
-4.114939186826242803e+03
-4.194978625494562039e+03
-4.280481247288122177e+03
-5.026768938694493045e+03
-5.363786176085757688e+03
-5.228099341752496002e+03
-4.804634909927109220e+03
-4.408486012675868551e+03
-4.197841464388515305e+03
-4.467776763739968374e+03
-5.202488729986980616e+03
-5.600090316812360470e+03
-5.503837101868260106e+03
-5.524047873829515993e+03
-4.975763059678184618e+03
-2.988867292073740828e+03
-8.897267848694482382e+02
2.143525643955463238e+02
5.070273599832287346e+02
-7.784451866904400674e+01
-3.774321196878451588e+02
-1.876905508478724869e+03
-4.431559017199919253e+03
-6.873500844882554702e+03
-9.101759822510193771e+03
-1.029154817509448731e+04
-9.963103290914245008e+03
-8.601378089662965067e+03
-6.010102072196899826e+03
-3.774400116011235696e+03
-2.070518522733036207e+03
-1.021577283942975328e+03
-2.147543524218422135e+02
8.836801210525607075e+02
2.096703645438629337e+03
2.869234173252230903e+03
3.809265743234306228e+03
3.872832554337417150e+03
3.834777477304665808e+03
3.285952284768560276e+03
2.320390854251701057e+03
1.136003633768180862e+03
-6.262869266943513367e+02
-1.794662759968275395e+03
-2.442247685297270436e+03
-2.311967529788546926e+03
-2.359071540469763022e+03
-2.852489352571644304e+03
-2.645064663566113268e+03
-2.476725857175488272e+03
-2.400954719596888481e+03
-1.625453659739742989e+03
-2.729967663838957037e+02
7.004842467239487860e+02
1.187917374858719540e+03
1.498290680351763740e+03
2.011548288612013948e+03
2.782628483148595933e+03
3.442682317576938658e+03
4.397805562705053489e+03
5.628012566243113724e+03
5.821071420714441956e+03
4.951120010077054758e+03
4.023053462440108888e+03
3.638886000501463968e+03
3.107854986546564760e+03
2.687905029835958430e+03
2.772467991159395297e+03
3.034391427312441010e+03
2.785592130567906679e+03
2.701991481627904250e+03
3.237845843737491577e+03
3.496966012592200059e+03
3.561756722966140842e+03
3.491862892924416883e+03
3.800493388762659379e+03
4.353786687733698272e+03
5.268694818302277781e+03
6.143740236777714927e+03
7.086915281213354319e+03
7.225251300036102293e+03
6.483115014133545628e+03
5.251478602913412942e+03
4.244022176460496667e+03
3.678948796566714464e+03
3.468362045254106306e+03
2.965560944407910483e+03
2.612630155137538168e+03
2.728512897706169042e+03
3.064186621543226011e+03
2.480771377713615948e+03
2.031182188878433863e+03
2.352837087319571765e+03
3.463792600188950018e+03
4.066004464019244097e+03
4.647770960538346117e+03
6.713187488344297890e+03
8.443367149108365993e+03
7.979211478979074855e+03
5.994723094852671238e+03
4.856277622481958133e+03
4.503572541605885817e+03
4.034935346527023285e+03
3.939052230912566301e+03
3.641937364242144213e+03
3.410785782594213288e+03
3.041577037780038154e+03
2.249179432302807072e+03
1.741638882610529436e+03
1.816951835701243681e+03
2.509156403355393650e+03
1.265478216915524399e+03
-8.119180835876376250e+02
-3.596898296969843614e+03
-4.817357158569060630e+03
-3.686313062921110486e+03
-2.768682385264303775e+03
-3.076324707277253310e+03
-3.210940541486937491e+03
-3.180461445538553107e+03
-4.795914840723612542e+03
-5.988317799838928295e+03
-3.096537906577260401e+03
-7.743882049209743172e+02
-6.811167212571921254e+02
-1.960538933076429657e+03
-2.794487705401077619e+03
-1.249844961468375686e+03
-5.107535014296837289e+03
-9.765421773666828813e+03
-1.062438696091996462e+04
-1.047531007093918015e+04
-8.956130528562272957e+03
-3.016904272839446548e+03
3.804720510390748700e+02
-2.310763608664866751e+03
-3.060504850197602536e+03
-1.964699032108299889e+03
-1.278271187235433899e+03
-2.106228719934767469e+03
-2.159428890350344318e+03
