2.662436002300562450e+03
2.850790897799731738e+03
2.081955697480674644e+03
1.184748650256638712e+03
-1.302071843354785301e+02
-8.165906298803296295e+02
-1.524170103467179615e+03
-2.696929005952448279e+03
-4.267068292802874566e+03
-5.000602289891768123e+03
-4.385202401687849488e+03
-3.618572460785245767e+03
-3.691055558923060289e+03
-4.637110812480325876e+03
-4.175398447498588212e+03
-2.161902736039424326e+03
-4.614568180931434540e+02
-5.759977746378194752e+02
-1.724312326457525160e+03
-1.025025558770119460e+03
-5.965034485732276153e+02
-1.278337429807568469e+03
-8.486069758621815708e+02
7.888193270562163661e+02
-1.962433893162398363e+03
-5.706546660888035149e+03
-7.040837391734730772e+03
-7.155221388589957314e+03
-5.368512908501238599e+03
-4.048696984820604030e+03
-5.003471017328476592e+03
-7.840912874063483287e+03
-9.093065175414494661e+03
-6.781924458831395896e+03
-3.708476713966018906e+03
-2.843546765119147949e+03
-2.692582587277848233e+03
-2.459559296411961441e+03
-1.607753948790837285e+03
-2.791589899958278806e+02
2.612102050209161462e+03
2.226145924184181695e+03
1.415607708125975705e+03
2.089905112845544863e+03
3.038564411681503316e+03
3.075874695431559303e+03
1.657260006408911067e+03
-2.132958267501678620e+02
-9.894714381558766263e+02
-9.610870566709485274e+02
-1.703047461892557294e+03
-2.283273924214424369e+03
-7.538058180405847679e+02
-4.228249718667768207e+02
3.648193253228068897e+02
1.547642739428271625e+03
1.814077449450716813e+03
2.138160729916629862e+03
2.830786854436904832e+03
2.088791706862736191e+03
1.770252771494077024e+03
1.879738889996196349e+03
2.750554289508199417e+03
2.924649774164528935e+03
2.527651452489718395e+03
3.379036922603981111e+03
3.331450331291186103e+03
1.198399989856608499e+03
-1.687396006801834005e+02
5.206069775883254351e+02
1.894176312409903858e+03
2.184407349168286146e+03
1.154132906462739129e+03
8.762147365083430941e+02
1.808181216738902322e+03
2.498588007023488444e+03
2.114588427905020126e+03
2.085579776708781992e+03
1.445028513274608486e+03
1.633052435641405054e+03
1.511476466682159298e+03
1.480246801499262574e+03
2.193543876768594600e+03
3.635394943344482272e+03
4.504761778736173255e+03
4.130520522611445813e+03
2.976791720403974978e+03
2.683924952777666476e+03
3.529218738524651144e+03
3.480247849174483690e+03
1.997585494294828777e+03
9.299388931117797483e+02
3.849417825560767596e+02
-2.791492168245413836e+02
-3.542781318089419074e+02
1.077421043077933518e+03
1.698187361801896486e+03
2.560393918838893569e+03
3.333080103772115308e+03
3.445318730952144506e+03
2.925903275476031922e+03
2.200650160620729821e+03
1.189520592960006297e+03
-3.040496288916027012e+01
-1.493335658971776638e+03
-1.449415101712908154e+03
-1.488363971567255248e+03
-2.263329980178801634e+03
-1.803567853141369142e+03
-2.930852213268210562e+02
1.466148547868269816e+03
1.440968493253039696e+03
1.986301607643825093e+02
-3.598861351131189963e+02
-3.568132938944195303e+02
-2.115354995489454950e+02
4.901877594924355321e+02
1.449457911273514128e+03
1.768359029603214822e+03
2.581911371729526309e+03
3.169624196659941390e+03
3.304217887273648557e+03
2.590871756335362534e+03
6.787318186831505500e+02
-1.235716151568729629e+03
-3.969448070306750651e+03
-7.354091437523606146e+03
-9.580063701600518471e+03
-9.693249427931421451e+03
-7.331398644010550925e+03
-4.890606381334319849e+03
-1.216011788337877306e+03
2.275347829695462679e+03
1.273574467259045150e+03
-5.093990544539539655e+02
-1.626714507002692244e+03
-2.356059097237389324e+03
-1.889443368718283637e+03
-1.743163777356865239e+03
-6.020249178524093168e+02
8.527668682864911034e+02
1.194188291998335444e+03
7.483818634209035281e+02
-4.547258842555004890e+02
-1.348370085565691625e+03
-5.385043217407020393e+02
2.247093942202212986e+02
-1.211481067902575433e+03
-3.512780371134091638e+03
-4.494273184483089608e+03
-5.549971180757485854e+03
-4.937849062983204021e+03
-4.979290842311504093e+03
-6.151726322029872790e+03
-6.958888614156634503e+03
-7.202479982864718295e+03
-7.564661513012288196e+03
-1.504651485277617894e+03
2.424695662940477177e+03
1.517954232915835973e+03
-1.393131429066184637e+03
-1.896612981630349623e+03
-2.679527095435806132e+03
-4.033392783837385196e+03
-1.710093064687953984e+03
2.977230964962334383e+03
3.561134431757383936e+03
1.537220139106613942e+03
-2.053009703931078889e+02
-9.663322150631023533e+02
-1.117192044582321842e+03
-1.612578110955746297e+03
-1.024692406877177518e+03
6.573126887840527566e+00
8.320308978305257597e+02
1.543056549136201966e+03
1.892995471960665554e+03
2.516892590504494819e+03
3.304686825458370095e+03
3.824529522980880301e+03
3.136688598064513826e+03
1.766174792880550285e+03
6.691233790661841567e+02
-5.709207905323579268e+01
1.044249287396412456e+02
1.088526834236887680e+03
2.052113168162638885e+03
2.764271719652607317e+03
1.786132026297996617e+03
8.436935530514007269e+02
-4.654990106561503183e+01
-9.655097211099808874e+02
-1.920676289660472776e+03
-2.106276755947809306e+03
-1.912653427330608565e+03
-9.376942866943337549e+02
9.320012795201619156e+02
4.657529035551696325e+03
6.533929122756094330e+03
5.605276170351412475e+03
4.457912870632205340e+03
3.787973322676524276e+03
2.952325100482040398e+03
2.146075068703512443e+03
1.971401798117042290e+03
2.055285075666952253e+03
3.529487256940400584e+03
4.068354366270399623e+03
2.843472027958988747e+03
1.312073466110508207e+03
1.078861893718280953e+03
7.330692827758709882e+02
6.386195716357811989e+02
5.627218405458511086e+01
-7.159589440512437477e+02
-1.979060940011764842e+02
3.265340850587462569e+02
4.913327595218959800e+02
2.538330278355129394e+03
4.083667392090732392e+03
3.597713734132642912e+03
3.714518161044596127e+03
3.108818096569183581e+03
3.898404586824065063e+03
1.719280419990825294e+03
2.131680444066326345e+03
4.296070260420140130e+02
-1.111141794489286212e+03
-1.541652393296318223e+03
-2.441849623166043784e+03
-3.914452453152674479e+03
-2.260473445885855654e+03
-1.580999127335797994e+03
-1.062015478191103512e+03
1.177608020114663077e+03
-1.501147596594273637e+03
-2.524428761252297591e+03
-9.913242381251950519e+02
-3.361733694406661471e+03
-1.527080379445158655e+02
-9.611162748317098021e+02
-8.688850888181367793e+01
1.091234561999053994e+03
-7.296046442268662986e+02
1.243435494067157151e+03
5.189978205554018587e+02
-1.380659895979902387e+02
8.491890948520049278e+02
6.266358396972090077e+02
3.651858581550296208e+02
9.200203993094082762e+02
8.382837780475023237e+02
5.620986510983263997e+02
4.833450420396418963e+02
9.428881065163034236e+02
4.687769965689596461e+02
1.121006998162448838e+02
-6.081279006108861722e+02
-8.498913682509287355e+02
-1.511992640765519624e+01
4.471784485158956954e+02
1.004045744531268156e+03
2.504462936868636007e+03
3.995379943309450937e+03
3.566840323758136492e+03
1.821854880011677778e+03
1.050391851100641816e+03
-3.368654252591532838e+01
-1.053443124265528922e+03
-2.161842601385557373e+03
-3.351772492161514492e+03
-4.191294716279815475e+03
-4.838566992742619732e+03
-5.486659020120598143e+03
-4.661416136018086036e+03
-7.135743810966580440e+02
3.026872338532709364e+03
4.142899660561917699e+03
4.543598025037329535e+03
3.821877978648622047e+03
2.276631097498358940e+03
7.533807698290142980e+02
-1.006648833776784045e+03
-2.921870739805566700e+03
-4.048504632626509192e+03
-3.360579894809744928e+03
-1.613971198275297866e+03
9.986169962544580585e+02
2.337346946885636498e+03
1.517103426341013574e+03
-2.013496067395285820e+02
-1.270266174361730464e+03
-1.272577836376024379e+03
-9.640288078379347780e+02
-1.316517051908285794e+03
-1.018800775743997974e+03
-3.805327540967896311e+02
3.552415820469936989e+02
9.095901828582963162e+02
1.881385852797462121e+03
3.399354761575470093e+03
4.289258775380762927e+03
2.958743346052067409e+03
1.050854569240159435e+03
1.490391208579008975e+01
-1.251881892400334522e+02
-4.994902253429403913e+02
-1.572500055577767853e+03
-1.974480377102674765e+03
-2.562533407969412110e+03
-3.300940784442499535e+03
-3.619874356690770128e+03
-3.187761433030558692e+03
-2.759666309181956422e+03
-2.316930905427405833e+03
-1.411150781859246536e+03
-4.724258674608382762e+02
-9.896784765617417179e+01
4.322617184200573206e+02
1.527192630376954639e+03
1.772123565753283856e+03
1.079353784947214081e+03
-1.557492450292443891e+03
-4.266997298419392791e+03
-5.714250791739766100e+03
-6.007510143062057068e+03
-4.420289509949177045e+03
-1.140785560088313105e+03
2.238566203760610733e+03
2.101911905843538989e+03
-3.729680926664077560e+02
-3.602916321742253558e+02
1.932861123083640678e+02
5.192094066137080972e+02
8.224839351244354475e+02
9.572824482392416030e+02
6.375375796425055341e+02
-3.779097135847894720e+02
-1.888037591971990878e+03
-2.730044478021696705e+03
-2.004474870998723873e+03
-1.814981176098766809e+03
-1.759516842429931330e+03
-1.987178684551495053e+03
-1.872881070811728250e+03
-2.285175080758318472e+03
-2.808761392995706501e+03
-3.503234519516557611e+03
-2.877716466344877517e+03
-6.713135048281103536e+02
-3.058554047292830660e+02
-5.933934121869808678e+02
-7.998014391216142940e+02
-4.444816493325868123e+02
-2.920618112268077198e+02
-5.413779439015565913e+02
-5.584503274546405009e+02
-7.938778488316925177e+02
-1.024715587802893424e+02
5.955503228667720350e+02
4.118323273008726915e+02
1.132820307565645180e+03
3.643479685004902876e+03
3.798792438836160727e+03
2.396026536201372437e+03
1.302634362766633330e+03
2.529122282991759675e+03
5.183489142967501721e+03
7.001471205128268593e+03
6.026706998921226841e+03
3.965729036039064340e+03
2.204498281076020248e+03
7.800763664439083414e+02
4.739424954119744484e+02
1.117801699203173030e+03
1.335889425249158876e+03
1.493346641309355846e+03
2.371222347306619213e+03
3.629529063475790736e+03
3.276725014424113851e+03
3.362422215333229360e+03
4.308045475930255634e+03
4.805424309550567159e+03
5.253678599175205818e+03
6.054826582052297454e+03
6.497489425655839113e+03
5.506174370977063518e+03
4.305887724410727969e+03
3.204354099960704843e+03
3.035373848455544703e+03
3.906681406460428207e+03
4.795250657091741232e+03
4.184874390864781162e+03
2.848953065339102977e+03
1.848435289155533610e+03
1.743624051180426704e+03
1.734444866637550604e+03
2.797611297960556385e+03
4.453978376919014408e+03
5.676260599074634229e+03
5.985670323483382163e+03
6.039585313542856056e+03
5.547219778190470606e+03
5.602732315883595220e+03
5.072531192376133731e+03
4.129787613596173287e+03
3.439455433573492883e+03
3.006595657574614961e+03
2.319628101722260453e+03
1.875712705743217839e+03
1.260871751345960320e+03
-6.159644924403042978e+02
-3.366813965013868255e+03
-6.369420899571236987e+03
-8.241036344328873383e+03
-7.530321283867672719e+03
-4.499996805952265277e+03
-2.653837899809334886e+03
-2.897856255713965766e+03
-2.918416646970102192e+03
-2.178785405826406077e+03
-1.905692345344764135e+03
-2.761849556038794162e+03
-3.872609054328313050e+03
-5.316599772339904121e+03
-6.374011003048179191e+03
-7.350258114601710076e+03
-5.070672994140843002e+03
-3.148418790975207230e+03
-5.455731163411481248e+03
-6.737605964765499266e+03
-6.539978008701560611e+03
-3.544980279554834851e+03
-1.678557324640588376e+03
-4.827470556780723200e+03
-9.276464179026095735e+03
-9.947579382843221538e+03
-9.739939070358666868e+03
-8.357727563275280772e+03
-5.235612490685975899e+03
-4.148931776172576065e+03
-4.801258635383710498e+03
-5.497582484284056591e+03
-5.318276679658055400e+03
-4.691794231992362256e+03
-4.571226246133125642e+03
-7.923755839005558300e+03
-9.668796855681928719e+03
-1.124590167894496335e+04
-1.209356059171675952e+04
-9.794909423623083057e+03
-8.561693025804439458e+03
-6.900606572082535422e+03
-5.867357678415917690e+03
-5.561922819035700741e+03
-5.329553208643153994e+03
-4.996445375470409999e+03
-4.270611315587647368e+03
-3.735088243121319010e+03
-3.387784986030913842e+03
-3.640622839380748246e+03
-3.682824179187003210e+03
-3.670167991415011329e+03
-4.020612800610906561e+03
-3.711508151472216923e+03
-3.656646269229065183e+03
-3.770659373848120595e+03
-4.224637192227309242e+03
-4.346061299775561565e+03
-4.306256219069351573e+03
-4.456426064889888039e+03
-4.831330498541350607e+03
-4.631066306844498285e+03
-3.651632600619747791e+03
-3.102427455315525549e+03
-3.380734619299169935e+03
-2.401475764788311153e+03
-8.003113390566344378e+02
1.488607084951969000e+03
3.100727219472817069e+03
3.757374028504185389e+03
4.473016491521509124e+03
4.777185265361436905e+03
5.088319109519465201e+03
5.237312870022961761e+03
5.166060389937163563e+03
4.341177979585891080e+03
3.516649111877006362e+03
2.948990733947947319e+03
3.089418345440071789e+03
4.453165973841137202e+03
5.490814324497411690e+03
5.197963350197642285e+03
4.840011783571556407e+03
5.537378134931169370e+03
6.721981135868260026e+03
7.481943476292878586e+03
7.733272999992938821e+03
8.897736952556928372e+03
1.051133112581361456e+04
1.146174531595551161e+04
1.195295700343062344e+04
1.223320704462987851e+04
1.231405854661477497e+04
1.209621963438094099e+04
1.152788367842708249e+04
1.093153087978411713e+04
1.049655671934652855e+04
1.008982004467356273e+04
9.668587149393490108e+03
9.614211687890941903e+03
9.615651649024785002e+03
9.405808429227161469e+03
9.680064709411732110e+03
1.056436447434157162e+04
1.153677252104119179e+04
1.227179127341565436e+04
1.303305602565017216e+04
1.417560913199916104e+04
1.471056474897999396e+04
1.526291868766094922e+04
1.530887964374881449e+04
1.556025222651565855e+04
1.543247475402137388e+04
1.475840757034874150e+04
1.356321635996481746e+04
1.251668599676357735e+04
1.177872480706850001e+04
1.062225259467811156e+04
8.231533359119002853e+03
5.461611858359031430e+03
4.254212024256371478e+03
4.696323622514670205e+03
4.630076942250816501e+03
4.415433746211569087e+03
3.895008289691698337e+03
3.143901174759265814e+03
4.505950002441710240e+03
7.305924444266571300e+03
6.713006358437363815e+03
3.744669802887201058e+03
1.732544907474575439e+03
7.165419914872347817e+02
9.988487400786497119e+02
8.197396166762299572e+02
-1.098039272932251862e+02
-7.464688349134892178e+02
-3.864089217966005435e+03
-9.134549070888344431e+03
-1.321281678507276047e+04
-1.723290743862396266e+04
-1.841167049955478433e+04
-1.432800029502344478e+04
-7.614663813090597614e+03
-1.592561240742983273e+03
3.408276672293169668e+03
7.310040673435822100e+03
9.205075683180406486e+03
5.294472405120217445e+03
-1.271408829514127092e+03
-6.542351649393641310e+03
-1.407421301949511690e+04
-2.449014320316222074e+04
-3.209093844769272619e+04
-3.159112491854742984e+04
-3.036380607533567672e+04
-3.451125332647398318e+04
-4.227145522655580862e+04
-4.368992931084079464e+04
-3.303445719847114378e+04
-2.448233651772477606e+04
-2.192655020484413762e+04
-2.204584055050275128e+04
-2.530320430543411203e+04
-2.881162366752588787e+04
-3.370096161290819873e+04
-3.661080077864057967e+04
-3.697568039334545756e+04
-4.180843051700663636e+04
-4.313183934883143229e+04
-3.436942166480854939e+04
-2.655579036795465072e+04
-2.176588939150161241e+04
-1.730677483026761183e+04
-1.886531440729613678e+04
-2.027068794131736286e+04
-9.730500297072730973e+03
2.535685714861125234e+03
9.162812559020772824e+03
8.819874906430457486e+03
-5.570195471643028213e+03
-2.222302997273180881e+04
-2.896397879963407468e+04
-2.538667373977567331e+04
-2.000690495859632210e+04
-1.458335051515455598e+04
-1.396165330396583340e+04
-7.818964776128625090e+03
1.492774854024265733e+04
4.282263457537601062e+04
5.262469370582343254e+04
4.492318426687114697e+04
3.947064720816483168e+04
3.751320368100072665e+04
3.426590573143864458e+04
2.982394282039116661e+04
2.722100318622923805e+04
2.460829221121285082e+04
2.597704124954049257e+04
2.213930007878477409e+04
9.247031129351982599e+03
-4.183459419821481788e+03
-7.096044053573095880e+03
-1.989479581141939707e+04
-3.363556877692816488e+04
-2.522820382778142084e+04
-4.685431446952315127e+03
-8.519058963052525542e+02
-8.855774997511773108e+03
-4.057275111270959769e+03
6.020862750882520231e+03
1.332587214704360485e+04
1.800473248982669975e+04
2.586037676758971793e+04
3.142862922912263093e+04
3.278972954431201651e+04
2.920090282941585247e+04
2.551624739851516642e+04
2.277482239871890852e+04
1.315864730339993366e+04
1.243678614365127214e+04
1.522622291525758737e+04
2.248204552595538553e+04
3.344426170339038072e+04
3.355356102846186695e+04
2.542683687782757625e+04
8.020330122175138968e+03
-8.401018339581449254e+03
-3.902197449734380825e+03
1.737784701016423060e+04
3.171288797513675672e+04
3.279681303520856454e+04
3.082859818468030062e+04
2.983730386848199123e+04
2.740199131523347023e+04
3.748260565897689958e+04
4.240704765550218872e+04
3.278705993250929168e+04
1.787244504125397725e+04
4.743286507323138721e+03
3.105602282065319287e+03
5.211165217350494459e+03
8.193789262533677174e+03
8.563438894839637214e+03
5.802885927992119832e+03
1.172999781800462370e+04
2.135278694863246346e+04
2.461934528579240941e+04
1.906364646560151232e+04
1.414472105069511599e+04
1.084355931077862624e+04
7.143924021621281099e+03
2.230433772848411991e+03
-4.168228824464362333e+03
-5.012159028020471851e+03
-5.032505796347963042e+03
-6.878472079930606014e+03
-1.090509820984534053e+04
-1.669862241508999068e+04
-2.153004937036439151e+04
-2.419151711731253454e+04
-2.456411902807926526e+04
-2.708431415234827728e+04
-3.102446258233544359e+04
-3.521151001805819396e+04
-3.293640069409477292e+04
-2.121616163216285349e+04
-1.341847816733470245e+04
-1.103436461235875322e+04
-1.812517884769414741e+04
-2.622846673252974870e+04
-2.621154649658455673e+04
-1.793961887004549862e+04
-1.260572072668785586e+04
-9.616420552874633358e+03
-8.975024553697041483e+03
-8.339130977631517453e+03
-7.515755555511955208e+03
-9.328186130985151976e+03
-1.215583686351943470e+04
-1.288868129127012071e+04
-1.069067303844700655e+04
-9.562866595509158287e+03
-1.233261060915645976e+04
-2.078394480832550471e+04
-2.798008029378910942e+04
-2.845839033693363308e+04
-2.283882311484669845e+04
-1.517119608394486386e+04
-1.128740614269708385e+04
-1.377358822431002227e+04
-2.114911059139311692e+04
-1.970730098405589888e+04
-1.008477858179037867e+04
-6.640620932658542188e+03
-1.027685600314771364e+04
-1.682947993820252668e+04
-2.166474020101900533e+04
-2.287098215489553331e+04
-1.910226437906064166e+04
-1.123068426178980008e+04
-6.260337567344867239e+03
-5.996190553929102862e+03
-6.551166440586720455e+03
-7.646346013662404403e+03
-8.179745797889167079e+03
-7.898394329129588186e+03
-1.015717561774104070e+04
-9.399032404542340373e+03
-5.741996243453202624e+03
-6.633004461151450414e+03
-6.502098418522400607e+03
-1.222216291938614859e+03
6.110663855494923155e+03
8.989611444552559988e+03
8.916672979615281292e+03
5.951867319924655021e+03
6.091256608889128984e+03
7.221899080888528260e+03
9.880741505157688152e+03
8.214749514455725148e+03
5.461127632503664245e+03
4.143007336751341427e+03
6.459342232101029367e+03
9.128314309076125937e+03
4.840998207223025929e+03
7.062422490567540990e+03
1.471279400051236917e+04
2.200723425713129473e+04
2.222782558525667264e+04
2.237166549263130582e+04
2.374595311370453419e+04
2.093990421618063556e+04
1.787278723370918306e+04
1.221765220421340200e+04
9.129594224446365843e+03
1.043573529252440312e+04
1.022610028611990128e+04
1.503672036333715187e+04
1.574077404242587909e+04
1.309946998530033306e+04
5.851862542392934301e+03
6.785095308805671266e+03
5.868403635924664741e+03
5.194881592578036361e+03
6.945633648099401398e+03
3.115789349856428089e+03
4.214530142280374093e+03
8.340116077053347908e+03
9.185769385352819882e+03
9.993751639973417696e+03
1.472629075241335886e+04
1.518844134177416345e+04
9.917299294472506517e+03
2.329055308012794285e+03
-1.933122400158419623e+03
-1.560665606956749230e+02
4.132330235658394486e+03
9.111158744118993127e+03
8.397557392545844777e+03
7.959609481663084807e+03
1.063142719009321263e+04
9.929164667608987656e+03
5.179021090472431752e+03
1.596117107985472330e+03
1.659509737005112129e+03
3.710395707355751711e+03
8.973936804215318261e+03
1.262829921485790692e+04
1.132057819157641825e+04
8.353848591510803089e+03
8.072273147057798269e+03
5.405048736427622316e+03
1.359299303483101539e+03
-3.867945650748017670e+03
-5.732576545794054255e+03
-6.734432818859223516e+03
-9.521325998859245374e+03
-8.192162529022572926e+03
-2.894018184299013683e+03
1.801317718203515142e+03
2.191777786881415523e+03
3.349479420219704025e+03
1.583560336166159459e+03
-4.243089508828343241e+03
-9.705482514240571618e+03
-1.043631783274099689e+04
-1.563500685820165472e+03
1.073996524166215931e+04
1.637208597966735761e+04
1.459584388124068573e+04
1.098235792239419425e+04
8.210512642565021451e+03
5.227194543061170407e+03
2.868674839003396301e+03
7.111798715546266294e+02
-2.649343240871784928e+03
-6.418947789795122844e+03
-9.998889662903909993e+03
-1.176957789015958588e+04
-1.347746812393049731e+04
-1.748270916496109567e+04
-2.059547325724905750e+04
-2.007588833698168310e+04
-2.004297199521439688e+04
-1.899824999483508509e+04
-1.735947929999243206e+04
-1.436374034889788163e+04
-1.369184790971595430e+04
-1.206450860465248479e+04
-5.912858410289772110e+03
-8.596426443562104396e+02
-6.690540967249359028e+02
-2.696783235827686894e+03
-5.640212638885876650e+00
5.447796341829363882e+03
6.070344150432684728e+03
5.023822753141940666e+03
5.891392595819970666e+03
5.005087677756565427e+03
1.207031123811454336e+03
-3.935864645938595004e+03
-6.188576490136008033e+03
-5.768354078054692764e+03
-6.587518263340749400e+03
-1.003779654629747711e+04
-1.105256099555601759e+04
-8.637794938920711502e+03
-6.404752196441086198e+03
-4.769575767656927383e+03
-8.054381821864778885e+02
-3.030094979606962724e+00
4.834268756906215003e+02
1.639681297040258187e+03
1.937189613189426609e+03
1.090789916495229761e+02
-6.282339409351998256e+03
-1.199603013023745007e+04
-1.288770563701435822e+04
-1.208408205703155181e+04
-1.184408062651289038e+04
-1.059108992845389184e+04
-6.075373654224980783e+03
-3.393763842645349087e+03
-2.578813368722662290e+03
-2.101244421824427263e+03
-4.447085382117705194e+03
-5.890334126678614666e+03
-2.951604309201290107e+03
-6.402362559778515561e+01
1.700975775190255717e+03
6.011413606350499322e+03
7.037338592114496350e+03
7.517602710452871179e+03
8.722136526581885846e+03
9.011539262803140446e+03
7.533141888995124646e+03
8.077710882487091112e+03
8.363483368360670283e+03
6.114719288447849067e+03
3.348218197819124271e+03
1.586231306429672713e+03
1.911022967838866862e+03
5.010286645280728408e+03
6.582045011031258582e+03
6.371232276183687645e+03
6.530830780655433955e+03
7.055257791823922162e+03
6.350599794405045941e+03
6.164960455833764172e+03
4.664862259123408876e+03
5.152338965390049452e+03
5.290634552412042467e+03
4.569125840924321892e+03
3.726848176573345881e+03
2.380798340775332235e+03
2.259588078321055946e+03
2.767538707269747192e+03
4.228334757445486503e+03
6.195537438684243170e+03
5.212727467799895749e+03
3.261677138847597689e+03
2.790098317590513034e+03
2.074989284439634048e+03
2.853640465574827886e+03
4.864621015545268165e+03
4.793469968697244440e+03
4.302453280860568157e+03
3.834450285100384463e+03
3.216748740405723311e+03
3.665367927498279641e+03
4.219501677791949078e+03
5.466109722362592947e+03
5.788519316966126098e+03
4.852990161691054709e+03
4.534218272342359342e+03
4.675388419015257568e+03
3.024850935579296220e+03
5.433698077629937870e+02
-1.511153476579451535e+03
-4.514478991822890748e+03
-7.604317990265751178e+03
-9.795358439639559947e+03
-1.035897569745036526e+04
-9.923796167638929546e+03
-7.736878751279896278e+03
-2.525068559714844923e+03
2.037631964180755176e+03
3.747400397267830613e+03
3.488545655854779397e+03
4.081384296282847117e+03
4.440575921452472357e+03
4.303146383143495768e+03
5.494256826183120211e+03
4.044259363200327698e+03
2.758441027018798195e+03
2.818522406231310811e+02
-1.338559703221157633e+03
-5.015934067318446068e+03
-9.491969784669116052e+03
-1.278250704409389255e+04
-1.608842272277370648e+04
-1.828811592218052101e+04
-1.322545020314077556e+04
-4.903298249113301608e+03
1.625722308526612551e+03
3.869477890877165464e+03
3.726307007622328911e+03
3.034727869027559336e+03
3.752995458816141763e+03
2.573245593343576274e+03
-9.763316773340716281e+02
-2.357530906473018149e+03
-1.569292308009488352e+03
-1.107650861605716727e+03
-8.183232890480272772e+02
1.443844586845281810e+03
1.108686987491979153e+03
-8.280174778408910470e+02
-3.026146525463052512e+03
-3.682387209907798933e+03
-4.283179835931459820e+03
-6.203459621563505607e+03
-8.043608469463886649e+03
-8.168094511624651204e+03
-5.617122012808424188e+03
-1.964454044474058719e+03
-6.735395584433567819e+02
-3.042808125567532898e+03
-3.801902995636803553e+03
-3.751554712268758067e+03
-3.361399089922951134e+03
-1.334874886093611394e+03
2.416341655930659726e+03
2.355282452786478643e+03
3.099739489002624850e+03
2.974288218226603021e+03
1.314484750332924477e+03
9.942981893061356402e+01
2.054856474353430826e+02
1.575494927476226259e+01
-3.466864226139842913e+02
-1.267835544481520856e+03
-1.470708049142028131e+03
-8.230460150006471167e+02
-6.080429027671926860e+02
-1.769786112147968424e+02
1.334914969115172028e+02
7.373809629340634046e+02
1.081284276432428896e+03
1.431938490147590073e+03
2.146614434557019649e+03
2.726542188767410607e+03
3.285011365546823072e+03
3.576804818459590479e+03
2.765894127391260099e+03
1.149100255925900910e+03
5.867607638493278728e+02
-4.179899604343852388e+02
-2.251325581717553632e+03
-2.317632807892951860e+03
-1.477670109028458455e+03
-1.787851402706034150e+03
-1.605658661783672414e+03
-1.082461541977874731e+03
-1.353577742723586653e+03
-2.076232020745042064e+03
-2.161442489783176370e+03
-1.346331539806843011e+03
6.224277444058668607e+02
1.587848948767370075e+03
2.221486884522582386e+03
3.459115562979931383e+03
4.904517593388847672e+03
5.032864102238591840e+03
4.178563226025863514e+03
3.702737061649394036e+03
2.849010127713118891e+03
2.373627873653067127e+03
2.680133576181775425e+03
1.652436646075183717e+03
7.166053607923782920e+02
-7.964815174777864115e+01
-1.261826720650439029e+03
-1.736065409040357508e+03
-1.669550461291760257e+03
-3.569361213910435708e+02
1.912623033251041306e+03
2.733730657427855022e+03
2.619609591502485273e+03
2.955749227297483230e+03
3.451464650832498137e+03
4.127648691327113738e+03
4.681825180155462476e+03
4.572762953968644979e+03
4.008297596573271676e+03
2.910781200706307573e+03
1.888139667500268615e+03
1.119026726175659405e+03
9.846841685812958076e+02
8.284433357107584470e+02
2.152644604016632570e+02
-5.511298383626451880e+01
2.841401831262285214e+02
8.636872610462777402e+02
1.545567252352827609e+03
1.427177347249836203e+03
1.301668426269339761e+03
1.612878626532686212e+03
2.211053749967260956e+03
2.123341395718696276e+03
1.554901885559531820e+03
4.529280424615990341e+00
-1.587878777180676252e+03
-2.133213230884928635e+03
-3.145845636232395464e+03
-2.757258276029448098e+03
-4.262466916430911624e+03
-5.670231562694403692e+03
-6.563631095148512941e+03
-7.385466764047961988e+03
-6.828362939851689589e+03
-5.617352142541348258e+03
-6.214761849467619868e+03
-6.901470010249993720e+03
-7.113981161573788086e+03
-6.260022317506960462e+03
-3.787994493954484824e+03
-3.087747239973084561e+03
-3.434317307015001461e+03
-2.875644285503722131e+03
-2.009723058678739335e+03
-1.036527161620645529e+03
-9.129598182596148490e+02
-1.131012642259590621e+03
5.532519599854206405e+01
6.129229819482550283e+02
1.401753934045420465e+03
1.536003040930844008e+03
1.092630487570703281e+03
4.632707456367784715e+01
-1.395575393039416312e+01
2.205491567902986958e+02
5.088035346499180491e+02
6.786262930569608898e+02
9.281276155487777260e+02
1.624167462965941922e+03
1.752275626876608385e+03
2.250421912177881040e+03
2.999913774497559643e+03
3.059917253277706095e+03
2.825018519485247907e+03
2.725840644247394266e+03
2.812643163431232097e+03
2.449568759824095650e+03
2.139531974067464489e+03
1.833691031779560944e+03
1.273235428073831145e+03
5.274354655417131426e+02
-4.829429495928484926e+02
-1.512361106681519004e+03
-2.118812327439744877e+03
-2.636098697574864218e+03
-2.431320385429589351e+03
-1.840759744106806011e+03
-2.154391763607636676e+03
-1.536204033925546128e+03
-1.084671392953338227e+02
7.320537436184461058e+02
9.683264229673552563e+02
1.128275053882208795e+03
1.934983454450803720e+03
2.783680134092169283e+03
3.055805445356168093e+03
2.663342440043048100e+03
1.816910010491686990e+03
9.134103026073164528e+02
-1.901004086957237291e+02
-1.533678046045975861e+03
-3.188715603892394029e+03
-3.999182377011754397e+03
-5.012867642822687230e+03
-6.127797532137639791e+03
-6.301766769757065049e+03
-4.444719206235088677e+03
-1.952947472039381864e+03
-8.325837631888706483e+02
-8.480465577331559146e+00
5.632747832829235222e+02
1.462708734862964320e+03
2.073814772022124544e+03
2.563556446697951742e+03
2.911005412877785147e+03
2.900268885692715685e+03
2.967240278647886043e+03
2.956978025249502480e+03
2.248720725036347176e+03
1.197535853934840588e+03
1.163537384744691536e+02
-1.073942356871844140e+03
-2.018626935524760938e+03
-2.795518905668094249e+03
-3.773435306999602290e+03
-4.575384109204835113e+03
-4.265317335485048716e+03
-3.024181639564578290e+03
-2.514103014471711958e+03
-1.657844070979444723e+03
-5.393512549553103099e+02
5.714890755779928213e+02
1.403880011623763721e+03
2.602977405748800265e+03
3.464698962636985925e+03
3.245753514272972552e+03
2.644080360316582301e+03
1.945683090904259416e+03
1.657533984104172532e+03
1.566834175460178813e+03
8.807479070712532803e+02
-1.987503033183684806e+02
-1.642576929288425163e+03
-2.705648660817872496e+03
-2.823061670133004100e+03
-2.143801179075988784e+03
-1.833789830473412621e+03
-1.573057359331889074e+03
-1.060556841177102342e+03
-5.201790760934879927e+02
-4.968758699950765276e+02
-2.218015517303487627e+02
3.151965337647447427e+02
5.104294478156576247e+02
3.930166212320226009e+02
7.798935328665227189e+02
1.354239266820530929e+03
1.581112056193233911e+03
2.045457659419985475e+03
2.052530740078836516e+03
1.439472422969636909e+03
7.192792806036532056e+02
-1.123159983145260412e+03
-1.227901691182033801e+03
-1.051153267286336359e+03
-1.337313345632677965e+03
-1.677498197730851189e+03
-1.302528866279207932e+03
-5.641542670434644151e+02
-3.083950432486088289e+02
2.837628009723842979e+02
1.233070791873924605e+02
8.110151386189478444e+02
1.559239517970408770e+03
1.959262532326264591e+03
2.297173633750750923e+03
2.121738556221680938e+03
2.733577160274082416e+03
2.608651668332152440e+03
2.119783707675837832e+03
2.131258996677058349e+03
1.761910306825028329e+03
9.460358514207858889e+02
1.253870023299250960e+02
-4.882708507570396819e+02
-4.478223944536447334e+02
-3.472392126690987624e+01
-3.698859634931100118e+02
-7.575790599588822261e+02
-5.675797588461991836e+02
-1.275243937711891533e+02
8.252139305328616956e+02
