-5.462831991826938975e+03
-4.495467421229543106e+03
-3.566281869356435436e+03
-4.485105422699921007e+01
2.107979069554713078e+03
1.362836194896413247e+02
-1.209777146324848218e+03
-1.923149275741227939e+03
-2.328323779773007573e+03
1.370730350312149426e+02
5.167024559247862925e+01
-2.703815095698461846e+03
-3.709183339993259779e+03
-4.764317547771131103e+03
-6.224038549974375201e+03
-7.181196066638037337e+03
-7.239948053287887888e+03
-7.494242641745916444e+03
-7.884867165394906806e+03
-7.489728540953762604e+03
-3.920839891512265240e+03
-2.684402419971012023e+03
-7.633533177511080794e+02
-9.750623330551647427e+01
5.672809023155467685e+02
1.379188225404747300e+03
1.324304551560110895e+03
1.283595836179839807e+03
-3.211189736621174262e+01
-3.239559687526825655e+02
-7.426827978768767480e+02
-4.640812205521417013e+02
-2.951730518924225635e+02
-1.674149699714062081e+03
-3.011999310350487576e+03
-2.467186811589998797e+03
-2.401702029118951486e+03
-1.870208551420854292e+03
-1.606970613117829316e+03
-1.386737618345389137e+03
-1.172296169575006161e+03
-1.970001379409529591e+03
-1.359262861823737467e+03
-2.816430226335866038e+00
2.088723292878510307e+01
5.638091852629696632e+02
2.723884326475109901e+03
3.750224061717960922e+03
3.214559097776190811e+03
2.036664394059060896e+03
9.455087835717343978e+02
1.481121036834918527e+02
8.469014575965941560e+01
-5.625789918248143522e+02
-1.422758612015917606e+03
-2.313353157227404154e+03
-3.580034287818365101e+03
-3.442741608630662995e+03
-2.854733039128361725e+03
-2.615923780379006530e+03
-3.111210072630496597e+03
-2.790602359444384092e+03
-9.983435474003291574e+02
1.089258635395994588e+03
2.592548290896107119e+03
2.564554451690585211e+03
2.166224910325745441e+03
2.360537245500474000e+03
1.424415977603952115e+03
7.346348409865761369e+02
6.710341999884250299e+02
3.634173739433579158e+02
-8.180766379139996616e+02
-2.121766199972541017e+03
-2.835724529875940334e+03
-3.266965488049705073e+03
-3.537454136354864204e+03
-4.442204106076434073e+03
-3.917236420927154995e+03
-1.732526575119009067e+03
-6.899398913686344486e+02
-4.318563651631326366e+02
1.617110427742676393e+03
3.738797715944118863e+03
4.329237945300451429e+03
4.402519686292586812e+03
3.826735564476059608e+03
3.893952376628278216e+03
4.484918272083086777e+03
5.005182541666169527e+03
4.661628030055935596e+03
3.826459943552065852e+03
2.777912808989147834e+03
2.124073152703021606e+03
1.289975821952193201e+03
5.652724805651605493e+02
-2.315729012832193803e+02
-2.237372473966437383e+02
-1.421001003096977655e+01
6.009295004904263351e+02
1.673607494003187639e+03
3.096727030804288006e+03
3.387388208716466579e+03
3.366584611182078334e+03
3.727204809663778178e+03
4.255252144662882529e+03
4.822869283590887790e+03
4.563145497692742538e+03
2.692716738955015899e+03
4.620670426752324715e+02
-2.313015709003733718e+03
-3.613220381119944705e+03
-4.502398741583856463e+03
-3.976511046447551507e+03
-4.760514827477946710e+03
-6.327626692464078587e+03
-5.849045206129640974e+03
-5.985642274153872677e+03
-7.140756898278713379e+03
-7.814555874773510368e+03
-7.944989933563725572e+03
-7.678976454668869337e+03
-7.166610925793497699e+03
-3.636972609342244141e+03
-5.610459252190195230e+02
2.094275155596155855e+03
3.563975637574291795e+03
4.019771000792547511e+03
3.098562149876076546e+03
2.947275184917715706e+03
2.631141801075215881e+03
1.626346409278890178e+03
2.317740325263723207e+03
1.995885817035692298e+03
9.177046923439428383e+02
5.410941179899951976e+02
8.992671187792108185e+02
1.084370272574373075e+03
9.304488605143628774e+02
1.111357762080956263e+03
1.980827771794163027e+03
2.460657245300778868e+03
2.648106363420000434e+03
2.843221470408376263e+03
3.172920563107763428e+03
3.803317885562071297e+03
4.136469136120535950e+03
3.992275822751219948e+03
3.900818900742091046e+03
4.106221854135155809e+03
3.994375215542717342e+03
3.347267192068050008e+03
2.018747262536477137e+03
5.549032312718615003e+02
-3.108671074951462643e+01
-1.821160738800111005e+02
-8.542339629402879382e+02
-1.252593942086638208e+03
-1.365426268526554395e+03
-1.338924444363729663e+03
-1.302096748488265803e+03
-1.210828857314705147e+03
-9.109840350070450086e+02
-6.794080413596985863e+02
-2.530084682189895489e+02
2.361297695146884053e+02
1.022098569833420129e+03
1.738736388550457150e+03
1.258015944152481552e+03
8.729765367074264759e+02
1.075566091582340050e+03
8.988550293517481578e+02
6.809506480171155545e+02
-4.753350779815049805e+02
-1.806779461896102248e+03
-2.398065699990186658e+03
-2.998350149307749234e+03
-3.641714692087333333e+03
-3.641323270549394238e+03
-2.747254489226033911e+03
-2.298215012832100456e+03
-2.166062088656448395e+03
-2.110712329002382376e+03
-2.667175600294292963e+03
-1.606527132974622873e+03
-3.400627970281216221e+03
-3.912265202038664938e+03
-1.090211063217450828e+03
-1.016388281521029739e+03
-2.486460929855377913e+02
-1.175929126912907122e+03
8.607444509729003812e+02
-6.658915170132037247e+02
2.861904511687626496e+02
-1.430788851624457038e+03
-4.419223196236897820e+03
-4.777265527757293967e+03
-3.453652084594631106e+03
-5.220429076668936432e+03
-4.334727398181335957e+03
-3.918397586249116557e+03
-5.331324557487332640e+03
-3.593350166584589715e+03
-2.866317033762932624e+03
-2.102040712323533171e+03
1.498493954127807228e+03
1.638422975197955566e+03
2.245886106495235254e+03
3.195973714903006567e+03
1.761655640588619463e+03
1.054736145450708364e+03
1.653314787273895945e+03
-4.074257211495404363e+02
-5.375089107098082195e+02
5.501740751393462006e+02
1.221427582510091725e+03
1.010673214295954807e+02
4.761003006621879763e+02
-1.209404976274288629e+03
5.498449731995294769e+02
-1.449916653169067331e+02
-1.893833472432726239e+03
-1.357778964548631109e+02
8.020688515868929471e+02
3.195836557407063538e+03
3.172576838727718041e+03
2.912371024624662823e+03
4.623475648585837007e+03
5.196250311884289658e+03
5.103927223875366508e+03
4.784293768676006039e+03
4.296979457206283769e+03
3.586123885231952954e+03
2.136876686463130682e+03
8.439805869306169939e+00
-1.903117266227004620e+03
-2.384743731561234199e+03
-2.605635193757309935e+03
-2.197884590598449449e+03
-2.773585806167532724e+02
1.235231485960483269e+03
2.063119918095383127e+03
3.160316683667608686e+03
3.613795039207736863e+03
4.233646979144683428e+03
4.559059953532610052e+03
4.729958776541807310e+03
5.153448135249906045e+03
4.470700931513826617e+03
1.867726536421486117e+03
2.261796072053200987e+03
3.675913388492583636e+03
4.263890375746311292e+03
3.998718617011755214e+03
2.784535553775394874e+03
1.846424376246824067e+03
1.583450164741016351e+03
1.064459083885586779e+03
2.173342903400527462e+02
-3.260011045142557577e+02
-6.150770131247799100e+02
-3.276147791588856251e+01
-2.056805228010011319e+02
-3.427021370568888301e+02
3.919530917996378889e+02
9.180334590014724654e+02
6.243927294795396392e+02
1.485168963356428776e+03
2.787551485101152139e+03
3.112393265310493007e+03
2.991647072141002809e+03
3.455303139168791859e+03
3.328278152514131307e+03
2.965409729236618205e+03
2.488682492635626204e+03
1.909110525998479943e+03
2.137705352193785984e+03
1.703158076271513664e+03
1.279298866542035512e+03
8.279970094739265960e+02
3.923565732333859728e+02
5.823658742228710707e+02
1.694857744433041717e+03
2.429766415978278928e+03
2.243896030792157489e+03
1.463257910976758922e+03
1.011721070852775824e+03
8.422301369160629747e+02
7.216947435561062321e+02
1.584149121757535113e+03
2.958677154922682803e+03
3.859200625228379977e+03
4.365536024486264978e+03
4.180627810300298734e+03
2.675377529565143959e+03
9.577864533004573104e+02
3.197868286434505762e+02
4.562965452296324429e+02
-1.736076971824307122e+02
-1.427979807263043085e+03
-1.760005665033055720e+03
-1.054818275407075816e+03
2.364638711395188295e+02
4.457137324439353279e+02
6.298726970755457160e+02
-1.929246307458049046e+02
-1.466537552218862402e+03
-3.342097015563357218e+03
-2.984690927981394907e+03
-2.256425492890738042e+03
-1.441160091241782084e+03
1.653250615847029394e+03
-6.522339988825988257e+02
-4.978776609856132382e+03
-5.943652923523312893e+03
-5.867621216656747492e+03
-5.698558585447655787e+03
-6.509384193844420224e+03
-7.503182692351842888e+03
-7.761904567190942544e+03
-8.120722340092127524e+03
-7.465847651804643647e+03
-4.743313611812158342e+03
-2.983908074951118124e+03
-5.771649132032483067e+03
-5.842626854110316344e+03
-3.984796257949426945e+03
-1.883890365986177358e+03
2.037205100415027573e+03
1.355855115009883775e+03
1.970900170042415766e+03
2.032027552285782804e+03
1.015155277083970077e+03
-1.772105219888495924e+02
-1.859753156843580427e+03
-2.490754758955123179e+03
-2.227739886676238712e+03
-2.253660384957768201e+03
-1.217617178350261611e+03
2.841909982032826179e+02
9.027562760349983506e+00
-5.986212886029400124e+02
-4.354571170919376186e+02
1.115528215181436593e+02
7.392941098666379958e+02
1.010782200215361854e+03
9.564456008982962203e+02
1.263967603744727057e+03
1.542772843008065820e+03
2.617806877377332057e+03
4.012605104212103470e+03
4.215083342448800977e+03
3.424064875245753683e+03
2.690678090866014827e+03
1.645713207584709608e+03
-1.358718214860424212e+02
-1.388056038201087858e+03
-2.189316213321457326e+03
-1.317716315547521390e+03
-6.900692280093311410e+02
-6.003230905738397496e+02
-5.504508685805715231e+02
4.337694717709779866e+02
2.246957231938908990e+03
3.500038370417154056e+03
4.024423595323685277e+03
3.847276008710401584e+03
3.639058245822472600e+03
3.531249558032078767e+03
3.548593096266683460e+03
3.589718338051421142e+03
2.829544990282229264e+03
2.044058318964487171e+03
6.505278535801411408e+02
-1.237815559465511342e+03
-1.220547183613978859e+03
-1.655285644035601536e+03
-3.156562030661096742e+03
-3.654038575809820031e+03
-3.752412269481334988e+03
-3.818324628244417909e+03
-2.398994065908178072e+03
-6.618583236883243899e+02
-2.855104311617074018e+02
1.448544187506275875e+02
4.040961937187952344e+02
4.605508842459301491e+02
7.882815855375163210e+02
7.535174781832797635e+02
3.496468832473637462e+02
-4.328548472587711160e+01
-1.374998520393009812e+03
-1.808587592589942915e+03
-1.597054485372690124e+03
-1.233372923760036201e+03
-9.721027921418946107e+02
-1.916382861429284503e+03
-3.447391029850130963e+03
-3.901101651508325631e+03
-3.618613871951792589e+03
-3.176130311360171618e+03
-2.871856675732515214e+03
-2.793845354411602329e+03
-2.738333906796874544e+03
-2.610504734695122352e+03
-3.107254704182978912e+03
-3.272832112546742792e+03
-2.727743524411740964e+03
-2.187063610470147523e+03
-1.782848513796337784e+03
-1.454069891849574333e+03
-6.232085373201327911e+02
-1.051226107526396021e+02
3.992389920229078371e+01
-6.939369730806050711e+02
-1.756624970775148313e+03
-3.216253142822842619e+03
-4.491798659812425285e+03
-4.172721026490679833e+03
-3.763062827107075009e+03
-2.873679225533582212e+03
-9.738359207973398952e+02
2.233496408754027414e+02
3.349963052908669283e+02
3.282879122839551655e+02
7.036227350087494870e+02
8.020206625633758222e+02
1.377153653890268288e+02
-1.328795428568366788e+03
-2.762292635216579129e+03
-1.354324654340389088e+03
1.746369507233706599e+03
2.009035798406718641e+03
1.519894776529945375e+03
9.693767336545458875e+02
9.500667411446652011e+01
-4.076559049906052792e+02
-5.617792745176892595e+02
-1.466209435077111266e+03
-2.460611769417516825e+03
-2.999739869542220276e+03
-2.489200016692026111e+03
-1.265777683277728784e+03
4.640122946524504073e+02
2.812957897620761287e+03
5.227468247033113585e+03
6.176503792926659116e+03
6.236488405274753859e+03
5.756586096389558406e+03
5.343794477870889750e+03
4.905211401969677354e+03
3.740261609944108386e+03
3.214904608199208269e+03
3.179526406950365072e+03
2.783522023196153896e+03
1.986143158327181709e+03
1.634110165841048229e+03
1.759342939788242347e+03
2.160156148431142810e+03
1.585868417965610661e+03
1.109443952047546645e+03
1.436587490380551799e+03
2.038878414785009682e+03
2.687578149994605155e+03
3.339283601882048060e+03
3.946920094839249487e+03
4.484509287197416597e+03
4.930568248453047090e+03
5.748619473366560669e+03
6.045142293855285061e+03
5.866544693799282868e+03
5.642325646777934708e+03
5.871940542383972570e+03
5.484634236460907232e+03
4.341922685906991319e+03
2.954572970953820914e+03
1.781845995951955047e+03
1.396024017645918775e+03
9.872748209191839805e+02
-5.895579744293236502e+01
-9.079145307858957494e+02
-2.070916843414149298e+03
-2.458904646684971340e+03
-1.705838010061070236e+03
-1.383367578713640000e+02
2.095236502668163666e+03
3.254908844768773179e+03
2.692581908388729062e+03
1.994617496153519141e+03
1.318822381273440669e+03
1.238542964824833916e+03
1.270246469691300945e+03
1.124951238546795139e+03
-1.386481426730828389e+03
-5.873452303891183874e+03
-9.628118379089748487e+03
-1.148887629775945788e+04
-1.171687789822613195e+04
-1.187015384672978871e+04
-1.306613725837520724e+04
-1.358274304726377886e+04
-1.303500011384392928e+04
-1.425737093649147755e+04
-1.386449205003516545e+04
-1.350063223858563106e+04
-1.490525038545987081e+04
-1.494497937117360379e+04
-1.428896800283684024e+04
-1.495669014873537344e+04
-1.530841214787186618e+04
-1.430517873608435548e+04
-1.297705049766645425e+04
-1.037945789231901108e+04
-8.442617054020889555e+03
-6.306072048740707942e+03
-4.263035588196364188e+03
-5.598040593447852189e+03
-5.902007248695816997e+03
-5.269140858728024796e+03
-2.007908526699271988e+03
-2.768135994254943171e+02
-1.181700667245091836e+03
-4.953355383182497462e+02
3.041604133694365260e+02
1.115466609471485981e+03
1.963518237305072716e+03
2.570075440568047725e+03
2.981280242703305703e+03
3.149016819466267407e+03
2.530902550969761705e+03
1.935984643228532832e+03
1.847237386388737377e+03
3.568449694978223306e+03
6.285483845529213795e+03
6.160569949946520865e+03
6.137690958311173745e+03
7.407680934860935849e+03
9.918456135171078131e+03
1.195979695457273738e+04
1.363327299303270229e+04
1.380179150134285010e+04
1.340964011835498422e+04
1.279581904568600476e+04
1.182445028243163324e+04
1.089967487904601512e+04
1.103318626907825455e+04
1.137179591970748879e+04
1.118466491309373123e+04
1.116912651594512681e+04
1.075691674118236551e+04
1.026603828149931542e+04
1.031858889294606161e+04
1.025459934103863998e+04
9.845433316358186858e+03
1.000786957365577655e+04
1.182078646251075043e+04
1.338667056737921666e+04
1.291069511771493671e+04
1.196879403358781747e+04
1.184686955628474425e+04
1.066914288705001854e+04
1.003088511395809292e+04
1.088248210590614690e+04
1.039027342903741555e+04
9.054592988732661979e+03
6.974748732036319780e+03
6.041836354191003920e+03
6.946821961564123740e+03
7.645266242943231191e+03
5.782246747134435282e+03
1.067258997799411190e+03
-5.824827006388668451e+02
-9.556226028767413254e+02
-9.365717863622120376e+02
-1.095071873835401448e+03
1.570228579125792066e+03
3.508626919709576214e+03
2.816992850588409510e+03
-1.329641822598138106e+02
-1.409308282230387476e+03
-2.823926773770507225e+03
-7.610000655654506772e+03
-1.341335743313685452e+04
-1.676094566399416726e+04
-2.017941089549423123e+04
-2.092862980399400840e+04
-2.529519650577065113e+04
-3.582501361631805048e+04
-3.646555988760940818e+04
-3.041464802641231654e+04
-1.940438003594792099e+04
-8.235978454967640573e+03
3.362504018720307499e+02
1.088966556353358101e+04
2.197750993624796683e+04
2.064065613748567557e+04
8.178419842015357972e+03
-2.892634181732047637e+03
-1.421700790984296327e+04
-3.027871807656590681e+04
-3.853861672399481176e+04
-3.474219003601273289e+04
-2.453219009176068357e+04
-1.800921634367326988e+04
-5.037841917816384012e+03
9.544251250395960597e+03
6.130374588812796901e+03
-9.652521649621400002e+02
8.470240602515418686e+02
3.765701678682984493e+03
4.238794865174834740e+03
3.448784566596370951e+03
2.242236566849667270e+03
-6.741701963612375948e+03
-1.985473420559515580e+04
-2.175456463328618338e+04
-2.517371613007775159e+04
-3.017300655540427761e+04
-1.971103991506818056e+04
-1.289457346437228625e+04
-7.356486637820986289e+03
2.477551063132428226e+03
6.348772638735349574e+02
2.488828959104225305e+03
1.191970065945515307e+04
1.946400031961513741e+04
2.436231981461789837e+04
2.702210379989695502e+04
2.804455884341253113e+04
1.977582990208168849e+04
1.072230837836607861e+04
2.732348941439810005e+03
-2.921146591622363758e+03
-4.033022963639566115e+03
-1.188053836270320062e+03
6.263930963475703720e+03
9.471041125470566840e+03
9.815336659701222743e+03
3.058116924181229479e+03
-1.626254687581981216e+03
2.123109485957736979e+03
2.115400173938493481e+03
-8.168249740416220448e+03
-2.212475184656158672e+04
-2.439270485608301169e+04
-2.096476726563314878e+04
-1.816663925142060907e+04
-1.259732799625277403e+04
-7.237766314373094247e+03
-4.237966214408714336e+02
7.831642206627876476e+03
9.098437833366699124e+03
8.313732275297601518e+03
4.858751644344968554e+03
-2.603489882276927574e+02
5.435513695440124138e+03
9.254415658405585418e+03
1.081328559866948672e+04
1.200329333510404285e+04
9.316507833173864128e+03
2.074946480876909845e+03
-6.347463465026659833e+03
-6.376695861685116142e+03
4.944377925478424629e+01
6.189932390623110223e+03
1.198252104451124433e+04
1.918611266585132762e+04
2.207369081022741011e+04
2.833301683641903583e+04
3.195208551417276612e+04
2.411713211312420026e+04
1.548510696008216291e+04
1.765563214577339750e+04
2.103869352573726064e+04
1.898044007196741586e+04
1.625347559345843547e+04
1.515850461177048601e+04
1.045829207893537023e+04
3.144443208021304144e+03
-3.765065271657148514e+03
-9.582103329274475982e+03
-1.228500124822940052e+04
-1.517993330511430213e+04
-1.444358119265828100e+04
-6.066838458925967643e+03
8.602621467794626369e+03
1.909223633351343233e+04
2.215790965881234661e+04
1.653859387349357348e+04
1.330510148077321537e+04
1.628014722549387443e+04
1.488650742129507853e+04
8.863938203464856997e+03
-6.429785717083780128e+02
-9.915581715246464228e+03
-1.600995398187568026e+04
-1.998230888535532722e+04
-1.624595127618468723e+04
-1.036920244262741107e+04
-7.873282994735798638e+03
-2.144398211048212943e+03
-4.660766532398326490e+03
-6.070804191260651351e+03
-2.029764631279967716e+03
-3.915964009681127209e+03
-8.761596289639652241e+03
-9.159749340478256272e+03
-4.822810110507284662e+03
-9.803453460670638719e+01
1.441280580430492591e+03
-1.414196229628838410e+03
-2.992801407241397101e+03
-4.189755049555870755e+03
-5.162250455916621831e+03
-1.865657851851601663e+03
-1.754485698080599832e+03
-6.587464933973220695e+02
-1.024630340611229258e+03
-1.463387238541120951e+03
7.776892318737093319e+02
7.783056593284642304e+02
2.739156513470797108e+03
5.275951401967553466e+03
4.474553003801837804e+03
4.027119895591259819e+02
1.478261041552531879e+03
-1.394732961320074082e+03
-8.407817013345767919e+03
-8.430481984898415249e+03
-4.353935460766110737e+03
-1.932037775980775677e+03
-2.085978841082833696e+03
-6.524067746450532468e+03
-8.073539594547655724e+03
-6.460677513662851197e+03
-5.757592333173353836e+03
-6.246464070489679216e+03
-6.588496491603066715e+03
-5.814688676586693873e+03
-1.728243440138882534e+03
-2.555299767036457865e+02
-1.829758065217507010e+03
-1.341129049656417465e+03
3.542694293547959887e+02
-4.361646775217837785e+03
-1.100199998192211388e+04
-1.293574193549343909e+04
-7.086124044065720227e+03
3.287645151713903033e+03
4.140632335474815591e+03
2.432923655880090791e+03
1.537620598344789641e+03
-5.334118115062408378e+02
-2.600438964892823606e+03
-3.397569855467595517e+03
-7.507892359520210448e+03
-9.425431255620571392e+03
-9.354303371286856418e+03
-1.370261067018936774e+04
-1.153131719693999003e+04
-9.760627401210147582e+03
-1.304867760466231266e+04
-1.213123757041032695e+04
-7.552144866767502208e+03
-4.682463154834885245e+03
-3.086109577766422262e+03
-1.809240087728051947e+02
3.795945253974210118e+03
4.989306706088070314e+03
6.305992076820800321e+03
1.869914450523109281e+03
-5.413865267710487387e+03
-5.706218948945724151e+03
-2.643317081681722811e+03
1.423740067303956494e+03
1.030145091232108825e+03
-4.984163590466590904e+03
-7.565992856427330480e+03
-5.732425487397730649e+03
-4.327504776513775141e+03
-4.164076698866147126e+03
-2.477075954663941957e+03
-3.184405156597370933e+03
-1.033963731967176045e+03
2.172404382515146153e+03
1.387878587806505038e+03
1.972534032877880009e+03
3.276400337763607240e+03
2.679546312797338032e+03
1.764031452164795382e+03
4.123928228007658618e+03
7.704315161620768777e+03
1.056619869549030227e+04
1.369451924499187953e+04
1.589130226596298598e+04
1.424259572992186258e+04
1.104950097884195202e+04
1.053039000731092528e+04
9.276401051839489810e+03
9.790507117053302863e+03
1.284083424578089580e+04
1.226354748796065724e+04
9.828750258596341155e+03
9.710587218183492951e+03
1.392220962907828471e+04
1.479980938747854088e+04
1.466955359378805588e+04
1.349256195188444690e+04
1.088994226582502597e+04
1.287178340504400148e+04
1.199820347361812674e+04
6.981314708173455983e+03
5.388010134010008187e+03
5.328373766918540241e+03
4.043735462218491193e+03
2.922363603873881743e+02
-4.094051830535773206e+03
-7.664935548383107744e+03
-9.894289929870410560e+03
-1.075711958712036721e+04
-1.035333205948381328e+04
-5.245779001602064454e+03
1.042815539880147298e+03
6.638527391341645853e+03
8.138308594806367182e+03
2.520315498848534389e+03
-3.551129466960913305e+03
-8.091673751801672552e+03
-1.066242329728579170e+04
-8.234318546212314686e+03
-5.630296937351078668e+03
-7.333623443579748482e+02
7.458206898023272515e+03
1.272145911008571784e+04
1.316767754828835677e+04
1.228415645144885275e+04
8.846849495775793912e+03
7.459841445932644092e+03
7.176616495246757040e+03
6.257391005963361749e+03
7.293014343185177495e+03
9.497461436862282426e+03
9.504570062196145955e+03
8.292764984803912739e+03
9.677713924112746099e+03
8.583758182883681002e+03
7.423594626438465411e+02
-3.434006273264793435e+03
-2.283622343578860182e+03
9.325216944474066167e+02
3.827052334210629851e+03
2.459721369126565151e+03
1.591380403771718420e+03
2.228967943037801433e+03
5.155603144793915817e+03
4.764519758817700676e+03
2.183320041759524429e+03
1.840569846530966061e+03
-1.066835221635671047e+02
-1.991025012990368850e+03
-2.634323042601119596e+03
-3.692325904245652509e+03
-4.340449394629848939e+03
-6.207428490786913244e+03
-5.134829344655444402e+03
-2.614288083889563950e+03
-4.286099052419285727e+03
-4.960172460446551668e+03
-3.701369101191439768e+03
-4.657686309990848713e+03
-6.194529581511172182e+03
-6.750417695186523815e+03
-5.301143420861301820e+03
-6.025540845942989108e+03
-5.891519588109998040e+03
-5.608519231374461015e+03
-6.752488297927929125e+03
-8.174474013196911073e+03
-1.021092606049171081e+04
-1.320402235044313784e+04
-1.737406803650868824e+04
-1.971382630765132490e+04
-1.829834791384970958e+04
-1.416755768837775031e+04
-1.097739033434295379e+04
-9.040773411634103468e+03
-5.735904555678859651e+03
-1.095562939273868096e+03
1.698261986799980150e+03
3.468519555613070679e+03
4.134919879079197017e+03
5.023172432401810511e+03
4.935762169449548310e+03
2.588677021748367224e+03
2.842019710891972863e+03
6.473360526530324023e+03
5.487613746246467599e+03
4.507032042575867308e+03
2.502863120882394014e+03
-1.489007050155214984e+03
-2.786101271112668655e+03
-2.089206602014184227e+03
6.042612542802864937e+02
1.884424617500964359e+03
1.329881362264658264e+03
1.970395958064481192e+03
2.823674113641493477e+03
1.071405391939354558e+03
-4.749727493509261649e+02
-1.855332208329118203e+03
-3.500466228886562476e+03
-4.426216842015722250e+03
-4.505459432458712399e+03
-6.056129967964750904e+03
-6.165079207562212105e+03
-5.909346319154058619e+03
-5.603716795659570380e+03
-6.310789168197554318e+03
-7.626326188180356439e+03
-6.048859182123020219e+03
-3.174943866908109158e+03
-2.519679801755955395e+03
-2.542090887592182753e+03
-2.082398239595417181e+03
-3.424361249333493106e+03
-4.449235170383496552e+03
-1.544927367478128417e+03
1.640493044530651332e+03
9.323119333895467662e+02
4.798340059180530943e+02
3.552863754604940368e+03
5.193761855592747452e+03
5.115666003095679116e+03
4.339553496259462918e+03
1.221741748932788596e+03
-1.295467805747345437e+03
-1.388905360502067424e+03
-4.114509241096971891e+03
-7.261432758534855566e+03
-4.316639861764652778e+03
2.840650611773635774e+03
3.797770251234422176e+03
-7.299915394717833124e+02
-1.762533149261219023e+03
1.929601036929516795e+03
4.405186243561552146e+03
5.796165092073571032e+03
7.447109095147773587e+03
8.867415230375321698e+03
8.296536081141406612e+03
6.450862061497117793e+03
5.459572888761368631e+03
4.330584174188204088e+03
2.401872202782084969e+03
1.367362648561360743e+02
-1.170232438192430891e+03
-1.028533099145137840e+03
1.135594989540490587e+03
2.503630757480487318e+03
3.290509437303876894e+03
2.714758640226193165e+03
2.375192068013465359e+03
4.564034449272500751e+03
5.546814152385978559e+03
5.997381205053973645e+03
6.725829714019939274e+03
7.314074177710613185e+03
6.687404725324118772e+03
6.029087116842950309e+03
6.700148251286997947e+03
6.651372518524708539e+03
3.472564585268678911e+03
1.969734593866800651e+03
1.087717856822195245e+03
1.046729535675623765e+03
9.778183766674434310e+02
6.186786262088820649e+02
-3.884295296982254513e+02
-2.133736360507834434e+03
-2.683095738387065921e+03
-3.440439136876877456e+03
-2.735484804137423907e+03
2.245660625833805625e+03
3.580324008433888594e+03
1.356035616865907514e+03
-7.539349680221907875e+02
1.093137243491899881e+03
2.794349833041439979e+03
2.924869488259537775e+03
2.568147855938826979e+03
1.605154410331413146e+03
1.507430167938769046e+03
6.260766436850499304e+02
-8.157535735281310281e+02
-6.461912880036159095e+02
-1.452884963742121158e+02
-1.046199675283708075e+03
-1.589827069535093869e+03
-1.593991013956554525e+03
-1.384901512871489558e+03
-2.120645992681637381e+03
-3.205665509867184483e+03
-2.147678680126025029e+03
-2.066890226214928589e+03
-3.170906608401947324e+03
-2.186228627913438231e+03
-1.183181639487462235e+03
-2.075674271151036407e+02
1.035397358818870401e+02
-7.097188977388348121e+02
-5.182181196453727807e+02
-3.290733895650595855e+02
-7.339483054315519439e+02
-1.439906691052238102e+03
-1.705183874323489590e+03
-2.823379363569113593e+03
-4.838941276605970415e+03
-8.780914442270743166e+03
-1.220296258455356838e+04
-1.251045517281118737e+04
-1.265573793166938412e+04
-1.293076859094065912e+04
-1.057348809178804368e+04
-7.967036626469206567e+03
-6.677594801354252922e+03
-5.512946801079336183e+03
-5.530108787492659758e+03
-4.071557598871650953e+03
-9.689971181845804438e+01
-1.651552309991881430e+03
-4.738750555806269404e+03
-5.387697106374313989e+03
-4.217103336509661858e+03
-1.605472931075896668e+03
-3.183024223448398516e+03
-5.005131400627072253e+03
-5.748854980496990720e+03
-6.576158516001246426e+03
-7.075175008600587717e+03
-7.519745673788094791e+03
-7.148127107922648065e+03
-5.540431156207170716e+03
-4.686367187552677024e+03
-4.711001054658833709e+03
-4.703363535235302152e+03
-2.976361770781287760e+03
6.380598125685432933e+02
2.069654218797705198e+03
2.534300487889862779e+03
2.313019275975002074e+03
2.741754317099360378e+03
2.453455797876578345e+03
1.965385665808701560e+03
3.595698060608691776e+03
5.285207821466926362e+03
4.870031176486368167e+03
3.720041996880821898e+03
2.593947280500372472e+03
1.908998867765016712e+03
1.609390703810704508e+03
1.011005819388911732e+03
1.371508059677147685e+03
1.933076408594126633e+03
2.361806725833951987e+03
3.244840699226609559e+03
3.762349242710662566e+03
3.920032118056361469e+03
4.633095521327231836e+03
4.422956750690539593e+03
3.871462770310624819e+03
4.108432852772833940e+03
4.036952962075390133e+03
4.102198859095592525e+03
3.986426368613476370e+03
4.413630927765727392e+03
5.073672319060066911e+03
4.266416472667414382e+03
2.648744012024320000e+03
1.774246398433884906e+03
1.190744007008290509e+03
4.473333102323379080e+02
4.510559390830069333e+02
7.982290668163248029e+02
9.450657291764367756e+02
9.677518528104600364e+02
1.950382574380289043e+03
3.527508730614545129e+03
4.335018944073167404e+03
3.986758781411746440e+03
3.231287864062079279e+03
2.754469000856627645e+03
2.541593764256681879e+03
2.137865287640368933e+03
1.638470871506247249e+03
2.742204454642535438e+03
4.112013303955101037e+03
4.721949949790164283e+03
3.745928532996703325e+03
2.296585252368990041e+03
1.602823663050428877e+03
1.163730817744044316e+03
5.841226208707139449e+02
5.131856213612622923e+02
1.105532314546673206e+03
1.346930353955204964e+03
1.897944774526224364e+03
2.311387849517742779e+03
3.075223340166090111e+03
3.818762724083173453e+03
3.780944904301788938e+03
3.643631213457122158e+03
3.486522009332526977e+03
2.979799043586188418e+03
1.729537481722136363e+03
-1.494541893579643954e+02
-1.080068605012110766e+03
-1.418380218166620352e+03
-1.963525642361732025e+03
-2.273500300371503727e+03
-2.528392277411554460e+03
-1.808143309717599323e+03
-2.989906486728704067e+02
-1.311050627640171626e+02
-3.131907221782901161e+02
5.906693588139918347e+02
1.635271393729167812e+03
1.948774106482625257e+03
2.109231365093125987e+03
2.054605488976279958e+03
2.785653035746051501e+03
2.929494162550504825e+03
1.415925836960498600e+03
-4.381149524403215310e+02
-2.290596272720500110e+03
-3.287511631975040473e+03
-3.917795095055848833e+03
-4.290518129080042854e+03
-4.953628409857581573e+03
-5.551264892809841513e+03
-5.839747741242862503e+03
-6.202396919927183262e+03
-6.492257783712935634e+03
-6.366261009148483026e+03
-6.003610963103268659e+03
-6.210600456635283990e+03
-6.025220051646851061e+03
-5.244387067204204868e+03
-3.064142445871358632e+03
-3.485857211450297655e+02
3.314156818895814354e+02
5.300337266327223915e+02
6.160197411255130646e+02
6.660298035265809631e+02
-1.906671431330704252e+02
-8.541055299809049757e+02
-1.469239407184512174e+03
-2.539925265761482024e+03
-3.945317453018066317e+03
-4.533563753294418348e+03
-2.633863742920590539e+03
-1.046239515883150489e+03
-4.886247685599142869e+02
-1.001943236890117390e+02
1.780582574403387071e+02
7.583370052942273105e+02
1.419709398920477952e+03
1.906233976687686209e+03
1.945901921754635623e+03
1.862639203375128091e+03
2.223414155633452992e+03
3.299352138114373702e+03
4.258298944866161037e+03
4.108208641276420167e+03
3.211099456809866297e+03
1.942966451029868040e+03
9.559864124948270501e+02
-2.395601268626058911e+01
-1.138028752928864151e+03
-1.558087095758419537e+03
-1.888082829374091943e+03
-2.382046227685941176e+03
-1.788773461312141308e+03
-1.506316207584523227e+03
-1.553978094893841899e+03
-1.152797168111605743e+03
2.225877976004947527e+02
1.040200810193675125e+03
1.026758959757362845e+03
1.184360799928081178e+03
1.989199041683378027e+03
2.348374742327478998e+03
2.110190106473120977e+03
2.326717210326164150e+03
2.602832564884342446e+03
2.781794759654562768e+03
2.297659255656474670e+03
2.109871903619526165e+03
1.963060698511881583e+03
1.739038885111410764e+03
1.586480274018631690e+03
