-4.236407087404762137e+02
-3.836074988660139979e+02
-6.407272797442676620e+02
1.791672180772482292e+01
1.557410420758604687e+03
2.539659846630907396e+03
2.647471772720317858e+03
2.183007969519072958e+03
1.858259080461410349e+03
1.595053370027008668e+03
9.154136175375745097e+02
3.693298908579769204e+02
-1.352394776616263812e+02
-5.173812479109834612e+02
-6.281535122902342891e+02
-9.775906730832040239e+02
-1.111675981501149181e+03
-1.279571761723734198e+03
-1.415294576872362313e+03
-9.427564932634909383e+02
-2.019427634445302431e+02
2.070885260345958727e+02
1.098345403137179801e+03
1.749874663272643147e+03
2.181601282027192610e+03
2.762596535416417282e+03
3.210788210374848859e+03
3.272124570642879917e+03
2.924571149753545342e+03
2.688068943742555348e+03
2.531578739969183061e+03
2.115993310096937876e+03
1.330251608354585414e+03
7.322813933417037333e+02
-8.394029499672669203e+01
-7.043920077963157382e+02
-7.760552666535018034e+02
-9.269830349124382565e+02
-1.187260725573910577e+03
-1.269906946389737641e+03
-4.238433013817155484e+02
4.639346585156807237e+02
6.764185295281760091e+02
1.426663570481906618e+03
1.633605862695057567e+03
1.924266199228386085e+03
1.710655560543866159e+03
1.680805906880747443e+03
1.753920322611140136e+03
1.664968005022307125e+03
1.341838300633422250e+03
9.973795121678748501e+02
-9.167805824028761208e+01
-7.834600188624237944e+02
-1.143976429756727612e+03
-1.580168730433776773e+03
-1.739950756005193398e+03
-1.756277952184876312e+03
-1.535225655621035912e+03
-1.129845884176394975e+03
-5.881674604715117312e+02
2.049592305271148120e+02
9.864929643875472038e+02
1.418409943847135764e+03
2.010723724936793815e+03
2.263440192632443541e+03
1.439723797632384048e+03
-1.052441000232236320e+03
-1.867982023607606607e+03
-1.880924346394493114e+03
-5.332336587999695894e+02
-1.595838786701225672e+03
-2.416800344727956599e+03
-1.968208387539450541e+03
-2.210150101465119860e+03
-3.548758377578777072e+03
-4.065976656602675575e+03
-3.878658957568073674e+03
-2.881875611627019225e+03
-4.697828517188103433e+03
-3.346235074595394508e+03
-2.519922070043694930e+03
-1.209780218748980815e+03
-1.704742642451303482e+03
-8.311187328574089861e+02
-9.209032658163354768e+01
1.175450000405934361e+03
2.247735594199453317e+03
2.353782861269841305e+03
1.869697854192799468e+03
-3.124690476575586899e+02
-3.477715685002117425e+02
-4.674419504799798801e+02
6.115476889571140191e+02
4.428449195824642004e+01
-4.502991017094642530e+02
-4.962464647345234425e+02
-3.245108492240530040e+02
-5.151184541102498997e+02
-4.580600602158257288e+02
-2.761945644260587756e+02
-9.244086978974920612e+02
-1.224656855752544516e+03
9.630727621567290271e+02
1.528803796843309783e+03
1.949441822053581063e+03
2.265059055937956600e+03
1.616836008497851253e+03
1.243575615402257654e+03
1.087385005635022026e+03
4.605316415102083738e+02
1.491390575601783475e+01
-4.485359932111187504e+02
-9.789388435018609016e+02
-1.156454527280641742e+03
-6.770151675554902795e+02
-3.614583411279357392e+02
-6.608456951685274134e+02
-3.542367537162518261e+02
3.752864792558854674e+02
6.428681060602739308e+02
9.617237612983125246e+02
1.339070222262521156e+03
1.830789225468399763e+03
2.316869055224392014e+03
2.377482666952596901e+03
2.571637140284160978e+03
2.314303398284294872e+03
2.216450904493423877e+03
1.778059429709993083e+03
4.401845198168016964e+02
-1.434959903304767067e+03
-5.265033103287432823e+02
-9.016009620093285548e+02
-9.813535150150524942e+02
-9.828183178650223226e+02
-1.405352001020766465e+03
-1.035657072335777002e+03
-7.087460572718306366e+02
-9.756478159584889909e+02
-7.071867631258105575e+02
-4.043565292598142378e+02
2.848944000530656240e+02
9.255963625880146992e+02
1.568803103087073850e+03
2.025506110220814662e+03
2.415556920093336885e+03
2.585915219381126462e+03
2.345618838967401643e+03
2.018676694929574296e+03
1.910142841119518152e+03
1.471895489866309390e+03
6.727355916786947319e+02
-2.834537514701869441e+02
-1.403553424967374895e+03
-1.747593174938705943e+03
-1.138627530868106305e+03
-1.212543236015740376e+03
-1.001569201471825068e+03
-2.899989866930827702e+02
2.429530592205851747e+01
2.305118850354756432e+02
9.135944415961040477e+02
1.364537509321372454e+03
1.890374743589848777e+03
2.585000287605005724e+03
2.491415724614437295e+03
2.712703129938218808e+03
2.786708073418577442e+03
2.457424948811953982e+03
2.336897960918795889e+03
2.126047531035774682e+03
1.362819772332075445e+03
1.803005730787527341e+02
-7.243010470077060745e+02
-1.706173108499855061e+03
-2.047450871319189218e+03
-1.648106785682502732e+03
-1.464097593388990390e+03
-8.255808926308377522e+02
5.641106728331506019e+02
1.578946202928159664e+03
1.803002438123265847e+03
2.146408590108410863e+03
2.525270786854889593e+03
2.685620094854422405e+03
2.784584170351770808e+03
3.092249895923699569e+03
2.853566362520790790e+03
1.483392276141144293e+03
-6.162858678087163753e+02
-3.627634366281333314e+03
-4.611686464550203709e+03
-5.571358390182510448e+03
-5.973656057285628776e+03
-6.455499034264868897e+03
-7.279194387938346154e+03
-7.895805189053068716e+03
-7.182281895336580419e+03
-6.463698112054430567e+03
-6.377985516607283898e+03
-5.347181039566604341e+03
-4.468391256291282843e+03
-2.262558563386238802e+03
1.347503936870796679e+03
3.023955580977829413e+03
3.203019189626798834e+03
3.234602337146231548e+03
3.659403663082377534e+03
3.643494780196506326e+03
3.003977629091170911e+03
2.289734508403224481e+03
1.771730085431239331e+03
8.838478266228011080e+02
-1.267913042758493845e+02
-8.801506608941245986e+02
-1.110386679436977147e+03
-7.475062475877381303e+02
-7.873384891553085936e+02
-1.049016583107934593e+03
-2.335379194202013764e+02
7.502484566500390883e+02
1.771426927120728351e+03
2.430196691938046115e+03
2.624391419031607256e+03
2.452824593167508738e+03
2.459537612141948557e+03
2.127744824114095536e+03
2.302424995090816537e+03
1.678612050930797977e+03
1.155239298418590124e+03
1.162231137213803777e+03
1.187747378484838464e+03
5.128143402632227890e+02
-2.975982959830030836e+02
-6.687154062000678323e+02
-1.255659115966280751e+03
-1.673261554589893194e+03
-2.059468264332978833e+03
-2.113147587815755742e+03
-1.951264741772869456e+03
-1.792904437979477279e+03
-1.126212087616999042e+03
-3.028340195567132582e+02
5.055798266922614062e+02
1.326871599382462819e+03
1.387034231051378583e+03
1.002039455966279434e+03
8.818271921676031297e+02
8.085718240208901761e+02
1.111472518755805368e+03
1.593612137976526583e+03
1.419005953331655292e+03
2.807833853033922082e+02
-8.602146389194560925e+02
-1.204051100219913224e+03
-2.322726544661746175e+03
-3.377389129160771972e+03
-2.988164417078460701e+03
-3.294934600211242469e+03
-3.250688745967993782e+03
-1.626393408790331023e+03
-1.091044336925071320e+03
-9.666901605880185571e+02
-7.106997085418697679e+01
6.736475710569465036e+00
-3.202279865690475731e+02
-1.866934724378027965e+02
2.554643272414305954e+02
3.382559646100085047e+02
-2.255187121585251191e+02
-6.047657369507619478e+02
-5.884100213939934747e+02
-2.219518484146812170e+03
-3.874217584175768479e+03
-4.061283791803998611e+03
-3.314664755361136486e+03
-3.566559810096671754e+03
-4.074849520116527856e+03
-3.745648372765452223e+03
-2.666925583888156325e+03
-6.135374917745206176e+02
1.282386049581548605e+03
2.846703992721720169e+03
3.768578560450423083e+03
4.463307837437832859e+03
5.093782319329937309e+03
4.889790782002641208e+03
3.997549073337854225e+03
2.777328870956487208e+03
1.616987998795057365e+03
1.695451994767119913e+03
2.457774181042535929e+03
1.745199339090093645e+03
-4.573892215074317846e+02
-2.528373881554252876e+03
-3.846879721309045181e+03
-5.260779295734732841e+03
-5.672912836680031432e+03
-5.317331072469123683e+03
-5.532109314386922961e+03
-4.920243317625887357e+03
-4.201671038802883231e+03
-3.712195217931346633e+03
-1.858768416725975499e+02
3.833075569286008431e+03
6.811739836590052619e+03
9.188423577759345790e+03
8.750028214901723913e+03
6.872742148456743053e+03
4.377633346976856956e+03
2.773454613254051310e+03
2.379945222986703811e+03
2.827230573552685200e+03
2.008348573469989333e+03
1.405170590716949619e+03
4.597905331093394352e+02
6.460724559082020733e+02
-1.024691976444418096e+01
-6.850979419139913489e+02
-1.210392523001926747e+03
-1.904084669381390995e+03
-9.503595968357334414e+02
-6.065248821495254106e+02
-5.191028046751366674e+02
-7.377906817022393682e+01
5.923775102223991098e+02
1.770294915421761971e+03
3.125909035430614949e+03
3.650108086319249651e+03
2.757816708875117911e+03
6.950309641316753186e+02
-3.802805092248271421e+02
-1.631063992506561533e+02
-7.853540167113391135e+02
-3.763476244520519231e+03
-4.226336779587926685e+03
-3.148952836637548444e+03
-7.623405088676054220e+02
3.253371297377390874e+03
3.688166900888235432e+03
1.665794436860158839e+03
-6.535373473125941928e+02
-6.098801374562689261e+02
3.258178653154642461e+02
1.616959361480120151e+03
3.842601919662805358e+03
5.415829489191961329e+03
4.367106669643088026e+03
3.658142926059797446e+03
3.855999058216696994e+03
3.182919447957498051e+03
1.930754415284415472e+03
1.169529805512629082e+03
-2.300111733437927910e+02
-2.344830934033413541e+03
-2.776110781585784025e+03
-2.221911544073588175e+03
-1.773219818771121027e+03
-1.266343018213764935e+03
-2.971212779361934508e+02
-6.302828490517449609e+02
-7.709546345402596899e+02
6.667379589734973706e+02
-5.780474038164975354e+02
-1.145298127914001270e+03
1.372877408601141269e+03
3.361510312589038222e+03
4.337520074193748769e+03
4.537032666238071215e+03
2.956909705987936832e+03
2.003023329666647669e+03
2.923375080199616605e+03
3.039903764974621026e+03
1.976633384611785004e+03
-2.363597218930859754e+02
-2.944245460315396485e+03
-5.027135032586896159e+03
-5.472987246737904570e+03
-6.455878782518920161e+03
-7.254939900464738457e+03
-6.723118929812981150e+03
-5.569169774585308915e+03
-4.990948959257447314e+03
-5.304452605634906831e+03
-5.319898262792178684e+03
-5.061310508866324199e+03
-1.996575762413740676e+03
4.073594775046689165e+02
8.422845521693375304e+02
2.238280991734581349e+01
1.280609056804754346e+03
-2.120080714975612864e+03
-2.401718802488695474e+03
-5.253487283416524178e+02
-2.781961595178758671e+03
-5.991572228328270285e+03
-7.043099550325920063e+03
-7.123259561265661432e+03
-6.181127218252090643e+03
-4.479022798892472565e+03
-2.929819905326707612e+03
-2.765439795353710906e+03
-2.834016571388025568e+03
-2.495509140690491677e+03
-2.457743317473733896e+03
-1.749586806701734531e+03
-9.841787533393162448e+02
3.012273097517781366e+02
8.886915417757869307e+01
7.263355892623934551e+02
7.774703257365247282e+02
1.039024692556351283e+03
3.353956983310320993e+03
3.830250973925827111e+03
9.048662095764051401e+02
-7.762024432453904410e+02
2.161257021759724353e+02
1.040922563711987777e+03
1.421067960431289748e+03
2.215487264580281135e+03
2.519325915771875771e+03
2.730606283074495423e+03
3.824395747556494371e+03
3.053870453285105214e+03
2.399099705130832263e+03
2.064949445789011861e+03
1.333573096454389088e+03
1.432076889408028535e+02
-5.593349137135362525e+02
1.832980612019588307e+03
3.173321856127998217e+03
3.480543528718690141e+03
4.221510948759413623e+03
6.759437093666385408e+03
7.986509539197521917e+03
5.666584292892149278e+03
2.635543660816408646e+03
-4.564352121621736558e+01
-1.890910942753041809e+03
-2.981263237886843399e+03
-3.942762046096129325e+03
-3.563184361005589381e+03
-1.262218563974067138e+03
1.102252748023646745e+03
1.845436047998481627e+03
2.954200535385564308e+03
2.748326149432843522e+03
2.139923333537758481e+03
3.122213032763919728e+03
4.479280286961942693e+03
6.680975085819389278e+03
5.771316420928429579e+03
4.365460225979309143e+03
3.437391636339066281e+03
2.053052636328316112e+03
1.243450570184152866e+03
4.773623328207244754e+01
-2.702280892822911483e+03
-5.458810989995868113e+03
-6.501668859712347512e+03
-6.030940519956829121e+03
-2.414766389962030644e+03
9.518252129481935526e+02
3.719305066784868359e+02
4.414986303929727001e+02
2.355730071350198614e+03
3.053775100860742441e+03
3.166557513957428910e+03
1.615007820071072501e+03
1.592249641458838141e+03
2.308370251927760364e+03
1.166328628352580154e+03
-7.119344581561836094e+02
-1.291602602912562816e+03
-2.706724812943368761e+03
-4.160152807244927317e+03
-4.089995397837310065e+03
-3.188339296031927006e+03
-6.223837867426342996e+01
9.503550049594283564e+02
-3.905076787289353888e+02
-9.237186344923107981e+02
5.337171894956833285e+02
1.366855887003422140e+03
2.488598909856801129e+03
3.409962566812247132e+03
2.538966704490740085e+03
3.534554618524336547e+03
4.908674789973091720e+03
5.958436484053735512e+03
4.557930729954769959e+03
1.706112499833761149e+03
1.088534508590290670e+02
-1.227901345239581360e+03
-1.074114042266793376e+03
-8.977416250193863334e+02
-2.145865750851942266e+03
-6.365486937944190686e+03
-7.148728109950587168e+03
-3.725643942609179248e+03
-2.012221058067053946e+03
-9.294119064614716308e+02
-5.481540958497583915e+02
-1.790491693191746208e+03
-3.949483748634610492e+03
-6.109068843252412989e+03
-7.723309498163241187e+03
-8.514226278401847594e+03
-6.651844836255294467e+03
-2.363089690969807634e+03
9.430932443960168712e+02
3.490622153328320110e+03
4.280422779733577045e+03
2.545529204642123659e+03
1.264839824571479085e+03
4.743533472149641170e+02
8.801129130021250830e+02
7.969022630955092836e+02
-1.301302012148568792e+03
-1.324477159271061737e+03
-2.934685631802828993e+03
-4.862845245262068602e+03
-4.449902001731679775e+03
-2.535911001730376938e+03
-4.028519064075986194e+02
-9.637453583654364593e+02
-4.375741204833469737e+02
6.576414143653045130e+02
9.278322449487158110e+02
-1.009910542290629905e+03
-5.645371743518871881e+02
1.226837195841371113e+03
8.020667954166486879e+02
1.515231655560125091e+03
1.215343868879988122e+03
9.542683331096533266e+02
2.374920713751238964e+03
2.364319042892182097e+03
2.400842222494607991e+00
-1.311968967129848124e+03
6.112421847465080873e+02
1.296047996903582316e+03
-1.131518653195480510e+03
-1.706414020191312602e+03
7.544160205319337820e+02
1.692104014024321941e+03
1.201699730415580916e+03
1.235093045766059504e+03
5.335142736128158504e+03
8.775954510419895087e+03
7.393695100699965224e+03
3.880390153281789026e+03
2.352941514044448923e+03
3.017359288778609425e+03
2.507596945552498255e+03
1.485638593066071735e+03
-2.715330121676211093e+02
-1.479981914323567707e+03
-7.047340847950982834e+02
-4.057947710343799486e+02
-2.950417109895461635e+03
-5.277708677378294851e+03
-4.056654271623789555e+03
-3.997203290936679423e+03
-2.124107904136442812e+03
1.633764128976753909e+03
3.262536176458106638e+03
1.513141247544730277e+03
1.525575485445142249e+03
2.465746913445211703e+03
2.333746813454037238e+03
4.119589473403180818e+03
5.015270942078555890e+03
3.065719151504350066e+03
2.066031142502831244e+03
2.131177535159558374e+03
3.528144390124013171e+03
2.644945678702505120e+03
-4.096548685400975046e+03
-7.969234275141994658e+03
-6.666049566264471650e+03
-4.892009556552548929e+03
-1.550077124030313826e+03
-5.233212899664280258e+02
-4.727520486957320145e+02
2.767109336740275580e+02
8.391888330159805491e+02
2.480550069810687930e+01
2.275131549823196622e+02
3.077253083002177391e+03
1.665090235526176230e+03
-1.059758660697759751e+03
-8.324868681249663496e+02
-5.932275066536357144e+02
-8.571081581336626414e+02
-2.947356026126872166e+03
-7.345720392879466090e+03
-9.504977027627033749e+03
-1.180402988062731492e+04
-1.356002629748507388e+04
-1.048502194223663355e+04
-6.003042732530700960e+03
-8.751657589719098951e+02
4.656527433439151196e+02
-1.747352432693681521e+03
-1.754181280213128275e+03
4.851176000139542452e+02
1.569648103133926952e+03
4.275470098290319584e+03
4.756541796061448622e+03
6.009951064514677455e+03
5.713745104379681834e+03
5.087773700314390226e+03
3.909965892663983141e+03
-1.478694119154684358e+03
-2.579215117795114111e+03
-1.062649365740795247e+03
-6.149108072437696819e+02
-1.541049946270525197e+03
-1.232180256263951378e+03
-1.430135548105619989e+02
1.793977596509382693e+02
7.327947300454541164e+02
6.372177282360868276e+02
2.546754993951544293e+03
3.088454717695899490e+03
2.525457247845271922e+03
2.929732263385370061e+03
2.780140934621671022e+03
2.515723639829049262e+03
4.270523207829769490e+03
4.949609947920303057e+03
4.054003527916426265e+03
3.867836210647977623e+03
2.862094528507739597e+03
5.380702662886584875e+01
-2.573029265026456414e+03
-2.669521088507062814e+03
-4.037216349247389076e+02
2.152332129979437013e+03
2.467696923606667951e+03
2.105430590716704501e+03
2.059453204842561718e+03
1.726525495725701376e+03
1.265708816048838571e+03
2.000099701116564574e+03
2.564890281694608802e+03
2.721793937667206592e+03
1.878010717216571948e+03
9.966525167229413000e+02
-3.053955382504345550e+01
-2.359651557181584394e+03
-3.704671607994072474e+03
-1.271429509265016350e+03
1.238998229683400496e+03
-2.405001253426425194e+02
-2.790221460655607189e+02
5.893438586017014131e+02
-4.293031009491404575e+02
-1.556955504974003361e+03
-1.192700521004810298e+03
7.864920887763888686e+02
1.222566558717941007e+03
-2.710333845487432427e+03
-5.236356407878996833e+03
-5.845770873840757531e+02
2.357116270951346451e+03
2.896580633430159196e+03
3.837747907076914089e+03
3.829372655573500197e+03
3.267573259835290628e+03
2.860623211325737429e+03
2.891406052581489348e+03
3.607675385608273700e+03
3.093385953229367715e+03
8.505556510711767260e+02
-8.289861271397927567e+01
-1.007973249411685742e+03
-2.471688985858944307e+03
-1.842118223426507029e+03
-5.741300449685026024e+02
-1.864694373981933950e+03
-1.563804614443986111e+03
1.729550156640674913e+03
2.014439085102531863e+03
1.700854274919475301e+03
3.356491377658880538e+03
2.580370383147624125e+03
-2.974523498763981024e+02
-4.530368273966770403e+02
1.542433788009457658e+03
2.250019454130476788e+03
2.195966210197669170e+03
1.181325007372499613e+03
-3.128433728218843157e+02
-2.551552103839329448e+03
-6.699824782358984521e+03
-9.469677235820643546e+03
-9.005263949484145996e+03
-6.857764826837939836e+03
-2.089186972726866770e+03
2.146157558140313597e+02
-1.805407245241971168e+03
-5.014167899105957076e+03
-4.567596477401570155e+03
-3.338769378911937110e+03
-3.843731426867708706e+03
-4.752568433017779171e+03
-4.512080281239746000e+03
-4.671174569682361835e+03
-4.444866170685055295e+03
-4.058148414549544214e+03
-2.152078339367191802e+03
-1.432550535639288455e+03
-3.685411975353072194e+03
-2.077601792283749091e+03
1.057777799900184846e+03
1.459616146513826152e+03
-6.336965222513077833e+01
-9.482203902025075877e+02
-2.517652762348231590e+03
-2.222642079786076920e+03
-5.973113886436032089e+02
-3.859840007686476326e+01
-4.174091921556698708e+02
1.824256914854752551e+02
1.755858490941768878e+03
3.189834141917307079e+03
4.629522434201915530e+03
4.509039908038940666e+03
3.239304776852217856e+03
3.513415765091061985e+03
3.631410524732234080e+03
3.022198608570579381e+03
1.829728711744478687e+03
8.647995888291409301e+02
7.557557352368194259e+00
1.171772214407430539e+02
4.275908908166929905e+02
1.299706039614927477e+03
1.630600836058072218e+03
1.423223785787850602e+03
1.509622141287123213e+03
1.450979998258473415e+03
7.832469999656406117e+02
7.783924365922737252e+02
1.907488779915820714e+03
3.232741697706931063e+03
2.880322823071533094e+03
1.875196912875518137e+03
1.270401597059805908e+03
1.673829175302981412e+03
1.503486400341105991e+03
1.573531012691360502e+03
8.142563260823678775e+02
-3.245627031809996765e+02
-1.136259518264144617e+03
-9.897106392957107346e+02
-3.789370815873388096e+02
-5.529035218856296297e+02
-1.176483277640645383e+03
-8.024426006904786846e+02
-5.145500556611364118e+02
1.442690592105477663e+02
1.790176791030662855e+02
3.024887640055803786e+02
1.196467621338091703e+03
2.141120372915464031e+03
1.467514299318556141e+03
1.152469464272133791e+03
1.119220599469852232e+03
5.867757955459294408e+02
1.214086049230340677e+03
1.220045297556018568e+03
2.606757884699292731e+02
-7.358387906446150737e+02
-1.640604995567317701e+03
-2.135476517284063902e+03
-2.232369610479919174e+03
-2.425441300566809787e+03
-1.688811683165652767e+03
-1.126508734531205846e+03
-7.143170378698770264e+02
-1.662938442248535580e+02
1.715454423149523677e+02
6.226361480600359499e+01
3.800621095351060035e+02
7.567703754406145435e+02
5.052485147204159261e+02
5.336623691753926551e+02
5.779356504664949625e+02
-1.948843438649478514e+02
-1.156798771896979360e+03
-3.489757135968574744e+02
3.746372996594352003e+02
-3.837469224544499298e+02
-1.125182389748984633e+03
-1.803905516082745635e+03
-1.994869548172424174e+03
-2.429833744460016078e+03
-3.105923208476848231e+03
-2.681393671319382975e+03
-1.638138492470613755e+03
-5.940185265238012562e+02
-3.580655881079779874e+02
-1.356551238700808142e+02
5.031943868994676450e+02
1.268835777958824337e+03
1.228481733030906298e+03
8.680299317667535206e+02
6.522833947185885108e+02
1.074270570296391952e+03
7.889963149066664982e+02
5.265405635314348274e+02
1.558615751197652344e+02
-4.722148163651013988e+02
-9.407025718459731252e+02
-1.476378040204840318e+03
-2.176223753069565191e+03
-2.352547278845908295e+03
-2.022293763840545807e+03
-1.813604304228643969e+03
-1.254713298035860589e+03
-1.265469713985977705e+03
-3.866349938281213099e+02
2.356547920322178982e+02
7.443020886059724717e+02
1.514337767879245348e+03
1.697563897613650852e+03
1.927016565829476349e+03
2.490880676428928382e+03
2.438058543792504679e+03
2.023395587371720467e+03
1.177782525626255619e+03
-5.483541926414262946e+01
-7.757462728564977397e+02
-1.202952421357147387e+03
-1.666927079283583680e+03
-1.485096713751468769e+03
-1.594522502950361513e+03
-1.499820866783050178e+03
-1.073231477322994351e+03
-6.266610384520115531e+02
-2.153947192440856213e+02
8.283651391761665650e+01
7.828904007139221903e+02
1.459782850110396566e+03
2.136577663217845384e+03
2.399253404023156236e+03
2.517822613261248989e+03
2.692975895465166104e+03
2.263942914722192654e+03
1.800708698570581873e+03
1.267318183972639645e+03
8.238971718838072320e+02
2.854616945094098810e+02
-2.161552049790335843e+02
-6.655011689504641481e+02
-9.528849743170542297e+02
-1.038124002374454449e+03
-8.032286056639800336e+02
-5.538338023460510158e+02
-1.501843918673191070e+02
6.816848015597228141e+02
1.552585215015900076e+03
2.209566518841844299e+03
3.206660910583821533e+03
3.775604906576656504e+03
3.798628079553529460e+03
3.899771051351906408e+03
3.802218461656550062e+03
3.734056905660250777e+03
3.606159632051263543e+03
3.288239772113177878e+03
2.256277732511618069e+03
1.225331101230921831e+03
1.064296612927575097e+03
5.670215277812653767e+02
-7.645344807532715947e+01
-2.631623403673081043e+02
5.393725811600616282e+01
4.346518752756915660e+02
7.290801320003367891e+02
9.983571786971467645e+02
1.462432283740091407e+03
1.921317498755023280e+03
1.684068336596593781e+03
6.394886671706672132e+02
-1.688370556215117631e+03
-2.696357590346187408e+03
-2.613510614516564601e+03
-2.805805773669973860e+03
-3.030113881509204930e+03
-3.267341366351432498e+03
-3.241671944330042606e+03
-4.005380948915044428e+03
-4.998501725690284729e+03
-4.988917501280432589e+03
-5.645509286295878155e+03
-6.146307281467225039e+03
-5.671311637407411581e+03
-5.317415371553936893e+03
-3.364732303652416249e+03
-2.433228204774712594e+03
-3.765851966639278999e+03
-6.074585835131215390e+02
2.642990935330974025e+03
1.043583694654058490e+03
-2.532540803030415645e+03
-2.566420419398213198e+03
-2.514366087194234296e+03
-2.502451808507277747e+03
-2.364328313335996427e+03
-2.892096394744350164e+03
-3.176869547757652526e+03
-3.421459733290586883e+03
-4.252812825476462422e+03
-4.914045186188534899e+03
-5.457288484566124680e+03
-3.495376560461579174e+03
-1.941882635377780844e+03
-2.334835663841819496e+03
1.282218002318391257e+02
9.314074224299397429e+02
1.546923271189583829e+03
1.755807110736986942e+03
2.360144860390078975e+03
3.178979888599752030e+03
3.543370794490995650e+03
3.644345480035092351e+03
3.482817311555341803e+03
3.489897754335163427e+03
3.194786321412980669e+03
2.721453034855864189e+03
2.010917929438197234e+03
1.453258929050427923e+03
7.753125305441791397e+02
4.520405247918198484e+02
5.416920200486765680e+02
3.912189539815101966e+02
5.863350616424168038e+02
1.189353260337951951e+03
1.479390971450583493e+03
1.680295610142629585e+03
1.989287385840471416e+03
2.301620238501518998e+03
2.687175441477740605e+03
3.238785613290835954e+03
3.432580348326463991e+03
2.891650886657241244e+03
2.715091479599541344e+03
2.667928298760578400e+03
2.789239615193398549e+03
2.659243496748752932e+03
1.761059037256282181e+03
6.275275668810581919e+02
-1.274282985418002312e+02
-3.319178205811429621e+02
-6.598167578060979395e+02
-1.196125314995602139e+03
-1.502827097221882468e+03
-1.209786837916615923e+03
-7.849850011048251872e+02
-8.929875302098849943e+01
2.724096667051725262e+02
1.060024250168236676e+03
1.936612946871900931e+03
2.178168899036020775e+03
1.852701107968378892e+03
2.111199000226087719e+03
2.196560109469341114e+03
2.246921818802192320e+03
2.087272978580112976e+03
1.787540841614918008e+03
1.323624121589550896e+03
7.226125883825552592e+02
-1.935097054035659312e+02
-5.796437649367443328e+02
-7.238981540536691455e+02
-1.262386950656529734e+03
-1.415003565581377416e+03
-1.542717797007891704e+03
-1.200636565674506528e+03
-9.248298713070597614e+02
-5.752578934558757737e+02
-1.893379475994791150e+01
3.072721231648319531e+02
6.234743420958693605e+02
8.125888676093004506e+02
9.686127326793020984e+02
1.218553426922517247e+03
1.425464404135017048e+03
1.720327624092690030e+03
1.578132497158270780e+03
6.797729677354533351e+02
2.072367433180156979e+02
-3.518810907594463355e+00
-8.104416804313407283e+02
-1.501565138395544409e+03
-2.167902386115387799e+03
-2.055460172030112517e+03
-2.018170786000835733e+03
-1.364075472579158941e+03
-8.082728021361576793e+02
-3.157743202247420982e+02
1.395437017843456147e+02
7.307682920764008259e+02
1.043889378393453171e+03
1.233796221005746702e+03
1.623497766008699728e+03
1.847980855587189808e+03
1.660276721285432814e+03
1.388386019479607285e+03
1.323253382432209719e+03
2.578079296545014358e+02
-1.577037037695992012e+03
-4.492253012226527972e+03
-6.809781599326523974e+03
-7.459749167252052757e+03
-7.525186352044535852e+03
-7.340149411659499492e+03
-7.285616956977874906e+03
-7.005622073391919912e+03
-4.511229159468623038e+03
-5.984054936069812811e+02
-1.903518059502752280e+01
8.329453243403677334e+02
1.824458764722793148e+03
2.364464761415365956e+03
2.559843469567699685e+03
2.383628419812015636e+03
1.986851699763490160e+03
1.742466366059405573e+03
1.313439369126804877e+03
9.087145100539081568e+02
3.612738459703546710e+02
-2.009004351360422049e+02
-6.379196580556746312e+02
-1.042811092583146774e+03
-1.325614286894106726e+03
-1.165331934812663576e+03
-9.059637185405538276e+02
-5.024867721371359721e+02
-7.993924985022341900e+01
2.106710697199588083e+02
6.303954633337123141e+02
1.347220033244988599e+03
1.840152125277022151e+03
2.406223586564420202e+03
2.767434181584139424e+03
2.589621852959878652e+03
2.462750747374697312e+03
2.193967715093269817e+03
2.234306983736137227e+03
2.025647095100904380e+03
1.553915045695850495e+03
8.701203719672959096e+02
9.430682691841508358e+01
-4.596493053317813064e+02
-5.808333750695318258e+02
-5.453285473734738389e+02
-6.071392846812390189e+02
-4.461891008080796155e+02
-1.344586598809755742e+02
3.620263462570696902e+02
1.194321279169762875e+03
1.968497869479534984e+03
2.302531708655331386e+03
2.237336701576689393e+03
2.338923339503554871e+03
2.332286132345293026e+03
2.282401101235527676e+03
1.954318169834133641e+03
1.562013532716771351e+03
1.183515659187029087e+03
4.418424839005211879e+02
-4.630388212573845976e+02
-9.571093038254066414e+02
-1.662390008508952860e+03
-1.613937811263988124e+03
-1.566742690345314941e+03
-1.379883813783640562e+03
-9.792435066147769476e+02
-7.168078657819344244e+02
-4.446478953251121879e+02
2.282332997750344248e+02
8.138725855758041234e+02
1.203252488148167686e+03
9.494243344543269814e+02
1.204455354231519323e+03
-1.380650598674561252e+03
-1.667817697355724476e+03
1.039969597603055149e+02
1.515773531950617098e+03
-1.403568767035484143e+03
-3.014088317056080541e+03
-9.427663126070476665e+02
-2.264645664441798090e+03
-1.194765549018483171e+03
-3.560197271610070857e+03
-3.817965623550830514e+03
-4.719981034196393921e+03
-1.686217252423702121e+03
-1.013686273502517906e+03
-2.124369630119037083e+03
1.197718639031663201e+02
-9.572212109133688500e+02
9.496679282934734374e+02
1.254461095888620321e+03
-8.127890496383236041e+02
4.709870278253554829e+02
2.103730747764338048e+03
2.354457509128004858e+03
9.261637782959049900e+02
-2.186182499839751017e+03
-8.375608746066870935e+02
-2.159977096804367193e+03
-2.281472973254481985e+03
-3.445045584767232413e+03
-2.145699494451884220e+03
-3.685448696777643818e+03
-2.157298780872755742e+03
-1.431250934616137329e+03
-2.919330408681168137e+03
-2.810459737187984047e+03
-2.312554648662661748e+03
4.363705447465219436e+02
-2.566523057835604504e+02
1.225388777223298121e+03
2.306541468037833511e+03
2.801790386967899394e+03
2.939164197817782679e+03
3.201697618572742613e+03
2.660341823714034035e+03
2.130164793836147055e+03
1.550184176472610261e+03
9.352891993855025703e+02
1.842662540677430272e+01
-7.883775819873058026e+02
-1.012067472370586529e+03
-8.806407038978270521e+02
-1.063125120026088098e+03
-6.235086768821622627e+02
-3.677360783987389254e+02
-1.377168611587991052e+02
5.537131116629766439e+02
1.524559031141293190e+03
1.993757142062386720e+03
1.833289566019641143e+03
2.367123699773881981e+03
2.823271529415709665e+03
2.359729123317840276e+03
2.264495970765921811e+03
1.623593451024273236e+03
1.633871708228899479e+03
1.356469932224183822e+03
4.406134495328061007e+02
3.800166070674696925e+02
-1.664145596046721778e+02
-5.927988115608579847e+02
-9.978928251032072012e+02
-8.997827422971510032e+02
-7.738201367348310669e+02
-5.495360671765433125e+01
6.641132735728236867e+02
1.350696647642780590e+03
1.893365622005867181e+03
2.059296630155381536e+03
2.698563249265801005e+03
3.151028470931169977e+03
2.905844758297927456e+03
2.833900937694053482e+03
2.741210575179504758e+03
2.144615379071124607e+03
1.260219209718489537e+03
7.570079193713748964e+02
4.415205053296593860e+02
-1.660268105868372004e+02
-8.077683723606090780e+02
-1.156799363864403176e+03
-1.331944257952309954e+03
-8.062164051071512176e+02
-3.026386296410507839e+02
-2.352151506923960653e+02
2.430518107875945191e+02
1.220142003532442459e+03
1.608091500217767816e+03
1.867877412739066585e+03
2.243485841022491513e+03
2.819901767811275931e+03
3.112084284995989037e+03
3.189016882398932012e+03
2.683683570183093707e+03
2.007072592608525838e+03
1.376165740979629390e+03
1.034934179833399412e+03
-1.546440168186861399e+02
-5.146019686381936253e+02
-4.709714061144768493e+02
