-7.700832169284696647e+03
-9.968696794805284298e+03
-1.031877823168098439e+04
-8.378023963925525095e+03
-7.047241888156619098e+03
-5.714574623341188271e+03
-4.148014323148082440e+03
-2.624122878670822047e+03
-1.470754817989703270e+03
-2.403964457653330271e+02
5.718458724293446949e+02
1.920714408073504501e+03
3.667032198731335029e+03
4.374800620644718947e+03
4.634056014736875113e+03
4.590903980207435779e+03
4.140546098931393317e+03
3.795856765395819821e+03
3.458913218706764383e+03
2.168702840947067216e+03
1.510910193406308281e+03
7.813652251923685981e+02
-6.299014226017721967e+02
-1.859616510396887861e+03
-1.886752632552356090e+03
-1.088287685864275772e+03
-8.671536647324669502e+02
-1.130272562402151607e+03
-9.576199673455816992e+02
-3.122147726529714760e+02
8.259940617652915762e+02
1.773069235851083704e+03
2.433996580227372306e+03
3.404003413697869746e+03
4.216279476398261977e+03
4.468817265976854287e+03
3.864602431493858148e+03
2.960338996130697069e+03
2.058025366841943196e+03
1.961994975958056102e+03
2.233383724158639325e+03
2.962180431093651805e+03
2.430475004328190153e+03
1.512205887493185855e+03
5.482214238044291506e+02
5.852516656073392909e+01
-3.279735618158807142e+02
-4.330900388480602032e+02
1.521952114947271639e+03
2.894926182358502956e+03
3.616105563161438567e+03
3.622800299149115290e+03
3.127969707721190844e+03
2.828520088151300570e+03
2.747378766728699247e+03
2.593231206198204291e+03
5.441671268493184925e+02
-1.726626228211330954e+03
-1.449029056151783152e+03
-1.190191480205010492e+02
-1.506291018150486991e+02
-1.174854401077623834e+03
-2.353592979824636132e+03
-2.263750388805107832e+03
-2.916453158478955629e+03
-3.557647347548836024e+03
-3.354374027354536338e+03
-3.007610935050453463e+03
-3.389306668736723168e+03
-3.817493776582292412e+03
-3.979398567123380417e+03
-3.585158536020941483e+03
-2.095861621245193874e+03
1.037601466771612735e+02
1.912915979073972267e+03
3.482476257345095746e+03
3.816390811803507404e+03
3.524552298727163361e+03
2.779824916023997503e+03
1.802165152296081260e+03
8.477621604475066306e+02
6.114929713289327537e+02
1.016119217801545233e+03
1.717479537541841637e+03
2.519464312833766144e+03
2.976061283979488053e+03
2.675369009296910008e+03
2.092445752305089627e+03
1.970333771631350601e+03
2.459313341438427869e+03
3.079233550143572302e+03
3.158713640131330521e+03
3.252673245194036554e+03
3.422662924898768779e+03
3.190597117419702499e+03
2.554530387848236387e+03
2.404525438314741223e+03
2.413639454094228313e+03
2.213884541303024889e+03
2.132142514759843380e+03
1.671477197354839291e+03
2.180213424669597089e+02
-7.363575554735044761e+02
-1.893897625596901207e+03
-2.238549762294707307e+03
-2.292362209953450929e+03
-1.892244238040767641e+03
-1.858102472857515522e+03
-7.750897655349946263e+02
6.547776394497785759e+02
1.166576889296178933e+03
1.625211234434248809e+03
1.948674086484164945e+03
2.321925180382452709e+03
2.880869529441316445e+03
2.128334043397807818e+03
6.441925722248646480e+02
1.614671481764232794e+02
-4.497941752623223692e+02
-1.279687527834562843e+03
-1.695378776768456191e+03
-1.371818155480513269e+03
-1.067979847586806272e+03
-5.209400091303341469e+02
-4.729012857336931006e+02
-2.448943592600859631e+02
-1.157775637753336468e+03
-2.563583141035839617e+03
-1.935341179510380243e+03
-2.288964064384941139e+03
-2.861442476644071121e+03
-3.898908940326022730e+03
-3.969112940043159142e+03
-3.713052677015679819e+03
-4.117927693045788146e+03
-3.582864951490423664e+03
-3.312998071834520943e+03
-3.167348311861976526e+03
-3.320728236884308444e+03
-4.015182707391939402e+03
-4.374871065631105921e+03
-5.451787717453600635e+03
-5.270920904998098194e+03
-3.675243961138961367e+03
-9.587835788536348218e+02
1.105237601894344550e+02
-1.742413806207754760e+03
-1.142546651742547738e+03
-2.413726047117876988e+03
-3.177945501517763660e+03
-2.721286224317975666e+03
-2.457782675734287295e+03
-1.753438022743637930e+03
-1.667240842881517892e+03
-1.993137302555028327e+03
-1.989079119282330112e+03
-1.978066875914018738e+03
-2.302172789541485599e+03
-3.021517543529497289e+03
-3.310109248364733503e+03
-6.778476347712337429e+02
8.544112071117654068e+02
1.464547282915478945e+03
1.791560747862984499e+03
2.446463547256454149e+03
3.880169932265576790e+03
4.716670564626694613e+03
4.349968408453302800e+03
4.909982712824148621e+03
5.872832707527882121e+03
6.037667646370381590e+03
6.023399978543475299e+03
5.959032134643008249e+03
5.834666418163713388e+03
5.194301334451912226e+03
4.804001406706048328e+03
3.921736823085895594e+03
3.365450270105570326e+03
2.526178378228020392e+03
1.734874659256063978e+03
1.642493295720478955e+03
1.810948171384337456e+03
2.027292191144650587e+03
1.501661085290351593e+03
1.711230668291812435e+03
2.486794561395285655e+03
2.969311198060290735e+03
3.808710004722299345e+03
4.670008803386638647e+03
5.602286561265736964e+03
6.389486410285599959e+03
6.158618860843203038e+03
5.454712391156235753e+03
4.908695196386182033e+03
4.036285610649765204e+03
3.330327757099525570e+03
2.930161863612422167e+03
2.987098660719127565e+03
2.720783058533822896e+03
1.664127234842525468e+03
1.250817885419117147e+03
5.372214025465082159e+02
4.452965571089845866e+02
7.708937155835434396e+02
5.169353001378516410e+02
-1.405291623694029965e+02
-4.034172665889258269e+02
-7.799001811184848520e+02
-8.990290953961756486e+02
-1.487779346671268286e+03
-5.080268372846439888e+02
2.077291848275069242e+03
3.808996334854877205e+03
4.662797160442984023e+03
5.174727872946304160e+03
5.178750684481551616e+03
4.460862895539817146e+03
3.227049841451815610e+03
2.029312668013906887e+03
6.245824020471061431e+02
-7.622545429803763000e+02
-2.212196552832822817e+03
-3.504298827253911440e+03
-4.087404355925319123e+03
-3.808599440735182725e+03
-2.629978098846463581e+03
-1.353536811469317172e+03
-1.283294416539926488e+03
-8.622824968415220610e+02
8.157063664226593858e+01
4.822934490037163755e+02
7.067936353182331004e+02
1.172096364212154640e+03
1.135361510262994216e+03
7.885380218054546049e+02
1.121458864889759752e+03
1.352251506530203187e+03
1.531202523637346076e+03
1.331153423774349903e+03
2.828344674641238612e+02
2.443192119123846737e+02
1.736066964120839486e+02
-6.065748345516441304e+02
-1.207233840018096089e+03
-1.176289612350377638e+03
-1.427889451285190489e+03
-1.935003654830734376e+03
-1.366592906181750323e+03
-1.821586844472558596e+03
-4.566653893820014673e+03
-5.917782581641609795e+03
-5.749044797552874115e+03
-5.236453335421819247e+03
-5.110383018238555451e+03
-6.099161605686103940e+03
-5.579780999463169792e+03
-3.918093413201228032e+03
-4.115805953588090233e+03
-4.295965456060772340e+03
-4.501834214626906942e+03
-5.084806147878706724e+03
-6.290304754075497840e+03
-4.737640661893629840e+03
-4.073481307836913402e+03
-3.739741004319032982e+03
-1.271071006685790508e+03
-3.791436536098833585e+02
1.688992817522277221e+02
9.029806323740413063e+02
1.651046288695252315e+03
2.675177888512131631e+03
3.342292221505633734e+03
4.263694336432295131e+03
4.373815831162620270e+03
4.272654532361630118e+03
3.807287753227042685e+03
3.917206653388568157e+03
3.552040130913471330e+03
2.222107727349576180e+03
1.669748242199394326e+03
1.145610239780451593e+03
6.444698013178983729e+02
-3.058051213711226524e+02
-7.236860943887737676e+02
-4.959942129685946952e+02
1.256293133778999334e+02
7.207243422588841213e+02
1.428240452394300746e+03
2.061426952701463506e+03
2.063164885448049972e+03
2.513826793187211933e+03
2.872946428232950439e+03
3.293485701907385646e+03
3.128134371927255870e+03
2.450922033604763783e+03
1.861154775322366049e+03
1.421029542062447490e+03
9.128530585874303824e+02
4.103438941791268917e+02
4.509728545024727850e+02
-1.447406311772408571e+02
-3.008714045357462510e+02
9.926116400927335803e+01
1.002529573305469057e+03
1.334801777018564962e+03
9.628063576047736660e+02
1.233545877283663685e+03
2.328421418907231782e+03
2.827632766996151986e+03
3.090168553744493238e+03
3.454757131004561870e+03
3.374862135321031474e+03
3.531025017971696798e+03
3.481903780568109596e+03
2.845313758649657757e+03
2.288752208744507698e+03
2.442423421673996017e+03
2.164777655454599426e+03
1.592658571824418232e+03
8.097800986880060918e+02
-8.597789807431686313e+02
-2.000262976897569160e+03
-3.123569058110536389e+03
-2.900288199992751743e+03
-2.670986660627216224e+03
-3.299057217209361625e+03
-3.619042440320216883e+03
-3.190009556026668633e+03
-2.953580001556974821e+03
-2.169436300968035539e+03
-1.474111987614610143e+03
-2.332234175834231280e+02
1.148756634071303324e+03
1.808887283604281720e+03
1.391150759717711935e+03
8.380914507174959454e+02
4.574191443905284018e+02
5.141246756215685991e+02
2.037023051597171559e+02
-7.881386266287981925e+02
-1.829859824559029448e+03
-2.729642164209820749e+03
-2.929743767025005127e+03
-2.739690901774527902e+03
-3.194304101260468087e+03
-3.636413939778090025e+03
-3.481412616931067078e+03
-3.045071152024501771e+03
-2.137969056008306779e+03
-1.075654312197726767e+03
-6.751063423563014112e+02
-4.247187803005049886e+02
-1.187777085407215196e+02
-5.502445013402141285e+02
-1.305011752819678577e+03
-1.960870309331153294e+03
-1.873274276944226813e+03
-1.447391572208779735e+03
-1.260708961916902808e+03
-1.677098097223470631e+03
-2.316116874725656544e+03
-3.199815209517645144e+03
-3.979698567362772792e+03
-3.933938662411480436e+03
-4.000363457298914909e+03
-4.345743031742319545e+03
-4.863900914122929862e+03
-5.048841236116694745e+03
-4.521516153050179128e+03
-3.681810362661673025e+03
-3.128675594527806425e+03
-2.156106378662483621e+03
-1.696795289749241192e+03
-2.012188801368955865e+03
-2.070527904752595532e+03
-1.899697000279226131e+03
-2.010783857463099821e+03
-2.351465949727280986e+03
-2.618388042034793216e+03
-2.953547362276601689e+03
-4.245222164184222493e+03
-5.206698417214258370e+03
-5.407268918280293292e+03
-5.764856795613999566e+03
-4.949992119306915811e+03
-3.675059663732515673e+03
-2.526129240353362093e+03
-2.089951439709774604e+03
-1.169979351917701251e+03
-4.752897277853955416e+01
1.961778511503463847e+02
1.360744496987440243e+03
2.182770675393821875e+03
2.295193719629204679e+03
2.031823447236725087e+03
1.336783157733801772e+03
3.061752613973144932e+01
-1.314590633623039366e+02
-5.550100107852646261e+02
-1.264014070346827793e+03
-2.401949188349526139e+03
-2.816179638867684389e+03
-2.847140834453413845e+03
-2.081889839867799310e+03
-1.035415448484942090e+03
2.161204658992072325e+02
6.477692895136002562e+02
5.270686414426301099e+02
1.317159682300381746e+03
2.068977221109551920e+03
2.858096581961415268e+03
3.732584539115303414e+03
4.572856858252302118e+03
4.477664790983648345e+03
3.333229943777516837e+03
2.309933762697571638e+03
1.301085731169833707e+03
1.827192808532794970e+03
1.292184162777627762e+03
1.194989580841181578e+03
1.793572876990318264e+03
1.526214132622589204e+03
6.153448032036598079e+02
3.570372755832127041e+02
6.488578676522637352e+02
1.015941302276831038e+03
2.186869316315514425e+03
2.683750807623605397e+03
3.074384496205394498e+03
3.734428660394637518e+03
4.539451174318612175e+03
5.235499487315306396e+03
6.231462050576240472e+03
7.279909727931882117e+03
7.793674770063574215e+03
7.110393824490306542e+03
6.496497208245989896e+03
4.754703549683855272e+03
1.684161353962324938e+03
-7.462241900087059321e+02
-8.756311054050163420e+02
-1.381842735111843467e+03
-1.113801979608190777e+03
-1.194130950801447170e+03
-6.388071188167486980e+02
8.382586186026247788e+02
1.724698254935605064e+03
2.643086907630811311e+03
4.504427182897725288e+03
7.334230925761074104e+03
1.021319707576101791e+04
9.007323751899646595e+03
7.047164123478516558e+03
9.157529961435664518e+03
9.080064096432803126e+03
1.071556157918678218e+04
8.827575291065964848e+03
7.691733474735115124e+03
7.194160355569749299e+03
6.351749880180205764e+03
5.324664971614292881e+03
5.027701917909004806e+03
5.160012398089400449e+03
5.208531183884866550e+03
5.143194841775220993e+03
4.775277715462061678e+03
5.672452286566662224e+03
7.334715762548918974e+03
1.013699772275653231e+04
1.255438717221379738e+04
1.339282122851194072e+04
1.333594084464912157e+04
1.278274583979357885e+04
1.205337388818296313e+04
1.192677860469469670e+04
1.121296438004739321e+04
1.025809605928782003e+04
9.349174737026738512e+03
8.245865037377236149e+03
8.303119831408575919e+03
8.557038548918018932e+03
7.790194901805804875e+03
6.855603808183396723e+03
6.116314935486387185e+03
5.315459186048432457e+03
4.718249806264107974e+03
4.131739115087019854e+03
2.426758144632356561e+03
9.003735492497086170e+02
1.859925760940820510e+03
1.920817982956301194e+03
-9.928589212795418462e+02
-2.321265965748457802e+03
1.919389943316406857e+02
1.846831901683548040e+03
6.546840640215493750e+02
7.469890181462789087e+02
1.736812520916465246e+03
4.512499864499939122e+02
-1.157438336359000004e+03
-3.074986021571211950e+03
-7.802295931409522382e+03
-1.224098104523549773e+04
-1.671176509416009867e+04
-2.140558548532893838e+04
-2.226904227107968472e+04
-2.288373148305806535e+04
-2.546768746910425398e+04
-2.981125723881733938e+04
-4.122704046068390744e+04
-4.582369660277061485e+04
-3.660081090545378538e+04
-3.707227142088620167e+04
-4.898687249122998037e+04
-5.242411040700964804e+04
-4.410666127881198918e+04
-3.608707070756849134e+04
-3.192265396087165573e+04
-3.047295057632212047e+04
-2.271182453681390325e+04
-1.061167912020430413e+04
-4.140226233484995646e+03
-4.819348063191242545e+03
-7.603524090975491163e+03
-1.109742816072702772e+04
-1.524358597622076013e+04
-2.003828594012423855e+04
-2.772915191876548852e+04
-3.345880875059464597e+04
-3.503375773153390037e+04
-3.709336664755615493e+04
-3.872011359537884709e+04
-3.490550204354610469e+04
-2.012495793436694657e+04
-1.106699124428505274e+04
-9.936971955114580851e+03
1.214521563671979038e+03
1.397499301338767327e+04
1.532101416299417724e+04
9.975084172029413821e+03
5.423739246629684203e+03
5.572729234521087164e+03
1.470160882558599042e+04
2.700603085450711296e+04
3.238225247604073957e+04
2.306843182081279519e+04
2.442998162956995657e+03
-1.644449442271623775e+04
-1.263549162902378703e+04
1.358595654025344174e+03
4.563196328502447614e+03
-1.907285406777913977e+03
-6.814271341224471144e+03
-8.452365028186297423e+03
4.697424532879007302e+02
1.743078883589821271e+04
3.162922731653572919e+04
3.381225583170952450e+04
1.732592979297375132e+04
8.483603616602678812e+03
9.698603617661525277e+03
9.504271805401267557e+03
8.655087034967569707e+03
1.253316885916533647e+04
1.929280095856079788e+04
2.674841628110274542e+04
3.202231658592049280e+04
3.060269483862215566e+04
2.122200748943041253e+04
1.549046642213397899e+04
1.837932232356110762e+04
1.649568392632836549e+04
2.789533398979214780e+03
3.982978904039584449e+03
1.564912863627603110e+04
2.506610309912152297e+04
2.396907330633314996e+04
1.689618197204196622e+04
7.827440325892686815e+03
1.669058870150493021e+03
-1.081063337060609456e+03
2.027681447181790190e+03
1.121540278382037468e+04
2.098304424169358754e+04
2.378038172679186027e+04
1.742042283201865212e+04
1.588207180931666153e+04
1.811103337941171048e+04
2.742591922939438518e+04
3.768943709018497611e+04
3.366350218080128980e+04
1.928711528563847969e+04
8.689017561806360391e+03
-7.506064113639919924e+03
-2.278129582264268538e+04
-1.885409289252847884e+04
-7.488885741686348410e+03
2.815653238376538411e+03
2.494213248709900290e+04
4.319436238562610379e+04
5.254186449564923532e+04
5.105622925833534100e+04
4.223302004323498113e+04
3.250647629382909145e+04
2.349692437734705891e+04
1.635587641623890886e+04
5.260564674413029934e+03
-3.004778248079140667e+03
-6.174904840104801224e+03
-1.169741333801353176e+04
-1.958475929619912858e+04
-2.953340993657065337e+04
-3.687410861254442716e+04
-3.721070640791095502e+04
-3.402188203220588912e+04
-3.022413157440465875e+04
-2.165800668704527925e+04
-1.278227959088936950e+04
-1.057576900133585150e+04
-1.175410190005175900e+04
-1.314509607746047368e+04
-1.217935448209711831e+04
-9.472536491714985459e+03
-8.650554830542210766e+03
-8.605219141626432247e+03
-8.635194104565820453e+03
-9.494081732379770983e+03
-1.181760706723768635e+04
-1.341871513915021023e+04
-9.995943434644901572e+03
-9.646859354960837663e+03
-9.094258626414710307e+03
-1.135412424269913026e+04
-1.035620514082528280e+04
-3.962893186962972777e+03
3.624052903147251982e+03
9.093807933075944675e+03
1.093069767987370142e+04
8.771959650702989165e+03
5.295812860602228284e+03
6.513670959445114022e+03
4.447792198604663099e+03
-4.596185036742821239e+02
-3.569225473386065005e+03
-2.116662505311320785e+02
6.594651137947734014e+02
-7.332362669535150417e+02
-8.759539357798776109e+03
-8.711151151218224186e+03
-9.121403472822625190e+03
-1.180083998727067592e+04
-1.295298464090893322e+04
-2.098827612976827731e+04
-2.702116039773751254e+04
-2.832819138250655305e+04
-2.713971590161943823e+04
-2.937018141395397834e+04
-3.422401004069866758e+04
-3.191262213506121407e+04
-3.149538889818727694e+04
-2.625671444147619331e+04
-2.201302927577200899e+04
-1.318771082123432279e+04
-4.706915675763381842e+03
-3.835890785117809173e+03
-2.169203216558312306e+02
5.538674930509009755e+02
5.109319637613816667e+03
5.944347285394786013e+03
6.704770283466290493e+03
1.402450859071154809e+04
1.742861223576180782e+04
1.575111296999271690e+04
1.384303668655543515e+04
1.360324190337796426e+04
1.552585296739642581e+04
2.142993085171074199e+04
2.322553475289126436e+04
2.268384330840271650e+04
2.710501518280840537e+04
2.961913225590029106e+04
2.573925689650108689e+04
1.976968000741751530e+04
1.744965750885356465e+04
1.588454867554691009e+04
1.336877086543543192e+04
8.264706677114661943e+03
6.284610517741439253e+03
6.888806459289241502e+03
5.299614455251999971e+03
5.665409482474835386e+03
5.013743166041933364e+03
3.351918025938070969e+02
-4.476859636773421698e+03
-3.472664639524447466e+03
1.323376953975244760e+03
8.852894626865307146e+03
1.272430433403712777e+04
9.469158869882461659e+03
6.661140069223292812e+02
-5.159179131443212100e+03
-6.528199429743043765e+03
-8.852356548208574168e+03
-1.359893989636210244e+04
-1.644125169516070309e+04
-8.913754979568322597e+03
7.731735074417812257e+02
2.313527005323236608e+03
1.950199041661874389e+03
3.096209771252794326e+03
3.922150730626682616e+03
5.625526507191904784e+03
4.089841767105832787e+03
9.686299951854942947e+02
1.972738557295214150e+03
5.955929448658684123e+03
2.815114378914385725e+03
-1.551875691502154268e+03
-2.356269711783543698e+03
-9.472231313586686383e+02
2.710148568085353872e+03
-1.883112420854083950e+02
-6.777815468686667373e+03
-1.105255479003429355e+04
-1.298359676630035574e+04
-1.240735038698992321e+04
-1.127894784520821486e+04
-1.356036658940289635e+04
-1.548275583932425434e+04
-1.551616373330891292e+04
-1.593967033397682280e+04
-1.572943012731792442e+04
-1.278756768106262098e+04
-8.629211665578734028e+03
-8.119596003114723317e+03
-7.999803549006262074e+03
-5.628170390478966510e+03
-7.875955001028948573e+03
-9.511329655331277536e+03
-1.082746969842411454e+04
-1.241660522626766942e+04
-1.169201488350416730e+04
-1.020497351465917018e+04
-1.243876853916692198e+04
-1.594555730518835662e+04
-1.679562706958315903e+04
-1.435751716498719543e+04
-1.234851230016603040e+04
-1.362374268583981029e+04
-1.274667586227500396e+04
-1.317400834093572666e+04
-1.305209380224808046e+04
-9.838094581903840663e+03
-6.932593333726611490e+03
-5.212214424386188512e+03
-3.664278859464958714e+03
-1.478290476785359260e+03
-4.937153135988247641e+02
2.046078011870660021e+03
4.759477767605377267e+03
6.031922317524228674e+03
7.845867514903327901e+03
8.302358880191704884e+03
4.444655575546425098e+03
5.559209375892379285e+03
8.187447057552048136e+03
1.091530949095115466e+04
1.367161698713802434e+04
1.493131711022228592e+04
1.547215976386014154e+04
1.577929538847204276e+04
1.485934401805127709e+04
1.408334513098439311e+04
1.631719357848515392e+04
1.862005731255128194e+04
2.033603309449117296e+04
2.409835693585598347e+04
2.633058980117096144e+04
2.707501431067768499e+04
2.755680869034011630e+04
2.584989550096437233e+04
2.397423244644412625e+04
2.513978359284211547e+04
2.558137006536023546e+04
2.426007429917633999e+04
2.309364520627590900e+04
2.273764662846584542e+04
2.229996705941081018e+04
2.108636403540875108e+04
2.110113491655588950e+04
2.026483301439780189e+04
1.960821824305781047e+04
1.808839495744967644e+04
1.592693852261069696e+04
1.395298728292203123e+04
1.056284523424807776e+04
7.044651481546652576e+03
6.869928736337422379e+03
8.091881258716545744e+03
1.224219936421202510e+04
1.462582833403813129e+04
1.312862425382518086e+04
9.922268495220401746e+03
7.635353704398402442e+03
6.074590332505771585e+03
6.252849817023598007e+03
5.624525059961581064e+03
3.632653944502329978e+03
3.209465737466064638e+03
2.402394379253752504e+03
-2.814037495670874591e+02
1.179532429710857969e+03
4.727647774802961067e+03
6.057145256071362382e+03
3.800167806366147488e+03
1.775572296197206924e+03
-7.372682452509179996e+01
-2.517099335807504758e+03
-3.851158625821971782e+03
-7.303534535045397206e+03
-1.044529853232701680e+04
-1.235845578026208750e+04
-1.409687890813329250e+04
-1.661027756022789617e+04
-1.666487533536042247e+04
-1.611561208088948115e+04
-1.442829503157652653e+04
-1.363131461870611201e+04
-1.488593622665026305e+04
-1.581670945893292446e+04
-1.731734615146379292e+04
-1.904851239154257564e+04
-2.002084830183931263e+04
-2.106528631444381972e+04
-2.226497571203678308e+04
-2.090629081398401468e+04
-1.875795031669006130e+04
-2.091273953334640828e+04
-2.206789247290405547e+04
-2.281270471660467956e+04
-2.452802340188168819e+04
-2.477109013371117180e+04
-2.340378776603996812e+04
-2.323904427823587321e+04
-2.491368661821501883e+04
-2.763696055467937185e+04
-2.945471708926584324e+04
-2.921241459694158038e+04
-2.891656406496426644e+04
-2.808872124110691584e+04
-2.426369925793790753e+04
-2.081073461694627986e+04
-1.826569947906575908e+04
-1.956181530662538717e+04
-2.118372004036553699e+04
-1.918814936350022981e+04
-1.665162929126524978e+04
-1.332515447626052446e+04
-8.409346653943348429e+03
-5.155914421135928023e+03
-2.736015323298314797e+03
1.944081726913537750e+03
5.416106841789314785e+03
6.541224117072204535e+03
5.509130770515594122e+03
4.366290419765167826e+03
4.362618735173605273e+03
6.179112713365296258e+03
6.924929036392472881e+03
5.724850905045197578e+03
4.387118625718640942e+03
5.062095609300459728e+03
7.133471882126358651e+03
8.213578132068945706e+03
7.344129610359448634e+03
7.263352579233492179e+03
6.455355049730545943e+03
6.991987811743532802e+03
8.271910435129238977e+03
6.889835078806020647e+03
4.213774899459325752e+03
2.614620843296512248e+03
3.056342583831902630e+03
3.661962659140144297e+03
2.054602729092354366e+03
2.488222836370052391e+03
4.622404124441879503e+03
6.686448828879980283e+03
5.894329775124482694e+03
4.186317643519637386e+03
6.482261898866519914e+03
8.825737608832489059e+03
1.001063846908185405e+04
1.065211291929239451e+04
1.056144534774459680e+04
9.783045558797668491e+03
9.885343839810308054e+03
1.036927213758944163e+04
9.822281661653698393e+03
9.055818732684803763e+03
7.392915154287516998e+03
6.333289040613087309e+03
8.425307996875688332e+03
7.667351049137308109e+03
5.953232278570752896e+03
6.926658902234356901e+03
7.431878287842509053e+03
7.582392010297986417e+03
8.082491301526105417e+03
8.299187255005699626e+03
8.373503081252767515e+03
9.557303224588567900e+03
1.029483590286093568e+04
1.025368843389280664e+04
1.028748131581231610e+04
1.060217739202389748e+04
1.112104690346331699e+04
1.074247553628063179e+04
9.608568060112555031e+03
9.118460925196130120e+03
7.861385392534884886e+03
6.421146947914405246e+03
5.709819030257265695e+03
5.285859913450905879e+03
5.878217776520608822e+03
5.931531349503354249e+03
5.192260082665949085e+03
4.523950988781485648e+03
4.503011577590492379e+03
4.760362917681660292e+03
4.508502923371603174e+03
4.221899032716360125e+03
4.193547823081996285e+03
4.556322262973380930e+03
4.985736843725449944e+03
4.849287042810416096e+03
3.947949187474305290e+03
1.433102894799736760e+03
-6.533694209314105592e+02
-2.126846471036436014e+03
-3.350255354890927720e+03
-3.238367339729343712e+03
-1.813712854615768720e+03
-1.017682198301132530e+03
-6.581278702902149007e+02
-7.898981414363303202e+02
-1.339509086063010955e+03
-9.237762627634534738e+02
-2.513968814591663374e+02
-1.118709205573356485e+03
-5.002010020489809676e+02
-1.021970918014325889e+03
-7.230640403057800540e+02
-4.394564172889811857e+02
-1.227696043658825829e+03
-7.859286109639481310e+02
-3.113652152175122296e+02
-8.098126714515171898e+02
-1.252310732316407666e+03
-1.795510580264052578e+03
-2.279939010780008175e+03
-4.118462787084328738e+03
-6.375633924372340516e+03
-4.844648150657794758e+03
-5.438938704983851494e+03
-4.009203547293364409e+03
-3.793909882577481767e+02
-2.246285818266449496e+03
-7.031770670893564784e+03
-6.862316245448804693e+03
-6.014571045741352464e+03
-5.566727909588677903e+03
-4.601828397098352070e+03
-4.130048364439313445e+03
-4.118040350104061872e+03
-3.847841022997873097e+03
-3.237457151627323128e+03
-2.894036617815475438e+03
-4.038021309028295491e+03
-4.859966172105740952e+03
-3.716902071387232809e+03
-4.347832006571581587e+03
-4.834793968456690891e+03
-4.502701215151912038e+03
-5.197216962461021467e+03
-5.429272172492766913e+03
-5.189873743113033925e+03
-4.382938345507301165e+03
-3.654427081151788116e+03
-2.694481392283201785e+03
-2.555186666419847370e+03
-1.400151777024321746e+03
-8.033700226300396707e+02
-5.251157939520871878e+02
-7.419482942290554774e+02
-6.637788259986843968e+02
-3.906653759945725142e+02
-6.485547584791893314e+02
-9.985500947613134031e+02
-1.619682704124500106e+03
-1.900587839346089822e+03
-2.058119602242583824e+03
-2.465473906512528629e+03
-2.827876838082621816e+03
-3.554198744851767515e+03
-4.419192386920408353e+03
-5.142096336812004665e+03
-5.282798942707274364e+03
-4.392262823520532947e+03
-3.542702205905336541e+03
-3.154132446550387158e+03
-2.412519468493230306e+03
-1.722965759318359005e+03
-2.646652915619994815e+02
6.553433183025396147e+02
8.462146744097349256e+02
8.910820246023414484e+02
1.142517953108018901e+03
1.200103682201188121e+03
1.045261799929322706e+03
1.027480287350349499e+03
8.834023233540183355e+02
1.144923129832325685e+03
1.753977893182214530e+03
1.506590932186766622e+03
7.216400731705822409e+02
3.160893231514934314e+02
6.769795796307705587e+02
7.014964798763434146e+02
1.149611465624293714e+03
1.781238838000449505e+03
2.249365277389280891e+03
1.040795237363781780e+03
2.107645480399745338e+03
5.435930209768936038e+03
6.788518786756713780e+03
6.536431509121186537e+03
6.257993144242763265e+03
6.268425371472817460e+03
4.714447137984636356e+03
2.229873975308792978e+03
-5.854414380924546322e+02
-2.761531633744323699e+03
-3.749542100286092591e+03
-3.749465639262248715e+03
-2.290236863796416856e+03
-8.098974967913610499e+02
3.586599045914554722e+02
1.828484586360842741e+03
2.286710775066096176e+03
2.038397523872642978e+03
1.810489872450119037e+03
2.078254580337160860e+03
1.863804267431993139e+03
1.906908025675868657e+03
1.906431802426905733e+03
9.402009129560698284e+02
1.103088643925641321e+02
-3.909504675511760752e+02
-1.587390501893909686e+03
-2.852135507504503039e+03
-3.281336950739518670e+03
-4.140230028368347121e+03
-5.370770151238546532e+03
-5.966734931619212148e+03
-5.627253748751345483e+03
-5.299371005808716291e+03
-4.645078378231725765e+03
-3.824774141444007455e+03
-3.211706216422049692e+03
-1.860762853875331757e+03
-1.227655873362519969e+03
-1.497375116070275226e+03
-1.539949721297277165e+03
-1.906387182001600877e+03
-2.336791935185533930e+03
-2.536012412396577929e+03
-2.418992508432962040e+03
-1.931805972223133267e+03
-2.136479575038844359e+03
-2.632851742634646143e+03
-2.998990090618012346e+03
-3.287048281768641118e+03
-4.505254261205387593e+03
-5.154557321489144670e+03
-5.124648252766398400e+03
-4.962515626738213541e+03
-5.241287612286908370e+03
-4.441254348599934929e+03
-3.351710395212909589e+03
-2.454594538543970884e+03
-1.800895317196745282e+03
-7.957643027065295200e+02
1.176448731999916390e+03
1.921679127378098883e+03
2.089833831186297175e+03
2.636116663332710687e+03
2.771547782740728053e+03
2.545797738666688019e+03
1.687654626125808363e+03
1.450238815516524255e+03
1.105501605046476470e+03
3.813673044628663433e+02
-3.726231999086090241e+01
-2.105387264613034688e+02
-3.526598669808353179e+02
-6.109391831970051499e+02
-5.578132370800669833e+02
-2.885293615566676522e+02
2.067449318661973052e+02
5.472505881257945930e+02
5.930029005230776420e+02
9.287018583399238878e+02
1.406274608197581074e+03
2.064604889462227220e+03
2.711375552633279767e+03
2.686369025502864588e+03
1.822372213845250826e+03
1.410075145247644741e+03
8.283773035822973725e+02
6.063105838993001271e+02
1.049994276015883315e+03
7.123818459489866655e+02
-3.536315983027907350e+02
-4.922258010799450858e+02
3.626729015504478753e+02
8.392508838373569233e+02
3.244822710749168948e+01
-5.889913220777117431e+02
-9.493334961929047040e+02
7.332383706363104636e+01
1.177001663950830107e+03
2.643498691045422220e+03
3.666876018361453134e+03
4.355015275045783710e+03
5.072764291012901595e+03
5.853228427140124950e+03
5.547530450313292022e+03
5.444605120586617886e+03
5.162242146025280817e+03
4.820305004399286190e+03
4.210848460139021881e+03
3.258643316134314318e+03
3.279545888952933183e+03
2.810291302609594368e+03
2.035969698884628315e+03
1.488731682060182266e+03
7.393586495198875355e+02
3.637918727844731279e+02
4.110612486222330375e+01
-1.057719582541164300e+03
-3.100675933350692503e+03
-3.974722579812791992e+03
-3.427905099051050001e+03
-2.473231786157621627e+03
-1.621875997042108793e+03
-1.978783989284537711e+03
-2.053903884923249279e+03
-2.009315349782604926e+03
-2.257317038402763501e+03
-2.950723913228218862e+03
-3.549433879925645215e+03
-4.809604173218704091e+03
-5.788281912859387376e+03
-5.356498205445963322e+03
-3.002313434940175739e+03
-3.316716288935074772e+03
-5.348678697900847510e+03
-5.487255560327723288e+03
-5.171404842851155991e+03
-3.828987428458751310e+03
1.050009323703440486e+03
5.426526275313557562e+03
4.175546077387527475e+03
1.815153448165298045e+01
-6.145803965574797303e+02
-4.036274368011303295e+02
-2.758989073567008745e+02
2.166953504499287675e+01
-2.820329016046413813e+02
-1.200102609157528832e+03
-1.389610818250225066e+03
2.975189597471103866e+02
-4.886224624855496472e+02
-3.488973760869832404e+03
-4.543640423581845425e+03
-4.563667791854416464e+03
-1.265016579961583602e+03
5.613253909596446647e+02
1.669384600449792515e+03
1.985174944233602446e+03
2.040767528301660377e+03
2.886215656126771137e+03
3.285641738987242206e+03
4.132211363765871283e+03
5.419914559768483741e+03
6.090687771905829322e+03
5.667511401517386730e+03
5.446289791059616618e+03
5.205875043599430683e+03
