-1.178959943275844324e+02
1.627843779835810665e+03
2.380669019983531143e+03
2.750580361340147192e+03
3.038582245602245621e+03
3.376761670111062358e+03
3.580151323440547003e+03
3.367703060123621071e+03
3.284445525254178392e+03
2.484358834569456121e+03
1.651406395348687056e+03
1.139514795447026472e+03
5.626959829041453531e+02
-7.710831879494804753e+01
-6.219313486343727391e+02
-9.637297889773450379e+02
-8.074834510159207639e+02
-2.611046402935559740e+02
4.375691480712574162e+02
5.054786093284707249e+02
7.816114570087679567e+02
1.214906455777673727e+03
1.665218180945688346e+03
2.242631312998299563e+03
2.869212600091113472e+03
2.615099472750498535e+03
2.145343942906784832e+03
1.934973177364372759e+03
1.596098037499850307e+03
1.563602651168560669e+03
8.014471082533710842e+02
8.106354855653382856e+02
4.908336194227770193e+02
-7.485152708040639880e+01
-4.753284330178348114e+02
-6.966928700719904555e+02
-2.689507808124783992e+02
-1.039068447064268668e+02
-4.359773359415037248e+02
-1.038207832587200983e+03
-1.563412551330243787e+03
-1.392748780572507258e+03
-3.260974433654506583e+02
-1.233732999305963176e+02
6.251057960378864209e+01
4.904115853988607796e+02
1.107312248239451947e+03
1.278190681775706935e+03
1.363923567082567615e+03
6.607707370912334000e+02
-1.373137593638555529e+02
2.014050636854402114e+02
-2.070847874368149348e+02
-8.297794408946942895e+02
-1.167872538908658044e+03
-1.069445873135582588e+03
-1.396496569963899674e+03
-1.453060948314803454e+03
-1.813140867172608978e+03
-2.560572789017794548e+03
-3.585362948858881282e+03
-3.535548185286066200e+03
-2.934221110039732594e+03
-1.544372210364630519e+03
-1.218824000207125891e+03
-1.066643221356591312e+03
5.840013957561253619e+02
2.588198470409524816e+03
3.101982903403413275e+03
2.705249357856179358e+03
1.090823195359802185e+03
-3.932960434589267606e+02
-1.970406745409294729e+02
-5.743527091942798961e+02
-5.762570307547736093e+02
-6.428570210022583069e+02
-6.471642653365432807e+02
-1.062598438969899917e+02
8.897554320446519114e+02
1.922920363477005139e+03
3.285320866012736133e+03
3.986983886316546432e+03
4.457055991290465499e+03
5.217500566811445424e+03
4.888300230325170560e+03
3.594467045499912729e+03
2.571008773255317010e+03
1.067882188882827904e+03
-1.222837345517697031e+03
-2.097122440159642792e+03
-2.882069959510576609e+03
-2.795778761929897428e+03
-3.156216123492178212e+03
-4.450112466621056228e+03
-5.823235307912865210e+03
-5.610945645818609592e+03
-4.971407998265493006e+03
-4.980560514455039083e+03
-4.919543336658346561e+03
-4.869360070922799423e+03
-4.603835130575688709e+03
-4.665823784169044302e+03
-1.143333640822052303e+03
2.500627494944128557e+03
4.350125591419984630e+03
4.183129624783568033e+03
3.243670076521188093e+03
3.198762377716258470e+03
3.025415274459032844e+03
2.532630744801564560e+03
2.102368417826423865e+03
1.579545914833850929e+03
1.311170768728958365e+03
6.043513624216093376e+02
7.900171058931404104e+02
8.912265694769599804e+02
5.210885534051566310e+02
2.625416112735610454e+02
4.315815501684847959e+02
2.131566228783170232e+02
1.613205632865082464e+02
-3.368574803020855768e+01
1.412010890572580593e+02
1.379388498361027473e+02
-3.444034344267033987e+01
-2.869351655740998694e+02
-1.017606158168837737e+03
-6.543457833568578508e+02
8.438294219635556601e+02
1.912018085139667619e+03
1.544269511117442789e+03
2.875197726271387637e+02
-1.048181838264027419e+03
-2.542808658013121203e+03
-3.789380092731947570e+03
-3.652904451761485234e+03
-2.753439134783415739e+03
-1.548016910874894393e+03
-8.487092961353110923e+02
3.959035895807161864e+01
4.711606507434232185e+02
1.206172167047423500e+03
2.703561254513489985e+03
3.406233233382782146e+03
2.929185756032015433e+03
2.416457978329979142e+03
1.564157039195224797e+03
-3.346019361467128306e+02
-1.102568947516142771e+03
-1.542773405058061826e+03
-2.009294841878139550e+03
-2.329095200074641525e+03
-3.118109170129663198e+03
-3.439296224631766563e+03
-3.695817289416199856e+03
-3.313820832939419233e+03
-1.511141257137949196e+03
-4.537183201379713182e+02
-7.227819406694222835e+02
-8.374285174260107851e+02
-2.188459567720042287e+03
2.121018902847020371e+01
1.773631930965149650e+03
2.522812386404628796e+03
3.062774574923049840e+03
3.247586538295739956e+03
2.591242954621826357e+03
2.258818769749806052e+03
1.571429421099874389e+03
1.508438255760395919e+02
-1.948745626077861175e+02
-5.414278461813869399e+02
-8.979020423040831247e+02
-9.734932372963661464e+02
-1.287279805071627152e+03
-1.805293161232983721e+03
-1.611475926301870686e+03
-1.351791742953368612e+03
-1.489279217362802001e+03
-1.138861566233536450e+03
2.344707576360810606e+02
1.021809007834193949e+03
1.551170655575309183e+03
1.646450450538774476e+03
1.657601411963050850e+03
1.148681626397707760e+03
8.377540696082015756e+02
9.368132596985608416e+02
1.027811521258152879e+03
9.917492345345285685e+02
1.145609218490747025e+03
9.603555415458951074e+02
3.479631491870291029e+02
1.624541866421430711e+02
-2.793110134198971650e+02
-8.104816182493669885e+02
-1.367992200462879055e+03
-1.559725234063851758e+03
-1.134576903317360802e+03
-7.574803518801985547e+02
-1.815089717040526125e+02
3.073827541413377844e+02
8.902412124501729522e+02
1.294791743992289867e+03
1.327044324887905532e+03
1.339310059489601599e+03
1.809558521548290628e+03
2.424426409224956387e+03
2.460142107617211877e+03
2.479652714349930648e+03
1.843878139908639923e+03
7.706154809986863938e+02
-5.031199405228890242e+01
-3.889014448725189368e+02
-9.237727484461164522e+02
-1.310026172052626407e+03
-1.796968718528154113e+03
-2.372662500570910197e+03
-2.629144707457680397e+03
-2.755293627801172534e+03
-2.348953102720819970e+03
-1.198365611479223844e+03
7.677215094213821658e+02
1.578229015540183127e+03
1.275426384969125820e+03
1.039051556961000642e+03
1.679816743969537583e+03
1.889705773630955491e+03
1.867490685859216683e+03
1.939566628490264065e+03
1.633708976261505541e+03
1.401903379187186829e+03
7.293102011757172249e+02
2.804861257079076609e+02
-6.144130245753420922e+02
-1.358679170011035012e+03
-2.094865899780696509e+03
-2.326963746164452004e+03
-1.895308211503796656e+03
-6.012131671705267308e+02
7.155175928174118383e+01
1.115919321683098133e+03
1.684775394605128668e+03
1.668356978316709728e+03
1.714771159687479667e+03
1.517833036454676403e+03
7.445385700719656370e+02
5.737937594720851848e+02
1.449440657171751354e+03
1.919660947483401287e+03
1.371758967833738552e+03
4.521511427936598011e+02
-1.911846392040290539e+02
1.464947570345614380e+01
6.873578354639892041e+01
-8.721915286899638886e+02
-1.178957587418788307e+03
-8.863768765117821431e+02
-4.717375602264392001e+02
7.541097434958817303e+01
3.889144818440616973e+02
5.142225687194641068e+02
1.328192533076820155e+03
1.718046200094208189e+03
2.630999377634565917e+03
3.544099585585858676e+03
4.009502862917652692e+03
3.912440308175165228e+03
3.760709148383783031e+03
3.500870619358803651e+03
2.618495809112703682e+03
1.910995126589886922e+03
1.338620203072447566e+03
6.802939142687043841e+02
4.149557429280613405e+02
-1.003195567760366913e+02
6.753159736079218192e+02
3.916812023083377312e+02
-1.891134495508687451e+03
-4.222286395219232872e+03
-5.973978306127829455e+03
-6.075131762438344595e+03
-6.240383602936832176e+03
-6.293571830730228612e+03
-4.532746138730900384e+03
-3.422541423820533964e+03
-2.273836766269341297e+03
-5.649476200286014773e+02
-7.298856527360811697e+02
-1.576500173310278115e+03
-2.544937155655165498e+03
-3.457328470584834577e+03
-2.572864402244308167e+03
1.481186532848791330e+03
1.125984026054755077e+03
-2.302423556223065134e+03
-2.769063112151253790e+03
-4.808715251400810303e+03
-4.834357358682807899e+03
-4.485966917755983559e+03
-3.337145362864454455e+03
-3.411990511372587662e+03
-3.823747302134494930e+03
-3.206267187618848766e+03
-2.488712593709194607e+03
-1.977148256920124140e+03
-1.534446626033197845e+03
-2.142443937369946525e+03
-2.105252208495378596e+01
2.216907529290965613e+03
1.945516472535365210e+03
8.375132693194792637e+02
2.962310978562876329e+01
-1.309951819375959303e+03
-2.560945046831947366e+03
-1.942126474629823178e+03
-4.823684598679216151e+02
2.383731631949151790e+02
-3.797253699797656168e+01
-7.157241078940610350e+02
9.050075752151569759e+02
2.130313176450418268e+03
2.016285316150188464e+03
2.716170126827319564e+03
4.976745874342052957e+03
5.898935927081344744e+03
4.943990328920154752e+03
3.710263608472810574e+03
2.875765413671353599e+03
3.394104459389691328e+03
4.348281937424497301e+03
4.289566646620171014e+03
3.887903657758336976e+03
3.779176534233193252e+03
2.315462597215162987e+03
6.477115697761662432e+02
-3.790822703972028194e+02
-1.120800785642375558e+03
-4.472988646992417330e+02
2.934459797073683944e+02
9.692599915182339601e+02
1.353132549023371212e+03
1.729339728706738015e+03
1.248102250445257141e+03
1.226648803052203903e+03
1.830406484496408666e+03
1.357180868100146654e+03
-8.970611103908588575e+02
-3.529148399282356877e+03
-2.403830001084003925e+03
3.197026192374122502e+02
1.539126664089684482e+03
1.866326660488228299e+03
2.075334843499128056e+03
2.063080446927758089e+02
-2.306757912237176697e+03
-3.284841777094302415e+03
-2.427873322282786830e+03
-1.367817530826613847e+03
-1.034243739258519554e+03
1.572120169579976903e+02
7.815467555320127531e+02
1.303652289414491179e+03
1.924639383252648486e+03
2.776498091124942675e+03
3.641318521524865446e+03
3.800173433632754950e+03
2.812071807156144132e+03
1.728038808399417121e+03
1.371055760376349099e+03
-1.983886908012988926e+01
-7.778275553032541438e+02
1.609980930524070573e+02
1.736728741510432883e+02
-7.297139201287150172e+02
-2.362929203653883178e+03
-3.699047428712579404e+03
-2.657223107731926120e+03
-1.032353202783633378e+03
-4.285663742838417534e+02
1.330853611150083680e+02
9.636379038633355094e+02
9.042192051532523465e+02
9.420408283637829072e+02
2.418431039380222387e+02
7.703224726846203794e+02
1.569472965811752147e+03
1.423555219293147275e+03
1.615693906378518250e+03
1.972824866132452144e+03
2.314886827125526452e+03
2.589960792019583096e+03
1.700900627535021158e+03
8.084020206204845636e+02
-1.560531612823897831e+03
-3.835791320317950976e+03
-3.445278939857645582e+03
-9.681334208259710294e+02
8.416759137453842641e+02
1.075136482920438311e+03
6.630398161728770674e+02
1.233348627183432811e+01
-1.522910426524778813e+03
-3.278530005720254394e+03
-3.360418541791401367e+03
-2.820878907049041572e+03
-3.769862584608284578e+03
-3.881183097416935652e+03
-3.445002367816411152e+03
-2.918457271055854108e+03
-3.580708118294236101e+03
-2.900812181960741327e+03
-3.204679679119331581e+02
1.306315281867763133e+03
6.653411979834859267e+02
-9.674314098563542075e+02
-1.631893546092570887e+03
-1.469086027293598363e+03
-1.099833218024765756e+03
-1.208807256439954017e+03
-1.155765448376172117e+03
-9.697526809328168156e+02
-1.494764631901065513e+03
-1.103785144960190109e+03
6.191232634432120676e+02
-6.400276752577768775e+02
-1.839212505544609485e+03
7.645358044698074309e+02
3.144200997320017450e+03
3.435592353009948965e+03
2.839602367278351721e+03
1.128276536346904777e+03
8.459847151214032124e+01
1.315120095467156887e+02
-8.719945299360673516e+02
-1.305944266718007839e+03
-1.382447540713718581e+03
-1.506132488003876233e+02
1.614549220560791355e+03
2.054109215159879568e+03
1.711088181465635671e+03
2.047382714438436778e+03
2.675927064199724100e+03
3.737702259922526082e+03
3.870888608038445909e+03
4.192486225918383752e+03
4.204549717851722562e+03
4.027197096186476301e+03
3.711429405628723089e+03
4.307121622095531166e+03
3.213090428477368732e+03
-2.696466622303791496e+02
-3.556187320058677415e+03
-5.097615655454708758e+03
-5.318916837001675049e+03
-4.574178755816483317e+03
-4.482384447776395064e+03
-3.191597867600443806e+03
-9.348513512945334014e+02
-2.055075879341648033e+03
-3.787098197609022009e+03
-1.276971173980518870e+03
1.847208391923089266e+03
6.164293751902118856e+02
2.701689636124736808e+03
4.427044305911679658e+03
5.661498075006404179e+03
4.909042328409298534e+03
1.744760943578012530e+03
-1.253426840161637756e+03
7.744281101540018426e+02
2.186402331085916103e+03
3.635122326478615378e+02
-1.152137917411266471e+03
-3.079590564261663076e+03
-3.431922783174813503e+03
-2.152145411318656897e+03
-4.497300176599483166e+03
-5.095519593201101998e+03
-5.102804459168663925e+03
-9.929216911490448183e+02
1.839191072358863721e+03
3.699391550097408981e+03
2.086673083429385770e+03
5.712837158539821303e+02
2.708383608912173258e+03
8.648521644344989454e+02
-5.445625388535047762e+01
1.836395400558886422e+03
2.674353241499829323e+02
-7.092741316338436945e+02
-3.075583761758436594e+03
-1.776411165548605368e+03
3.296246287576222130e+03
3.293265331620712004e+03
-1.433423899343185212e+03
-2.808879591057394919e+03
-1.768007855622715851e+03
-3.231769675517093219e+03
-2.047128721238524349e+03
-4.570929653221224953e+02
-1.423591901478178443e+03
1.953518928910719751e+03
1.932275168775218617e+03
-2.015399322876966835e+03
-9.286061867046533962e+02
2.799776127589807857e+03
4.712932863850359354e+03
2.089900935716666936e+03
-1.396387150424988022e+03
-6.639678394724007831e+02
-2.117799800250949829e+03
-5.640786311876457148e+03
-4.255849721761257570e+03
-5.185049515033250827e+03
-1.914724317614597453e+02
4.070842831005077187e+03
1.792995614284431667e+03
-2.859919619505918945e+03
-5.485972663644868589e+03
-6.002252580290783044e+03
-5.694723750711274988e+03
-3.776267831012217357e+03
2.042093234960791960e+03
7.004413021979724363e+03
6.970717618315738946e+03
5.321453491577512978e+02
-1.687203573885595233e+03
-6.163687233218920483e+02
3.125495952418167462e+02
1.304509946929795888e+03
4.182543620833747809e+03
5.181946605787583394e+03
4.189827938650001670e+03
4.581115033375782332e+03
2.992960516523605293e+03
-1.786591821605029281e+03
-6.668560258337956839e+03
-8.720990556445613038e+03
-9.497800612275939784e+03
-1.121489369599820566e+04
-8.456560643356615401e+03
-2.939768665874295493e+03
-1.525431219071037731e+03
7.833776410057216708e+02
5.473865064619545592e+03
8.904138602996628833e+03
1.137697353247308820e+04
1.180849908141674132e+04
9.069575512775167226e+03
7.510941453811495194e+03
5.422953477516661223e+03
1.640018036281937839e+03
-3.722714455247779028e+02
-2.190139512573389311e+03
-3.312609116734606687e+03
-4.812691744197987176e-01
2.587186681173370289e+03
2.385579593281127018e+03
4.369850331853247553e+03
3.817814030885265765e+03
1.720319435717836086e+03
-5.165063776125608683e+02
-1.757798857913763868e+03
-1.264612134382110753e+03
7.410096662229116191e+02
3.720018980249098604e+03
3.510745774052062188e+03
-7.878080165380827111e+02
-4.381844478752454052e+03
-5.358387128631788073e+03
-4.138396034082036749e+03
-1.766052125546781781e+03
9.184722330009495863e+02
4.009196593950824081e+03
3.621204257561684699e+03
2.239506765994609395e+03
3.458870815121807709e+02
-1.371604013252567256e+03
1.530169538498653992e+03
2.487116610092604333e+03
7.480135984829227027e+02
6.189495461512392467e+02
3.464071355950369707e+03
6.496473274498588580e+03
5.922134883356307000e+03
4.028906186648811854e+03
5.436725677822518264e+03
5.900685230238428630e+03
4.370770859050213403e+03
3.751966360680947673e+03
2.469382842595933653e+03
5.580350604741944380e+02
3.487155079216719855e+01
5.198833674528889333e+02
8.608927904744426769e+02
-1.285174826060295118e+03
-5.988309078314571707e+03
-9.973545286474645764e+03
-1.253987462307007627e+04
-1.403414082558397058e+04
-1.171940848140817434e+04
-1.096878010696804631e+04
-1.113520286319063598e+04
-8.399474759865761371e+03
-2.104446337767056320e+03
1.568624988846698670e+03
7.565721052197314975e+02
-6.635410882556035403e+02
-1.710733006719921377e+03
-1.694110544740158048e+03
-1.921489226613028904e+03
-2.159797724200878747e+03
-1.379138014314620023e+03
-4.126739146396194542e+02
-3.142404590723693218e+03
-3.052712558989181275e+02
1.896583086079279383e+03
8.881924507395406181e+02
-4.441044698384574474e+01
-7.142200640495418611e+02
-6.073162518953582776e+02
-1.367812917494533842e+01
6.957687405066191104e+02
1.640107316680128179e+03
2.694403983984000206e+03
3.941632223727156543e+03
3.797884777046425370e+03
2.198126253264809748e+03
4.517804292260305488e+01
-1.401959433633575600e+03
6.608291281047947905e+02
1.840683559469520333e+03
1.313582332296665072e+03
2.040348421856460618e+03
1.614927831694199767e+03
2.324106822622586606e+02
-1.132170206715743006e+03
-1.035904936205392232e+03
1.684144040068691993e+03
2.785960552109244418e+03
1.533673716493785832e+03
-7.872732780439898193e+01
3.437410108725930513e+02
1.701171666914579873e+03
2.298526296495070710e+03
1.848830569333577614e+03
2.650123368264336477e+03
3.301418099681063723e+03
1.039787718004738963e+03
-8.337592477638817172e+02
-1.614039531437113965e+03
-3.750042265782524851e+02
-7.908419064217908954e+02
7.238305228460665930e+00
2.450258108691376492e+03
2.350318376843931219e+03
5.033890063949668274e+02
-6.465825967738052213e+02
4.154685016232497929e+01
1.303974169504769861e+03
-2.072512158249574270e+02
-8.251244558739903141e+02
1.414566092787571279e+03
2.459782952450415451e+03
1.575469920787835235e+03
-1.091415506668026865e+03
-4.953718256772116547e+03
-4.307461575010209344e+03
-1.165767725561076304e+03
7.722026722542113930e+01
1.636058477640964668e+02
2.502528300307100835e+03
3.810876994487045977e+03
-1.950409793704275899e+03
-4.062313721167802214e+03
-3.560847480559792530e+03
-3.190017496266236776e+03
-2.516734567435113604e+03
-2.014004078033565975e+03
-1.630904847348068870e+03
-1.086489072554160430e+03
-7.225121698921551570e+02
6.860618448559996523e+02
2.639899957222721696e+03
2.717974241258235452e+03
1.957479798572558138e+03
1.769541592351559302e+03
1.376243490472284520e+03
1.251566196324934481e+03
1.501406868985809524e+03
1.477838985111488910e+03
8.288875251586752029e+02
2.144898061274920735e+02
-6.925216278907264496e+02
-5.882593130589611974e+02
-1.976050013018944185e+02
-9.704760809620038344e+02
-3.315975094994167193e+03
-6.268127009333724345e+03
-6.749928738745939881e+03
-7.117281973785758055e+03
-6.698216365005975604e+03
-3.942705016734420951e+03
-4.946981088048266884e+02
1.786808877277429474e+03
2.676774485374751748e+03
3.966365438967661248e+03
4.208762011326965876e+03
3.332980127366668057e+03
2.952881131777362953e+03
2.118349743444530304e+03
1.542342045233505360e+03
3.878648181206293657e+02
-1.394274025038667105e+03
-2.315199140980579614e+03
-9.176071366217540799e+02
-1.634439452473815493e+02
-5.640966878191223941e+02
-6.006952610501361960e+02
-3.159310096049069330e+02
3.199848268126534094e+02
1.214084369715605135e+03
1.401355919981173429e+03
2.115932476434079945e+03
1.843025370021261324e+03
1.092691619724912471e+03
8.535172311031775507e+02
7.685246285425544102e+02
1.898920328605624945e+03
2.423634083605888009e+03
2.145735323496496221e+03
1.641092295611483905e+03
9.305009258860038699e+02
-9.788106705191847823e+02
-2.215944873380769877e+03
-1.466987837051678298e+03
-9.701949373191947643e+02
-2.644522826920723219e+03
-4.084009349488096632e+03
-2.903360580187801588e+03
5.194668886452431025e+02
3.075200307775986403e+03
3.551188708791632962e+03
3.010343429765831388e+03
1.832432671194850627e+03
1.049676480471387322e+03
1.254000452514458857e+03
2.399500632862193015e+03
3.457011870978662500e+03
3.187921022966200781e+03
2.335407814040913763e+03
1.340031904875186001e+03
7.155721610256808844e+02
8.498061188334917233e+02
9.288728841479575067e+02
-2.043961438764955219e+01
-4.930005670244819385e+02
3.651624408014241681e+02
8.402777738808805452e+02
5.267888602765383439e+02
-4.348011406713895894e+02
-5.238286469629648536e+02
5.404114582956216282e+02
1.453977147912670489e+03
1.368255965548223912e+03
1.275483180856389936e+03
1.277060918515369394e+03
1.077168878095135824e+03
2.161126564793355101e+03
3.045514362408069701e+03
2.831599193556882710e+03
1.942873977469400643e+03
1.774023482182393309e+03
2.459441438663435747e+03
2.916362768380550733e+03
1.545634404695440935e+03
7.340842112883991604e+02
1.345640694644038376e+03
1.148150306739707503e+03
7.262646179555383696e+02
9.591589592742555226e+01
7.744015077895396644e+02
1.905317595275614849e+03
2.424481719152963251e+03
1.260660600908621063e+03
-1.472200932190856292e+03
-4.585101642206943325e+03
-5.000227622542134668e+03
-2.723518209332844890e+03
-2.279853288492725369e+03
-2.420347863133667488e+03
-2.973868747962406360e+03
-4.156142890409933898e+03
-4.975094565096785118e+03
-5.149889482763925116e+03
-4.043592426789672118e+03
-4.739049323942583214e+03
-5.654651817616794688e+03
-5.363787631695356140e+03
-5.182918967052410153e+03
-3.978301711272518787e+03
-1.908229654212948617e+03
-3.080650418107086352e+03
-3.025458688008339777e+03
-3.049504635528998278e+03
-2.636538026465370876e+03
-1.424566907087482605e+03
1.993462584997934300e+03
3.231767139011978998e+03
-6.627227030839572990e+02
-4.066969711225608080e+03
-5.079033815894912550e+03
-6.102293320307162503e+03
-5.947743407515195941e+03
-3.931165954150767902e+03
-2.783760213466591267e+03
-3.153316646641801526e+03
-1.737699654810015318e+03
-1.753780333864679505e+03
-3.727559959409888506e+03
-3.496118480898043344e+03
-3.020607444450505227e+03
-2.009304286120444516e+01
2.861693485790651266e+03
3.831205298163697535e+03
3.983467652701639508e+03
4.677359979825361734e+03
5.174738597006567943e+03
4.775460471363119723e+03
4.238486553227828153e+03
3.899736102399967422e+03
3.232452452836264911e+03
2.149766307882166529e+03
1.666777437964264209e+03
1.868524026863911786e+03
1.998640231454183777e+03
1.290288882451014842e+03
7.977077573203546308e+02
3.228134784289855475e+02
6.073909905494064105e+02
9.954474015441649044e+02
9.742883379616037018e+02
9.450680218203027607e+02
1.415573852682687402e+03
1.536929866680250370e+03
1.899373180024538442e+03
2.407966382564468404e+03
2.781846690263711935e+03
3.054105823875388069e+03
3.565721937346085269e+03
3.455700028785993709e+03
2.727971617810901535e+03
2.289643652784177448e+03
1.221899765954225813e+03
2.537871550152632665e+02
4.775172308390080502e+02
4.381063331269689911e+02
-1.567223395371101162e+02
-1.215866729977523619e+03
-1.924195774819120743e+03
-1.658017905485541860e+03
-8.566560137468275116e+02
3.061340294888904054e+02
1.790646415010522333e+03
2.808984403344455586e+03
2.642195704354324334e+03
2.648233632109299833e+03
2.446152376445707887e+03
2.060077614793010525e+03
1.373673044884991668e+03
1.148821363422613558e+03
1.217982269196006428e+03
5.109083931261747011e+02
-2.043326642339626176e+02
-5.357253260786870896e+02
-5.543217786849055528e+02
-1.244139533158760742e+03
-1.551232796155936285e+03
-1.517633155058239254e+03
-1.714292934243372883e+03
-1.438260887116804270e+03
-8.765645900359946836e+02
-2.491720471780908213e+02
4.310354967327519375e+02
6.401761862629679172e+02
-2.863961736392154478e+01
-4.224276182336427610e+02
-1.344582528180328893e+02
-2.257080720824293110e+02
-3.100535229369119179e+02
-1.936274746759274876e+02
3.876265056831878155e+02
1.682817086311492176e+03
2.475936668188076510e+03
1.583889751261002630e+03
1.794193455740105492e+02
-8.184183251381532500e+02
-1.031429132683392254e+03
-1.191575621688890124e+03
-1.179997086544953845e+03
-1.512761010860511306e+03
-1.478838660064256146e+03
-9.641109479426094140e+02
-2.777123004445959396e+02
6.136816393385416291e+01
1.553679868791365095e+02
6.022699875273339103e+02
1.133034152425954971e+03
1.653487671607705124e+03
1.910705897215245386e+03
2.269574376237033448e+03
2.528899734808727771e+03
1.443822777914363769e+03
-1.405562101046104999e+03
-4.588311076466556187e+03
-6.830563457919456596e+03
-7.632431437584493324e+03
-8.082656222432231516e+03
-7.575350630033386551e+03
-6.919748927589798768e+03
-6.461765196638399175e+03
-6.484322496497661632e+03
-5.844215166792191667e+03
-4.030287474887700228e+03
-1.002872878965741847e+03
1.617979042641722742e+02
5.457358890031343890e+02
1.427003806093888670e+03
1.527350173774261521e+03
1.455757033392931589e+03
1.793806496504749703e+03
1.378269554245153813e+03
7.629425142504005635e+02
1.316785580263385782e+03
9.397260978170190810e+02
1.707797759845475412e+02
1.038783129885939616e+02
1.248630164570922005e+02
2.417705064036949238e+02
-7.146424290617247266e+01
-5.309134698322073973e+02
-3.894337440443761693e+02
4.310233953786954544e+02
9.783706883002532777e+02
1.651631850670946051e+03
2.027823980887316566e+03
2.182931232605958485e+03
3.141897456288013018e+03
3.766736753787747602e+03
3.765367920094133751e+03
3.147769889073804734e+03
2.875820079896336665e+03
2.832495537482099735e+03
2.019870578429658963e+03
1.056055021586682415e+03
5.801465154616088284e+02
5.049427533715120830e+02
2.354048042155281735e+02
-3.651880123888446406e+01
9.793084445233782276e+01
1.116008387223479730e+02
6.265128422464703135e+02
1.778805788954198533e+03
2.565445696116253657e+03
3.127527605963889528e+03
3.228136624571523498e+03
3.077284504995710904e+03
3.611099398728785673e+03
3.982471747657039487e+03
3.421350345924955491e+03
2.700769012185480278e+03
2.736674978866329184e+03
2.656905105735220332e+03
2.050432263346415311e+03
1.117307311326750778e+03
-5.653820670763656864e+01
-5.690916570766644327e+02
-4.053396192783546894e+02
-2.953589015984414914e+02
-2.121293337780389834e+02
-1.476603634890514627e+02
2.661563395774936680e+02
5.764136542720957550e+02
1.393091208035161344e+03
1.999215281727995944e+03
1.885667309274694617e+03
2.080460090395999941e+03
2.184674774014750710e+03
1.663381926398695896e+03
3.685216313543448905e+02
-9.207803870308965770e+02
-2.936498225338267275e+03
-3.639829586224949253e+03
-4.015793880391969196e+03
-5.182202964585237169e+03
-6.037998399932798748e+03
-6.596307918597907701e+03
-6.776316675083467089e+03
-6.095889809930329648e+03
-5.575846049573984601e+03
-4.629194789938668691e+03
-3.748937898665424200e+03
-3.068998922313032381e+03
-2.509456700489059585e+03
2.175713791642048704e+02
3.980761496914968802e+02
-1.415892838873301571e+03
-1.299188603131945001e+03
-1.112745067340385049e+03
-1.038565895036302891e+03
-1.437706389398459351e+03
-1.697096948482765356e+03
1.183395994516644578e+03
2.077686630069548755e+03
-2.426334733065674754e+03
-4.790704115755312159e+03
-5.225392895656021210e+03
-5.078263938489723841e+03
-5.152284775383117449e+03
-5.324559613723537041e+03
-4.861140503472149248e+03
-2.396888291857664626e+03
-3.271710354956428091e+03
-4.053551996399115069e+03
-3.152437268792764371e+03
-2.517481003853219136e+03
2.134147520875294646e+01
3.625274385405677549e+03
4.570428299931775655e+03
4.724742973598573371e+03
4.939094552032745923e+03
4.524560026104228200e+03
3.742372780319885351e+03
2.927451821001823646e+03
2.110629957915042269e+03
1.843891693830303893e+03
1.380271846769667491e+03
3.538822767168637142e+02
-3.593755721961501877e+02
-2.735846366921963977e+02
1.833649764321657472e+02
2.756640202541568101e+02
9.334637333542847273e+02
1.930885028990402589e+03
2.664756976719107570e+03
3.197892187421452036e+03
3.773343525450443849e+03
4.106165246435855806e+03
4.012534285358395664e+03
3.515546206260905819e+03
2.727104025878869834e+03
1.889122579530838038e+03
1.718388893192504383e+03
1.101187731305481520e+03
-9.572906772892340541e+02
6.488938038004009741e+02
5.134949498425984302e+02
-2.804163748420746174e+02
-8.860908142503610634e+02
-5.012435532251520272e+02
9.400841209404144649e+01
3.408457437603695439e+02
1.018052652969495057e+03
1.306685922159655775e+03
1.825622997893735601e+03
2.425951199301339329e+03
3.208074105427267568e+03
3.506982325938460690e+03
3.540410381860133384e+03
3.492641524501941603e+03
3.551260352672101817e+03
3.183455079338142696e+03
2.796158133983896732e+03
1.792271923981145164e+03
1.243956880103027515e+03
7.989780373965475064e+02
5.855804023811745083e+02
-1.652147584338592878e+02
-6.267053389624002193e+02
-9.141214856278354546e+02
-3.974118577299765889e+02
-1.413169955675613494e+02
3.472083967163108582e+02
1.051024966351136527e+03
1.342158235738666463e+03
1.868678794675254039e+03
2.275546764210736001e+03
2.358731799597215286e+03
2.525258504591409292e+03
2.673279642354560110e+03
2.635710349663866964e+03
2.220432698646684457e+03
1.968424971783616456e+03
1.452790507218387575e+03
6.294496238983643934e+02
-2.876677342623634672e+02
-7.945289820348231160e+02
-1.263160655086659290e+03
-2.045582781394464746e+03
-3.046741553692513662e+03
-3.890770455508088162e+03
-4.520647311685227578e+03
-4.269429603097419204e+03
-3.528077968243009309e+03
-2.958525973248375067e+03
-1.832773031196511511e+03
3.641019226344469075e+02
1.692200952656227400e+03
1.401610494476236681e+03
-6.927537170821641439e+02
-3.642867561475540697e+03
-4.119701251503162894e+03
-4.254375562037737836e+03
-4.369958054826497573e+03
-4.695439117957005692e+03
-4.493835125030846029e+03
-5.407270545195224258e+03
-6.265585278781421948e+03
-5.665858004544792493e+03
-5.667201252701474914e+03
-5.577643761437126159e+03
-5.074123551997855429e+03
-4.389585409462112693e+03
-3.335037666369842555e+03
-4.824861403692761996e+02
-7.599136137513853555e+02
-2.644224451772049633e+03
-3.082427203950717285e+03
-1.132608530462914587e+03
2.220267448915384648e+03
3.100225888005242268e+03
3.084232627943547413e+03
2.701202876291413759e+03
2.061145170665020487e+03
1.287012890470539332e+03
1.180816467986583802e+03
7.125953480161889502e+02
-3.672832321084823270e+00
-1.905575236267436523e+01
1.623898385552912202e+02
9.863380070644073783e+01
3.607112711287265370e+02
6.867657841441164237e+02
1.220833861909716688e+03
1.727916972749868137e+03
2.348998184002430207e+03
2.680051439023811326e+03
2.695091736368199690e+03
2.993024769225361069e+03
2.942816408061756647e+03
3.047474564745242333e+03
2.935058256227708625e+03
2.441632079820502440e+03
2.042213332357801846e+03
1.343725044990574361e+03
6.681472451433775177e+02
2.774435680857932880e+02
-2.423548695471876329e+02
-1.932595019254318345e+02
-4.683039668567662943e+02
-4.534759707289379662e+02
-3.417759204517874423e+02
-4.331650198486806858e+02
-6.265666125755418392e+01
5.037604714918494437e+02
8.361042552503695333e+02
1.302427333399735062e+03
1.712719525606240495e+03
2.038019691022260076e+03
1.838386627045551450e+03
1.397920482821614314e+03
1.125736411397783741e+03
3.867433408884996879e+02
3.408222028244597936e+02
-3.570448929271103680e+02
-8.657554068864343435e+02
-8.083199799825365517e+02
-1.471746577794366658e+03
-1.554971827868859236e+03
-1.372015401736596459e+03
-9.820658061237999163e+02
-4.408098600606601991e+01
2.101447683905617794e+02
7.234665988132849179e+02
1.013841841884359610e+03
8.663384427527826119e+02
8.459429884642797788e+02
8.345994274311451591e+02
9.923895677488035290e+02
1.018283590368067394e+03
9.071478650336983947e+02
1.397097775355143085e+03
1.438243923101569862e+03
-1.224944045120501386e+02
-1.292213651371831020e+03
-1.931965225536006528e+03
-2.339670543866168828e+03
-2.260269212527017316e+03
-2.177855053140110613e+03
