-1.287297970277440072e+03
-2.594790232337833459e+03
-1.967022651787438235e+03
-4.001040394259286614e+01
8.352798006429162569e+02
-9.862568692577408456e+02
-3.180562168995641514e+03
-1.876489904481892154e+03
9.709314745808514999e+02
3.063694755300051838e+03
2.816740122521389367e+03
1.737988478283289624e+03
1.909571533157293288e+03
2.455372242199006905e+03
2.078186553631798233e+03
4.429224633459014058e+02
5.435094338216521237e+02
6.690726963330469061e+02
5.375599445909662109e+02
6.377855223054814360e+02
5.878789563081763845e+02
1.000962870908869718e+03
1.579005579454860708e+03
2.181081252892923658e+03
2.090299765973986268e+03
1.660590413912872236e+03
1.747675220217916603e+03
1.600684336166051253e+03
1.504806475054297835e+03
1.370849536595862219e+03
1.747487643770587283e+03
1.467768100488933442e+03
1.149730953001269654e+03
1.212555030879965443e+03
7.701806667949133498e+02
3.155293705083421401e+02
-1.074151068477369506e+02
-1.696780518086339384e+02
1.426534270909807276e+02
1.256038776465502309e+02
2.051831780173461937e+02
5.284959598240576497e+02
9.955298582377383809e+02
1.787286787635327300e+03
2.123718974015669119e+03
1.892916076047137722e+03
1.619868897620944153e+03
1.743522711656808042e+03
1.490857530783937136e+03
1.635771534591691989e+03
1.381335701173688221e+03
1.061634868879300939e+03
7.445913993643947606e+02
4.662464725471307929e+02
3.706092641170916977e+02
-3.323838793370427993e+02
-8.995734386707565591e+02
-1.142914414796790197e+03
-1.445464457300380673e+03
-1.835514346339779195e+03
-4.901154410926967103e+03
-4.004429366304527321e+03
-2.863252857676257008e+03
-1.141929359343037191e+02
1.047461026226072363e+03
-3.883437789773853410e+02
-7.396555684960990220e+02
1.089141267957259629e+02
-1.494791739596877278e+03
6.732158748224451301e+02
-1.225059686444925774e+03
-1.456020054536773785e+02
-1.839479571706832758e+03
-6.735324685490456931e-01
-6.901820948858091924e+02
-2.525003571759952138e+03
-1.195129895970738517e+03
-2.889661551803178554e+03
-1.161565428935628006e+03
-4.102863719498738647e+03
-4.039667370015969027e+03
-2.047771665343152335e+03
5.808643181117801078e+02
-7.127562953985465128e+02
9.994061808389393491e+02
1.704354777737749373e+03
1.770140763711135605e+03
-6.621556984622250752e+01
-7.863888566494405552e+01
-8.142020768306225591e+02
2.660260731191362993e+02
-1.280012632580605668e+03
-2.009304704661943788e+03
-2.106825648768471240e+02
-3.302021832466978594e+03
-2.107440149070411735e+03
-2.452908581249113467e+03
-3.600559909427519415e+03
-8.004988629252189867e+02
-7.967090776624474984e+02
-2.773150041043807960e+03
-9.167400331552323678e+02
3.084703044733302022e+02
9.163902569072032520e+02
1.271090721519178260e+03
1.352669081656708840e+03
1.757275274916956050e+03
1.911893418704647502e+03
2.006464549956863493e+03
1.872961177914338123e+03
1.528378606545205002e+03
1.284806537402168033e+03
9.782557146138485678e+02
9.737062972527178317e+02
3.439496730560113065e+02
-4.720137466899647620e+02
-1.196029724299551162e+03
-1.640040960681797060e+03
-1.896069097116110697e+03
-2.198983701150776596e+03
-1.999001131045043621e+03
-1.407881002931119156e+03
-1.189529600128573065e+03
-1.012930228415653573e+03
-1.631129306232150611e+03
7.988463087566179865e+02
1.696103674029069907e+03
2.372623894560128520e+03
2.748386774662790685e+03
3.032347743603594608e+03
3.136432100101817014e+03
2.938623136047145636e+03
2.675843733831789905e+03
2.501890616836504705e+03
2.439045138095579205e+03
2.141243019347364225e+03
1.614572384297477356e+03
9.098788676474641761e+02
6.472727507288299194e+02
4.365774507586028790e+02
3.697774747136143674e+02
8.159974772218063208e+02
1.051229723875816262e+03
1.500444113125970489e+03
1.777660323657750951e+03
2.052875583295340221e+03
2.136175104088483295e+03
1.914453361209702280e+03
1.837697938983295217e+03
1.675831296443916699e+03
1.625831539157999487e+03
1.195749473230646799e+03
6.883988102543851255e+02
5.797879953321905759e+02
5.368281603005723355e+02
-4.043918822504119248e+01
-3.430375424916516067e+02
-5.330660468242531351e+02
-5.675567896348012482e+02
-3.045328114069982348e+02
2.949504501724313172e+02
5.749128278802758132e+02
1.125389136025621156e+03
1.566375685306238665e+03
2.388827657506403284e+03
2.826844177533705533e+03
2.775435753249601021e+03
2.474514765792152957e+03
2.612041395386630938e+03
2.350927152639384985e+03
1.921200274525169107e+03
1.663931947441159537e+03
1.891117037550304076e+03
2.044791712246258612e+03
1.726944543713969779e+03
1.451534390943236531e+03
5.414760146917660677e+02
-1.298252133167750117e+03
-3.647649215631755396e+03
-5.603779222052552541e+03
-5.188635830117280420e+03
-5.277134472711292801e+03
-4.989270034566222421e+03
-4.385992006724313796e+03
-3.842325008056324805e+03
-3.750283958924776925e+03
-3.755892174549846459e+03
-2.950142140109396678e+03
-1.139939361974797293e+03
-2.465091541144432540e+03
-4.033964154472754217e+03
-4.330453843780640454e+03
-4.229500790731177403e+03
-2.225117048889735997e+03
-2.826326151872420269e+03
-5.014140167510186984e+03
-5.467578798688422467e+03
-5.630666358433108144e+03
-5.851420582285253658e+03
-5.250867538746297214e+03
-4.920997152454428033e+03
-4.840787519947269175e+03
-2.504164695429057701e+03
9.958122356103082211e+02
2.394194327344332578e+03
2.732021846573314178e+03
2.937328634428205987e+03
3.288175989853366900e+03
3.400607826899816700e+03
2.888629579010383168e+03
3.110258619661296507e+03
2.849466809200555417e+03
2.505228762215326242e+03
2.403566933761993369e+03
1.869483052324789469e+03
1.132065348041621064e+03
6.203224313995052626e+02
4.626582662445227356e+01
-1.901540712889678275e+02
-5.669962130163071379e+02
-8.782425515083900791e+02
-8.977897494573038557e+02
-5.185608561977600175e+02
6.154931130965590000e+02
1.605387845539294858e+03
1.945078637138087743e+03
2.556642642379134031e+03
3.034239666153341204e+03
2.961902997930055790e+03
2.659590367960784079e+03
2.703316158512966467e+03
2.621023404738296904e+03
2.440731272375432582e+03
1.847424494936306928e+03
1.326182376399599434e+03
7.112256394642228088e+02
-5.414125544996611552e+02
-1.373846022883065416e+03
-2.153006213235767518e+03
-2.847907635410448165e+03
-2.790494749685161423e+03
-2.303877818700367243e+03
-2.210220569849440835e+03
-1.460490226615249640e+03
-1.102019167384651723e+02
1.542898020218132388e+03
1.828681792255132905e+03
1.225170089688406961e+03
7.353072202056547439e+02
7.591434859923817839e+02
1.280662637322880983e+03
1.910986650487378256e+03
1.725194915666596444e+03
1.135275366019414378e+03
1.043735214919131664e+02
3.492732301999804001e+00
-5.537168879068203751e+02
-7.392513243183875602e+02
-8.900830119582770976e+02
-8.074681987191129338e+02
-1.078593686198248179e+03
-1.637228883073271390e+03
-1.625035630928111914e+03
-3.775953084034512699e+02
5.528129999722443699e+02
2.797686958537616420e+02
5.228508822343471962e+01
5.268774037598241478e+01
5.550275271064394929e+02
9.501812801117727076e+02
9.890720371705974685e+02
5.286958144650503755e+02
5.306510962712263790e+01
3.398397406916433283e+01
-4.936340656465662278e+02
-7.866987169393859176e+02
-1.164084773446479176e+03
-1.629749496388495118e+03
-2.102728698705355782e+03
-2.663116177806419728e+03
-2.057702693721724700e+03
-1.047187552320009445e+03
-3.868593595003726477e+02
-1.010130017793212858e+02
-1.676562546224915025e+02
6.003767516920203207e+02
1.483366314059138631e+02
2.492955726120554800e+02
6.441911775648202365e+02
1.828593086129874905e+02
1.865401942902156773e-01
3.460192221806360635e+02
5.103674275584787097e+02
4.483982045660630433e+02
2.869213490311967689e+02
-1.363027769098411000e+02
-6.720516839986746618e+02
-7.970373639418899074e+02
-7.512668887317209965e+02
-7.927062228864986082e+02
-6.543073915094591939e+02
-1.468070288621208022e+02
5.809920340007453206e+02
9.107677899783541307e+02
1.065417575192292588e+03
1.282653647129688125e+03
1.563400770146354716e+03
1.351666644272570466e+03
1.110448657298210492e+03
1.121937428850391370e+03
8.169296664247956414e+02
-2.082192006298860321e+01
-2.716039478555780420e+02
-2.115510527540036776e+02
3.454555148409302774e+02
3.862496017941106174e+02
5.016472560497310269e+02
-2.186353813106049415e+02
-9.786031107606861497e+02
-9.755068355634761019e+02
-9.947039276021603200e+02
-1.282923135073718640e+03
-3.336846422835585145e+03
-1.109636432617061473e+03
-2.333457851042279003e+02
3.244446217388712057e+02
1.098312664491313171e+03
1.367849643504898950e+03
1.119604775756234858e+03
1.363603300263673646e+03
2.242613205355954960e+03
2.530142725476714986e+03
2.210779347171793233e+03
1.654593917438440030e+03
1.138220624171053714e+03
1.087430594177391185e+03
7.072564431066033421e+02
5.973037992765684976e+02
2.780087542661970588e+02
1.446016043544476304e+02
2.809819344507779419e+02
2.098119367056751798e+02
4.420871065659010242e+02
6.219917302205003580e+02
1.543891747807957245e+03
1.966896904291869305e+03
1.917926606125817443e+03
1.870935012467774641e+03
1.783666479980337499e+03
1.510187541430272859e+03
1.678820354792810576e+03
1.537871905790091432e+03
1.518046237749045304e+03
1.812449019583560130e+03
1.496568260616142197e+03
7.467057259046911213e+02
1.409225860568835458e+02
-1.977284153120994858e+02
-4.570515972679214656e+01
-3.481599548726675266e+02
-2.664716827322122867e+02
-3.657459868523033464e+01
4.558972831611759489e+02
9.940104373387108581e+02
2.010938774938482084e+03
2.671437905451326060e+03
2.620498892366333166e+03
2.820939346428006502e+03
2.915000574984431296e+03
3.566793790990984689e+03
3.428088794030616555e+03
2.884848437951365213e+03
2.588977341725736096e+03
2.081061320993010213e+03
3.919463537358691383e+02
-1.765842346062047682e+03
-5.226214988677947986e+03
-6.304279749849173641e+03
-6.651110709545571808e+03
-6.285256476636679508e+03
-6.125556385222052995e+03
-6.791677931178227482e+03
-6.214412478858453142e+03
-5.353529847217025235e+03
-4.506576086892100648e+03
-3.227878386596427845e+03
-3.270251337659276032e+03
-3.673847849732693703e+03
-3.906878282007731741e+03
-3.223105478500556274e+03
3.877015405896923426e+02
1.830721605711802113e+03
4.043147639336824568e+02
-3.243291028834456483e+03
-4.656391746883367887e+03
-4.840956488861847902e+03
-5.129718855534918475e+03
-5.375323972991490336e+03
-5.475809366022577706e+03
-6.083872176582110114e+03
-6.142763093989246045e+03
-5.958079161745111378e+03
-5.514978296996281642e+03
-4.933292669879301684e+03
-4.545857973252406737e+03
-4.090871685867406995e+03
-9.831292375579110967e+02
1.435688223280172679e+03
1.541838388845679901e+03
1.827404414922122669e+03
1.544606586103861218e+03
1.556557741016357568e+03
1.765037107040263436e+03
1.494681275970511933e+03
1.555921491383614239e+03
1.837860747109801650e+03
1.612954428167448441e+03
1.030711624407918180e+03
3.837164350712694159e+02
2.639061658426332713e+01
-2.569788947886178931e+01
2.914878299241323134e+02
7.633735315494398037e+02
1.556215346775504713e+03
2.626106158993944973e+03
2.516516423345996373e+03
2.413388639991879245e+03
2.746541806066759818e+03
2.353038090926622772e+03
2.496262168153007678e+03
2.872243167775974598e+03
3.081569611961207556e+03
2.884019320039003105e+03
2.149632160340045175e+03
1.463901171693038577e+03
5.980024154876297189e+02
-5.315483695845691159e+01
-2.051007715926485275e+01
-1.471320582402748869e+02
4.227141973858216488e+02
7.261796487854833231e+02
9.334819628886216378e+02
1.063745002729232738e+03
1.022776739456263158e+03
8.644512377198783497e+02
1.315911125850661847e+03
1.427310613741455427e+03
1.750618572025309049e+03
2.133928017991725937e+03
2.293184304436173989e+03
2.281309839516006832e+03
2.383651972778376148e+03
2.418895786230893009e+03
2.449754064543117238e+03
2.349738621475554282e+03
1.837278259098666013e+03
1.312928353743300249e+03
5.913818781855966336e+02
3.086455583666104872e+02
-2.544030853600793876e+02
-4.002726896087629598e+02
-5.989533330530799731e+02
-8.299103583370343813e+02
-5.473399782304488781e+02
6.855640952431857613e+02
1.977477366801590279e+03
2.706266062048679487e+03
2.831025581608570064e+03
2.666930580423271749e+03
2.058815239756489973e+03
1.348409425767254106e+03
1.369047752442870888e+03
1.794813818729767263e+03
2.100576815146510853e+03
2.101254189492851310e+03
1.370004319867593267e+03
4.545225051014692781e+02
-1.381318093586243663e+02
-8.685793709339867519e+01
2.327215050101514748e+02
1.823292418647027944e+02
-4.391366220259142779e+02
-7.526940071949288722e+02
3.225436140425728127e+02
1.412375659638483739e+03
2.222976667352058939e+03
3.021532271173110530e+03
2.689934300964532667e+03
1.747943800406202399e+03
3.543322304808220338e+02
-1.068037499633786410e+03
-8.211299153447270101e+02
-2.785880845688317322e+02
-1.512777770722935031e+02
8.944928966055945239e+02
1.588378607620637467e+03
1.868242031966339709e+03
9.719787858672580114e+02
-7.404900921560706593e+02
-3.625295068443799664e+03
-4.841428853768543377e+03
-4.242975184938791244e+03
-4.281963841216562287e+03
-4.865088230427445524e+03
-5.603142061113413547e+03
-6.066303938627353091e+03
-7.483832055112527087e+03
-8.381732682651012510e+03
-8.336085699351342555e+03
-7.334065260341269095e+03
-1.331192201593130449e+03
3.583478549309795653e+03
5.333754169990978880e+03
5.864646130409771104e+03
5.686316168555610602e+03
3.598718462815067141e+03
-2.022039991134595596e+02
-2.753462658516323700e+03
-4.562197206504931273e+03
-1.983207943455319992e+03
9.604506707839356068e+02
8.233828051555808543e+02
5.652353007050496672e+02
2.478159564843680073e+03
4.433602306024616155e+03
6.364130312413041793e+03
8.213975536233925595e+03
9.486010074131223519e+03
9.554570938369832220e+03
8.508200018933272077e+03
5.930721265747469261e+03
3.608061158029504895e+03
2.691198122038788824e+03
1.963462040552355347e+03
1.079795761225017714e+03
-1.111793377055355450e+03
-6.541670086822132362e+02
3.704673883627459418e+03
4.711581510121279280e+03
2.290536476476324879e+03
-1.172449072772433965e+03
-3.130438160430276639e+03
-1.966430491397286687e+03
1.357003321506028215e+03
4.175047991346958042e+03
5.470601971830424191e+03
6.094475952316336588e+03
4.222689777031643644e+03
2.014349258487769930e+03
1.749394748655958210e+03
-8.271047070772044663e+02
-7.032946300229909866e+03
-1.196097825701689180e+04
-1.381818748495121326e+04
-1.582468542570535828e+04
-1.747334949023489753e+04
-1.816696052114066333e+04
-1.532950182446435429e+04
-9.111057684098679601e+03
-5.601744971441344205e+03
-1.764480037397679325e+03
-1.088116536516704855e+03
-4.664272520605085788e+02
4.129083157216868472e+02
1.811100483874301062e+03
6.849033430655525081e+03
1.089367403256232137e+04
1.323326016359602727e+04
1.181491898937119186e+04
8.530513157828479962e+03
6.840214237252697785e+03
2.593003402003244446e+03
-5.338965505512228447e+03
-8.182563576275685591e+03
-7.228694742376559589e+03
-8.606041153807518640e+03
-1.276751395333016080e+04
-1.496413530140610237e+04
-1.572679315123905144e+04
-1.772726385357920662e+04
-1.923668379911691591e+04
-1.751700557691665745e+04
-1.665933776453375322e+04
-1.096850652762389655e+04
-6.415353339227590368e+03
-2.846982483613796830e+03
-1.179618393126080082e+04
-1.817654993073128935e+04
-1.904091188765272818e+04
-1.508721877338971171e+04
-3.570402307403403029e+03
-2.232334723093908451e+03
-4.979095590579373493e+03
-1.080668211899306516e+04
-8.868831343427273168e+03
-9.515958511138877611e+02
4.143938427723103814e+03
9.924093949718662770e+03
1.724811997889896520e+04
2.960396130661977077e+04
3.462273584128409857e+04
3.058041398316666528e+04
2.390292548262067430e+04
1.732037420764885610e+04
1.725893399396413588e+04
1.932965480002277764e+04
1.561681615490267905e+04
9.990500187336108866e+03
3.354726795075566770e+03
-5.023440707505638784e+03
-9.597950903248736722e+03
-6.066770439294139578e+03
-3.139011416781452226e+03
-9.096108553023194645e+02
-1.753776994626904013e+02
-1.547186461189895681e+03
5.590875636616939119e+03
1.590874959726698944e+04
1.994251009989278828e+04
1.202419141027293335e+04
4.190830203349029944e+03
5.175413021418268727e+03
6.060963325678460023e+03
4.173478582554363129e+03
5.254932600260034633e+03
8.078481325008762724e+03
8.561118839904051129e+03
7.708906275361255211e+03
4.598834593160173426e+03
8.908724095953322831e+03
1.220761042637388709e+04
9.391614405236165112e+03
6.671888712676171053e+03
1.791487174831047696e+03
-5.468878165685603562e+03
-9.008123978462637751e+03
-1.174541143892846776e+04
-1.192958699229247213e+04
-5.865565675417718921e+03
3.632527458603984542e+03
7.383508337405453858e+03
6.709693187465945812e+03
8.013700575042614219e+03
6.716273312904741033e+03
9.187764234044803970e+02
-3.965022333884495310e+03
-7.628144683852896378e+03
-1.046590996717843336e+04
-9.995258205974614611e+03
-7.240057853342825183e+03
-9.270045346831500865e+03
-1.196444910654687192e+04
-1.243770062911394052e+04
-8.574796401403365962e+03
-4.326824240600842131e+03
4.711197691370238317e+03
1.233988951713848473e+04
1.259963689308061839e+04
9.916133780449317783e+03
7.940995663047972812e+03
6.605598387264521989e+03
1.212059119841151869e+03
-3.818210074060909847e+03
-6.491334074239008260e+03
-7.626312016759917242e+03
-9.069412993309770172e+03
-8.285777935229918512e+03
-6.490129400314729537e+03
-9.066592601214151728e+03
-1.858322177810232824e+04
-2.555811370958934640e+04
-1.919643081669757157e+04
-4.735296057326560003e+03
6.530124045445664706e+03
1.408881507210585187e+04
1.514565614047448253e+04
9.487464453267612043e+03
2.593140159599280196e+03
-1.077378637281209649e+03
-3.330001064434748514e+03
-5.990839063750168862e+03
-2.757173645807215053e+03
-5.759800295409556838e+02
-1.379376583706761494e+03
-2.054533140879318580e+03
2.706654339836056351e+03
8.770135378568629676e+03
9.526844209910172140e+03
6.727675128170777498e+03
2.310589157139617782e+03
1.927553741147848314e+03
2.411439712585886809e+03
1.145227820389198996e+03
2.579872356328879505e+03
2.634212173951032582e+03
-9.968299505153178188e+02
-3.227344215798359528e+03
-3.021404422148888443e+03
-1.524078084132423783e+03
-2.657303461133097244e+03
-5.059051356640848098e+03
-4.620323795262506792e+03
-5.373237937750269339e+03
-7.571750442076195213e+03
-7.876041481509870209e+03
-8.613267124153144323e+03
-8.135446271942457315e+03
-5.040497398889654505e+03
-7.753367016376898391e+03
-1.374915331230367337e+04
-1.352991189811583899e+04
-6.749559976949461998e+03
-3.138095249923157553e+03
-2.728622879618470506e+03
-1.856171413529411893e+03
9.432611319981863289e+02
-1.702711240208564334e+02
-2.603811192451071292e+03
1.748668970356246291e+03
5.066160899038419302e+03
7.451652290039770378e+03
6.271177384276469638e+03
2.709674242321143083e+03
1.028087579363259238e+03
1.627428380148373662e+03
5.607640502350187717e+02
-3.805824992821841079e+03
-4.317328827307344000e+03
-3.326672762218787284e+03
-3.016688739712083134e+03
-3.151361390382744503e+03
2.432163660331550261e+02
9.060951274415207308e+02
3.667289127354555148e+03
1.014285979809223500e+04
1.103393859056590918e+04
1.036949072630135015e+04
9.334408234828979403e+03
8.353716982862140867e+03
7.031497138746122801e+03
3.517678109864012185e+03
2.103330782123216068e+03
3.841491527686310747e+03
6.040232283847199142e+03
6.412713331808451585e+03
4.562125990589543107e+03
7.145740626022527522e+02
-2.696929714089415029e+03
-9.854921921488157750e+02
3.388963582147594025e+03
5.906501645505670240e+03
5.122061565663184410e+03
3.166710212559722095e+03
1.052596308100042734e+03
-1.109175172236951994e+03
-5.070387206607524604e+03
-8.129871432350076248e+03
-1.127876661479933864e+04
-1.399792882066929633e+04
-1.329925576249842015e+04
-9.430714122579896866e+03
-6.076190386513025260e+03
-4.000685751112444450e+03
2.800297664125195070e+02
6.001953663058799975e+03
1.105120096288798413e+04
1.038274881625799026e+04
8.965232878589235042e+03
6.144809870426352063e+03
2.946551531837281345e+03
2.373478103997707876e+03
1.784607209004983133e+03
1.243133848660122112e+03
7.063140716161923365e+02
-1.786857706459904421e+03
-8.153257801243374843e+02
1.918595199440059559e+03
2.118416285923245539e+02
-7.972325370182655206e+03
-1.596485015173186730e+04
-1.917589305792196319e+04
-1.399944274003314604e+04
-3.483504134437540415e+03
8.349950150732749535e+03
1.372298633085743677e+04
1.418772105187691159e+04
1.300434854863664259e+04
1.001310237284571303e+04
6.178020659964813603e+03
6.035075384298705103e+03
4.889255511275663594e+03
3.416615790567180284e+03
3.299332694660050947e+03
4.447215968314522797e+03
4.385908158877429742e+03
3.732622610020865977e+03
2.576662341264329370e+03
-4.977837161666989800e+02
-3.768823006529824852e+03
-3.436668225262116721e+03
-1.315576462834625318e+02
2.616450011742042079e+03
1.896449193912447981e+03
9.255207517915641802e+02
1.261868239515700225e+03
3.757330174999806616e+01
-1.484493883595042462e+03
-1.369135160681204525e+03
-1.559260405906842948e+02
5.181347999374085020e+02
-7.431080985780246237e+02
-1.294669174325801123e+03
1.843901318986096101e+02
1.605003164235427221e+03
1.724826388581529272e+03
-4.595503925008779902e+02
-3.475017241589840978e+03
-6.537682109863463666e+03
-8.263398568130196509e+03
-6.885188898690529641e+03
-3.816094666769051400e+03
-2.926211656110412605e+03
-3.310936290990721773e+03
-2.030304500783585581e+03
-6.072138832277615847e+02
-1.627408987717673199e+03
-1.458737958126779404e+03
-2.244334092806681383e+03
-2.911030962833070589e+03
-3.199172672853599579e+03
-4.664167953174847753e+03
-3.607466379868691547e+03
-1.615938527901923862e+03
-8.343496574114466284e+02
3.121287994359583706e+01
6.315733447685466899e+02
2.914814729766029814e+03
4.076840875965548548e+03
2.395384090317083519e+03
1.776440558749721049e+03
1.431487750071528353e+03
-2.629559364379423187e+03
-5.741742587064671170e+03
-4.361037300635291103e+03
-2.058518792568753270e+03
-4.705821955440865167e+02
7.673404886028811234e+02
2.748476395713798865e+03
3.229437372343458264e+03
2.101529549915603639e+03
3.431068083833866240e+03
2.772421764875724875e+03
-5.060625544117227150e+02
-9.783407289052588567e+02
6.063711493251524871e+02
1.001775109778893011e+03
2.072302332683133500e+03
2.894286485940195234e+03
1.427392022123938432e+03
-5.430432544182594938e+02
-1.639883646697209088e+03
-3.464582398662647847e+03
-3.012364421392075656e+03
-1.708804031007212188e+03
-1.014568945908310866e+03
4.456417907600591377e+01
1.742871847617899220e+03
2.949182339073840012e+03
1.451839523332716226e+03
-3.171640399539573991e+02
-3.008674754305056922e+02
1.494801650823334739e+03
1.432008969132808033e+03
3.649160171996500139e+02
-1.829206153424144645e+02
-4.161325310930973274e+02
-3.617729091586667209e+02
-5.267601771915458642e+01
2.335022031039984540e+02
-4.232718314529028589e+02
-1.578738509824913763e+03
-1.035104247229099656e+03
2.104545794297615373e+02
1.832078356403876114e+03
3.228900690874642805e+03
2.591139446397127358e+03
2.013203327141057343e+03
1.495164735616837334e+03
2.156487880335249429e+03
1.730240830735055624e+03
-7.023116692504484035e+02
-1.632910097981798117e+03
-3.990702974473283575e+03
-4.496728754313639001e+03
-4.434137008221191536e+03
-4.245478331450656697e+03
-5.599184091160744174e+03
-1.813933202987388995e+03
-1.029421600705895344e+03
-4.435801800429804643e+03
-3.213832753666904409e+03
-4.177038598648573497e+03
-3.808431330454116505e+03
-3.179974560961813040e+03
-2.327630780273240362e+03
-1.669594195362765959e+03
7.149393904558229451e+02
3.272349953282977367e+03
2.474762158985548467e+03
2.414037130051267013e+03
2.148827796369746466e+03
2.823001223745443440e+03
-1.422937369905546348e+03
4.899611160947885651e+02
-1.584220194746108490e+01
-4.734038280327217763e+03
-3.765641154536792328e+03
4.153428188704006629e+02
-1.344699025130010568e+03
-5.956477453009599685e+02
1.734402648943174427e+03
-2.006626135921335106e+02
-3.263814295422937903e+03
-2.533187469442125348e+03
-1.860831050544243908e+03
-2.393806947308980000e+02
1.182874243836047981e+03
2.295928977748062152e+03
3.551760004673201820e+03
3.467515826523188935e+03
3.928149291556544995e+03
3.794766472918094223e+03
2.406801499067043551e+03
7.037952664547514132e+02
-6.950349599361308037e+02
3.762036807319891523e+02
1.916503504307342382e+03
1.590914774979285994e+03
1.522000299440059507e+03
8.327727347994274396e+02
-8.915471227840835127e+02
-1.324965149819560565e+03
-9.629358227252165534e+02
-4.365485769883640188e+01
5.412332105235655035e+02
1.294014952654695662e+03
2.048875127009380776e+03
1.956772675394464613e+03
2.082752328947316983e+03
2.539989327754508395e+03
2.372252699011828099e+03
1.709618394772821375e+03
1.240390481960793068e+03
1.805201917797935494e+02
-1.462162278801162756e+03
-2.001743497083618649e+03
-1.771097156926309253e+03
-1.013070010240505667e+03
-3.908469844453947530e+02
1.347718339197818295e+03
1.818736453916772462e+03
8.219806408305690866e+02
-4.577072509618062099e+02
-6.662938114367128719e+02
3.861177992206529552e+02
6.009819696708557331e+02
3.786595441691794690e+02
1.430700567349754238e+03
2.512457954397648336e+03
2.409159700567230630e+03
1.614968328063057470e+03
1.101985410598108047e+03
8.838605638142328189e+02
3.986699985828231547e+02
9.242124704039585481e+01
-5.512887331780343629e+02
-1.030371242127673895e+03
8.005004882634743524e+01
9.272407594674509710e+02
6.953848520376434408e+02
-2.316088765465704853e+02
-1.046906005039976435e+03
-1.854391988220998655e+03
-3.422730574597538180e+03
-4.007202644835058436e+03
-2.160932853114992213e+03
1.113251967719038227e+01
7.080268339302457434e+02
9.344708378236574617e+02
4.776551347233315141e+02
4.103471973740824410e+02
2.385130700305720438e+03
4.255338134751692451e+03
4.139089405599454949e+03
3.015418121334714215e+03
2.327295916152776044e+03
1.448771054042346123e+03
1.014061576167372777e+03
2.330571983794756079e+02
-2.425180828091858700e+02
-5.007335385522664524e+02
3.025161070479789487e+02
1.212416404631427213e+03
1.329178558900668122e+03
8.428469166104679289e+02
9.950520989011063193e+02
9.365558105201414492e+02
3.584380628858967839e+02
-4.080292259020316692e+02
-4.137363690203817441e+02
-1.205627289083869300e+03
-1.253655569357339800e+03
-1.755686784057990280e+03
-4.039695481643996573e+03
-3.761639211822344805e+03
-3.404493952186391653e+03
-4.034530322856887324e+03
-4.417016985039009342e+03
-5.656004894924800283e+03
-6.100466742569968119e+03
-7.308669226940930457e+03
-7.048758396774400353e+03
-6.599809680080841645e+03
-5.392431547901401245e+03
-1.909497286468607172e+03
2.402004767022511089e+02
1.472779800415108411e+03
1.780094742845646124e+03
1.746206222982270674e+03
1.877145492805829690e+03
1.732949550187324348e+03
1.896804661092061679e+03
1.984415674858899592e+03
1.784581858339382052e+03
1.636636342823190716e+03
1.449163934743612799e+03
9.793647451879975279e+02
5.729894493916409601e+02
-6.867427890030326409e+01
-6.202332743085586344e+02
-1.150984078567648112e+03
-1.891583942284988780e+03
-1.989704244056620610e+03
-1.517180085956405264e+03
-1.285784224834049837e+03
-7.233010288075008702e+02
-5.969279248669955678e+02
-4.215972122626898226e+02
1.097845946760805731e+02
4.792010316596154667e+02
6.255696445519403142e+02
6.689636860352197800e+02
8.054227490639619873e+02
1.487013156569593093e+03
1.550928437881116452e+03
1.862304907286932803e+03
1.833892646281337875e+03
1.206430832843594771e+03
5.859157311850774477e+02
4.286540278998643885e+02
1.306915093257184708e+02
-6.506403504218444311e+01
-3.494959621315301206e+02
-8.154876007499295838e+02
-5.401013601042521941e+02
-1.984282930770255575e+02
7.066276925212114293e+02
1.227283668188989623e+03
1.214553304839693737e+03
1.358276311084337067e+03
1.284489849724361420e+03
8.202597804783092670e+02
6.167874104055426869e+02
6.460719325603643028e+02
2.882205023865644762e+02
1.915195697724806223e+01
-2.017268296020353091e+01
-1.367750181693169793e+02
-5.826835350687408663e+02
-1.076827965881036789e+03
-8.403231918639150990e+02
-5.862060955007378880e+02
-5.003184709168113500e+02
-8.817240898126854063e+02
-2.334305663897810973e+03
-1.380177953717320065e+02
1.442144913393264233e+03
1.529280718225058536e+03
1.424309711272957429e+03
1.349118492000540527e+03
1.924739331474254868e+03
1.977128389036908402e+03
2.152339876750060284e+03
1.733206653669183424e+03
1.731753305885560849e+03
1.829228298527658126e+03
1.523614416540588991e+03
8.179187998173487131e+02
3.844290349262749373e+01
-4.018303941347390378e+02
-7.862247607266775731e+02
-1.164859661053613763e+03
-1.307741898151917439e+03
-1.186887782375762981e+03
-1.120349021301682797e+03
-8.350201645153098298e+02
-4.974969757623771471e+01
6.043074867210668799e+02
7.802693456672126331e+02
9.423770014946743458e+02
8.814679155162993993e+02
5.773380626982356034e+02
8.750612497717232827e+02
6.204977301029479122e+02
-4.388507028900193951e+00
-3.344119294256577177e+02
-4.884811378533262882e+02
-7.036481236889829916e+02
-1.367821691547176442e+03
-2.685194680781014995e+03
-2.953879606507383869e+03
-2.845817494062597689e+03
-2.679098119970969037e+03
-2.321847346031860070e+03
-2.099046108773139167e+03
-1.355425101444804795e+03
-7.419366469518434997e+02
7.627893179609468177e+01
1.277046485256214737e+03
1.293457257527221600e+03
1.191572521477197370e+03
1.495344106043295142e+03
1.545745148089044505e+03
1.782673613483593044e+03
1.543061340474313056e+03
9.459430951578700615e+02
6.853486210570597450e+02
5.932271070886135931e+02
4.464688814498734359e+02
9.197894407526743521e+01
-5.836300473797835053e+01
-3.125508869968285808e+02
-7.594776227862743099e+02
-4.001600834642288191e+02
-1.826465387405928027e+02
2.219800584562718200e+02
8.878124324495753399e+02
9.079723555088505691e+02
1.318269324840508489e+03
1.223974513552959479e+03
1.368173972625781289e+03
1.469685056343857241e+03
1.461405591282232990e+03
1.453353000225925598e+03
1.121248903527997982e+03
5.879252265477254014e+02
2.359675095793567152e+02
3.318278442493239595e+02
-4.933532058009728303e+02
-1.093666415947663836e+03
-1.504040680735656224e+03
-1.594597514286299656e+03
-1.624282176332191057e+03
-1.584492212402485620e+03
-1.309456976621224612e+03
-1.049698529840207584e+03
-4.551285160656116204e+02
-1.070963444207557842e+02
3.804204730788684969e+02
9.339403568764084866e+02
8.979770422521437467e+02
1.354502550869168545e+03
1.548959741074068461e+03
1.655832186288084131e+03
1.565016670014121246e+03
1.809952202199274552e+03
2.091247289559674300e+03
1.789734641983819756e+03
9.357410247851582881e+02
1.453544733906761621e+02
-1.985737747864001506e+02
-5.581925926193974874e+02
-4.606736121323397128e+02
-3.903557359207930233e+01
6.227218918930462905e+02
1.346547059292893891e+03
1.708577883811755783e+03
2.138772415838425786e+03
2.686140158883740696e+03
2.702795209738826088e+03
2.372834092316987153e+03
2.277265571359169371e+03
2.624876823701927151e+03
2.487589401536036803e+03
2.611512178186320853e+03
2.464638489700811988e+03
2.196005242953385732e+03
1.565732554254659135e+03
7.777390049581705398e+02
-1.540581341401494910e+02
