1.804765119996397516e+03
1.743594867776590263e+03
1.442870880561521744e+03
1.665643684057751216e+03
1.536941733140272845e+03
2.008811444064653642e+03
2.551307101249792140e+03
3.331537352357441250e+03
3.354552571516283024e+03
2.855362884055177346e+03
2.600966383036715342e+03
2.440367938171915284e+03
2.250655689643177539e+03
2.335865193336602260e+03
2.527033269884535002e+03
2.435225706336661005e+03
1.996471108037463864e+03
1.612735851304149946e+03
7.120176414387836985e+02
4.513533798854292627e+02
3.877732413031753822e+02
9.725774446901745307e+01
4.182493572626844980e+01
1.774830586081874912e+02
5.433383046413823649e+02
8.564161542514412986e+02
1.066815845649700805e+03
1.511603594905709542e+03
1.791804361096372986e+03
1.865562854185855940e+03
1.977835091604268200e+03
1.677507021001869134e+03
1.857705744408505552e+03
1.397696297318861298e+03
1.377377310045822242e+03
1.588676010653277444e+03
1.449763896792193918e+03
8.127492574266376550e+02
1.386748462460218434e+02
3.748454608450509795e+01
-2.287606582992141284e+02
-1.726091241772604690e+03
-2.839530160941822032e+03
-4.580039567129728084e+02
-1.294709214042217695e+02
4.030701311160601108e+02
9.854461826848257715e+02
1.408869048588218448e+03
1.272279973680386775e+03
1.163788585018835647e+03
1.343113642814198556e+03
1.237377707455842710e+03
8.585573889509706760e+02
1.040677176573072529e+03
1.139775545230506395e+03
7.688196676790929587e+02
4.828370530668540823e+02
3.318133157026195477e+02
-5.429400203585518625e+01
-5.504857645017073082e+02
-8.186898486134754194e+02
-1.282929814527171175e+03
-1.207238282822056135e+03
-9.526376809519455264e+02
-8.830557229475647318e+02
-6.555054563005076034e+02
-4.260884988007758807e+02
2.922483065431129035e+02
8.725565445594062339e+02
7.368828863184704687e+02
6.252709128557551139e+02
7.486818337248511170e+02
8.270574314448811037e+02
7.363845567072462472e+02
6.636738674095647639e+02
7.579145649696541795e+02
3.671040219456056661e+02
-4.067824104873616307e+02
-1.109741651926370878e+03
-1.454832676555495709e+03
-1.527071834061927802e+03
-1.621509027085185835e+03
-1.915196183625318326e+03
-1.253141379099384494e+03
-6.623088699871244671e+02
-4.367147254138924382e+02
-1.983849238368603665e+02
2.627449434255429424e+02
3.106597273569929030e+02
2.983886908535110365e+02
3.238874535694109795e+02
-3.890286328827438922e+01
6.869134498126981043e+02
1.323184539430089899e+02
-2.006620082839275483e+03
-4.580961991355282407e+03
-6.415778443461020288e+03
-7.150071734746305083e+03
-4.869907549935743191e+03
-1.339331993580755579e+03
-1.234326510122817353e+03
-1.848929566200648424e+03
-2.279220483871818942e+03
-1.536232858984066070e+03
-1.157969596828900421e+03
-6.853920601182192058e+02
-1.156389945809147832e+02
4.262772155919532224e+02
1.993876350871688885e+02
2.268726883286848874e+02
1.132529942165192779e+03
2.040402476603316472e+03
2.333081801858723338e+03
1.974809709732858664e+03
1.642842945537475089e+03
1.512775118156373082e+03
1.665496587107780442e+03
1.415181462819373564e+03
6.228790277434723066e+02
7.554249572645636590e+01
-4.110729778657404268e+02
-8.369096027951154610e+02
-4.358986086671874318e+02
-1.792178182494239991e+02
-1.783473631997598474e+01
7.970602495714143743e+02
1.354418746807537673e+03
1.674204173277747259e+03
1.789708332034411796e+03
1.571763325139879726e+03
1.215948068619043170e+03
9.465616816437697025e+02
9.694388023904325564e+02
7.727084382730354264e+02
3.922701856713775896e+02
6.322378961755529190e+02
1.374557163147733263e+03
1.521437954211608258e+03
1.052570624494024059e+03
5.796925558482683982e+02
2.217422635046651465e+02
4.005721879191233370e+01
3.853703426113249293e+02
2.998100860059429920e+02
4.542839748149449974e+02
7.988737562329197317e+02
1.679382903472503358e+03
2.594908828119108421e+03
2.770467433598241769e+03
2.788934304053754659e+03
2.953446466994122147e+03
2.746875215749621020e+03
2.568212753131666886e+03
2.478457996850535892e+03
2.339647912913437267e+03
2.125929055674434494e+03
1.399286560608855325e+03
1.381617379520626173e+03
1.013932933398867931e+03
5.802027946174016506e+02
1.973460591251906919e+02
1.023817467326096562e+02
1.392243492626629404e+02
3.878372616512244804e+02
7.583317614441306205e+02
1.121734827027813026e+03
1.609076678584048523e+03
1.935522329439455234e+03
1.760011959025209990e+03
5.543806993265830130e+01
-2.767143528550322571e+03
-4.599655946903041695e+03
-4.280083332194041759e+03
-4.318413696212306604e+03
-4.121753432918119870e+03
-4.698105942100487482e+03
-4.811361117028230183e+03
-4.644500649442405120e+03
-4.923478083565411907e+03
-5.259271336096328014e+03
-5.535889983005186878e+03
-5.691291754530841899e+03
-5.435527657625500979e+03
-5.176578680858841835e+03
-2.081416347675081852e+03
9.629202131241565894e+02
1.890534321686472367e+03
9.525718879830860715e+02
-2.204924767961591897e+03
-3.354921497067327891e+03
-3.373500458081968645e+03
-3.476697782862163876e+03
-3.221389323242103274e+03
-2.972542331058299624e+03
-3.071042459300430437e+03
-3.181920795440837082e+03
-3.190186549014499633e+03
-3.515704561812124211e+03
-3.999433396430913490e+03
-3.321449790602598569e+03
-3.078673390649690305e+02
6.783000104634152194e+02
1.327136390813584740e+03
1.529639739091988986e+03
1.597792347423745696e+03
1.867718611002160515e+03
2.724550643514498461e+03
3.373354240085309812e+03
3.345181737229690498e+03
3.037027533601054984e+03
2.720012269586185994e+03
2.627234620621572503e+03
2.358602587451560339e+03
2.527974239906765888e+03
2.445423403209703338e+03
2.302032967563269267e+03
2.090854408081878773e+03
1.468775632803055714e+03
1.467801103309961718e+03
1.144979237034943253e+03
7.158537766214876683e+02
5.572378027497002222e+02
4.368687372142070444e+02
5.077864774886372743e+02
9.793824510875683700e+02
1.583676887593396486e+03
2.021610754394541800e+03
2.140313672929784389e+03
2.133789122433406192e+03
2.068067003626274072e+03
1.745160476322905879e+03
1.852841173887248033e+03
2.133129456408260467e+03
1.761142473828957691e+03
-7.870916588301063257e+02
-3.203833962376667159e+02
1.311786238306250425e+03
1.589195548612517996e+03
1.249294067928335835e+03
7.542699109058142994e+02
5.671402275518585157e+02
4.728146216692792905e+02
3.935098219275211591e+02
4.061493067177772218e+02
5.061652776326236562e+02
8.576951846420786296e+02
1.295986370426420081e+03
1.295123353422442733e+03
1.404099311305478750e+03
1.520871086065739064e+03
1.805518539510367646e+03
1.715972281684536483e+03
1.209067018269249502e+03
1.469516115163498853e+03
1.473480195008218971e+03
1.468941128116135587e+03
1.145947528762635102e+03
1.038509358947337205e+03
3.595083557597418462e+02
-1.920139875128441531e+02
-7.880779442062347471e+02
-1.091595669360856164e+03
-1.226699136277684829e+03
-7.224766701442396197e+02
-1.449869784432374615e+02
1.497072957232911961e+02
6.846121713047825779e+02
7.238289275483768961e+02
1.213410801112175932e+03
1.471389771594856029e+03
1.179759784798854071e+03
1.205414150709101477e+03
1.329290057681238068e+03
1.092426406627405186e+03
9.547134862426989912e+02
1.048189260270714612e+03
1.070900986655408360e+03
7.739183455172830008e+02
5.291922196414968766e+02
9.614734563444660154e+00
-2.549182731628603733e+02
-5.524632466740947621e+02
-2.760200460706311105e+02
-1.376076454111603198e+02
-1.662506390958546660e+02
5.170065746500481509e+02
2.881955294980645021e+02
2.173875068829223949e+02
1.270593656718715238e+03
1.018840474664666090e+03
-2.464828620379445056e+03
-5.253636087966086052e+03
-5.426730898520022492e+03
-4.993935860655016768e+03
-4.793007593747292049e+03
-4.480978150565358192e+03
-4.505100245404200905e+03
-4.948436613973248313e+03
-5.644825842672400540e+03
-5.852407016595162531e+03
-6.102583840504984437e+03
-5.926167671295456785e+03
-4.596238397005058687e+03
-2.072905779992988300e+03
-8.921521200633578701e+02
1.941189049747339936e+02
8.348309640349480105e+02
1.517159549779677263e+03
1.952240326679801683e+03
2.099930546524601596e+03
2.086150277487986841e+03
1.949983943899062069e+03
1.964501420094999730e+03
1.993553581142241683e+03
1.826039326145564246e+03
1.563840542930703805e+03
1.537012387283341241e+03
1.409663163976784745e+03
1.089856624138267080e+03
4.764179384309392162e+02
3.783821366626397094e+02
2.727595902503278467e+02
-4.545033536349767189e+01
-2.607468716184002133e+01
-1.852071893054922214e+02
2.413348433253596426e+01
5.820643034080376310e+02
1.538516135892340571e+03
2.103398401252774875e+03
2.230944236422609265e+03
1.834328928697188985e+03
1.631364226977768112e+03
1.749971585346208713e+03
1.483098732756599475e+03
1.646617702710905405e+03
1.607575419652839855e+03
1.079055031311779658e+03
3.901401369452008225e+02
4.585948024324560635e+01
-2.046662074992480029e+02
-4.546555397756315529e+02
-9.241086484135793171e+02
-1.749844557733601278e+03
-2.018034817302224383e+03
-1.575728320732832799e+03
-7.534553722801260847e+02
2.310542386228267162e+02
8.006590262982329023e+02
7.521164436566931499e+02
6.653548337809490931e+02
1.144596514037037423e+03
1.191174031648743266e+03
6.990065518315121835e+02
3.980504702173382157e+02
2.103004384266498619e+02
-2.166357331387132774e+02
-4.336231710378806952e+02
-4.774108871331184218e+02
-6.298707673508304197e+02
-7.402049454054692887e+02
-4.936884485737206774e+02
-5.432733627469664270e+02
-1.293787468004379434e+03
-1.427147285755758276e+03
-1.618468221527183914e+03
-1.997640149649473642e+03
-1.937649288059568789e+03
-1.622470951110680517e+03
-1.876176523700709595e+03
-1.052757439234435878e+03
-3.969789063530246267e+02
-8.057619890322749825e+02
-9.500665722896548004e+02
-8.539122623671573820e+02
-2.028282832371780387e+03
-3.193170136578964957e+03
-3.015655523238227033e+03
-2.013736513085292017e+03
-1.586293943848252866e+03
-4.294560433040161911e+02
7.687210820600770376e+02
-3.742917174772737443e+00
-5.485868497992193227e+01
8.134664267945616984e+02
1.625453499490037984e+03
2.413165828172483089e+03
1.835509735889885405e+03
1.039622507127559629e+03
-8.432119160166588756e+01
-5.574864882152974133e+02
-8.182787924759099951e+01
8.555744714456355950e+02
1.131592498092813912e+03
1.331291883601987138e+03
1.310601534655614159e+03
4.844874613197037547e+02
1.731666722950688211e+02
9.078120445257613937e+02
1.547543942425249270e+03
1.460202411688733946e+03
1.449918974221031249e+03
7.807808181849607081e+02
-7.513083099045624067e+02
-1.997670790217852982e+03
-1.721544174692179695e+03
-7.036887418373967193e+02
8.880619050318678092e+02
6.034111014595461029e+02
4.335717521304263578e+00
-1.029034505600381181e+03
-1.461559343338356257e+03
-1.242142378050596960e+02
1.262881153195035722e+03
1.450764983549962835e+03
1.613365042996411603e+03
2.433619048742220912e+03
2.223606671189209010e+03
2.204412246486253935e+03
1.591876639047256049e+03
6.138155556578047936e+02
5.818166815859185448e+01
-9.237936203395130406e+02
-1.739958372324459560e+03
-4.684770764564075876e+02
6.265838060739233697e+02
4.583879917884182760e+02
3.051844488121799941e+02
1.076843760760136320e+03
1.750382859964838872e+03
2.597702182951363739e+03
2.295540705488614094e+03
1.347913504159863123e+03
8.338780821819420908e+02
5.424997440466986518e+02
6.675163742439908674e+02
9.670631314896864978e+02
7.179621196835502133e+02
7.662157175692423152e+02
6.420200606925152442e+02
4.741722269970293837e+02
6.078286358088136012e+02
-8.432046197663813700e+02
-1.899124680269219652e+03
-1.131026256405852564e+03
8.260836667134448419e+00
8.837943304758725844e+02
8.785805737421745789e+02
8.740799035120399196e+01
1.823332328703858707e+02
8.541607531152681076e+01
1.142496807838096174e+03
1.130652585940996460e+03
9.926760011946295208e+02
2.457841762346258747e+03
3.932885539557031279e+03
4.622815294656425976e+03
3.723382414645217978e+03
2.504422418340708191e+03
1.991965591174760675e+03
1.329252622826633797e+03
-8.179317244828260414e+01
-1.213581769142920621e+03
-1.550908338376914344e+03
-1.535667722628631736e+03
-1.405671667913589317e+03
-1.222119206966081720e+03
-8.427316061175972095e+01
2.378854542036148814e+03
3.971194903123860968e+03
3.903765238762986883e+03
3.588658295097701739e+03
3.459063116375633854e+03
3.512798420938045638e+03
2.251851354887058278e+03
-7.764218252012369703e+01
-2.080978511237721705e+03
1.968590478493267938e+03
2.922129141700013861e+03
-2.390259688914519302e+03
-7.089573210669030232e+03
-6.899800028406971251e+03
-6.581974568469389851e+03
-7.006073024878816796e+03
-6.019250561167135857e+03
-5.025638107235572534e+03
-3.688163607993360529e+03
-1.659801677948039696e+03
-2.157518285098158685e+03
-3.052281110555845771e+03
-3.243980831141429007e+03
-3.337765045598256165e+03
-5.360841746582041196e+02
4.278051661056399269e+01
-2.736561492816184909e+03
-2.527065032324289859e+03
-2.518677648402845989e+03
-3.798328199592869169e+03
-4.607006007424049130e+03
-1.271726512638025724e+03
2.171434173972967073e+03
-1.875431043060292041e+03
-5.140366664568448869e+03
-5.294474859562572419e+03
-4.696726868170608213e+03
-4.132067775111337141e+03
-3.729428218644863136e+03
-2.190823971780037937e+03
-1.010332926889968576e+03
8.131245286753717210e+02
9.997237916319807027e+02
1.300421318510030233e+03
9.762067757839819251e+02
1.099055329366578235e+03
1.969968874361524058e+03
1.416886761887049261e+03
1.168898584090650957e+03
1.336090677599842820e+03
2.677514216679129277e+03
3.446107608607318525e+03
3.617917040516939778e+03
3.694913307028479721e+03
2.365029912392128608e+03
2.892866102728217470e+02
-5.102828214549793984e+02
-4.765536060109650407e+02
2.065717281041528963e+02
1.575228272430059405e+03
2.225341778875336331e+03
2.122855832409158666e+03
2.382819365998450849e+03
1.339367243445842860e+03
5.552618588424958546e+01
-5.077727164547071226e+01
1.335474487323894891e+03
2.429166380146572919e+03
2.817310702541468800e+03
2.360112720411667397e+03
1.613633948237983532e+03
1.021872237929978610e+03
2.598008409750772216e+02
-4.075834636081393683e+02
-1.704237316903969713e+03
-2.814163083102532710e+03
-2.844370453118206569e+03
-2.936985180124185717e+03
-1.842947977379999202e+03
-2.588304065423670863e+02
-7.523792535808389630e+02
-3.011452317076049439e+03
-3.447057742048791624e+03
-8.262443585440819334e+02
2.168654288324113168e+03
3.187849486275361869e+03
3.663466407267006161e+03
5.314439197516562672e+03
5.790878246928607950e+03
4.989696187630907843e+03
5.102729580950903255e+03
4.731126060752568264e+03
3.127054839496761815e+03
1.519434834984988811e+03
4.742053111379944994e+02
-1.821772742810258251e+03
-1.693578999506906257e+03
3.367649108149342965e+02
6.534065757219094621e+02
6.654266772195004478e+02
2.036842627938947999e+03
4.434645379575705192e+03
5.512802149653458400e+03
5.670474145727972427e+03
3.920717160116822015e+03
2.318540580827589565e+03
2.081853691442543095e+03
2.468563532235536059e+03
1.021690780784436470e+03
-3.669876408781617982e+01
-1.399596558617524352e+03
-2.957953027483279129e+03
-2.378717457936227675e+03
-2.341939899510953182e+03
-2.587566154108470982e+03
-2.005655294404170718e+03
-2.366227328519431467e+03
-4.008299162226857788e+03
-2.839878939914866351e+03
9.591159216731175547e+02
3.007801729876829540e+03
4.604167133295155509e+03
5.198165344355548768e+03
3.338834825243843170e+03
1.325128972155990596e+03
1.907608565199478790e+01
-3.792618279266482659e+02
-7.238896718170716440e+02
1.151704243944051598e+02
-1.093085933168256133e+03
-2.806722646639342202e+03
-2.927754644058027225e+03
-5.834136623644019892e+03
-1.031385460530359342e+04
-9.961956797587628898e+03
-5.934493592968394296e+03
-3.083511791850455666e+03
-3.796014753757416656e+03
-4.823961073855354698e+03
-4.681347527610074394e+03
-2.162153338000643544e+03
-1.626353904609787833e+03
-1.703926545620868865e+03
-1.305879028372669154e+03
-3.188231683493900618e+03
-1.643986189675510104e+03
3.548332520426183692e+02
3.622146532143477998e+03
4.633005683787517228e+03
2.972401785334111992e+03
9.452700284749303137e+02
7.496099536404394712e+02
1.652482101061207686e+03
9.048449025679169608e+02
3.627117360070581640e+02
-2.438790070168849127e+02
1.139644970840804206e+02
-5.748368267754590306e+02
-2.260224245344948031e+03
-2.138278137307703219e+03
-1.279041204894105249e+03
2.175654206117604019e+02
1.844540589436397568e+03
3.380887542280720936e+03
4.393720247082041169e+03
4.276040239168840344e+03
3.769668726042732487e+03
4.511460015337591358e+03
4.244491776635147289e+03
2.716658323091863622e+03
6.789165800601738283e+02
-1.536635003035625459e+03
-3.458056936846056942e+03
-3.153385909663003986e+03
-2.304681195915297849e+03
-3.290031713260460037e+03
-3.082342213721684402e+03
-4.955686854156734853e+02
4.842766123516973380e+02
1.934220637946191800e+03
2.138238617445911586e+03
1.015243924241722198e+03
1.072290974710517958e+03
-6.336081284469701131e+02
-4.300433296118180806e+03
-6.203163332122319844e+03
-6.300838571612048327e+03
-4.688617283794154901e+03
-4.461541410932708459e+03
-2.789566447994551709e+03
8.863107216048566670e+02
4.509128226314966014e+03
5.258963548229825392e+03
3.040838212351435232e+03
3.019603087895688532e+03
5.325192400541955067e+03
4.175520529605547381e+03
1.948728234482947073e+03
9.898958764213625727e+02
1.938083519246303240e+03
3.529206167170587833e+03
3.799099044449973462e+03
4.110757894471866166e+03
4.300231756201602366e+03
3.327502874136534047e+03
3.217554601049420398e+03
4.452487625239062254e+03
4.181268467629319275e+03
1.466945053501023040e+03
-2.268436782364694864e+03
-3.271814494849117636e+03
-2.017170111638875824e+03
-2.321578715579811615e+03
-3.533302518043566124e+03
-3.006391287539544010e+03
-4.187513873119434038e+02
-6.383807709398752195e+02
9.564257136703736251e+01
2.199336078575543524e+03
1.102738931528140483e+03
5.949674759830481889e+02
2.470834338290416383e+02
1.614097471203277564e+03
2.849703554778156445e+02
4.687062788752872393e+02
-1.634681445704689850e+03
-3.919183519678849734e+03
-3.472799200774079054e+03
-4.955539963513003386e+03
-4.035516194978026761e+03
-1.466687738285602336e+03
3.060881395623196681e+02
-1.581701748462992327e+02
6.241203515761966969e+01
-1.511283839866098788e+03
-1.333243245381687530e+03
-2.619375018176339381e+03
-3.084633869464076270e+03
-1.880055983024006082e+03
-2.110594069214956562e+03
-1.148276325250723858e+03
-2.512036101460526424e+03
3.801193699891044844e+02
3.330569723034764138e+02
6.028281972533116004e+02
-8.435790187532319351e+02
-1.415116737689203092e+03
-2.969771899662966462e+03
-1.123541202434721072e+03
2.105974470945748465e+02
-3.796259796903591905e+03
-5.292134045547733876e+03
-4.447100959680852611e+03
-1.781379518115272163e+02
2.158817607873777888e+03
1.349698987443692204e+03
4.123776260206207098e+02
-1.253307752865086059e+03
-3.065286659826495452e+03
-3.223420875166789301e+03
-5.726854582712016963e+02
4.329386079069056450e+02
1.762463075416069614e+03
5.255995079799591622e+03
6.402694019992009089e+03
4.100604887860385134e+03
2.142235489431260248e+03
1.636643998665341087e+03
1.306278454307944457e+03
1.528260154194762663e+03
2.109298028306257038e+03
3.782470822587331440e+03
3.868835138361423105e+03
1.974274093728209664e+03
6.297534938194321512e+02
-6.687628938843525930e+02
-2.081393276073237757e+03
-2.873046001793200958e+03
-1.938560536388670243e+03
-3.597910647212319418e+03
-5.081662767056591292e+02
2.592448596568146968e+03
2.600087436374602021e+03
2.075193692741555878e+03
1.488562863515969639e+03
1.494886618825727737e+03
1.923133398827566907e+03
2.317225249461625026e+03
1.680987733384700050e+03
2.293425060306260548e+03
2.509119041685923094e+03
1.577070938497997531e+03
9.250954465137235729e+02
3.420865483428019047e+02
6.260087218405327576e+02
6.648738986757402927e+02
-3.424476247665778033e+02
-1.058948725240356453e+03
-1.636564210156513468e+02
1.003686697344181198e+03
1.910827106936756536e+03
2.502770897947915728e+03
2.664433524554378437e+03
1.926782987965603070e+03
1.265893662316301288e+03
1.382766392756662754e+03
1.801322445825834620e+03
1.363448270187825983e+03
1.323130201301675925e+03
1.339337906474008832e+03
3.181057173457336376e+02
-1.242432385566758967e+03
-2.727229772149752080e+03
-3.675366187366395479e+03
-3.260871658399111766e+03
-1.269845194824916234e+03
-8.063822771198537112e+02
-1.108417355857314533e+03
-1.043875729070328362e+03
1.991649809802887034e+02
1.872837650262376201e+03
2.834207689854933051e+03
3.896210866327998701e+03
2.776697162556275543e+03
1.076663460085975430e+03
1.056158046167740395e+03
1.703221190849010554e+03
1.983873319302120535e+03
2.206102521061310654e+03
1.944914986813555743e+03
1.659337528319216290e+03
1.756433819400615675e+03
3.362103841702453906e+02
-3.679409059431048263e+03
-7.059488532511521043e+03
-6.993125491581566166e+03
-7.936298642758195456e+03
-7.678905933003138671e+03
-5.333789500418890384e+03
-2.664049217439564472e+03
-4.679881085448120757e+03
-4.359348464742587566e+03
-2.809370779611601847e+03
-2.679887454901188448e+03
-1.687019023866243288e+03
-1.588653061248018957e+03
-4.319696954993866711e+03
-5.539245358525842676e+03
-3.388201800832933714e+03
-1.314127976778518985e+02
1.940054116427060080e+03
2.537151018007289167e+03
1.607051373741822772e+03
3.862285628204603682e+01
-2.272836633501418930e+02
8.849788364829254306e+01
3.109573983793611092e+02
3.096850702249162168e+01
-9.305363696175344330e+02
-3.247639901437086962e+01
1.474183318829700056e+03
3.183689095229439317e+03
4.100060670409911836e+03
3.598246313685760470e+03
2.787240405566406480e+03
2.057208818639929177e+03
1.558173276647032935e+03
1.451156271303920903e+03
1.613149559832221712e+03
1.298011550614568250e+03
1.344766416678478663e+03
8.545242995898505569e+02
3.342508728569716823e+02
-6.026202605695773151e+00
-8.911315058540591281e+02
-1.322267201678478841e+03
-9.016957078916352657e+02
-4.693381864252887112e+02
-3.051553124005786799e+02
-3.902258026124650314e+01
6.028919471685126297e+01
3.688386395041367791e+02
1.027664254375669543e+03
1.450719396156633820e+03
1.940078978690424719e+03
2.573652048908854340e+03
2.436608273175253544e+03
1.744015683593633867e+03
9.817670224937706962e+02
7.581168906425010618e+02
6.942467377347999218e+02
5.958562920388352495e+02
3.376007560264226868e+02
-1.905573823855930300e+02
-7.993918667019439681e+02
-1.508787525161690610e+03
-1.309619318384747658e+03
-9.940481175828622327e+02
-8.160114179415469380e+02
-4.683887160907837597e+02
-1.171512385504956626e+02
1.018924430914685786e+02
3.385485738390344750e+02
-2.060736480911736805e+02
-1.232205766989344511e+02
4.510373702919677896e+01
-7.292507864766155024e+01
-3.512840049966152378e+02
-5.501101271133039745e+02
-6.454765901581772596e+02
-4.782567723916087630e+02
2.225472356702375691e+02
2.179239269544484898e+02
-3.791459154056606167e+02
-7.065954652467790993e+02
-7.703076040136762686e+02
-1.232393103990013060e+03
-1.639895769940541868e+03
-1.752882954188962913e+03
-1.365397952438401262e+03
-5.764397067081821433e+02
3.680162097200899325e+02
6.000752245590120992e+02
1.277914243929662632e+02
4.640549745787923825e+02
6.589423600143119302e+02
9.135715112768205017e+02
7.229976963417475417e+02
5.062433306721424628e+02
1.083319469576144911e+03
1.362070956714112981e+03
8.274057141466164467e+02
1.914717888691262431e+02
-2.618197288278449832e+02
-1.523688677888469101e+03
-2.086009792015823678e+03
-1.919908937008017574e+03
-2.073298981526022999e+03
-1.888111444049873398e+03
-1.332405558114791120e+03
-3.870222725399545993e+02
2.562790458156518412e+02
1.076392828497874007e+03
1.231179831724337191e+03
1.063505454592477008e+03
8.914116855961270858e+02
9.197159404983473223e+02
7.862005750555316581e+02
5.567660871730653298e+02
6.136215422465587608e+02
2.189440332325418694e+02
-9.340757121977037514e+01
-6.026366772023238809e+02
-1.054547203780231257e+03
-8.690319208242564173e+02
-4.041834990055896242e+02
-5.021633210749012051e+02
-8.120893840453363737e+02
-7.398952875630295694e+02
-1.009576626602532656e+03
-1.560108545948795609e+03
-1.588416304582602379e+03
-1.208589137373175163e+03
-1.008761625540221985e+03
-8.038117707550512705e+02
-5.045254768588879983e+02
1.089196276512603845e+03
2.745069602648175078e+03
3.760753383840929473e+03
3.733656376078174162e+03
3.164786232883162938e+03
2.525022251674837207e+03
1.706079534854752410e+03
6.470632240483485020e+02
-3.822263616440699820e+02
-7.439007268834936895e+02
-7.765421388536501581e+02
-8.855092091197914215e+02
-6.366913138254536761e+02
-8.013061596771494806e+02
-5.409299432936808216e+02
2.192651414938797245e+02
6.833718452674351056e+02
1.574572992946153590e+03
2.323408215387992641e+03
1.539242590695541139e+03
1.417653470746488892e+03
1.309620789407162647e+03
1.484070227742081670e+03
1.890301241428567209e+03
1.354078548980585765e+03
8.334698642620606961e+02
5.713333058383855132e+02
-1.823541250555212230e+02
-8.445032158925886279e+02
-1.291193085172332303e+03
-8.814427256741685142e+02
-5.003922309194825857e+02
-3.449312595190756383e+02
-1.314466434557346872e+02
1.298417720352126935e+03
2.337437576181542681e+03
2.470981247463750151e+03
2.085740394735686095e+03
2.128060613473341164e+03
2.109475647251611917e+03
2.291206020658260513e+03
2.122575296610634268e+03
1.454353711502800707e+03
1.257311033510799689e+03
2.067106058826590470e+03
2.234804012362765206e+03
1.841641062712530811e+03
9.956539659126506194e+02
5.108808516085197766e+02
1.913658383840908073e+02
-2.579844822791229149e+02
-4.744239527929706242e+02
-4.388743125119322599e+02
-5.553795719944613438e+02
-1.621350714059175289e+02
7.200230767160362575e+02
1.870395971467584332e+03
1.425026391147241611e+03
-4.081558305411722358e+02
-1.803189449334542587e+03
-2.945102467998063275e+03
-2.993917958764759987e+03
-3.037763452798801609e+03
-3.056485533015992132e+03
-3.218973558253196643e+03
-3.161266142795260293e+03
-3.480259800193539832e+03
-5.178905053821615184e+03
-5.653191013983612720e+03
-5.199227761618760269e+03
-5.524797832392203418e+03
-5.470305706350955006e+03
-5.131821856791033497e+03
-2.275113368835145138e+03
1.562937009887448994e+03
1.924362709595593515e+03
3.821576389413806396e+02
-2.429674361775638772e+03
-3.406102991624091828e+03
-3.371031346083030257e+03
-3.352499677945696476e+03
-3.424503334119140163e+03
-3.074003716769693710e+03
-3.115934038915010660e+03
-3.420243081353716207e+03
-3.544964303230722635e+03
-3.894023906244365662e+03
-4.121291405529354961e+03
-3.508808829664456880e+03
-3.666968141607122789e+02
3.050486452650877141e+02
6.794468030916656289e+02
5.345202643727263876e+02
1.018328095052680055e+03
1.291030148916959888e+03
2.024691347099080758e+03
2.422285687685078756e+03
2.981789481210529175e+03
3.304308164860873603e+03
2.856880558179419040e+03
2.828519668498189731e+03
3.080344601168197187e+03
2.844439603052686834e+03
2.519787505444325689e+03
2.629431495180378079e+03
2.293276460198607310e+03
1.660212921816244034e+03
1.385385008787174456e+03
1.437883337769731270e+03
8.786947548149302065e+02
5.697348289798782162e+02
5.769582195151180031e+02
8.564295442086195180e+02
9.871413792736756250e+02
1.214319251958949735e+03
1.689055265597968173e+03
1.964290848801089624e+03
2.151974255292462658e+03
2.238110674828069023e+03
2.082685112878187283e+03
2.210832450456676725e+03
2.340745433411663726e+03
2.503373257875173294e+03
2.706871804223666913e+03
1.980534549342550463e+03
1.143414012716833895e+03
1.353266509534842726e+03
9.071952173094623504e+02
1.992285404302728296e+02
-5.246431767409557096e+02
-5.397626650814263485e+02
-2.580830016863808396e+02
-4.366575256570604893e+02
-2.653710222420193645e+02
-2.590984115191849924e+02
2.582022408068082768e+02
6.466555817667658630e+02
5.591970615053096481e+02
1.129871696621517913e+03
2.280539356997826417e+03
2.150024943076299678e+03
1.380386926862256814e+03
8.626735353772611461e+02
5.581662701650152485e+02
3.308066654887737172e+02
7.173895642711180471e+02
5.998031921760473324e+02
1.690320723498416839e+02
1.601101439305488441e+02
1.280762581346411366e+02
-5.151903371158369964e+02
-4.018298799518008764e+02
-5.549332022042148083e+02
-4.753918950813669539e+02
3.790346930231384448e+01
6.419895846323458954e+02
1.577909233335099088e+03
2.184609445600770869e+03
1.967097798647823993e+03
1.687324965139716596e+03
9.303145457500736484e+02
9.899975929170459494e+02
1.333385569972429494e+03
9.044749859833201526e+02
9.272507688751485375e+02
8.967332560042060550e+02
5.129065877145424110e+02
-2.203366999216938495e+02
-8.630207499426284130e+02
-1.001142658245599478e+03
-1.135782443131962054e+03
-1.532954406286502490e+03
-1.480674843484198846e+03
-1.616961558987784883e+03
-1.029861041427842565e+03
-4.604223300847596647e+02
9.733236943388052964e+01
5.355135273154517108e+02
8.201326594615243266e+02
1.053159664691924945e+03
8.945292464501292216e+02
9.952354611316560522e+02
7.421971276603252363e+02
-6.545870523841371096e+02
-3.136120957909321078e+03
-5.541403500913436801e+03
-5.863441689742346171e+03
-5.776327542843006995e+03
-6.819097355672904087e+03
-7.299768091124731654e+03
-7.170372882027584637e+03
-7.276946778165490286e+03
-6.632528772075542292e+03
-3.343188389100946551e+03
-6.588633638516548672e+02
6.205026183392596977e+02
1.510862355665074801e+03
1.849137808979483680e+03
1.874366878717220970e+03
2.051535779890799404e+03
2.140627762765260286e+03
2.137560026714495507e+03
1.597237340353483660e+03
1.573678477655679671e+03
1.176955070475008597e+03
7.970457742029703923e+02
4.328994126260551525e+02
2.445181760770667836e+02
3.186770558981625712e+01
-3.270771884548653361e+02
-4.743609648150418252e+02
-5.960658202641250227e+02
-4.342727208199567599e+02
-2.892271961195814356e+01
2.970940738973453676e+02
7.266813756346590480e+02
1.285840708239384412e+03
1.707539496351129628e+03
1.771827037181331434e+03
1.793708081941294950e+03
1.933115262646402925e+03
1.657082972862886436e+03
1.467612029476576708e+03
1.283663842141329269e+03
1.084249473369999123e+03
1.498478265831113276e+03
1.212333363142309281e+03
1.072742737906422235e+03
3.686861828418739719e+02
-8.682652706329920989e+01
-4.528460089297666400e+02
-2.654544594910447586e+02
-1.866376593170184037e+02
-1.283563568805961381e+02
4.124587378607384949e+02
6.888369330356545106e+02
5.687943362997693839e+02
5.762962622057597173e+02
4.083963028277044032e+02
8.701066720930050451e+02
6.824056252884581681e+02
7.833325889226524623e+02
1.184891765089476621e+03
1.062076020413816650e+03
9.998953201670083217e+02
8.063009422855503772e+02
6.553308089107587193e+02
1.330741621205192473e+02
-5.164966974018697101e+02
-8.794358618170346062e+02
-7.666995385234467904e+02
-6.832003042401357789e+02
-7.699997005331943001e+02
-8.550944918427290986e+02
-4.473901085635554296e+02
2.971183066317919383e+02
9.164024147460826271e+02
3.163644700683392443e+02
-2.502005359517964280e+03
-1.408685369479545898e+03
-7.724755657630460064e+02
5.576846446776871744e+02
1.316792629509058315e+03
1.380833632014078830e+03
6.786500819986223121e+01
-9.171360492960518513e+02
8.078548117643199475e+02
