4.338352504527175370e+03
4.212023116684283195e+03
4.033458058298846481e+03
3.358573641572589167e+03
3.229687921387430833e+03
2.444446269737234161e+03
1.057761041662039815e+03
6.012636548766905662e+02
2.290745532290485187e+02
5.397967839764714881e+02
1.158422436444146342e+03
1.503513720384383760e+03
1.237281823040557356e+03
9.336413361333372904e+02
7.715779088819780327e+02
7.723536194278831317e+02
8.340259411003180503e+02
1.507676462503200810e+03
1.459277605133065435e+03
1.598930163202998529e+03
2.625462809700994967e+03
2.875543930274379818e+03
2.472162645081398296e+03
2.064064475038671844e+03
1.793445846278886393e+03
2.402588090244984414e+03
2.841435352816539762e+03
2.010469674736440993e+03
9.399120385102376076e+02
7.822638651235185989e+02
5.522748549547011407e+02
4.082689849808094209e+02
5.546640533788747689e+02
7.205183432351922193e+02
9.749626963790644822e+02
1.155970027006811506e+03
1.225468688049655384e+03
1.248754753790779432e+03
1.681004537658785694e+03
2.091060531604243806e+03
2.317726009387047270e+03
2.240854060740433852e+03
1.861740494591081870e+03
1.353888466636424937e+03
1.882779129659324440e+02
-6.774749073859352393e+02
-1.051323168822691969e+03
-1.372050679033028246e+03
-2.158787198005223672e+03
-2.439710790965719298e+03
-2.645721824684717831e+03
-2.564747176436256268e+03
-2.586783151033167997e+03
-2.835734255009281696e+03
-3.584361044392550411e+03
-4.574797482282087003e+03
-6.172702128912881562e+03
-6.536836057248588077e+03
-6.272970958184699157e+03
-5.324021969988974888e+03
-3.829798846037366275e+03
-2.050163957305114309e+03
1.157608863595774210e+03
1.187141500077170349e+03
-4.936806186040267903e+02
-1.214750839741803475e+03
-1.619855343185216725e+03
-2.146198157157770765e+03
-2.653664018502588988e+03
-2.581373811080123232e+03
-1.976773788905592255e+03
-1.644229151307482198e+03
-8.145880717086137111e+02
-1.066070494919055278e+02
-4.947100238214345325e+01
8.468728474361056442e+02
2.010551275910858749e+03
2.696604088791972572e+03
2.873807313397467624e+03
2.087013470393561420e+03
1.481355553760932253e+03
8.327433736816675491e+02
2.750479091473863491e+02
3.480223118137511165e+02
4.125182695562373851e+02
-4.409563282361691705e+00
-5.827020427769047046e+02
-1.012518197825737843e+03
-6.680363888110524613e+02
-1.952719439246682498e+02
4.774365180624533167e+01
-5.201526537666886725e+02
-5.649527527857461564e+02
-1.146369769225583610e+02
1.887101541730628469e+02
6.320651941041048758e+02
1.022407929791184642e+03
1.670022536123545024e+03
1.803801966950967426e+03
1.149133524160509978e+03
3.958012902707763487e+02
4.908573068113847171e+02
1.023380840455381644e+03
8.521145207362150131e+02
-9.804565660835316976e+01
-6.090880367457918965e+02
-9.920434812969684799e+02
-1.342724281517234658e+03
-9.825262842292595451e+02
-2.651203846505021602e+02
-4.722573731699697408e-01
-9.079200080552190855e+01
1.286376546502158078e+02
9.728671054436335908e+02
1.549238461625515129e+03
1.375952059951049478e+03
3.770718321159773154e+02
2.454468579425441021e+03
3.384057152457712164e+03
3.353916574520971608e+03
2.614940165437150881e+03
1.888843451839504951e+03
1.202554534863308163e+03
3.810776789680221555e+02
-5.576156370004888458e+02
-8.427990323133262791e+02
-7.586222459904627158e+02
-8.968398253089580976e+02
-1.039396164005539958e+03
-3.389509633521522119e+03
-3.668296241488086707e+03
-9.660189382766037625e+02
-6.091415479603158474e+02
-2.665541262716309120e+03
-1.962919436222205832e+03
-2.041083523238476573e+03
-1.657919948364099355e+03
-1.215446372630312226e+03
-1.480790718229201730e+03
-5.370701878161493141e+02
-5.322856299769972566e+02
1.427538797342350335e+03
-1.395845391379189380e+02
8.081272002181957532e+02
7.315345947310952397e+02
-2.251319374745456116e+03
-4.270126598218900654e+03
-4.421784046440521706e+03
-3.305244786262910111e+03
-2.345700559211670679e+03
-2.471262495245401624e+03
-3.245855029647171705e+03
-4.015773856958151669e+02
-1.233590418166224936e+03
1.649195692981620823e+03
3.665859322438361687e+03
1.928312461531036433e+03
1.740429628962818697e+03
1.723304424418519147e+03
2.179096328544045264e+03
2.273821642459309714e+03
3.305510605662533180e+03
5.591975588052033572e+02
-1.311139653662558430e+03
-1.013596283541068487e+03
-1.787209426472714085e+03
-5.848380308812056683e+02
-4.564506767561057359e+02
-6.531359662954364467e+02
-8.550092988796963027e+02
-4.772140219629204125e+02
1.083971489699560493e+02
2.728897655600841858e+02
3.343607195288300318e+02
3.690114666717209388e+02
-3.211252309604609536e+02
-6.389857356101861114e+02
-3.134628895445403032e+02
9.764270628559453371e+02
2.338659391798949400e+03
2.582292524444951141e+03
2.625359449374647284e+03
2.234852185748907232e+03
1.308759312604874594e+03
2.132852353435504824e+02
-2.864649962278253952e+02
-1.286587574110584455e+03
-1.971118800600673922e+03
-3.032036250355493848e+03
-3.901278004856994812e+03
-3.675776738110322185e+03
-2.935534839067189750e+03
-1.994450392499463533e+03
-1.065478269144728301e+03
-1.755944186909397331e+02
1.227312080298481987e+03
2.606309418186938728e+03
3.573701795706176654e+03
4.454131380359038303e+03
3.713253039468883799e+03
2.980714712581087952e+03
3.039585543624762977e+03
3.592763845345639311e+03
3.569126569930653659e+03
4.249769293278574878e+03
4.239720850452525156e+03
3.263021819483255513e+03
2.045762777654466845e+03
5.309354791686580484e+02
-6.954876958715224191e+02
-1.852469761251333694e+03
-2.677001902170035919e+03
-1.921954437166668640e+03
4.048150281898647904e+02
2.510468090711758578e+03
3.523671258252813914e+03
3.926575412850895646e+03
3.801587046616728458e+03
3.560637318351528847e+03
3.124651576292071240e+03
2.824755240512537512e+03
2.460074405661893707e+03
1.745077990894805907e+03
1.161592607380992149e+03
1.094942166503029966e+03
6.260796421657933024e+02
4.656166092794234146e+02
4.193149812729144514e+02
1.424026446436085678e+02
5.922663935659976460e+02
1.032964862071557263e+03
1.046503096486225104e+03
6.818201731258114933e+02
7.704551056448426039e+01
1.360669698433373753e+02
7.739041737281781934e+02
6.428230397394855800e+02
5.059177001718937277e+02
-2.372857362768794687e+01
9.588133931747456984e+01
-2.132165186270854633e+02
-1.125018023573400114e+03
-2.402413318591666666e+03
-3.429317738973856649e+03
-3.955771176338847908e+03
-4.673923385833534667e+03
-6.864915228433352240e+03
-7.686650469086142948e+03
-6.124193155188615492e+03
-4.535661710016395773e+03
-2.919899589542392732e+03
1.002149776372842098e+03
8.065995225184957462e+02
-3.594545429154097292e+03
-4.529227014401910310e+03
-4.452381425102997127e+03
-3.716010468343341472e+03
-2.130939520591267865e+03
-1.464149537405779256e+03
-1.906617960653326236e+03
-1.668288782134633948e+03
-5.382190866805716496e+02
1.281600031644074534e+03
-5.427059151633732199e+02
-2.800072643909581984e+03
-3.674518202591862973e+03
-3.731166441521219895e+03
-8.611451901796364155e+02
1.676144271604018456e+02
1.072187654743013780e+02
3.136845049220167425e+02
1.112106641044299295e+03
1.422603009762245847e+03
2.357239879003601800e+03
2.800860048403646488e+03
2.691554118273324093e+03
3.398519933066239901e+03
4.363901427482674080e+03
4.725859479909459878e+03
4.969259445522230635e+03
4.890905605415091486e+03
4.472669560808545612e+03
3.760544822266065239e+03
2.982604004313326641e+03
1.893963895397176202e+03
1.217705835233075732e+03
4.369781693710521040e+02
-9.011713487265562890e+02
-1.438976134790895003e+03
-1.149368360140254936e+03
-7.713981814711552261e+02
-1.312176027334182209e+03
-2.176514631105654644e+03
-2.590176300331154380e+03
-2.885351603730151510e+03
-2.911362578452024991e+03
-2.352965721032569036e+03
-1.113673257268789712e+03
9.925486654952555909e+02
1.921748934288519195e+03
2.233879615541395651e+03
1.900629859474554678e+03
2.089134729808309203e+03
2.623738969730647568e+03
2.356585801519660890e+03
1.175460724596107411e+03
3.442827856748203317e+02
-4.132773522767460861e+01
-5.666572486428585762e+02
-1.303546274104592612e+03
-1.969316142260247716e+03
-1.711774466866012745e+03
-1.595812829734720935e+03
-1.671628037998701984e+03
-1.618417618106884902e+03
-1.717673855622011388e+03
-1.583830065600055150e+03
-5.191651063663127843e+02
-3.214249282262856013e+02
-6.874063060442372262e+02
-1.549722220502915661e+03
-3.747920773533652664e+03
-1.818039081150014908e+03
-1.791080180557344761e+02
1.261913200963031386e+03
2.110397642655666004e+03
1.447973864741924217e+03
1.972927052614871855e+02
-9.250989857867398314e+02
-1.700472888125668987e+03
-2.170168501883732461e+03
-2.153083178746782778e+03
-1.808000421367547006e+03
-6.755873977249009386e+02
2.749377275451910805e+02
1.186281050605748078e+03
2.518514689202667341e+03
3.283299537065862751e+03
3.440397950963008952e+03
3.534509797818308925e+03
2.800681969456185470e+03
1.934366902022083195e+03
1.939402276694944021e+03
2.469584223026186919e+03
1.754984325797195424e+03
4.778173886310502780e+02
-6.157981178128011379e+02
-1.910834865591845755e+03
-2.307335213114150065e+03
-2.211080614303969924e+03
-2.563176273292488986e+03
-1.849847631004703544e+03
-9.463942449990585146e+02
-4.728966305588658514e+01
5.836756897465749034e+02
1.502494274387108817e+03
2.176090363693514519e+03
2.836656765801353231e+03
3.615807411491945459e+03
4.047992920653405235e+03
3.693004512489748322e+03
4.134444852789640208e+03
3.762911147126685592e+03
3.280976621082388192e+03
2.411993383164649003e+03
1.356060838041446914e+03
2.044029358551220810e+02
-1.717625155510751711e+03
-2.890809907994071182e+03
-3.729435406029645492e+03
-4.221939051812617436e+03
-4.004641280434677810e+03
-2.747207708826187627e+03
-1.384703895920255036e+03
-6.939791867458183106e+02
3.710218131715035952e+02
1.983271828768985642e+03
3.204571922981413081e+03
3.314842857854003796e+03
3.228914743886282395e+03
3.252878419506911087e+03
2.565049975026348875e+03
1.795326762956386347e+03
1.140443613668277976e+03
4.107367919901749360e+02
-5.752781512577796548e+02
-8.535768380293706059e+02
-9.195436059803993203e+02
-1.422368932940189097e+03
-2.185906196420111883e+03
-2.831668341016488739e+03
-2.782547544904756251e+03
-2.413648158952550602e+03
-1.408140315274971499e+03
-8.149674745779626619e+02
1.123976045518273992e+01
8.700618762779909048e+02
1.077822853345794783e+03
1.367703997229317110e+03
1.108182285042792046e+03
3.228031170526226674e+02
-1.109962897276569265e+03
-2.398753585395327264e+03
-3.476276532369169217e+03
-4.584710405011196599e+03
-5.203428834553257730e+03
-4.065980581026352411e+03
-3.279235311653826102e+03
-3.391269483790103095e+03
-3.906731643026969323e+03
-3.688074171241807107e+03
-1.984133562911252511e+03
-8.791714444104819677e+02
-9.618720932927989224e+02
-1.002990610509335170e+03
-7.426817703635144881e+02
-4.576725701081970783e+02
3.595255943912062691e+01
2.487334246363311934e+02
1.263850383551742596e+02
-1.285729023891082363e+02
-6.990037982582045970e+02
-4.784809710822459579e+02
-1.831791888682486729e+02
2.668457138062043441e+02
2.558682085488065923e+02
-1.320868242397963058e+03
-2.588473311014034607e+03
-3.283963143191794643e+03
-4.050109939700273571e+03
-3.649150269564536757e+03
-2.916326010670704818e+03
-2.224371453397624009e+03
-6.118091161678822800e+02
7.017503850619926880e+02
1.313766783412465202e+03
1.987104389430731317e+03
2.388698338529767170e+03
2.144389631957150868e+03
6.803867638959020780e+01
-6.153264943621080647e+02
-6.789679325414795130e+02
-6.878611370966954155e+02
-1.246652994200650255e+03
-1.970365851838237177e+03
-3.019489674185815147e+03
-3.200275037165843059e+03
-3.806787296541024716e+03
-3.643923417276905639e+03
-3.238580345516307261e+03
-3.951060389290966668e+03
-4.280865258983329113e+03
-3.427289642832889967e+03
-1.064326370955220000e+03
-1.474580055573515892e+03
-2.477940907977253119e+03
2.081423437997193560e+03
4.725033600272037802e+03
2.870999749098085431e+03
2.913607921272284216e+02
-2.665559014561458753e+02
-4.248661721216092815e+02
-6.054468990892183911e+02
-7.231245532228106185e+02
-7.683480074614913065e+02
-1.333801285915621975e+03
-2.207357663009302087e+03
-3.219676621506000174e+03
-3.568892606157494356e+03
-2.723206607443156372e+03
-2.392599832951675580e+02
-1.394985850957232515e+03
-2.452924365931969987e+03
1.028039676288950432e+03
3.749369541758541800e+03
4.888122708096943825e+03
5.734906741712137773e+03
6.756865706113480883e+03
7.191980478552422028e+03
7.320277113832653413e+03
7.373647052832583540e+03
7.229598430549989644e+03
7.209911171179416669e+03
6.687892015328914567e+03
6.697790980482342093e+03
6.824257033108545329e+03
6.042661918869755937e+03
5.081815280112382425e+03
4.589709571044735640e+03
4.323596940024884134e+03
4.299764092522513238e+03
3.926503491247168768e+03
4.260022343123651808e+03
4.731001022457013278e+03
5.262837717634345609e+03
5.495519159552458405e+03
5.406896434271719954e+03
5.259994106549435855e+03
5.222617650521471660e+03
5.009898530642026344e+03
5.421156989757942938e+03
5.562122490023910359e+03
5.438498555963580657e+03
6.565376737150603731e+03
7.203035539741774301e+03
5.805463039012651279e+03
4.235597876726050345e+03
3.409185177523922448e+03
3.816634099520141717e+03
3.187851713365492742e+03
2.447476869464711399e+03
2.353434415076523237e+03
1.733484089985050559e+03
1.979983458650473040e+03
2.838940667215480062e+03
3.776000866610881531e+03
4.731177790397913668e+03
5.259570031382650086e+03
4.818353978202393591e+03
4.722360952292204274e+03
6.001718107039223469e+03
7.055535383014607760e+03
7.071016674676951880e+03
5.395153983011696255e+03
3.752488723716501681e+03
2.175206523235028271e+03
-8.895727023001862221e+01
-1.873097816908778668e+03
-2.624937258001270038e+03
-2.873920612242390689e+03
-5.038084565117656894e+03
-7.591511982810641712e+03
-8.103058895147135445e+03
-5.772590464140517724e+03
-1.357555435173701198e+03
1.363107915611389444e+03
1.651616692869223698e+03
-3.375941630681744243e+01
-1.476036184210028750e+03
-2.534227542568488843e+03
-3.923169186405563323e+03
-5.304603747831587498e+03
-4.238583785473250828e+03
-2.453456295717121520e+03
-3.686502332783628390e+03
-4.089365576910222899e+03
-5.415325164558840697e+03
-8.742373165373672236e+03
-1.046159852641150610e+04
-9.404832073195211706e+03
-1.100486873325042870e+04
-1.744072205424136700e+04
-2.227120140179777809e+04
-2.162095084128700546e+04
-2.074202564423506556e+04
-1.940265635334644321e+04
-1.872831966738681876e+04
-2.352170731309354960e+04
-2.779103699600615073e+04
-2.792548638618288169e+04
-2.604781586527276158e+04
-2.746852007108145335e+04
-3.006337374165469737e+04
-2.418136359104292569e+04
-2.031374268377997578e+04
-1.281823797327083957e+04
-7.827506148497219328e+03
-1.368145544947649796e+04
-1.992931561584951123e+04
-1.694801385867791396e+04
-1.449117299722269127e+04
-1.745846922924058526e+04
-1.152299410512543000e+04
-6.424838421290463884e+03
-9.472982489676396654e+03
-7.506246764872100357e+03
-1.832389616617068896e+03
-4.188402745022824092e+03
-6.466016324698968674e+03
-9.092082203881522219e+03
-1.158476964649927140e+04
-8.824092368471838199e+03
-9.473858418986759716e+03
-1.411796010178325378e+04
-1.159038262270743689e+04
3.947832391389137229e+03
2.010079375117577729e+04
2.818752370670868913e+04
2.925306971668449478e+04
2.239178050024229378e+04
1.088761564464745425e+04
6.751439765872244607e+03
2.036372463278488567e+03
-8.370659053643565130e+03
-1.017574080787282037e+04
-1.524743032328525942e+03
1.189546947205254583e+04
2.218822971475343002e+04
3.357883375795287429e+04
4.614619252728826541e+04
4.994610681217662204e+04
4.530697407859615487e+04
4.239526848671794869e+04
3.990454921442246268e+04
3.605232109439228225e+04
3.573640442828163214e+04
3.532564141011815082e+04
3.228495070894680612e+04
2.498469877037253900e+04
2.408218826948997594e+04
2.717537124898227921e+04
1.648018763994634719e+04
9.812023519242463863e+02
-1.452859484396814423e+03
5.739973320840810629e+03
7.987635228891480438e+03
7.467148253968985955e+03
1.503387708319231751e+04
1.962552297811504468e+04
4.872713592236786099e+03
-8.965478483308157593e+03
-9.764755010655944716e+03
-6.820136043774971768e+03
-1.284107626559092387e+04
-1.791340373645304135e+04
-1.359786035309810359e+04
1.211231030511747576e+03
1.572646927127888921e+04
2.411051438949000658e+04
3.310811035517671553e+04
3.616019245101993147e+04
2.543072519013529018e+04
1.008357036323710236e+04
8.707507458185837095e+02
2.061069632410285976e+03
6.643404198636341107e+02
-4.923256284237830869e+02
1.957116987355534320e+03
3.867562870463414583e+03
2.479622438956324459e+03
5.011981346964963450e+03
6.896258859307674811e+02
-7.967500454552480733e+03
-8.673685116617280073e+03
-9.174099857235018135e+03
-1.049286580995407894e+04
-8.666032950787372101e+03
-2.334638398102608335e+03
2.976907167750964163e+03
7.389380639999440064e+03
1.362273108605182824e+04
1.107778257850806949e+04
2.453378205433116818e+03
-5.605730165997671975e+03
-1.163859841716917799e+04
-1.727684297536844679e+04
-2.946266413380517042e+04
-4.043041388999587798e+04
-3.943613543529933668e+04
-3.450506801697530318e+04
-2.988942088500915634e+04
-2.874308649081636031e+04
-3.618897402118686296e+04
-4.609054363878499862e+04
-4.725419164936500601e+04
-4.011603211238371296e+04
-2.758992680360679879e+04
-1.991794199194147586e+04
-1.483551281882036892e+04
-8.553971190285034027e+03
-1.073934824878419931e+04
-1.639063861051855201e+04
-1.979688464679031313e+04
-1.168814931578787764e+04
-7.293675999986099669e+03
-1.096163064467368349e+04
-8.268921454978462862e+03
-9.394784537795472943e+02
-1.573302081039874111e+03
-3.005643302547235635e+03
-7.085820902531976571e+03
-9.073887632394958928e+03
-8.454755353008706152e+03
-8.870377501314676920e+03
-9.528038522067236045e+03
-7.611766313387552145e+03
-8.889466433746190887e+03
-1.431992653645123391e+04
-1.856243492448950565e+04
-1.688819685062229109e+04
-8.270333272528061570e+03
-3.658765767981648878e+03
9.298041645381995295e+02
5.075355646684405656e+03
8.174773345607201009e+03
9.896107526045074337e+03
1.209753938507313433e+04
1.099800926390246059e+04
1.082744773336098297e+04
1.553889011134542852e+04
2.204742531807038540e+04
2.325004619665531936e+04
2.175986713389683791e+04
2.076893717726448449e+04
2.252818707587192694e+04
2.766465895758336410e+04
3.104090578019266104e+04
2.916814597371879790e+04
2.422619126264284205e+04
1.918402123747381120e+04
1.922862263904883366e+04
2.198722682332351906e+04
2.217889291807146583e+04
1.605104366955851583e+04
1.142386109677208697e+04
7.531818363363347999e+03
7.616118346263454441e+03
7.827846023016087202e+03
1.016095510638899941e+04
1.547678531485153326e+04
1.616762348390501211e+04
7.211610553311499643e+03
-1.679120586896127861e+03
7.282659489185418352e+03
1.811615074260663823e+04
1.739793556725743110e+04
1.037327197510997576e+04
3.693437502373407369e+03
2.020840129327925069e+03
2.043653468732273495e+03
-5.479695256978379803e+03
-1.371786313817394694e+04
-1.492861148437443808e+04
-1.347834076277290842e+04
-1.118193016790660295e+04
-7.480430097053676946e+03
-3.385765659275853068e+03
-3.889967288956736411e+03
-7.414655505935203109e+03
-6.290446673650178127e+03
-9.705059150892770958e+01
3.417536361547302477e+03
5.171323056944169139e+02
-5.040075289502133273e+03
-1.196764425798704906e+04
-1.697129740330051573e+04
-1.894197783712038654e+04
-1.578960248012913507e+04
-7.115005962108397398e+03
-5.870704415301482868e+02
-2.556777847188690771e+02
1.944215386866718802e+02
6.554923994451499425e+00
3.196794836095878054e+02
-2.348963812382728065e+03
-3.992038903057052721e+03
-8.374378373244933300e+02
2.148986088386413940e+02
-2.633750832883948988e+03
-6.599246679117532949e+03
-6.038543299045869389e+03
-2.162415466230882885e+03
2.939394902567169538e+03
6.767096622433239645e+03
6.902895062326298103e+03
1.850777089965329196e+03
-5.710108616992571342e+02
-1.457454938636135694e+03
-4.982601852251559649e+03
-3.305207883141321417e+03
3.859394000462579584e+02
-7.600469031744701169e+02
-3.343298574704271232e+03
-4.612772025037830645e+03
-2.591278273405502205e+03
-1.429497407986640155e+03
-2.501334402237630002e+03
-3.709794522998389311e+03
-1.504868491889764073e+03
1.671646566450125647e+03
2.408097773830888855e+03
4.122396920465518633e+03
8.024340707135714865e+02
-5.214557665547451506e+03
-8.812523039189112751e+03
-6.454553230745063047e+03
-3.832312754550162936e+03
-2.848616000007126786e+03
-9.106647521200292204e+02
3.725299259998267189e+03
2.727053619323030034e+03
8.414745774764984390e+02
4.876743821391121401e+02
2.562839848650146905e+03
3.424122125830271671e+03
2.652635161353259718e+03
2.561511014746647106e+03
4.365734785722414017e+03
4.878305014603052769e+03
-1.242039587603118662e+03
-9.013628853354161947e+02
4.074555931322683136e+03
5.963777271299222775e+03
7.356480434102952131e+03
5.354689321490043767e+03
3.209004397139599405e+03
2.283052748956596133e+03
-6.191511227029847078e+02
-2.879229455955490266e+03
-1.391163068412678058e+03
-8.194697066347798682e+02
-3.615285398941371568e+03
-2.074684616900971378e+03
2.300251032196689721e+03
2.367893485982970560e+03
-1.270698444190029022e+03
-3.661824269787869071e+03
-1.900770335865293873e+03
7.484904120265748588e+02
2.815939737924050860e+03
4.288039830809425439e+02
-6.019733589022497426e+02
1.048048210981403599e+03
2.799913001437681487e+03
1.082570041441071908e+03
-1.781963266209705125e+03
-1.743617848061405994e+03
1.673298519841508096e+03
3.059010267382192524e+03
2.296711247113689296e+03
1.371228259374569689e+03
5.561179282576134710e+02
9.589358970419999650e+02
-5.578536205616171628e+02
-1.914653086103242458e+03
1.900433659932788942e+03
3.302222593248061912e+03
3.933518628754542078e+03
6.069865956211427147e+03
7.594542918358833958e+03
7.747672739369708324e+03
6.084475453521542477e+03
4.648732851600101640e+03
2.320957988386718625e+03
-4.296149325554791858e+02
7.132642990007464050e+02
1.926095838716958724e+03
8.543347758714811562e+02
7.555429522903608586e+02
-2.903820299572698218e+02
-3.890142262696211674e+03
-7.823331270500159917e+03
-1.155887805941411898e+04
-1.308545957985636051e+04
-1.156016788715744951e+04
-1.040844751974653263e+04
-1.148469996608513793e+04
-8.702490039305190294e+03
8.688061979955786001e+02
6.686167263792853191e+03
6.479532948904016848e+03
4.545945981074377414e+03
4.840555562815912936e+02
-6.263260778306171233e+03
-8.011820544852268540e+03
-4.946263953615264654e+03
-9.071235891896610610e+02
3.975133626086226286e+03
5.143603060755196566e+03
3.305868048308594553e+03
1.468032569636020298e+03
-7.037958936968746002e+02
-2.541366444927437442e+03
5.105219471695568814e+02
2.016108365104680615e+03
-1.373484579192094998e+03
-3.838630403934669175e+03
-2.097297090660373215e+03
6.345570747279022044e+02
-1.638429813517443563e+03
-2.001581380708026472e+03
3.226056518153117395e+03
6.924682616521591626e+03
7.673219842722551221e+03
6.121341098976379726e+03
3.496297126149731866e+03
1.421797840518186149e+03
-4.639495655405580123e+02
-2.442768934332240860e+03
-1.795784252856555668e+03
-2.006426368657524563e+03
-4.222564474480812351e+03
-3.764043742413580730e+03
-4.129000195091390992e+02
3.493571063430116283e+03
4.578344583550266179e+03
3.369665639158751219e+03
3.434115287757207170e+03
4.293452584537446455e+03
3.976305922482588812e+03
3.422974053983024987e+03
2.538449849031961094e+03
2.380937291115577409e+03
3.788879382225702102e+03
2.505943475731186481e+03
2.079637794649650004e+02
-3.709522857826562472e+02
-1.753249879441693793e+03
-3.206266940006097229e+03
-6.322328325380288334e+03
-9.682362763416569578e+03
-6.122331209736483288e+03
-2.983205262776959444e+03
-2.769979155272384560e+03
-2.124588030320161579e+03
-2.998807830591725178e+03
-5.303311811347222829e+03
-5.061986318810368175e+03
-1.093574305301539425e+03
1.371697129033718511e+03
5.840385418529247090e+02
-1.137283751165806734e+03
-1.676751079457104510e+01
3.108049144060633807e+03
4.557086720640088970e+03
3.032454230451258809e+03
1.063994682096146562e+03
2.312392836856877807e+02
4.616482343553097394e+02
1.446212457090875660e+03
9.278471595954381428e+02
-1.048141683525270537e+03
-1.339224352155931456e+03
3.392391877377531841e+02
3.212790091531265716e+03
5.237060052645530050e+03
4.397280115876001219e+03
3.812730695039057082e+03
4.812533803477697802e+03
5.612485980695666512e+03
3.150752644475181114e+03
5.893353998049113898e+02
-1.045050069383434675e+03
1.789832793008125236e+03
2.235400233320345706e+03
3.267175024702526684e+02
-2.265575818821657776e+03
-4.220128998560776381e+03
-2.800682451472466710e+03
-1.011248826396046866e+03
-6.298725541538543666e+02
-2.825611864699562830e+02
1.408335713453382141e+02
6.773450346321519646e+02
5.612598113275821561e+02
5.176164655019624661e+02
5.090687788832706815e+02
-6.215312408052045612e+02
-1.754771800026245273e+03
-2.481340171493480739e+03
-5.939158023475101800e+03
-9.979413570253444050e+03
-7.760285625424278805e+03
-4.094695888995679525e+03
-2.994154141218895802e+03
-1.646315781808269548e+03
8.510036801070723413e+02
3.280557649160324218e+03
5.018182978053109764e+03
4.215136910177627215e+03
3.190066546145966186e+03
2.143073510194249593e+03
5.472273991333272534e+02
-2.056998081352757026e+02
-3.368643653589144833e+03
-4.459672993496584240e+03
-3.590005075322494122e+03
-2.338244658583416822e+03
-1.496498683429315179e+03
3.244842271716657933e+02
3.086393730437799604e+03
-1.099093695849079268e+03
-3.500115314644047430e+03
-2.404007990719111604e+03
-1.244600293199692942e+03
2.698810903050677439e+02
-3.015682252545731899e+03
-4.591614029595897591e+03
-6.853695414871488538e+03
-3.509344745868606424e+03
5.652577691017610277e+02
2.115039493499746186e+03
2.404896815364996201e+03
-3.202143225282252956e+02
-1.115935623379561093e+03
1.012061972598600619e+03
4.798510397597754491e+03
7.721985849974803386e+03
6.406633477579267492e+03
3.725998844056738108e+03
3.703410186624841572e+03
5.505092119355247632e+03
6.269992667461278870e+03
6.177908581068675630e+03
5.500447605593834851e+03
4.636024704463156013e+03
3.011608036231131337e+03
2.290597572414816113e+03
3.465025461670271852e+03
1.529926056240969274e+03
6.223756351718640722e+00
6.511343216661309725e+02
4.405721624806834029e+02
-5.858198942963348372e+02
-3.698860459217582388e+02
-6.332919409692455019e+02
-9.778705240029257766e+02
-6.208638424684874053e+02
-9.846029917719023388e+02
-1.153366785765569375e+03
8.672998530376536053e+01
8.612301613291125477e+02
2.352444748108386648e+03
2.289881773911327855e+03
3.185725002477299768e+02
-1.122100216067802194e+03
-6.245755640843939318e+02
9.258966403907269296e+02
-2.242640141007539967e+02
-2.303966887357604719e+03
-3.974337529975744474e+03
-3.957686758013545841e+03
-3.584060266159890489e+03
-2.709265001311887772e+03
-2.567275449380610553e+03
-1.575436922627777676e+03
1.577269188674207271e+03
2.936871029224474114e+03
1.783064280849820534e+03
1.556552996841975300e+03
1.305540350516462922e+03
-1.961757577313364038e+02
2.694797886730066693e+03
6.194313966663233259e+03
6.268408482308296698e+03
4.429840679632492538e+03
2.112304122645435655e+03
5.491593300654449195e+02
-7.996767252788430369e+02
-2.204391673268700288e+03
-4.298199143067684417e+03
-5.483096156529699329e+03
-4.879037690089826356e+03
-4.850082176657171658e+03
-4.947456781807466541e+03
-5.796111905608386223e+03
-6.147530276329779554e+03
-6.232217400553358857e+03
-4.169513938571256404e+03
5.157772576128833180e+02
4.746549102328143817e+03
6.327973491146815832e+03
6.953012559804006742e+03
5.893636488004147395e+03
4.437076874816413692e+03
4.172352097061300810e+03
3.139135547018198395e+03
1.630373339671960139e+03
8.232464553125794282e+02
-4.677215392383153585e+02
-2.094870665202833607e+03
-2.577971708573934848e+03
-1.929723160484571736e+03
-1.062161236300149540e+03
-1.536618061300243653e+03
-2.617222855575156700e+03
-3.407977650245975838e+03
-4.297586944101732115e+03
-6.037173914272533693e+03
-6.866904158411498429e+03
-4.749810669600651636e+03
-2.187727104375182989e+03
-5.785098175680982422e+02
-8.643674628688127086e+02
-2.281658078745364037e+03
-3.395265202413184397e+03
-4.754970646689011119e+03
-5.438849275198933356e+03
-5.374140964535421517e+03
-5.870831866832549167e+03
-4.509568965826342719e+03
-2.964458118543464934e+03
-2.866010011274584031e+03
-4.270049453884518698e+03
-4.769476739619552063e+03
-2.922271006951817526e+03
-2.097387882020141660e+03
-2.613655849149994538e+03
-1.604805169430611159e+03
-9.190728156063340748e+01
1.499887015829739539e+03
2.258481326888469084e+03
2.288603216083658936e+03
2.602434356041989304e+03
4.368167984036092093e+03
4.919663283931276965e+03
3.003006061183822112e+03
1.606551387013763360e+03
9.404065392640244454e+02
6.375902274011904183e+02
4.968733333959075935e+02
-2.231052052222158011e+02
-7.583524868230190350e+02
-1.401770723145705688e+03
-1.709565639606872764e+03
-4.684656678355464123e+02
1.040591080036731455e+03
2.228159980529420864e+03
3.139553446069203346e+03
3.394984309389501050e+03
3.952700756536771678e+03
4.601518096616435287e+03
4.766116890109289670e+03
4.066433903743264182e+03
3.369279230056466531e+03
2.646729138624623374e+03
1.886978768998417081e+03
6.192341365343417010e+02
-5.202204297275376348e+02
-9.585722905120912856e+02
-1.466398927682451585e+03
-1.019469599747292136e+03
6.557328983602242261e+02
9.141578443934763527e+02
8.204238667556430755e+02
9.474386088183222228e+02
1.278662051344609381e+03
1.386993097601879299e+03
1.313776855086407522e+03
1.155086178760058147e+03
9.831993348351118129e+02
1.503367689979399074e+03
1.726859743700535773e+03
4.556857441731920630e+02
-5.041805921335612766e+02
2.286341388046129850e+03
3.318134986849776396e+03
3.048360201897786283e+03
2.457345145001536366e+03
1.492813379400398389e+03
6.224552760385490728e+02
-4.747977028759061682e+02
-1.681818195069732383e+03
-4.501332659008541668e+03
-4.882322217918770548e+03
-2.817739376358350910e+03
-2.519425005658652026e+03
-1.922276589460172090e+03
9.088032232277088269e+02
2.937962599368772771e+02
1.197651727225766308e+03
6.516268692520209243e+02
2.035855524865298094e+03
9.563163670112744512e+02
-2.768806570886481495e+02
-6.936801898940465207e+02
-2.149810208283265638e+03
-3.331097132819544186e+03
-5.806100899586831474e+03
-4.396902621693373476e+03
-3.648276440081999226e+03
-1.762262389588017868e+03
-3.697617515134201312e+03
-3.363187039123485192e+03
-2.205167893175577319e+03
-7.980266125968198310e+01
4.120192128548592905e+02
-1.310453932380318520e+03
-3.430538407556912261e+02
2.197054617579204205e+03
1.767672112015882249e+03
1.642074841433382744e+03
2.049637617776258594e+03
1.040478456730719927e+03
1.053468349630137254e+03
1.853457143690899557e+03
5.094088910988126599e+02
5.424314043510820511e+02
-1.178333675408422550e+03
-2.038916735888163203e+03
-3.608396516475825592e+03
-5.047910665375740791e+03
-5.375426117135905770e+03
-6.189678950532000272e+03
-4.605721226992220181e+03
-3.401659094933600045e+03
-1.190383758928406223e+03
6.263879339045525967e+02
1.287769265824895683e+03
1.399781139913022571e+03
