-4.935723429589343709e+02
-1.217537687749734914e+03
1.613690436533912589e+03
2.332102452439000444e+03
2.946757668246564208e+03
2.986623945672340142e+03
2.511651195685784842e+03
2.163786320499833437e+03
1.737991866743928995e+03
1.112294168627068984e+03
1.085724821760059513e+03
1.171269216990717496e+03
1.012954220819829857e+03
8.357430610148113601e+02
4.859618209061498106e+01
-3.384407402935253231e+02
3.425549578520337377e+02
8.115636279908324013e+02
1.098672786618748887e+03
1.473790339307775639e+03
1.830653491521702108e+03
1.754143001239599016e+03
2.070168615307190521e+03
2.247758668593811308e+03
2.094886590342860927e+03
2.006421753453079873e+03
2.107922656342772825e+03
2.034523532801426882e+03
1.177519098722277931e+03
1.082226066275801259e+03
1.301499172936570858e+03
1.108234066344793291e+03
8.285107905825137777e+02
7.485858399929071538e+02
1.069088090913457336e+03
1.328708960644788249e+03
1.627172727572165059e+03
1.616143765497179629e+03
1.327347026883096532e+03
1.556980034967992879e+03
1.390881584823865296e+03
9.301057836140698782e+02
7.935920820256527577e+02
8.742954665797592497e+02
1.523287732852213367e+03
2.115514730001490079e+03
2.297911600300272767e+03
1.852519384399243563e+03
1.151306437187577558e+03
4.711344751531933639e+02
-2.319395216306197085e+02
-3.632660576413861691e+02
-6.301925029732963139e+02
-1.374539634848621859e+02
6.768706153190408941e+02
2.817130460887924528e+02
2.860715281279310602e+02
8.389042456887318622e+02
1.384169033947368689e+03
2.125849907697900107e+03
2.284907662596752743e+03
2.424343362583462749e+03
2.555164845244226854e+03
2.590442845115460841e+03
2.421282451478724852e+03
2.149640017261570392e+03
1.916435174651559919e+03
1.640652240537702028e+03
1.438209768369268659e+03
1.376956125163481602e+03
8.066151914368988400e+02
1.721433839651299991e+01
-2.360792645502457106e+02
2.818020949373856183e+02
1.221849180126052488e+03
1.739086135485878003e+03
1.391432925836402774e+03
7.567364563183843984e+02
6.140002669009546707e+02
8.123261170983158763e+02
-2.592730482860598613e+02
-2.586796139097108608e+03
-6.916306851806650229e+03
-8.938749312880469006e+03
-9.068192830951447831e+03
-8.817709565374714657e+03
-8.894228613808159935e+03
-9.082702973464927709e+03
-9.036112609258312659e+03
-8.995488672574319935e+03
-8.789787069869838888e+03
-8.158054412039643466e+03
-6.670288216384097723e+03
-7.341389301142981822e+03
-7.960392932339404069e+03
-7.190352766689712553e+03
-1.706300150605225554e+03
2.025774624387333006e+03
1.085833840170560734e+03
-6.630851154613675362e+02
1.345079246056953934e+03
2.189366706191622598e+03
-2.191849488846596898e+02
9.339703004627655503e+01
2.408165692964282698e+03
2.783132419332073368e+03
2.933265636145287317e+03
2.885574762064997685e+03
2.744098886154759839e+03
2.612848036188007882e+03
2.539841698186239228e+03
2.131105390412226370e+03
1.568680151995580900e+03
1.617548949833511415e+03
1.864773755956716968e+03
1.894416403606164977e+03
1.768455256611137656e+03
2.113919053691070076e+03
2.171882096044945229e+03
1.971310077431633317e+03
1.696203554619111401e+03
1.854627326738141846e+03
2.356625604156714871e+03
2.238262116202338802e+03
2.081576709548546660e+03
2.124615222310272657e+03
1.802396769434391445e+03
1.499923228780318141e+03
1.539240656417862738e+03
1.344348987632055241e+03
9.962529551123930105e+02
8.050167775721436101e+02
5.496664139744634667e+02
3.542289246446326842e+02
-1.272228133255226368e+02
-2.166834530557967469e+02
-5.907343146730809025e+01
1.736057117696311707e+02
5.103084771912900806e+02
4.852007936801915662e+02
9.033621136558334683e+02
9.378492308827356965e+02
1.008702555916871006e+03
1.177831444100060025e+03
1.184291471813892258e+03
1.051172401480763710e+03
5.506024926156965194e+02
-4.644136600691827255e+01
-9.195808588585214238e+01
-1.226646458143911360e+02
-7.575743027687724407e+01
2.963277759463038592e+02
1.301354608297799302e+02
-1.501698057250381453e+02
-3.894509042196992823e+02
-7.115049005220098479e+02
-1.004718308813111548e+03
-6.689723239625966471e+02
-6.773290573907664793e+02
-4.186605951428100525e+01
4.395663431664220866e+02
1.130295780128426344e+02
3.734656916326987925e+02
2.488635923739330167e+02
-1.397038928751641151e+02
-2.721987857601175165e+02
-5.265696036585627553e+02
-7.017400696555325794e+02
-9.177595804193290405e+02
-7.995913869235058655e+02
-8.242760891314703713e+02
-1.061709514466031578e+03
-1.593848590918243872e+03
-2.024740034762252890e+03
-1.606433632965284687e+03
-1.291864043342628520e+03
-9.200692124623909649e+02
-3.720022424206395613e+02
-2.936184982032856396e+02
-2.209660272261100715e+02
-3.270266784620230283e+02
-2.097914746466147449e+02
4.761481593770126253e+00
1.786438308955993364e+02
2.528184754272779742e+02
1.633015146228285346e+02
-4.558811758250865864e+02
-8.327257506048239293e+02
-9.433103582620753969e+02
-1.054668260780684250e+03
-7.717652187638552732e+02
-9.162440193338696304e+01
-1.333442974291819496e+02
-6.559632389612215775e+02
-7.643598220298956676e+02
-1.084562349872390769e+03
-9.696229573199302649e+02
-9.414981140464735745e+02
-9.392871657360731206e+02
-7.260693296958347673e+02
-4.347654139032021021e+02
-3.433177495362587592e+02
-1.668559542094613448e+02
-8.940782556888015620e+01
6.707700124647448092e+01
-8.444795698255529715e+01
-4.660448465021783591e+02
-6.246774686461396868e+02
-7.964041991682715889e+02
-1.464295113471172499e+03
-1.691385684436069369e+03
-6.676589920174488952e+02
1.638252707079992661e+02
5.449454015249062877e+02
2.746916075377978927e+02
3.111234828997775139e+02
4.711184699624359951e+02
6.236893028144705795e+02
5.788321167343571005e+02
6.054205833749070962e+02
5.064452530588263244e+02
1.139480077043846080e+02
3.618882813232450530e+02
7.091368615972492080e+02
7.539278728007978998e+02
7.382550252365439292e+02
7.560437334670212977e+02
4.168471793608896974e+02
6.708786509000882461e+02
8.918952482040526775e+02
6.698055791696575625e+02
7.667863137035213867e+02
9.497296357978708556e+02
6.415811983584977725e+02
8.383077751682982353e+02
8.276102508375428215e+02
6.209555281789625951e+02
1.058992808490069365e+03
1.193489874519872501e+03
1.319983002120577112e+03
1.673297458329691835e+03
1.944963264664254893e+03
2.165548237554226944e+03
2.466439482557929296e+03
2.469431048357607779e+03
2.507120802862973960e+03
2.692012539762889901e+03
2.483219136180191981e+03
2.240798716050559960e+03
2.243583316120322252e+03
2.459972769628704555e+03
2.603060189526401246e+03
2.310373996714636178e+03
1.861693803655321517e+03
1.651084336848834482e+03
1.840479468038721734e+03
1.649828819780360391e+03
1.467046280562480888e+03
1.596433696657875316e+03
1.841638506879542774e+03
2.431608524586227759e+03
2.480242705218217452e+03
2.240541268900766681e+03
2.583575977556409271e+03
3.273291970418798428e+03
3.475654641179896771e+03
3.166626980480782549e+03
2.762284373629680431e+03
2.841723345488130690e+03
2.677944185672212370e+03
2.203857028105566314e+03
2.482354354273660192e+03
2.325351598105958146e+03
5.198179122539933132e+02
-2.358196337442972890e+03
-6.227741925338656984e+03
-7.454921917846662836e+03
-7.717650921360676875e+03
-7.381823370799644181e+03
-6.806447807736383766e+03
-5.940645821439459723e+03
-6.059600192520169912e+03
-5.505281905189445752e+03
-5.071633450958906906e+03
-4.667616808829274305e+03
-4.587994061617852822e+03
-5.127663187918360563e+03
-5.605793164036993403e+03
-5.153393260730149450e+03
1.504207366368316627e+02
3.116713464546734940e+03
2.564855440268982420e+03
-9.408646855737089254e+02
-6.241844036109167973e+03
-6.942457049786168682e+03
-6.894581606590843876e+03
-7.039956164588197680e+03
-6.842206728780177400e+03
-6.810225813572347761e+03
-5.919462472430075650e+03
-5.867129533795508905e+03
-5.745354815438235164e+03
-5.951006850675307760e+03
-5.348016378790194722e+03
-4.299291194030850420e+03
-3.910802934310769615e+03
-1.345584214386662097e+03
-6.175403854066440772e+02
4.917249811693436641e+02
2.583271965160542550e+03
3.412880220589152486e+03
3.546517069990143227e+03
3.469122402373995556e+03
3.235686864833874552e+03
2.985297198878706240e+03
2.852014397442757399e+03
2.620238367794965143e+03
2.676260460629497629e+03
2.801660874398100987e+03
3.143334558186377762e+03
3.376102349034144027e+03
2.970836833800977729e+03
2.907797423415935100e+03
3.271332841911533251e+03
3.417677093117063578e+03
3.563523497636034335e+03
3.464081223149340076e+03
3.290899938540874246e+03
3.191152803835100713e+03
2.729344310495414902e+03
2.482961574669183392e+03
2.667062963828424472e+03
2.482676127755850302e+03
2.137006166535049488e+03
1.886118404147730416e+03
1.782305800753905260e+03
1.541745977548161363e+03
1.816041432196882624e+03
2.020109038683722247e+03
2.060307707574022515e+03
1.999498770283311160e+03
2.066924006679695594e+03
2.208885481458401500e+03
2.366866671424786091e+03
2.567169447271806803e+03
2.350732945573401594e+03
2.344926130192457549e+03
1.967381362891906292e+03
1.236340664140205718e+03
1.173554193812081849e+03
1.204358449463036322e+03
1.050409520560939654e+03
4.492632575224716902e+02
7.952206313920248704e+02
6.369195001367447730e+02
3.839317897246429538e+02
7.118000449353349950e+02
1.025642940394429843e+03
1.362499096285467658e+03
1.255052027378616231e+03
1.010520564644649198e+03
8.952474436112144076e+02
7.082327969150472882e+02
8.657993378374522990e+02
8.998929683733636011e+02
6.521955177443626326e+02
5.288306452297686064e+02
2.384998533334377839e+02
3.116932276712077510e+02
-4.036635871853453494e+01
-1.340365560032815893e+02
7.465566692052406950e+01
-2.112018766454161209e+02
-5.589851304713517521e+01
2.031111827598016930e+02
1.865208686937464790e+02
2.350764124238386330e+02
5.485291837805656456e+01
-1.822275200701474773e+01
2.036192470973585671e+02
3.101033648783254080e+02
3.889969743549987129e+02
6.742138901760480394e+02
7.508775277134917587e+02
6.723129533031988103e+02
4.843832777922455080e+02
3.718347939523642367e+02
3.707086455765626738e+02
1.019623552386341743e+02
-2.084674212780149105e+02
-1.466680937888729943e+02
-4.733413030430511981e+02
-2.451984777440976018e+02
-8.232403281774217021e+02
-2.345541371620771315e+03
-2.560316562162036007e+03
-2.273477107708780750e+03
-1.357946424551665132e+03
-2.297838871822938245e+02
-3.300865010496206651e+02
-9.630158459528106505e+02
-9.491668763979756704e+02
-5.534298660377012311e+02
-2.347194468118533678e+03
-2.240208145778692597e+03
-2.204238118576725753e+02
-2.058255513740151855e+03
-8.295706027072828874e+03
-8.754550695059115242e+03
-8.919722207979884843e+03
-7.069147485365641842e+03
-1.843659328024558818e+03
-1.635316931090757407e+03
-7.402834507582838341e+02
-3.447869343515308742e+02
-8.945405645188692461e+02
-5.784149481782313842e+02
1.674157117317091661e+02
2.067716572806236286e+02
-7.551043021668411370e+01
-4.964366832572268891e+02
-7.347160558884747843e+02
-7.380314045547575006e+02
-3.062827684131549404e+02
-2.087321214706558408e+02
-4.183791803553406226e+02
-1.469239109767664786e+03
-1.339315838715701148e+03
-4.076530538114042770e+02
3.215396935416608812e+02
6.582500570617066842e+02
7.776816625481609435e+02
-1.555236556742684400e+02
-4.306753168794998601e+02
-2.999550148994733263e+02
-9.601754348517400786e+02
-1.569627782330700484e+03
-1.402651623413411471e+03
-2.943784801982461659e+02
7.423200876631478877e+02
7.975540154926266041e+02
9.644877696190820870e+02
1.352187512998115835e+03
1.604830873319271632e+03
1.058395931899786092e+03
8.537568003569648454e+02
1.201836028035942263e+03
1.487355883792671648e+03
1.185133888191958022e+03
1.301584240427569625e+02
4.274873058016951859e+02
7.871078701940211886e+02
7.261048747140290516e+02
1.035629642847579589e+03
1.020647943153188749e+03
5.720209159249644699e+02
2.797186976367098055e+02
7.657225895894746373e+02
1.021186526164126008e+03
1.027187007687430651e+03
1.483563832979574954e+03
1.645348861058534794e+03
1.419812127775463296e+03
1.481843552940040354e+03
1.531311964279153472e+03
7.990982150675476987e+02
2.282265551516771609e+02
5.249352720945413466e+02
1.282245617935505607e+03
1.173024471087904203e+03
6.991669634248752345e+02
1.116573396519183461e+03
5.680600436860451055e+02
6.348188367499960805e+02
1.546951326980701424e+03
1.407344169342118221e+03
1.250009778026774256e+03
1.311923008313472792e+03
-1.669769810231857946e+03
-4.021114815961779186e+03
-2.749229390324869655e+03
-1.345068388735701319e+03
1.733420901132963991e+03
-1.174796001464402025e+03
1.532178512408019699e+01
1.639753117774191651e+03
1.276455749540385114e+03
1.113423649972669409e+03
-8.693708316685839463e+02
-1.122994466069272676e+03
-4.803345444209659263e+02
-3.278530234503670727e+03
-2.704631132934321613e+03
-5.425666440266403470e+02
-3.372359459236010480e+03
1.259954811129944545e+02
7.239987064833101726e+01
-2.868401770224661959e+03
-1.572691347448945010e+02
1.016755399748932632e+03
-1.615078235707289025e+02
9.493724342194627752e+01
-7.078314299969771355e+02
-2.067344934830904180e+01
-1.729559764880888906e+03
-7.525982150274018068e+02
2.193128740954251043e+03
-5.914832042680295672e+02
1.863524913240660908e+03
1.375084195091340234e+03
-3.227836637070370671e+03
-3.779149288214638091e+03
-1.078888539330826461e+03
-3.368120101156484907e+03
-1.401807782897484913e+03
7.920496394152795574e+02
1.406425380425232106e+03
1.192225305745034348e+03
7.273806550072288246e+02
8.768751951870212906e+02
6.156621370685799093e+02
-1.282893403557916088e+02
-1.742994938916964884e+03
-1.871510911129692431e+03
-2.188591669300044202e+02
1.893948499570808963e+03
3.487946028750744517e+03
3.360154573672248262e+03
2.442569956377768904e+03
2.260136823775797893e+03
2.869779454933800935e+03
2.966771123388702563e+03
1.892113501686244263e+03
1.938312600981970490e+03
3.175614948853456099e+03
5.208935762735257413e+03
6.022392858570020508e+03
4.024886112094901819e+03
1.878303330500555148e+03
1.047020579490176289e+02
-1.926769450316554639e+03
-2.212871867891082729e+03
-4.759214347386507598e+02
-4.762394395454704750e+02
-1.248024105031841145e+03
-4.332137012599609989e+03
-7.451660527530782019e+03
-5.797111617005180960e+03
3.900590303523798639e+02
2.460094046400971365e+03
-9.517766510137139448e+02
-4.248890121858347811e+03
-4.414146036111625108e+03
1.245071228127311542e+02
6.882604168034710710e+03
9.040270133417512625e+03
8.661486083128065729e+03
6.737264585729618375e+03
5.963626999666822485e+03
5.262591717766067632e+03
4.564072931435478495e+03
3.197953059826059416e+03
3.191964195583276478e+02
-2.727349216679181154e+03
-7.745010587245026272e+02
1.970693576977518205e+03
2.730414157832637102e+03
3.336617753404541872e+03
1.422972840173476925e+03
-1.317516869420599278e+03
-3.425949106843637765e+03
-5.679335476959755397e+03
-2.856631362703573814e+03
4.036063686191550005e+03
6.293769225853297030e+03
7.193526654320441594e+03
5.104258627034960227e+03
-3.140344971442037263e+02
-4.314247134506185830e+03
-5.019391936090813033e+03
-3.225506251371685721e+03
-6.039483400425704531e+03
-7.121227538046790869e+03
-1.699728020520802374e+03
6.897973214915716198e+03
1.071583188557811263e+04
8.541855769286892610e+03
6.783042651544084038e+03
4.113441113053079789e+03
2.157120781476126012e+03
-4.639325883240014718e+02
3.423267351493504407e+02
3.876004775628789957e+03
4.671177029686605238e+02
-7.721360802794270967e+03
-1.698634741570602273e+04
-1.521582353951298137e+04
-8.026832809016835199e+03
-9.034418647283735481e+03
-1.885146842354171531e+04
-2.790589290471377899e+04
-2.614367563471412359e+04
-1.893365779992258103e+04
-1.524367752016879604e+04
-6.658776819306935977e+03
1.791014856103931606e+03
3.247524407046010424e+02
-7.106550660471551964e+03
-7.249835070089686269e+03
3.108992621613667325e+03
1.038799041954305540e+04
8.363168775050897239e+03
-2.625413437889612851e+03
-1.111671008609417004e+04
-8.044595972106491899e+03
1.801890390382975966e+03
5.672824071433713470e+03
3.518289678133980033e+03
-1.303651331577487099e+03
-3.204916938199836750e+03
7.918510904481770922e+03
1.746171894686176893e+04
1.685575084199702906e+04
1.164872673708756884e+04
1.160875690269908591e+04
1.449284125083277650e+04
1.356507841812188599e+04
1.221647652892887527e+04
1.153304116419849743e+04
6.134864650812674881e+03
-7.136991355759618273e+03
-1.459541734648871898e+04
-1.379240029352521196e+04
-1.197893546156563025e+04
-1.037491347304600822e+04
-1.133426684320615459e+04
-1.746598473152166844e+04
-1.433495961499437908e+04
3.401835216489825143e+03
1.311344047729716112e+04
1.582801742104315235e+04
1.785360263505241164e+04
1.661924447673476243e+04
1.553499150275273132e+04
1.375986887702837885e+04
1.052197914273355491e+04
5.137442897896929026e+03
2.203296818603647807e+03
3.103676835999912328e+03
4.658512288158943193e+03
5.838915575277470452e+03
4.518081585795403953e+03
3.852989215438475640e+03
4.799565448864843347e+03
4.893705242923881997e+03
3.749414123734477016e+03
1.129178955271225533e+02
1.292365756861802311e+03
4.365552407615195079e+03
2.185404349903760703e+03
2.908198648927048907e+03
5.198103130711368976e+03
2.175081667258200923e+03
-1.617554570559947024e+03
-2.724311355378120879e+03
-3.702564061947324717e+03
-4.045343910730723110e+03
-1.994692591168077115e+03
-3.107481961627989335e+02
-5.111711755013349716e+02
-3.343348449830692516e+03
-3.074315408732972628e+03
9.207814418461416039e+01
1.708698173427462507e+03
3.264586275832884894e+02
-3.163591174052070073e+03
-8.195375327444378854e+03
-1.083086831966068348e+04
-9.372103416736030340e+03
-6.194076617094289759e+03
-5.889798997850608430e+03
-5.572261363072279892e+03
-4.985407755122338131e+03
-4.397163262105790636e+03
-4.527457364401568157e+03
-8.229373083930713619e+03
-1.326608533378849461e+04
-1.586968616008938079e+04
-9.800146579948728686e+03
-6.299354872404133857e+03
-4.054323207390412335e+03
1.254885384684595010e+03
3.967238709916904099e+03
2.365755032892093823e+03
-1.322624024044849193e+03
-4.006000344214759025e+03
-5.827465138744537398e+03
-5.820024915338756728e+03
-4.997730532363543716e+03
-1.975619709888317402e+03
1.834322748897331167e+03
5.271135159138058953e+03
8.702792254913209035e+03
9.699263341989302717e+03
9.059491967936986839e+03
7.467491492872863091e+03
5.742345261592691713e+03
3.806964682194981833e+03
2.336331368340247991e+03
3.230457369954018759e+03
3.915129685450900070e+03
2.832326137254642163e+03
1.352999444714021365e+03
-6.010089306429484850e+02
-9.688881411227739591e+02
-1.066704752796737807e+02
-1.358366912974997831e+03
-2.325006469835720509e+03
1.283974562789042864e+02
1.436738567269790792e+03
1.475940268640213617e+03
-1.979863050531249939e+02
-2.623021362434240928e+03
-1.790231548663867216e+03
1.279243602940340452e+03
3.497311300197416585e+03
4.643963997975190978e+03
4.079133844421586218e+03
1.085739434247642066e+03
3.318381817621845471e+02
1.023338781774832228e+03
1.711181521912200765e+02
-5.398423304045828672e+02
-1.859619126309107742e+03
-1.690276548402072876e+03
-1.292824493833035831e+03
-2.157331275285619085e+03
-2.753719325059910716e+03
-2.662011385721116312e+03
-2.853805039743743691e+03
-2.788447587703294175e+03
-2.165482340311749340e+03
-1.751671908683211313e+03
-1.608194908033717411e+03
-1.267163054127264104e+03
-1.444488708083814799e+03
-3.555849880506766567e+02
-1.813517928708784268e+02
-6.372851614491437431e+02
-1.759192959086010148e+02
1.150781755134953301e+03
2.994714173541286527e+03
4.294787126496386009e+03
2.874047805365762542e+03
3.436636351890588685e+03
3.899976159599912990e+03
2.362220528301468221e+03
3.435527940204960942e+02
-7.543355442573938490e+02
4.326350516833938968e+02
2.304344992102800916e+03
3.412965276106673173e+03
4.274357127471965214e+03
4.535296492013615534e+03
4.650011183981105205e+03
3.669005788286725419e+03
2.048448831432031056e+03
1.830719889996546499e+03
1.906536611773705772e+03
1.014585070150483602e+03
7.621995295122973175e+02
1.228831880119651487e+03
2.065617072380151512e+03
2.729753257757236952e+03
2.498124164979087709e+03
2.042715310361156753e+03
1.891475503964438076e+03
2.242398593152589910e+03
2.489547909882057411e+03
1.821012283657797980e+03
8.516892393947123310e+02
3.624003616736153504e+02
3.731141557283617658e+02
6.868679197876425633e+02
2.319764331679581119e+03
3.604868395628759572e+03
2.428172713507694425e+03
3.470533322018827221e+03
3.187971775140063983e+03
-1.711426779802624424e+03
-3.060735422110485160e+03
-4.887082718513843247e+03
-4.633624234424896713e+03
-4.764232799613041607e+03
-7.160633922535892452e+03
-8.152755344924954443e+03
-6.811602645335700799e+03
-9.860752937942602330e+02
2.093750034982710986e+03
1.049738419376339380e+03
-2.862011987718351975e+03
-4.403419167800236210e+03
-7.501894706112990434e+02
-4.693265816541966160e+03
-5.049010422250958982e+03
-5.621793463729566611e+03
-6.040376120708871895e+03
-6.840293960117207462e+03
-5.278454102352916379e+03
-2.356040666906743354e+03
-4.671460289891219873e+03
-5.654927914860641977e+03
-5.769172080866493161e+03
-6.253993310491575357e+03
-6.179137784818627551e+03
-5.927604966188581784e+03
-5.618398594275203322e+03
-5.948517669990273134e+03
-7.230845101445564978e+03
-8.013182785539000179e+03
-7.788428379960606435e+03
-7.350897048887167330e+03
-2.390589251988256365e+03
2.549613435627336912e+03
3.548805181531879953e+03
4.787241924241633569e+03
4.829072050011899591e+03
4.701361785051730294e+03
5.335246548416266705e+03
4.560350919961158979e+03
4.160233722658082115e+03
4.350106067284052187e+03
3.738062086976314276e+03
2.843419088057215959e+03
2.385624710568808041e+03
1.803690202447079855e+03
8.794384777054431197e+02
9.017059700389810359e+02
2.191921298164815653e+03
3.539018684412699713e+03
4.316498785567292543e+03
4.469008065641754911e+03
4.011825848554481126e+03
3.231492138291199353e+03
3.102046519550502580e+03
3.197662117256807051e+03
2.479366288876485669e+03
1.848291279955955588e+03
2.297237015730793246e+03
2.478941550180503327e+03
2.472896286060815783e+03
3.219585672238601092e+03
3.827391607491081686e+03
3.343800262313773146e+03
1.681348603018042922e+03
7.316726365487719477e+02
2.835125232995891338e+02
-5.759550535576756829e+02
-4.754015319864681715e+02
1.598634535846934114e+03
2.526417312271962146e+03
2.047367629498269707e+03
2.195289826280488796e+03
1.986000413204065353e+03
1.641081711106543480e+03
1.207124475304546422e+03
1.800356279132705595e+03
1.411704525575390335e+03
8.267645887215822995e+02
6.350911596329666509e+02
1.514498890008376065e+03
1.397656668176156927e+03
1.046893233880357684e+03
7.865884555274225249e+02
5.985398073320948242e+02
5.777711795874015479e+02
3.398978076574868510e+02
3.197731185940743899e+02
-3.066925367112856406e+02
-1.517592614072073900e+02
5.330115559923553974e+02
9.162741383523269860e+02
1.451806455037685510e+03
1.610925856447082651e+03
1.377684146920787498e+03
9.670281872809810011e+02
9.393656599286687197e+02
1.816507120266470338e+03
1.984213381043500931e+03
1.464889270256566306e+03
1.235435255696432705e+03
1.133814443759187043e+03
6.401775724755211741e+02
6.240013408840768534e+02
1.135743054843439381e+02
-5.385098952883365655e+02
-6.390135740173710843e+01
4.978189919886355597e+01
-1.094447640979748542e+02
-4.032988585279229596e+02
-1.140744116329374492e+03
-1.763703314168167253e+03
-1.745970452583419956e+03
-1.593258916376815932e+03
-6.556624603560293281e+02
-6.225712023874024226e+02
-6.461423797068767954e+02
7.556645505528598505e+01
1.251804404933334126e+03
1.627558718393162053e+03
8.206752925900797209e+02
-2.358208125244646567e+02
-1.638666868824788310e+02
7.987701336918916013e+02
-9.282398431480670524e+02
-4.352111558863229220e+03
-8.036467862902401976e+03
-9.004476907507010765e+03
-8.842358117822574059e+03
-8.986719968989005793e+03
-8.657406791704546777e+03
-8.591497642520251247e+03
-9.122025955728624467e+03
-8.222167379619217172e+03
-4.475174365426979421e+03
1.710023370238484119e+02
1.186462714469151024e+03
1.370435375300813803e+03
2.513703230150290437e+03
2.805987678002915345e+03
2.421302322710858789e+03
1.827851992411087167e+03
1.664861188514818878e+03
1.484488051006494288e+03
8.145925348821053831e+02
2.058778020964306563e+02
-1.918485157223342412e+02
-8.634319514728026661e+02
-1.243838519352394314e+03
-1.727126699704830799e+03
5.631148396100507547e+00
2.259497208654855967e+03
2.802759197044252232e+03
2.058590787970147176e+03
1.555915941967652770e+03
1.459005536214663380e+03
1.997915115555467082e+03
2.516662750858581148e+03
2.056911250100372399e+03
1.953780189703590850e+03
2.171573346987221612e+03
2.640506553265223829e+03
2.579584630776535960e+03
1.888769361245971140e+03
8.609359688284424692e+02
-2.230131940459934867e+02
-9.822966129268176019e+02
-1.869036736609508353e+03
-2.601271303789505964e+03
-2.815066144358759630e+03
-3.351253798084394475e+03
-3.961656562119295359e+03
-4.006181800963322985e+03
-3.316785727298391066e+03
-1.874403005298244807e+03
4.199727747235130551e+02
1.428201098171997046e+03
2.819324767577174498e+03
4.124468927822652404e+03
4.333669778679326555e+03
3.536003810137493929e+03
2.675371299603599255e+03
1.956677728257059016e+03
1.999098549300307013e+03
2.439666964385988649e+03
1.822081458457787676e+03
1.033424010907818001e+03
1.021852956128031337e+03
1.153591006354566161e+03
1.196719353183243584e+03
1.024949138356964795e+03
1.002111889885541586e+03
8.462466339052025432e+02
1.642476872248530029e+01
-3.651606636411863747e+02
-2.562429660065002963e+02
6.204295785836295352e+01
6.735552012612039334e+02
9.984364568046408976e+02
1.122665169004073050e+03
1.470187362825304945e+03
-1.274765929197222476e+03
-5.057192749060531241e+03
-3.943139311568849280e+03
-1.380573532683431495e+03
-3.400462762385243423e+03
-2.379723372406498584e+03
-3.779364072170420059e+03
-3.093670077193207248e+02
3.212082971824411857e+02
4.873141840441541603e+02
4.239549199036881646e+02
-3.288815074646764515e+03
-4.746077776809799616e+03
-2.679749883793858316e+03
-3.550745569890832485e+03
-1.115121869180809654e+03
-4.551929773472984380e+03
-2.227231377980202069e+03
-1.321018767674757783e+03
-1.109033193842596120e+03
-2.166402619109177067e+03
-1.752161223076190481e+03
-5.271546015003835919e+02
-1.316298310912386114e+03
-1.818615971379810617e+03
-1.914268444507528102e+03
-1.808326256692576408e+03
-1.387533536409698911e+02
2.176452360947719626e+03
2.567331138632727288e+03
2.285929697281904737e+03
1.855358017029740722e+03
1.913656077765171858e+03
2.204773024080912364e+03
2.508718014011733430e+03
2.643538593649554514e+03
1.202011599350056859e+00
-1.483874755340382023e+02
1.560720844955606708e+03
1.511560172924594553e+03
1.156182847726735190e+03
8.845737315716265812e+02
2.117011066995416400e+02
-2.014748288105487575e+02
-5.729635085771518561e+02
-9.326716373224292056e+02
-1.591545093295148263e+03
-1.684651091238989238e+03
-1.199043927567143555e+03
-7.507479158305694682e+02
-2.399084335040961093e+02
1.014468500452575086e+03
1.498465583977606457e+03
1.945822298699198882e+03
2.250581600756452190e+03
2.643453066370349916e+03
2.739322570114405153e+03
1.860197041776101059e+03
1.466884114321157540e+03
1.410406290178987547e+03
1.400971779788125104e+03
9.287768064748645429e+02
7.063119791768726827e+02
7.087512828729232979e+02
1.017959258374967931e+03
8.655432206622488138e+02
5.809259814144322718e+02
1.003001566776965092e+03
1.113325708013404437e+03
8.714444202761206952e+02
1.160193884364626228e+03
1.206424213444454836e+03
1.210926323431942819e+03
1.290223838485401302e+03
1.340605662241410073e+03
1.044437022291298717e+03
1.279456460844650792e+03
1.131748922593746101e+03
6.692779470262622681e+02
1.104958590335003009e+03
2.005705696657334556e+03
2.394464211555349266e+03
2.112148467652405998e+03
1.794773420453642302e+03
1.325366768899606768e+03
5.408925281538965919e+02
-1.477545318484752670e+02
-3.439399052304784021e+01
-5.236098187184870767e+02
-3.917771540426627439e+02
-1.927657324275420478e+02
-4.865215458679976024e+01
4.776176546058879353e+02
1.728962942552612049e+03
3.143295335284814882e+03
4.017713060981171111e+03
3.696137313426859237e+03
2.914485811093842131e+03
2.284860274189257780e+03
2.443315975511064607e+03
2.380696215124274659e+03
2.152961793605548337e+03
1.885140601797796990e+03
1.828204074478805524e+03
1.604933362996129745e+03
1.498261191092832860e+03
1.309173708347454976e+03
9.206346684493696557e+02
1.067702564752717990e+03
1.043430241550708161e+03
1.193695150171102114e+03
1.280461487161449668e+03
1.285813524125999265e+03
1.421771507260008775e+03
9.462419958240751612e+02
-9.587989579541870171e+02
-4.105344868484284234e+03
-6.963478894126149498e+03
-7.188231871581396263e+03
-7.182527863128324498e+03
-6.722256471200252236e+03
-7.394442195999216892e+03
-8.006140793459982888e+03
-7.677305655875679804e+03
-7.842978210040860176e+03
-6.822380928486842095e+03
-6.864550929698999425e+03
-7.727338739158247336e+03
-7.507593060818257072e+03
-7.190275665565506642e+03
-5.902413504554968313e+03
-2.287691891186645535e+03
1.886252641162931525e+02
2.002499222128120891e+03
-3.004947426441668235e+00
-5.663865505873196525e+03
-5.621180192437578626e+03
-5.909845190154956981e+03
-5.670836723499412983e+03
-4.481413001818602879e+02
2.419238782206510677e+03
2.707303524294661202e+03
2.435108296411914580e+03
1.949671540554072180e+03
1.758040194066805498e+03
1.635217058585441009e+03
1.359189025537318457e+03
1.380034795727334313e+03
1.882760717700631176e+03
2.359421318576954036e+03
2.561109358683477240e+03
2.444878088220322752e+03
2.389726326771759886e+03
2.422631804275245031e+03
2.338691797209559354e+03
2.528007033961925117e+03
2.723569359843092116e+03
2.580462658546814055e+03
2.668765168834849646e+03
2.754473616721558756e+03
2.312660775262938841e+03
2.027401153990075727e+03
1.236646693785123489e+03
4.174941869172404836e+02
-5.898999757989214743e+01
-2.758143955366065825e+02
-5.848368288046902990e+02
-3.029541011643803472e+02
6.438045712250319639e+02
2.218491048087475065e+03
2.814124711747464517e+03
2.612828409563058358e+03
1.698604987808137139e+03
1.502418996775686082e+03
1.728276388565336674e+03
1.867316701063205528e+03
1.825679570399093564e+03
1.348454634437159029e+03
8.135973751328119761e+02
6.700846711297642742e+02
3.861578781217759229e+02
-6.892910812631690476e+01
2.170209215283285857e+02
-1.511479803500062928e+02
-8.284656108900043137e+02
-1.081799929108181914e+03
3.975879720561358255e+01
1.135138571338123484e+03
8.047069384123090003e+02
-3.871594118405816687e+01
2.858735425070960545e+01
-7.146582155859209706e+01
-3.260676059475375155e+01
2.733435319113508513e+02
6.922686988861855752e+02
6.482474387387651404e+02
4.543882941979493353e+02
6.087631139506428326e+02
3.534235712475671676e+02
-1.576138037294505523e+02
-3.683135313331794123e+02
-5.056349122798379199e+02
-9.035168391433621764e+02
-5.518970960712196074e+02
-2.637789562731144883e+02
-5.431522918770975821e+02
-5.221552649457782991e+02
-7.128082060354946634e+02
-1.022007258760385753e+03
