-3.472201061002429469e+03
-3.969710562996903263e+03
-4.483845187688133592e+03
-4.516799069423909714e+03
-2.808688594337853829e+03
-1.749654012698919360e+03
-7.544824369624481051e+02
-3.039269994667452011e+02
5.290407464805017526e+02
1.488548533655131450e+03
2.326527736274505969e+03
2.935711754489016130e+03
3.166151834709383365e+03
2.529112844433019291e+03
1.535708031110251795e+03
8.579888425599037873e+02
1.798340038109211036e+02
-3.585747031237675486e+01
-3.214888612398847840e+02
-6.690430030596214692e+02
-7.584076570924081580e+02
-5.987468840975486728e+02
-8.170791349692240146e+02
-8.704627584933499520e+02
-2.147906211125589664e+02
4.106725120060178114e+01
6.114141969039691560e+01
4.444998175832230345e+02
1.003171886457840628e+03
1.319162105889278564e+03
1.473485728575343956e+03
1.849222024813587950e+03
1.946373182617194516e+03
1.486978527748763099e+03
4.381225485183597925e+02
-1.057165656415264721e+03
-1.678804810642317534e+03
-2.597804344953236978e+03
-3.524334897659441594e+03
-3.991476746884851309e+03
-3.774216667680128012e+03
-3.132428516242220667e+03
-2.554965934043967536e+03
-2.196837558770781470e+03
-1.594124079295367437e+03
-2.772297128493707241e+00
1.199395952183943791e+03
2.234501302851712353e+03
2.935461697273090067e+03
3.513279092162302732e+03
4.302137137416362748e+03
4.981136743149430004e+03
5.136332389440290171e+03
4.904799964287091825e+03
4.676543481503372277e+03
4.104635487653948985e+03
3.838117145331011216e+03
2.859063171001931551e+03
9.945028180646597775e+02
-1.425547790706595606e+03
-3.508019455214590835e+03
-3.636808725384008085e+03
-4.520941443424500903e+03
-5.030390860334433455e+03
-4.431047439412228414e+03
-3.597846161001372820e+03
-1.936735540437681948e+03
-1.738658546812719806e+03
-7.593989367013654146e+02
6.330775835831198037e+02
4.394891972499573058e+03
5.906202505999227469e+03
5.725109229715390029e+03
5.336707576599591448e+03
4.620143071104108458e+03
3.817420641257218449e+03
3.028603137011131366e+03
2.230719113073931112e+03
1.342753033445972505e+03
1.535792882763161742e+03
2.357910336270589596e+03
2.663198138927263699e+03
1.953727956238749812e+03
1.373483473795397913e+03
6.185163337627665214e+02
-9.020173476524109901e+02
-1.472959434368463008e+03
-3.432339626259545184e+02
3.063382798020083442e+02
1.035922920540939003e+03
2.982586854782721730e+03
5.040446849418070997e+03
6.313610677896856032e+03
5.199168860566311196e+03
2.920210311483839178e+03
1.216779916008249074e+03
5.329816683106853361e+02
1.688572747783153432e+02
-6.125974404266119109e+02
-1.403359403842481242e+03
-1.862353409815223131e+03
-2.622541085878922331e+03
-2.987982436005787804e+03
-2.868617963251929268e+03
-2.954457538279956680e+03
-3.004390163094719810e+03
-2.591339520382734008e+03
-2.607278580374550074e+03
-2.757042960039145783e+03
-2.497511348881382219e+03
-2.051637091085595330e+03
-2.534301418901497073e+03
-3.859436669886018080e+03
-5.003935787006040300e+03
-5.037725543760940127e+03
-4.616813163185078338e+03
-3.429066215788867794e+03
-1.860557017040275014e+03
-1.245350803010377604e+03
-1.973382160542792690e+03
-2.813648877446304596e+03
-3.478046758615862927e+03
-5.176650941872317162e+03
-7.102521206643898040e+03
-8.178509130879861914e+03
-7.949667593678151206e+03
-6.030034754083762891e+03
-2.581494545622398618e+03
-7.879143114478105190e+02
1.790794287799943277e+03
3.452647547432213287e+03
2.478648772478173214e+03
3.628660021818804466e+02
-3.524514562637678409e+03
-6.061575834904496332e+03
-6.743300950614300746e+03
-6.870690302855166010e+03
-6.244790285395473802e+03
-1.074165865823531203e+04
-9.688337446301240561e+03
-9.592827451678302168e+03
-6.748095748172480853e+03
-7.191275846159525827e+03
-6.248383445800777736e+03
-5.802500036316588194e+03
-6.518636599753369410e+03
-2.820746721884260751e+03
-4.668232765075813973e+02
2.940145915290308494e+03
5.540214190826628510e+03
8.367501189055899886e+03
1.335810541744685906e+04
1.303999841542266222e+04
1.440310278909252338e+04
1.433526755560586571e+04
1.330852268154116973e+04
1.073387135282151939e+04
8.613217117374111695e+03
8.356496409177936584e+03
8.708631960624499698e+03
6.780549591333846365e+03
4.138163710500087291e+03
3.248324419658020815e+03
2.748928439805951257e+03
1.652978645990622226e+03
4.592455709098568150e+03
3.783316674781430720e+03
3.785545914153979538e+03
4.846088144620976891e+03
3.798989885460773166e+03
7.008289294282146329e+03
6.009902218865281611e+03
5.505719795607396009e+03
6.929680170150742015e+03
6.508734332446459121e+03
6.062803499933147577e+03
5.246773212081839119e+03
4.128509394089624038e+03
2.599893428002051678e+03
8.738282821491606001e+02
-1.260840910529378334e+03
-2.373200777246967846e+03
-3.555404633790846674e+03
-3.845527957513452293e+03
-3.633688250869932290e+03
-3.017084030745232667e+03
-3.050785975793243324e+03
-3.440800352218797798e+03
-3.853209268728383904e+03
-3.449020759080074640e+03
-2.349289922389291405e+03
-1.401112861703986027e+03
-1.995802012647062043e+02
2.792212512168066496e+02
2.831745298690896107e+02
2.741914587134550629e+02
2.905569849435258902e+02
1.270415361488334725e+02
-9.375115796743197052e+02
-2.127431482521409180e+03
-2.174991194820630426e+03
-2.291343725287289089e+03
-3.184346745731113060e+03
-3.489181988823937445e+03
-3.647085397517087131e+03
-3.870168148060459771e+03
-3.918674965433237958e+03
-4.130263228518278083e+03
-3.985230196352821622e+03
-3.534673673684349978e+03
-2.419370700395224958e+03
-6.944030912650379150e+02
1.590880882153566290e+03
2.551377426537228530e+03
2.634572052309059472e+03
2.211247380449316097e+03
1.420822081133688471e+03
9.515040672884196056e+02
1.060201712768225889e+03
5.275822388082546013e+02
-5.546040519966724105e+02
-2.137945676918827303e+03
-3.041034851446600896e+03
-3.167322241084587858e+03
-2.795683339582338249e+03
-2.037132288008803016e+03
-9.785458367348670663e+02
2.188438018982530409e+01
1.114036897400772887e+03
2.119978628549911264e+03
2.427608866464831408e+03
2.612225044419989445e+03
3.192122962912731055e+03
3.177319552489233956e+03
2.720677183671236889e+03
2.341706314270450093e+03
2.230946173489013290e+03
1.987948321030543639e+03
1.746524224531483014e+03
1.280982073133680615e+03
6.303209888319854599e+02
-1.175985652398796475e+02
-1.049308608427803620e+03
-1.408503425992806342e+03
-1.555494743872808158e+03
-1.555924172083922258e+03
-1.194764420907288013e+03
-2.121686407679680997e+03
-3.533850369199861234e+03
-5.700473569036237677e+03
-6.525677252027036047e+03
-4.750550133010819081e+03
-2.288206908238181313e+03
-1.160558741985354345e+03
-1.018192306581317666e+03
-8.557602890810679810e+02
-7.665385624894448711e+02
-5.605778105437435670e+02
6.011577626623154202e+01
1.075441382802266617e+03
3.497716520440860677e+03
1.386334160549333092e+03
-3.332261271654429947e+03
-4.531703031495622781e+03
-4.519482321631986451e+03
-3.811591909179171580e+03
-2.345149109730640703e+03
-3.717899349422962132e+03
-3.602213624174246888e+03
-3.241043556837556935e+03
-2.232406344170230568e+03
-7.395137537382032633e+02
3.812636896587881665e+02
1.255502821721410101e+03
1.608020267028847456e+03
4.177789899931372020e+03
6.495906502367986832e+03
5.967426949592170786e+03
4.928405301996027447e+03
3.285536504285932097e+03
2.069826947543076585e+03
1.160493629252275468e+03
6.258808794265476081e+02
3.082815442243963275e+02
5.460417541214682160e+02
4.007728745564035648e+02
4.474293337836826936e+02
9.296489028022720049e+02
1.168092255456611838e+03
1.735820630955398201e+03
2.816132262819296557e+03
4.123191546449355883e+03
4.935442758325956675e+03
4.782673873967407417e+03
4.567554333790481905e+03
4.101602964251713274e+03
3.277970007671342501e+03
2.086996759755432322e+03
1.295583165196275559e+03
2.163786063315783963e+02
-8.087196204448997605e+02
-1.570542316956088371e+03
-1.888540266546067414e+03
-1.806135749535689911e+03
-1.673841379441435947e+03
-1.760511317019908120e+03
-1.429769940517795249e+03
-6.672567705871200587e+02
-3.950452980593363694e+00
6.392274774370080195e+02
1.016885550202094123e+03
1.141164187453108752e+03
1.276010255005872978e+03
1.389069684454000935e+03
1.235118945330889801e+03
6.283238049746942124e+02
3.903185988803179498e+02
5.221290113015857060e+02
-1.762425427282910277e+02
-1.221567661937041294e+03
-1.961707698430259143e+03
-2.404144165725658240e+03
-3.198957489435438220e+03
-4.054290953559978789e+03
-3.798422779462920062e+03
-4.133649999051410305e+03
-3.739166165320490563e+03
-3.200983442400125568e+03
-2.437132386678188595e+03
-1.717783695279419817e+03
-6.689885289167382325e+02
4.224365518351910964e+02
1.538869749327673617e+03
2.063340858828731143e+03
1.842798248188785692e+03
1.490403393745416224e+03
9.251420951241861985e+02
4.272625136343395980e+02
3.609057137232844639e+02
-6.796662367257991946e+02
-1.807352834744149504e+03
-2.804158287877160546e+03
-3.114777749048541864e+03
-3.319184563020787209e+03
-3.507079253135438648e+03
-3.381850299964339229e+03
-2.685835448758200982e+03
-1.551660999312742888e+03
-2.928120762950411518e+02
6.225766148122100958e+02
1.570856263779784285e+03
2.354750222028667849e+03
2.822318909379729575e+03
3.232778369281730647e+03
3.324972052900082417e+03
3.224472782809129967e+03
2.992579388573098640e+03
3.030242131240177514e+03
2.291324376994752129e+03
1.702857063558539949e+03
9.510356716446418659e+02
7.874672179185678544e+01
-5.616249070731156507e+02
-1.105894466692629521e+03
-1.179844464559708967e+03
-7.884209947856450071e+02
-7.771040620657871614e+02
-3.474270514013400657e+01
5.726988688029535979e+02
1.318858416887588191e+03
2.615544725649150678e+03
2.963760648751607732e+03
4.033555678658815850e+03
4.489939415380647006e+03
4.244418946298331321e+03
3.996978602923963081e+03
2.691678463379749246e+03
2.650604486798001744e+03
2.628689375022644526e+03
1.890770692670880635e+03
1.848658203928657940e+03
1.266160195990202737e+03
-4.478228607997363611e+02
-1.344408853172185218e+03
-1.644657937529904530e+03
-1.044808304561709292e+03
-5.381443927168938899e+02
-1.612686734622726135e+03
-1.964493069090646941e+03
1.253298390863791667e+02
8.437811531629039337e+02
1.758093440194869345e+03
2.837085742508374096e+03
3.562400352658063639e+03
3.824532767820488516e+03
3.460405645358603579e+03
3.303257405780033423e+03
3.846707905022120030e+03
3.152451613860422185e+03
2.438042787175568265e+03
1.345021791903210669e+03
2.298115456883899412e+02
-3.393097214115548468e+02
-8.570989948678359269e+02
-1.479626245129609742e+03
-2.027021962412466337e+03
-1.606494872753797381e+03
2.910698227199075632e+02
2.430196171989926370e+03
3.607061580475792653e+03
3.298433305981233389e+03
3.664420883096480793e+03
4.168016745641666603e+03
4.191502317071245670e+03
4.063493493441054397e+03
4.079741193953197580e+03
4.053076148322854351e+03
4.039484644081470378e+03
3.092410171377413917e+03
1.768264766232256306e+03
5.577052899840210785e+02
-4.151529294616644279e+02
-1.420580885288188256e+03
-1.770248628844060704e+03
-2.117821978828328611e+03
-1.785472656672483708e+03
-5.966986011626900108e+02
5.980343748513499804e+02
1.314855228638536573e+03
1.505729880982195709e+03
2.090860707664005986e+03
2.912361601078880540e+03
3.515104810538857691e+03
3.876900457501876190e+03
4.251600912977428379e+03
4.397265157213515522e+03
4.428912257772101839e+03
3.956703714068085446e+03
2.717554837227517964e+03
2.161292103927347853e+03
2.260810216130957087e+03
1.116352885881439761e+03
-4.481098423315243053e+02
-1.741651925248235102e+03
-2.511404535401688918e+03
-2.680306533074930940e+03
-2.419190847674468841e+03
-2.546951054065031713e+03
-2.527793103931589030e+03
-2.745769286862429908e+03
-3.768522872593565353e+03
-5.275935665163868180e+03
-3.143075754151057026e+03
-7.709076580405480854e+02
2.594661999179461873e+03
2.780896645477669608e+03
6.255660945150696080e+02
-6.723568656570354278e+02
-1.164540853530480263e+03
-2.801671523485185389e+03
-2.544988505562687351e+03
-5.973612586288643797e+03
-1.003157445174057830e+04
-9.555882635307652890e+03
-8.768258900583845389e+03
-9.496569133342545683e+03
-8.158661720267452438e+03
-7.794518435924706864e+03
-1.005116928646433553e+04
-1.139466948033325207e+04
-6.324952973410150662e+03
-4.475829934135332223e+03
-3.490034242071494191e+03
-7.594256993484078748e+02
2.654130740952249198e+03
5.685730764604673823e+03
4.903406629915589292e+03
5.202141126467739696e+02
-1.774699000848436754e+03
-5.164272992064418759e+03
-7.500387933043512021e+03
-1.144889648157801639e+04
-1.035993660652979815e+04
-1.188716841939412006e+04
-1.378712261546608715e+04
-1.511304800813101610e+04
-1.841003708052536604e+04
-1.769791236799572653e+04
-1.157836172620314392e+04
-2.694409401780819735e+03
7.012954828918383100e+03
1.274698286350157832e+04
1.392363753574178190e+04
1.028600734479881248e+04
3.688218816309015892e+03
5.173723572818611274e+02
-2.817257320687372612e+03
-7.197280000461076270e+03
-5.905459483690562593e+03
9.353902865466567391e+02
6.313272909924511623e+03
4.593269501636888890e+03
3.354408538341897383e+03
7.282765243662765897e+03
9.709563956187505028e+03
1.032302322038200509e+04
1.013350199555600557e+04
8.106327910834749673e+03
3.513276953654596127e+03
-1.953702688622018286e+03
-3.710302534789997480e+03
-1.129306647235516493e+03
-1.740638281804210692e+03
-3.294066333252974346e+03
-5.737343611029730710e+03
-1.084846548903044095e+04
-1.267690901913790913e+04
-7.372541992915073934e+03
5.400188535482711814e+03
1.253868520657980662e+04
1.378194395808532499e+04
1.572319647191907461e+04
1.646117550467142792e+04
2.080379408733218952e+04
2.036056396943901200e+04
1.956150775880815127e+04
1.650256375738564384e+04
7.928770224625748597e+03
5.291322438394593519e+03
9.234341340719334767e+03
1.107291230908509715e+04
1.191006881626512040e+04
1.318087128910313913e+04
1.481509476897762943e+04
1.691193157144481302e+04
1.350449566087585299e+04
8.050877589552350400e+03
3.718381207809706211e+03
1.419045781147498246e+03
1.034385460378652397e+03
4.603371490812094635e+03
2.277016578046348513e+03
-3.209580943296675741e+03
-2.734331895090226226e+03
-8.564356899090396837e+03
-1.735079970739078635e+04
-1.218857610505994307e+04
-5.842631231104212929e+03
-8.598015829877376746e+03
-1.658083947754302062e+04
-1.964895951343025081e+04
-1.828626322337810780e+04
-1.599978327811401869e+04
-9.227639294993379735e+03
-3.238896859605521513e+03
-2.467616064558063499e+03
-5.058785414141365436e+03
-7.499429809366188238e+03
-3.090657518505534881e+03
9.202326570398119657e+03
1.586042868814754911e+04
9.864692713223652390e+03
5.716079052711630538e+03
4.107385679679618079e+03
4.033828665711054668e+02
-5.798016505508754562e+03
-7.421927261725426433e+03
-9.632364636240685286e+03
-1.593934526692660620e+04
-1.650898350549760653e+04
-8.872354855102912552e+03
6.042247467884920553e+01
3.069213550654612845e+03
5.217874016413786194e+03
8.169321818283247921e+03
1.263350079686597928e+04
1.905419826515901877e+04
1.997925176161553463e+04
1.890844346102721829e+04
1.515559823375360429e+04
3.142602900019984190e+03
-2.678763079525966532e+03
8.524548876648916576e+02
7.173947765132510540e+03
1.161547956369920939e+04
1.162483447470857027e+04
9.082959260764331702e+03
6.491699159971236440e+03
6.966732639048933379e+03
6.429815842812790834e+03
3.383758377725991977e+03
1.444347730643222292e+02
-4.425365139119257947e+03
-7.086743274533459044e+03
-1.012687030081722514e+04
-1.264611505529625356e+04
-1.565756954895664603e+04
-2.118332109537148426e+04
-2.620567769031405260e+04
-3.265894385298790439e+04
-3.564038157315139688e+04
-3.174815366114139397e+04
-3.228855824978282180e+04
-2.648180601344707611e+04
-1.125904926577600781e+04
-9.182528398596456100e+03
-1.930746873884354136e+04
-2.412804384206355826e+04
-1.505246389155510951e+04
5.510977887885583186e+02
3.911431115175635568e+03
1.356225248107390598e+03
2.317309549555406193e+03
3.222522786965054365e+03
2.122659965502009982e+03
1.777622102328015671e+03
5.169206023750843997e+03
8.197209193368018532e+03
3.651451049052684994e+03
1.690742484465315329e+03
2.614866988615956416e+03
5.205616423359281725e+03
2.803904569876720871e+03
3.127581845917104147e+03
3.963421604370134901e+03
-5.377002554531585474e+02
-8.353060816672719739e+03
-1.494739788782111191e+03
9.969300732610476189e+03
1.270783255300499150e+04
1.123972321727444614e+04
9.765917474798588955e+03
8.641207035499868653e+03
9.598699611095826185e+03
1.140356276751175574e+04
1.144246461834071124e+04
9.559217226246830251e+03
6.523631944801024474e+03
4.229660827768246236e+03
3.551246463956778371e+03
6.158259068770041267e+03
6.748611564995355366e+03
6.720097341062897613e+03
7.824679201274606385e+03
7.352714595263016236e+03
5.266967151524841029e+03
1.497193596250102928e+03
2.549505595945315235e+03
4.878787413329609990e+03
5.161948994398504510e+03
1.041996038922202388e+03
4.890974571267871397e+03
6.589929496330338225e+03
4.356836979155344125e+03
2.629694375807953747e+03
7.247564456512837751e+03
1.023646046129699789e+04
7.333462048666180635e+03
8.379544268820291109e+03
6.141627755962421361e+03
3.582724878868076757e+03
2.366922458211977300e+03
-4.216982416682373014e+02
5.748180780137040529e+02
2.993830147020208869e+02
-1.102985489583761137e+03
-2.600097252835768359e+03
-2.744740125805434673e+03
-2.716890325795955505e+03
7.385401764800883484e+02
9.447539510428242693e+02
8.748356233901938594e+02
5.218087971102609117e+02
-1.524208963852247507e+03
2.310930418668146103e+03
1.525367989953844699e+03
-2.944728999642095914e+03
-6.668175277912762795e+03
-9.356911094657332796e+03
-1.079881330964870176e+04
-5.796866053670544716e+03
6.690539142091489566e+02
3.870789409422954463e+02
-6.117440494765700123e+02
-3.559349850703530137e+03
-6.692518264165784785e+03
-4.616019116527752885e+03
-1.442716590001382201e+03
1.357486173927626623e+03
2.255735171577918663e+03
1.225240272482943737e+03
4.472024389097441031e+02
-4.991750177413249503e+02
5.521723910116826772e+01
6.155334026045945848e+02
-1.299066457657706223e+03
-4.268498366864265336e+03
-3.758626689870679456e+03
-2.805156757835048211e+03
-3.241882272900072621e+03
-6.226680675260040516e+03
-9.443373786750169529e+03
-1.039081535958423046e+04
-9.260923408561679025e+03
-1.101353337855629798e+04
-1.385245673257828821e+04
-1.333253369321301034e+04
-1.192859148859233574e+04
-1.172823281529656924e+04
-1.157647183936586407e+04
-1.094911548873390348e+04
-8.227372459234660710e+03
-9.388534554376863525e+03
-1.104752284202418923e+04
-9.337293706251064577e+03
-4.468549827252695650e+03
-2.163304872813433121e+03
-1.870327457017680217e+03
-3.150400003169540923e+03
-5.925066015162702570e+03
-6.858495454526660069e+03
-6.956767714143394187e+03
-5.714624684269046156e+03
-4.183123215547994732e+03
-2.903177744619749774e+03
-2.254360912090959118e+03
-2.979455416810579209e+03
-3.542075449886575370e+03
-2.592635412096511573e+03
-1.540931968884707658e+03
3.289065785237038995e+02
3.096820326706527339e+03
4.665957024823772372e+03
4.925647638485520474e+03
4.715200926148882900e+03
3.951690588641464728e+03
3.665513213031014402e+03
4.252572942764460095e+03
1.727159631035848861e+03
2.183897828343606307e+03
8.051187974077003673e+03
1.051904649616119605e+04
1.065651691579431645e+04
1.090679621015935118e+04
1.382165536172258362e+04
1.586570531456297795e+04
1.610968047385544378e+04
1.759739416757818981e+04
1.696613084563383381e+04
1.569526769470154068e+04
1.369633313257291775e+04
1.047374360947143759e+04
7.918414457382854380e+03
7.913471763000577084e+03
9.018083272155814484e+03
1.070389049389797583e+04
1.139939587217246117e+04
1.167559526201104018e+04
1.061799661459257368e+04
8.842648801524923329e+03
6.297156239333444319e+03
3.319550488982344632e+03
1.371005337608772606e+03
2.832632366316371190e+03
2.656631921438135123e+03
1.208316629207907226e+03
1.014943279151592719e+03
1.154393472373800250e+03
7.063994903454965879e+02
1.698236957511096762e+03
5.079035180789388505e+03
8.467966950151532728e+03
4.881370370473239745e+03
2.676064438990530107e+03
1.196428897593315924e+03
-3.873684260497287823e+02
-8.670563433439755272e+02
1.714736426922010196e+03
6.577794413162913543e+02
-2.139008978998668226e+03
-2.765009688597561308e+03
-2.970940190071991765e+03
-4.990773106375057068e+03
-7.253303992818653569e+03
-7.480957192588432918e+03
-7.077074656968833551e+03
-6.268165968066110509e+03
-6.069196889046554134e+03
-2.784136293663515971e+03
-2.179039790128975710e+03
-2.288907497500667887e+03
-2.242854563028356552e+03
-2.538505420306363703e+03
1.130405930555025861e+03
6.132869492771461410e+03
5.385733201899583037e+03
3.896836884088787883e+03
2.624724441934340120e+03
1.912780146039500323e+03
2.499340049913559596e+03
2.120952060053089554e+03
-5.459064743342871679e+02
-2.091872194788574689e+03
-2.216032352745544358e+03
-2.203667283398839118e+03
-3.693129065069585067e+03
-4.106937658025921337e+03
-2.605306596825017550e+03
-9.375706779149928707e+02
-4.669016482836652244e+02
-7.937670383286576907e+02
-1.109187360774214994e+03
-1.042840035339846963e+03
-5.754711577651513608e+02
-4.460710236958248061e+02
-1.796242539868259428e+03
-3.286836436168487580e+03
-3.192685078624615016e+03
-2.530827473748969169e+03
-2.698354495401355962e+03
-4.148451302343374664e+03
-5.666916292572566817e+03
-7.563444453690156479e+03
-8.757330245123670466e+03
-9.067542005376160887e+03
-9.345709545943931516e+03
-8.985190051273862991e+03
-8.688461709883733420e+03
-8.982751636099170355e+03
-9.190723515771383973e+03
-8.188380443739085422e+03
-6.610786931073545929e+03
-6.154107457520028220e+03
-5.603579396795582397e+03
-5.604828709975849961e+03
-6.395716660359002162e+03
-6.974966935594773531e+03
-7.309766231903967309e+03
-6.569424589878318329e+03
-6.744545208047319647e+03
-7.536371497042629017e+03
-8.655097317828383893e+03
-8.049476862158146105e+03
-6.191244629142834128e+03
-5.408366906368721175e+03
-4.860007269871286553e+03
-4.599997678686403560e+03
-4.111062952839060927e+03
-3.980011958370443153e+03
-2.831620651077041202e+03
-1.043870860523349393e+03
-8.336231097725342352e+02
-2.627947140408013524e+02
1.731694112126264827e+03
2.600132608008581883e+03
2.834567847036742478e+03
2.331238010923538695e+03
2.247950575192169708e+03
1.092175004703312879e+03
2.501749933535688797e+02
6.624019936639026582e+02
1.109906189309073170e+03
1.235544745577321919e+03
2.074406955419727637e+03
3.031237931782344731e+03
4.416902665571380567e+03
6.039753553223340532e+03
6.102609670737471788e+03
6.246958288667555280e+03
6.626602424562316628e+03
7.116566849534567154e+03
8.007079132009241221e+03
8.820130157404480997e+03
9.146413872818287928e+03
9.133944139876623012e+03
8.937381028049159795e+03
7.941635824794025211e+03
6.489462611102142546e+03
6.323685875912856318e+03
5.876678135280050810e+03
5.192236187420298847e+03
4.742323766529661953e+03
2.575453758330578694e+03
1.590995687202065028e+03
2.021829663833514587e+03
2.175386966346709414e+03
1.793229012321085747e+03
1.480751489329226388e+03
-3.830105388868059322e+02
-1.044073272840076470e+03
3.395409621767291810e+03
5.805329594252778406e+03
6.695920113591128029e+03
7.155287510841261792e+03
7.666514645700027359e+03
7.099596965898551389e+03
6.180381494670972643e+03
5.316566128803544416e+03
3.245250188423045984e+03
9.883597693179387988e+02
2.272808662621225267e+03
1.829652711585646557e+03
1.411810942306999095e+03
1.961539170782877591e+03
1.941605918880793979e+03
1.487831295196953306e+03
1.167322471196241167e+03
1.277390855264394531e+03
1.492545510161815400e+03
1.643602907756893956e+03
2.653821867161006139e+03
3.362519533146733920e+03
4.081756622390093071e+03
5.257622411068562542e+03
5.765627817256170601e+03
5.261159787477784448e+03
4.239533810559120866e+03
3.376610589929108301e+03
2.760965538214825756e+03
1.709855288443781319e+03
3.126999859417784364e+02
-1.221367071445208921e+03
-1.980288261985218696e+03
-2.467125085821924131e+03
-3.102224547741479455e+03
-3.550690423307234596e+03
-2.896920707287574714e+03
-2.333840540028697887e+03
-2.514592803258095500e+03
-2.537247914023757858e+03
-1.902758601968216453e+03
-1.802805436109666744e+03
-1.618977357545295035e+03
-5.760817067191165961e+02
-1.141037271272324176e+02
2.096277609822792272e+02
-3.911570310673245103e+02
-1.310190833599234111e+03
-1.675577850892214656e+03
-2.198157284433144014e+03
-3.560103429145924110e+03
-4.409398326134117269e+03
-4.702075864401117542e+03
-4.669682324992287249e+03
-4.916498587130749911e+03
-5.361850127837217769e+03
-5.252566157749403828e+03
-4.323528353494969451e+03
-2.623013479395197919e+03
-1.241079803134582107e+03
-1.639765064835625878e+02
9.817082899651853722e+01
-1.795318155144008188e+02
-2.350975900977248614e+02
6.514186403526599634e+01
2.149550003152947113e+02
-2.947326775464093771e+02
-4.258135068457182797e+02
-2.743823681701987311e+02
-7.467293080597168000e+02
-1.751183452648922184e+03
-2.517608340058070553e+03
-3.857982414792581039e+03
-6.570709467994507577e+03
-7.573725545962588512e+03
-7.199153176978174997e+03
-5.278258446169483250e+03
-6.233143567990540760e+03
-2.494855764170479688e+03
-1.799329778716858527e+03
-2.094648512628536992e+03
3.067796951792180380e+02
-6.404274254892181943e+02
1.327724854926360194e+03
2.343125625937538246e+02
1.604417979487780258e+03
3.516082683664813430e+03
3.397161079203312056e+03
3.372526815399392035e+03
3.048918173297974135e+03
1.133186065256106758e+03
-2.167387187572724940e+02
-8.688586887175769391e+01
-2.857185879451893470e+03
-2.246690424725570210e+03
-7.735241919562962494e+02
8.924083998122613082e+01
3.425353735533833515e+02
1.715293701260521175e+03
2.699557037299133299e+03
2.017406691664948994e+03
2.071873560737631124e+03
4.428028330102471045e+03
5.042826904515321985e+03
6.023201898957907360e+03
5.882415727089072789e+03
7.379231321902429954e+03
7.515221163810219878e+03
7.464534257753884049e+03
6.360313016248671374e+03
4.828518227297247904e+03
3.440951656413898945e+03
2.258658845719608053e+03
7.857708576574588051e+02
-1.357060358185453879e+02
-9.515378508833207434e+02
-1.087601323280149245e+03
-9.766439225194957316e+02
-4.484473005201941191e+02
1.871505766578090686e+02
4.580925632287841154e+02
9.743922137890568820e+02
1.355072366455541442e+03
1.411225902022643368e+03
8.379301170423145777e+02
4.034166706833929652e+02
-1.381049510740543553e+02
-1.606495995594230862e+03
-3.035682501314762703e+03
-4.553714449324657835e+03
-6.441831132264003827e+03
-8.619785322236386492e+03
-1.052117203698489902e+04
-1.184493466010272823e+04
-1.263702018038038295e+04
-1.316424448572280198e+04
-1.351653610806623146e+04
-1.316696069718156104e+04
-1.197865806722288653e+04
-1.035578909674200622e+04
-8.592252754926690614e+03
-7.171934016739954131e+03
-4.711456997523649079e+03
-1.483122550617235902e+03
6.605258704944704959e+02
1.351043805559193515e+03
1.630943956954126406e+03
1.351272016010992502e+03
8.918235369246721120e+02
2.498386662669915381e+02
-2.342789668548576998e+01
-8.699932190610439875e+01
3.251799432625010695e+02
8.715867084273507714e+01
-2.537500990604265212e+02
-4.488764585371488920e+02
4.079142587996577731e+02
1.171754436579255753e+03
1.445754226296965726e+03
2.324025710943948525e+03
3.462324167606898300e+03
4.415533324568761600e+03
5.506161742048092492e+03
5.645336139178088160e+03
5.340139001708991600e+03
5.526632634291652721e+03
5.645775810932029344e+03
5.277746569081957205e+03
5.073748208727874044e+03
4.786775803687558437e+03
3.916803321445690017e+03
2.934899421753187198e+03
1.602240974602379083e+03
1.209773138186372762e+03
1.130339821065369051e+03
6.359633239479423992e+02
1.087685590133522027e+02
5.928910216326182763e+02
1.402393615646078388e+03
2.430292343939440798e+03
3.691574897350471019e+03
4.968305694740854960e+03
5.982687345156867195e+03
6.412792788328901224e+03
6.895470171716598998e+03
6.926726308708895886e+03
6.447539052039965100e+03
5.753075398714981930e+03
5.149300821292498767e+03
4.262244450271578899e+03
2.486862401636174582e+03
-2.019674527683289398e+02
-3.284215434198065395e+03
-3.742876547063245198e+03
-3.653974616818856248e+03
-3.613514231328216738e+03
-3.922494753410911926e+03
-3.736884461117105275e+03
-3.266818419096330672e+03
-2.526287978261717399e+03
-1.562297045435388100e+03
-9.358118505267892715e+02
-2.248041562495910171e+02
4.806355834541290619e+02
9.324951239494452011e+02
2.751632803866073118e+03
5.952067953847226818e+03
6.399781094058511371e+03
5.819768658776449229e+03
5.265818341444810358e+03
3.788721425928212284e+03
2.221511419761874549e+03
1.038154807624019895e+03
-3.374143898471767216e+02
-9.533242787436279286e+02
-1.620604374735541569e+03
-1.564375426486452170e+03
-1.148716563915985944e+03
-2.254240304771720460e+01
8.530831640533829159e+02
1.753051514901795372e+03
2.317364757717081829e+03
2.960061559953870528e+03
3.340220216141200126e+03
3.895782001751111693e+03
3.788697481935345422e+03
3.487877933657197445e+03
2.875203900026194333e+03
1.971576613026840050e+03
1.331938196263838563e+03
2.961558048176503348e+02
-1.445833021491921727e+03
-2.333091059870109802e+03
-2.975709276320905246e+03
-3.729614500939864683e+03
-4.256820522232696021e+03
-4.788318271014473794e+03
-4.877144585155899222e+03
-4.889379844287077503e+03
-5.069031101662529181e+03
-4.944064837258855732e+03
-4.359443396292703255e+03
-3.279192878146804560e+03
-2.658215943729158880e+03
-2.281462981871175998e+03
-2.268054277542742511e+03
-2.680007844629912142e+03
-3.206283751291935459e+03
-3.192901965012550136e+03
-3.523803706613864506e+03
-3.848977001244901658e+03
-4.675537164256939832e+03
-5.448457795687303587e+03
-5.374711525973986681e+03
-5.303390310455301005e+03
-5.486377634471647070e+03
-5.628689943894464704e+03
-5.996554519628349226e+03
-4.713732121225464653e+03
-3.855902914275712646e+03
-3.419292353545713468e+03
-2.637961219389218058e+03
-2.172754838266874685e+03
-1.606595979577677099e+03
-8.404727038517081610e+02
-1.129132731177848427e+03
-8.365548148478069379e+02
-8.299297230959800800e+02
-3.707120468319838437e+03
-5.893169584136136109e+03
-6.370123243698434635e+03
-6.968925436794822417e+03
-7.388478045854046286e+03
-8.199754020351228974e+03
-6.548756389624205440e+03
-7.864465029482163118e+03
-9.444789488902439189e+03
-5.856689114484607671e+03
-6.301110996196908673e+03
-5.206983064795942482e+03
-1.876281203853600573e+03
-1.163898790933762712e+03
1.721368888495626152e+03
3.645651408115682898e+03
2.236999354759482230e+03
3.235494333407540580e+03
1.548237759846997278e+03
1.515303503804354477e+03
2.362800792323123915e+03
3.653734155155715143e+03
3.208158647935344106e+03
3.014081587475485776e+03
3.116645759397001711e+03
2.961847414706554900e+03
2.156695431778524380e+03
1.509311649510935240e+03
9.148076247852160350e+02
-1.004790078879037992e+03
-3.853522021916335802e+02
1.542397372422554724e+02
2.673950707055283601e+03
3.357923361826672135e+03
3.164257221907725125e+03
2.147096619938354706e+03
4.816576913400069316e+03
5.939685996800843895e+03
5.903531220406107423e+03
5.396248877185790661e+03
5.236861815950335767e+03
4.940345546991335141e+03
