-1.367821691547176442e+03
-2.685194680781014995e+03
-2.953879606507383869e+03
-2.845817494062597689e+03
-2.679098119970969037e+03
-2.321847346031860070e+03
-2.099046108773139167e+03
-1.355425101444804795e+03
-7.419366469518434997e+02
7.627893179609468177e+01
1.277046485256214737e+03
1.293457257527221600e+03
1.191572521477197370e+03
1.495344106043295142e+03
1.545745148089044505e+03
1.782673613483593044e+03
1.543061340474313056e+03
9.459430951578700615e+02
6.853486210570597450e+02
5.932271070886135931e+02
4.464688814498734359e+02
9.197894407526743521e+01
-5.836300473797835053e+01
-3.125508869968285808e+02
-7.594776227862743099e+02
-4.001600834642288191e+02
-1.826465387405928027e+02
2.219800584562718200e+02
8.878124324495753399e+02
9.079723555088505691e+02
1.318269324840508489e+03
1.223974513552959479e+03
1.368173972625781289e+03
1.469685056343857241e+03
1.461405591282232990e+03
1.453353000225925598e+03
1.121248903527997982e+03
5.879252265477254014e+02
2.359675095793567152e+02
3.318278442493239595e+02
-4.933532058009728303e+02
-1.093666415947663836e+03
-1.504040680735656224e+03
-1.594597514286299656e+03
-1.624282176332191057e+03
-1.584492212402485620e+03
-1.309456976621224612e+03
-1.049698529840207584e+03
-4.551285160656116204e+02
-1.070963444207557842e+02
3.804204730788684969e+02
9.339403568764084866e+02
8.979770422521437467e+02
1.354502550869168545e+03
1.548959741074068461e+03
1.655832186288084131e+03
1.565016670014121246e+03
1.809952202199274552e+03
2.091247289559674300e+03
1.789734641983819756e+03
9.357410247851582881e+02
1.453544733906761621e+02
-1.985737747864001506e+02
-5.581925926193974874e+02
-4.606736121323397128e+02
-3.903557359207930233e+01
6.227218918930462905e+02
1.346547059292893891e+03
1.708577883811755783e+03
2.138772415838425786e+03
2.686140158883740696e+03
2.702795209738826088e+03
2.372834092316987153e+03
2.277265571359169371e+03
2.624876823701927151e+03
2.487589401536036803e+03
2.611512178186320853e+03
2.464638489700811988e+03
2.196005242953385732e+03
1.565732554254659135e+03
7.777390049581705398e+02
-1.540581341401494910e+02
-1.376704123151331260e+03
-3.349216605224034538e+03
-6.355632661806193937e+03
-7.160969385328014141e+03
-6.717140664767040107e+03
-5.848094452120306414e+03
-5.150855849852225219e+03
-4.621403833008230322e+03
-4.341657950204464214e+03
-4.068596729779247653e+03
-3.789127571841155259e+03
-3.005192160810087444e+03
-3.123829986524599008e+03
-3.027114528929636890e+03
-2.661053650650716008e+03
-1.410658182446257570e+03
-2.070031561195543190e+02
-1.120132196854274014e+02
-2.891508343953703843e+03
-4.567378485817459477e+03
-4.636687116180328303e+03
-4.547563558852536516e+03
-4.082961097396310379e+03
-3.701820944293810044e+03
-3.994192431650988510e+03
-2.924086802005456320e+03
-2.071389997655231127e+03
1.409977335299578044e+03
3.694071113480027634e+03
3.712916655933570382e+03
1.958591424522068564e+03
1.982097431525591674e+03
3.454452426432112134e+03
3.469654668977706933e+03
3.618597767657436179e+03
3.199323310891461915e+03
2.815909100384967587e+03
2.484444936740137564e+03
1.915960086692867435e+03
1.692522881411656499e+03
1.127201564072860037e+03
5.409828229519937395e+02
1.716965780751183672e+02
-1.217131410571884231e+02
9.388576129052974295e+01
8.255704467747617628e+02
1.419457995468484569e+03
1.833541646334359939e+03
2.067652241749170116e+03
2.453862419174639854e+03
2.832315627076834517e+03
2.728128836028109163e+03
2.632279649706526470e+03
2.552797495170006187e+03
2.576678262809664830e+03
2.297979655344444382e+03
2.118694889908211735e+03
1.788883854964761667e+03
1.365503809208682696e+03
8.225219502159644662e+02
2.350347908267745254e+02
-2.819116186038970682e+02
-4.323461553107616169e+02
-5.112251348927342747e+02
-1.304845869284354478e+02
2.179496062852814475e+02
7.040601830823969749e+02
1.337917221533055908e+03
1.186444684407842942e+03
1.394665468395121025e+03
1.328848713485695498e+03
1.303044576270326615e+03
1.005223347851071594e+03
1.087393204900942919e+03
1.017583962424332981e+03
7.189144616161115664e+02
-1.147189612451944498e+02
-2.331978588715215039e+02
-7.506119971057976272e+02
-1.708006096062901634e+03
-2.445431288556996151e+03
-2.787034614780901848e+03
-3.017635980679603563e+03
-3.202428829238707294e+03
-2.908460009757855914e+03
-2.353703269505952449e+03
-1.414157239518454617e+03
-3.108038242301616378e+02
3.613831154378081578e+02
6.974239248225575238e+02
9.313252227970494914e+02
7.610826785126022287e+02
1.141698726638280277e+03
1.686156856408655358e+03
1.766442596504682570e+03
1.340565162777392061e+03
1.139523351852035603e+03
8.583236475839338482e+02
2.559719580494416959e+02
-4.606182086792808832e+02
-1.120479243958241796e+03
-1.162632663077308052e+03
-8.431009970874807777e+02
-1.120928046742784090e+03
-1.219111058655966644e+03
-6.136792830349330643e+02
2.273750291317259382e+02
8.360753269584695317e+02
1.078414597580131613e+03
1.177364921683050625e+03
9.818583974345207253e+02
1.235914944028682157e+03
1.271484195993429694e+03
1.133528936882878725e+03
8.540566300111401006e+02
1.000095575489819566e+03
9.745817793759756569e+02
6.405018155267308657e+02
-3.471487510226705240e+02
-1.013379631631986172e+03
-1.475218882834932401e+03
-2.303716084714094904e+03
-2.649928573845516439e+03
-2.563917798973423942e+03
-2.056684756223835393e+03
-1.628223107514467983e+03
-4.835931504307449700e+02
3.841724410833158458e+02
1.205137717803396981e+03
2.142613827718979564e+02
-7.464924549755544376e+02
-2.646129971907733307e+03
-2.423667890572555280e+03
-7.119061113387576256e+01
4.263030423931437554e+02
4.887933574221195272e+02
6.953035634787232766e+02
7.666943533497845920e+02
2.219265688931559168e+02
-4.149686234125138640e+02
-9.170004461306605208e+02
-1.189115110748112102e+03
-1.367634819840859564e+03
-1.948615152085286354e+03
-1.212099268284864593e+03
-5.458591997038907948e+02
-3.238146623470354939e+02
-4.861394170241388792e+02
-1.226405613304646209e+02
1.115117771647294660e+02
-1.306735728572598987e+02
-2.633399418219963763e+02
5.747905708792117707e+01
6.469108768682008304e+02
8.508680031052597315e+02
8.264508029923532604e+02
9.075478396031925286e+02
8.702896158027124329e+02
4.893199177658210033e+02
-2.271042990823508489e+02
-5.898873855708346809e+02
-8.685071044794927957e+02
-9.476932128575035676e+02
-4.774984697985510707e+02
-2.870430309146851755e+02
-4.411495417003266084e+01
6.012658394442271401e+02
1.057853234152428740e+03
1.786895402590417007e+03
1.788452790737291707e+03
1.383343562861060491e+03
9.975569524068241662e+02
8.919475278374393383e+02
6.956837752505123262e+02
7.038988782044687014e+02
4.913497602480118189e+02
2.422158923574185607e+01
1.204896005388781361e+02
-1.640668397601162951e+02
-1.012223784951955167e+03
-1.737312197316706943e+03
-1.629029624187701529e+03
-1.349553886079870836e+03
-1.006970863495999197e+03
-5.481981594925965737e+02
-1.904055588772957606e+02
1.527219723169747283e+02
5.560734040364094426e+02
1.262623979608944637e+03
1.325381363801646330e+03
1.103346027228390312e+03
1.756605133963758817e+03
2.280189844949205508e+03
1.747004883424597438e+03
1.689022201324056823e+03
1.687268589731569818e+03
1.166771279237279487e+03
1.161561525762374458e+03
8.886357354057321345e+02
5.459939365211470204e+02
-3.304652382248906406e+02
-9.396808631645396872e+02
-1.199497218663720560e+03
-2.099826495629009059e+03
-4.489786872606996440e+03
-5.345191420277294128e+03
-3.085070377969449055e+03
-1.829513726406636351e+03
-1.081571005855525527e+03
-1.353159428592690119e+03
9.136817685527810227e+02
-9.380821858500538610e+02
5.275370378206276882e+02
-2.294836907373149870e+02
-1.168030052203402647e+03
-1.855965803653838066e+03
-8.183414301388966123e+02
-3.551172089827549030e+02
1.489742911864013195e+03
8.772988109553084541e+02
-1.979461720634630410e+03
-1.872634734206387748e+03
6.367931480356553493e+02
-1.204985520415118344e+03
-1.797039377937056088e+03
-7.764249778336782128e+02
4.320995393711161228e+02
-6.425500210916313790e+02
-8.025381714711096492e+02
-2.342718006052812598e+03
-1.073939690515784150e+03
9.077017025167876909e+02
7.290994360296219838e+02
5.941396154562398806e+02
6.690480107158972487e+02
2.723716771349185137e+02
1.836626047237145940e+03
2.083699512819324354e+03
1.553143851563778298e+03
1.034560688622895213e+03
5.795348523498539635e+02
-9.729473610764718217e+01
-1.697124837696532040e+02
-8.625352197959817602e+01
-3.738693376352807718e+02
-6.537165704982849093e+02
-3.465515751765082655e+02
1.388215909505323680e+02
4.894065439884929560e+02
7.802690646746204948e+02
8.434764534415586468e+02
1.083978602337795564e+03
1.123384785339672590e+03
1.395412247932083574e+03
1.702182600597202736e+03
1.774880907043476554e+03
2.013770507521699301e+03
1.865304464587911525e+03
1.454765534004433448e+03
8.080290874724164496e+02
2.494624480775906932e+02
4.127151055825307822e+02
5.735279468001738223e+02
2.530668026716051884e+02
1.497974683934854738e+02
1.913340175020214815e+02
5.028888399323826093e+02
4.854641367373504863e+02
6.115470405044113704e+02
3.166304615648863319e+02
3.471103432789873864e+02
3.587075932978484616e+01
-1.010611107993890130e+02
-5.770281430940374321e+02
-6.094741290903533582e+02
-6.057474327163246741e+00
5.394516905996323430e+02
6.050901843191523994e+02
2.849610371491536398e+02
-1.076048099442794808e+02
-1.088688507282235349e+02
-2.847879018926039407e+02
-4.240818958232131308e+02
-7.569664419569115807e+02
-6.361946163952615052e+02
-2.727569471929315910e+02
5.381925600065993649e+02
1.319196356132418714e+03
1.679723128374280577e+03
1.758747766971549026e+03
1.827909948304692762e+03
2.135427877687834552e+03
2.139148322600589381e+03
2.094701882740803285e+03
1.934302326470870867e+03
2.104308871816039300e+03
1.710856586756057368e+03
1.427409173915892325e+03
1.153109814112492131e+03
5.625392374452658260e+02
7.698690638582934298e+01
-2.353851938462635189e+02
-1.540755010735639416e+02
-1.978349815582491544e+02
-5.357937895817460685e+02
1.360551153296721054e+02
6.819237912684020557e+02
1.351092436755815697e+03
1.707903548723960739e+03
1.755024618969320500e+03
1.682368757104853330e+03
1.484204191329711193e+03
9.213546494397116930e+02
8.569166118227039988e+02
1.097237234141617364e+03
9.633903055520722774e+02
1.117048658075992989e+03
9.108713297641058944e+02
5.707507802367348404e+02
2.250957946537191674e+02
-2.871367512437435039e+02
-5.819343543082724182e+02
-7.532030574893203720e+02
-1.244147242740202728e+03
-2.549725703403180432e+03
-4.784555892190021041e+03
-6.450334307628289025e+03
-5.478064849086497816e+03
-4.686004010965353700e+03
-4.915184344546370085e+03
-4.826705997910506085e+03
-4.347722551536090577e+03
-4.737239543662869437e+03
-4.736762516030969891e+03
-4.610383326278450113e+03
-4.856036807125823543e+03
-4.870457123113603302e+03
-3.788359342790867231e+03
-4.398677685030762063e+02
4.828393864792833483e+02
1.358158343692672929e+02
-2.955668503207691060e+02
-6.399973191168293170e+02
-1.137452026441432281e+03
-1.027898046471562566e+03
-6.064305997744794468e+02
-2.641759758689349269e+02
1.848521695844098360e+02
7.874787427419553296e+02
9.996411932135196139e+02
1.116624905093477992e+03
1.108312208190095589e+03
1.153201297245560454e+03
1.337654905257494647e+03
1.420282237392820207e+03
1.065985006191857792e+03
1.056665475562000893e+03
7.818751837320568256e+02
8.251678078466757142e+02
7.411510655718913654e+01
-5.193394945251034187e+02
-9.618828887649284525e+02
-1.223266983928924219e+03
-1.139365947688606184e+03
-9.590878144877583509e+02
-7.285145879618777371e+02
-3.975882878349939915e+02
2.196517711923831939e+01
4.649270357835931691e+02
4.510605769385864505e+02
6.912775109960126940e+01
1.331793730181215949e+02
1.943931663174318203e+01
-2.157424036930505622e+02
-1.952514069923390139e+02
-1.299602488561678513e+02
-4.190475782041320940e+02
-3.347533116366126364e+02
-5.301530895075957233e+02
-4.830002027073850286e+02
-2.911801761805011211e+02
-1.134802742604881018e+02
-2.020312852499917824e+02
-6.692893890618890964e+02
-4.893505575312914289e+02
-2.909271035117672000e+02
5.899099684635774565e+01
3.122352668278703618e+02
7.909081586482046760e+02
7.763702191076180270e+02
1.057024279047311666e+03
1.061443201706243144e+03
1.610288472085559533e+03
1.465479168257017591e+03
1.188053079183104273e+03
1.536162399924749707e+03
1.657952375771857760e+03
1.487988480083983859e+03
1.196280965254249395e+03
2.238839586069961456e+02
-2.813324574472083441e+03
-3.311529244282254240e+03
-2.465624837386804302e+03
-2.814447452334179616e+03
-6.280441246243213982e+02
1.737997070829936774e+02
9.240720383492866858e+02
4.894554171430975771e+02
-1.640850417206698637e+02
6.475521582118409469e+02
6.248430144385768159e+01
7.386602731554531829e+02
4.366663330037042101e+02
2.175131500154006517e+03
-6.866898226797967482e+02
-1.797774758179938317e+02
2.435076133519622090e+03
-1.032920318798771405e+03
-1.038526565213384174e+03
-8.975716726802567109e+02
-2.251508141503263232e+03
-1.147443974667384282e+03
1.803943302994521787e+02
-1.835082498977446676e+03
-9.992456422150416984e+02
1.799191699480938496e+03
2.251309960748299545e+03
2.244448572168956616e+03
3.885423691815085476e+02
6.893898026424241152e+02
3.018650177445393183e+03
1.896445834812264820e+03
2.208249326779542116e+03
3.301156580103860051e+03
1.949635477556218802e+03
3.683631482176110239e+03
1.401513343554417133e+03
2.880058665886895596e+03
2.952079219641289001e+03
1.845077552859083198e+03
2.068844488206881579e+03
5.657573460457113015e+02
2.042808258067913130e+03
2.116565998069401303e+03
2.277865707322964226e+03
2.286600131557662280e+03
2.475736122167162648e+03
3.368266845167479460e+03
4.357307007905228602e+03
4.395570015358646742e+03
4.066900343865586819e+03
3.822497452059619718e+03
3.468697531584455646e+03
3.497624270869774136e+03
3.162251328585159627e+03
2.248325690508623666e+03
3.072756437630468440e+02
-1.583024928226144311e+03
-1.637467495511388051e+03
-1.591856522411697199e+02
-8.401044075387255816e+02
1.333957585242016876e+03
2.971932219562750561e+03
3.848346115275036937e+03
4.038384515882973574e+03
5.192074178317898259e+03
5.907850829403848365e+03
5.696548082610171150e+03
4.676238792330935212e+03
2.858355984724921200e+03
2.428130907906083394e+03
2.477428041489025873e+03
1.600951465123294838e+03
8.748310835694686602e+02
5.150623400008842054e+02
7.448621264203297869e+02
7.073891106138787563e+02
-6.854397174162326110e+02
-2.491982175059227302e+03
-1.742381522764993861e+03
-2.185269240620370510e+03
-3.580935212098597276e+03
-1.857226746257723335e+03
-1.723297545147129540e+03
-3.618994253859157652e+03
-4.392261879477360708e+03
-3.511879619417160029e+03
-4.266790154380203603e+03
-6.694183663862688263e+03
-1.171498760319963185e+04
-1.591324104322238964e+04
-1.443069759482088193e+04
-5.336260905187861681e+03
4.999950832705684661e+03
1.159279381494388144e+04
1.471744910951589554e+04
1.306180467300193413e+04
5.944832452198821557e+03
3.858894093926336666e+01
-1.171674814620946563e+03
-1.987638477707610946e+03
-5.252286886043565573e+03
-6.605912099048199707e+03
-6.097367561952942197e+03
-5.343442119870699571e+03
-2.985145224433388648e+03
4.406436167675217916e+02
4.381876139142518696e+03
3.365265731389664325e+03
-2.408337829768360734e+03
-8.777459966742406323e+03
-1.486467632211477030e+04
-1.948461338187486399e+04
-1.962619505993559142e+04
-1.711384646444220562e+04
-1.772959583372331326e+04
-2.602513354783547038e+04
-4.077262004965841334e+04
-4.854279229914179450e+04
-4.159535117217011430e+04
-2.579667191590759830e+04
-1.109180172421955285e+04
-3.393772352506668540e+03
-7.867463978679969841e+03
-5.560478472932170007e+03
4.027289204123483159e+03
8.113791716000471752e+03
1.244509714375409931e+04
2.014644718937063953e+04
2.586792867867643872e+04
2.614664277751292320e+04
1.349258323663604642e+04
1.373718738925990010e+03
2.839109946420752749e+03
6.792866002386538639e+03
2.902188574440316188e+03
-5.696819983765774850e+03
-1.944015564016539656e+03
9.093742909706857972e+03
5.878457222829808416e+03
-5.462733658797224052e+03
-5.566882594511902425e+03
4.788959388505646530e+03
9.484706809901461384e+03
9.841367861637016176e+03
1.215820008424276602e+04
8.706520446264072234e+03
7.906439635459595593e+03
1.900496661133987072e+04
2.828393945264254216e+04
2.910038100399735049e+04
2.066164390740872113e+04
1.226187226871813255e+04
7.913998792232053347e+03
4.364904265832155943e+03
8.618476175720099491e+03
1.864083457656393512e+04
2.011712940009819067e+04
1.563546833602920742e+04
1.371186785899686765e+04
9.360280743620198336e+03
3.760799562192481062e+03
-1.146075547692449135e+02
-9.449620178001126760e+02
2.473735361829900285e+03
1.924581132496414511e+03
-1.672254845264228038e+02
1.081333417813626056e+03
-4.147509717285868192e+02
-1.041432188440166783e+03
2.869241661319899322e+03
8.690290757516044323e+03
1.102393191444678632e+04
8.665045047743855321e+03
3.745549659402128782e+03
3.497404134090177649e+03
2.344482596885169642e+03
1.335960596596207552e+03
1.191926933535950866e+03
-2.063229979426288992e+03
-5.729424679317521623e+03
-6.093093060274336494e+03
-2.083268880306661231e+03
2.370195349769637687e+03
4.000117077491282089e+03
4.869495185409548867e+03
4.502550578058762767e+03
1.128305374116010853e+03
-4.166565945244481554e+03
-5.074263399430814388e+03
-7.504769170102429598e+03
-1.085990706131352817e+04
-1.265355459338092442e+04
-1.141478342340390009e+04
-1.198692169095884492e+04
-1.598323104041124679e+04
-2.109434538722300567e+04
-2.240852731513584877e+04
-1.981392954154304971e+04
-1.613062188769315071e+04
-1.103467836238982636e+04
-6.690220901923684323e+03
-3.765312400683175383e+03
-7.980705721927209879e+02
-5.755771863842199991e+02
-1.139876257011645066e+03
2.088113587578172428e+03
3.536321501863056710e+03
-3.225313020239393609e+03
-7.122763157915122974e+03
-3.980146587622636616e+03
-2.454399652277019413e+03
-2.834481097092719665e+03
4.133380413802450676e+03
6.702115164841713522e+03
3.680554249374621122e+03
-2.283515444941036094e+03
-5.807940689145578290e+03
-6.391589521744335798e+03
-5.344660163782107702e+03
-3.195347011689057581e+03
-2.407883694897677287e+03
-1.121246291580897378e+03
3.809762912675366351e+03
7.121941805050775656e+03
7.361113861825539061e+03
3.578244584743821633e+03
-1.192647700982268361e+03
-4.007661643549757173e+03
-3.051811049295219163e+03
-8.730740343493903310e+02
2.594374315030803700e+03
4.333444716578026600e+03
2.895188600044741634e+03
-9.204550736978412715e+02
-2.059571337230227982e+03
-1.567240030761514390e+03
2.660495872200356189e+03
6.198584331174023646e+03
5.072017954915604605e+03
2.131677411221724469e+03
2.727504764286210047e+03
1.523563779954465190e+03
-2.803207174781736285e+03
-8.440955458459391593e+03
-8.251698364409967326e+03
8.605373462143178358e+02
4.836692810477019520e+03
4.769740390507710799e+03
3.898740898966679197e+03
3.438769099042847301e+03
4.567718348700730530e+03
8.205513900989668400e+03
6.844178612165025697e+03
5.744667273197585928e+03
5.550948883525519705e+03
3.333041845523249322e+03
-3.198634921835134151e+02
-2.962903626369086851e+03
-3.926260101413564371e+03
-5.866887807358320060e+03
-4.115972574838112450e+03
-1.563396241150598371e+03
-2.943251422252660632e+03
-4.624516565697464102e+03
-4.178060564486115254e+03
-7.949028135679695879e+02
3.200061002894622106e+03
2.754718128527159024e+03
-2.465801446748756916e+03
-4.918655048322407310e+03
-7.562455927088288263e+03
-7.763438042313902770e+03
-3.934820880463330923e+03
-9.405161601360996428e+03
-1.304468262246768973e+04
-8.194354121024018241e+03
-2.847039962562669189e+03
1.802061461850342539e+03
8.104969047086977298e+03
1.179699333609181849e+04
7.587881502462922981e+03
3.592428794604135874e+03
3.893814384824425815e+03
4.246053983552715181e+03
3.002305270027275583e+03
-2.790503926531501293e+03
-7.330574740424764059e+03
-5.559567488753877115e+03
-1.228375910823189315e+03
-1.841028105299076742e+03
-2.879403235807840701e+03
1.451233107034570367e+03
4.786258556410029996e+03
8.327384442100166780e+03
6.964689649504185581e+03
3.373366681376308406e+03
5.628372952617785813e+03
9.557899688565292308e+03
9.491734251482708714e+03
8.243042703516510301e+03
6.614813635577796049e+03
4.414112316781383015e+03
2.094984944267857827e+03
2.819378857636094835e+03
4.993212172430741589e+02
-5.140086562470710305e+03
-8.226774106716333335e+03
-6.396730626255600328e+03
-2.038842234645414010e+03
4.604943888206688825e+03
1.003765662192186937e+04
9.359370728567659171e+03
6.662286045393273525e+03
5.652482560457438922e+03
3.407797946146842150e+03
1.416146316234164260e+03
-8.346219119256623742e+00
-9.238451107927201065e+02
-4.688297456105843594e+03
-6.902695839249309756e+03
-9.164004036285146867e+03
-6.295295155780290770e+03
-1.339489297331764647e+03
1.967487182005219211e+03
2.082799966600779953e+03
3.614606856992101257e+03
3.518896823394224612e+03
-6.042833742928347647e+02
-1.728897084853073920e+03
-3.466916012424060682e+03
-3.973183715745366271e+02
3.465808838600940362e+03
4.303455278103377168e+03
3.216735422029069014e+03
2.924697950238441535e+03
3.119199249863460864e+03
1.343415500458097256e+02
3.632192619940813074e+02
-1.176414716924437016e+03
-3.698449481877888047e+03
-5.537708948788451380e+03
-6.794264657918710327e+03
-4.706228825010561195e+03
-3.835486523866714379e+03
-4.233885076829843456e+03
-5.768118744117065944e+03
-4.367172638808790907e+03
-2.214445506498915165e+03
7.493950034921589349e+02
6.860160059963319554e+02
1.756527147716437184e+03
7.271393205540269946e+02
-1.764768687832128307e+03
-5.314707895964636919e+03
-6.404719546024438387e+03
-3.697150232167346985e+03
-1.211007234594848569e+03
-3.199025654258601662e+03
-3.802334205133327941e+03
-2.030125535321680900e+03
-8.024660932852724500e+02
1.680493464914238984e+03
3.051624092124800427e+03
-1.222529044361489241e+02
-7.696866750352031886e+03
-1.132277164833193638e+04
-1.077987555518154477e+04
-5.906068161589842930e+03
6.808755912581995062e+02
1.428831585998467517e+03
4.812432402345374953e+02
2.269327020066197747e+03
1.009707332035476270e+03
2.894041382164540209e+03
8.693903004707703076e+03
9.002152206635097173e+03
7.768816686406637018e+03
4.704632286902107808e+03
1.674880760689172575e+03
2.089432886062182661e+03
3.163785662084437263e+03
2.148179811947572034e+03
9.566499883896754000e+02
1.331130884386750267e+03
2.027346413689455176e+03
2.750354991084248013e+03
2.847627795904438244e+03
2.151268491341652407e+03
1.068481480853529774e+03
-3.756529291223790210e+02
-9.454301661823703853e+02
-1.546218591195704903e+03
-9.725352879809762499e+02
4.866644314132375939e+02
1.284673178708071418e+03
2.993677184030869284e+03
3.866161923297060184e+03
3.559236592363972704e+03
1.554087543101619985e+03
-1.766870240945513842e+03
-3.635340410085666008e+03
-2.668741954225817608e+03
-7.616370398959558088e+02
1.224781755531967747e+03
1.814112549852576990e+02
-1.814876154154190544e+03
-2.495156302376308304e+02
3.462340323700155295e+03
5.831898994431863684e+03
6.438008652258083202e+03
4.780688713032528540e+03
3.216325894126871844e+03
2.692323172822477318e+03
3.054166696658176534e+03
3.599314888455498931e+03
2.918623541429190936e+03
2.483350948983216767e+03
2.167704258388975177e+03
1.015647543573182816e+03
-6.149995769794142007e+02
-1.940574507708870442e+03
-1.412814448467416014e+03
-9.626075820669502718e+02
-1.013198196725898470e+03
-1.208366953073013974e+03
-1.940209448529379642e+03
-2.428139392902457530e+03
-4.402962265785719183e+02
5.845372723788378835e+02
2.286639329852347089e+02
-1.130623768881473779e+03
-4.895611204487117902e+03
-7.529211147006083593e+03
-9.502430294393268923e+03
-6.197342193627270717e+03
-9.706584640551909615e+02
-1.631264629505264793e+03
-4.363321469941673968e+03
-5.404196169622900925e+03
-6.219081758910265307e+03
-6.895826869322763741e+03
-5.224423745323509138e+03
-1.949805777660239755e+03
-1.487684203937444181e+03
-4.323818688560076225e+03
-6.842444705811999484e+03
-6.809307458540024527e+03
-4.822268363243398198e+03
-2.442399900781062115e+03
-2.106952777325970601e+03
-1.568803285479648139e+03
3.122355836682277186e+03
4.727711709582759795e+03
5.134018124539736164e+03
5.430921872657531821e+03
5.261272474157591205e+03
4.737897262298854912e+03
4.441762210338320983e+03
3.223944854906631008e+03
1.557418565897259896e+03
-4.363412767579233531e+01
-3.661982536628854064e+02
-1.005635896730340164e+03
-1.967841466272330308e+03
-1.856120860610137697e+03
-2.348562281292476200e+03
-1.208627333913965003e+03
1.277818968642653317e+03
2.432997509488421201e+03
3.531294611000150780e+03
3.778866771320323551e+03
9.091455929096791806e+02
3.915398358527992286e+02
2.667941440612388760e+03
3.797063824175135778e+03
3.763722808145281306e+03
1.405897377309483545e+03
-2.203141901455397544e+02
1.747053183299206694e+03
2.491712902919522548e+03
1.956700426625089676e+03
1.222241528628930837e+03
9.717324994195072350e+02
5.563758848026515125e+02
4.900841749624798922e+02
1.414626532277502747e+03
1.158973999587784647e+03
4.210547229913435103e+02
6.119142072299950996e+02
1.174696671308574423e+03
1.114643655435892924e+03
8.967158566404191333e+02
9.438255710782702863e+02
1.016620015001705269e+03
1.430036674473084076e+03
3.814298255761204359e+02
-4.680671131343930256e+02
9.331817569928293210e+01
7.938485246998271805e+02
1.051226209330946517e+02
-1.086155111891891920e+02
-7.447665370822703608e+02
-1.563028399055706814e+03
-2.846160031516327308e+03
-2.473014788768726703e+03
-1.208594408808836306e+03
-9.679343903462172420e+02
-6.640850526140757211e+02
2.218027002192030466e+02
6.821431441595625529e+02
9.079451791571802914e+02
7.701659373682040268e+02
6.749562514254834014e+02
1.160517939056390333e+03
9.319422557393942270e+02
1.951801876160964184e+02
-1.596922842050358895e+02
1.039932225244009913e+02
-6.688881989200283442e+02
-2.635082154911621274e+03
-3.673515082833553606e+03
-3.633341761234409660e+03
-3.669807615758949851e+03
-4.006027462963249945e+03
-3.700721918618654399e+03
-3.199425934759521169e+03
-2.446210336495299998e+03
-1.572948193551465465e+03
-9.657559219796308980e+02
-9.629959255012371386e+02
-1.012925240449416492e+03
-6.806120781537780431e+02
-3.897307709479337632e+02
-4.214384672035137100e+02
1.562232057697667642e+02
1.245002009590456964e+03
1.711980662436589455e+03
1.771805875851336850e+03
1.932554877572257965e+03
1.524939436715200145e+03
5.079738309523951330e+02
-6.018881347788529723e+01
-1.487130816560895028e+03
-2.586847469960834587e+03
-1.414832557196737980e+03
3.086385414072396429e+02
9.859350184716478225e+02
1.040115681575462304e+03
1.475770457200712372e+03
1.457918229394950231e+03
6.864952676151074229e+02
4.718577051485278275e+02
4.121898530054494358e+02
4.320556667504210964e+02
1.862635384272197143e+02
3.860533943894999993e+02
4.951414226815290931e+01
-1.412792595773999551e+02
-3.922470015351204609e+01
-2.852816014091105785e+02
-3.877055387522868273e+02
-5.451898900538324142e+02
-7.623835836620088457e+02
-1.461446890145096631e+03
-1.486819921717753687e+03
-9.227685714975240217e+02
-7.925576753653696187e+02
-9.272343699125597141e+02
-2.973433887518880283e+02
6.762889259791614904e+02
8.815965303726729871e+02
1.396654254768277269e+03
1.114386548118860219e+03
1.363990654493724378e+03
1.989437806632024376e+03
1.975959210866810736e+03
1.425462006102927262e+03
5.007024976517857908e+02
-1.824250607428919011e+02
-1.414161248422248491e+03
-2.119716497255360991e+03
-2.468611504269485522e+03
-2.221300578374281940e+03
-1.076518068150092859e+03
-5.709183775325075203e+02
1.273917644214322422e+02
1.338197186323946426e+03
2.037234918201358596e+03
2.289493146706326570e+03
2.330094777105479352e+03
1.963993225740557364e+03
1.994470801319376505e+03
2.091306780971287026e+03
2.131474992808799016e+03
2.084097416185683414e+03
2.046307425950322568e+03
1.945928306529234987e+03
1.617182364752961348e+03
1.444888923179048334e+03
1.069648372090342036e+03
4.648544598581860896e+02
1.542555440144766408e+02
-3.619743017793663853e+02
-6.418711436586950185e+02
-3.448906086890372080e+02
-3.729558009100038021e+02
-4.569638580140814383e+02
6.089196457114885419e+01
1.074896567312824800e+03
2.058310087598204973e+03
2.254178680874996644e+03
1.873240018026623147e+03
1.615148574648794010e+03
1.985847068587875128e+03
2.323613095329956195e+03
2.217327456048484237e+03
1.870778515900287175e+03
1.812942597045343064e+03
2.232674995587257854e+03
2.129005737305336424e+03
1.002259791300553616e+03
-1.051356351173309065e+02
-2.410387934644710640e+03
-4.999826960005567344e+03
-4.581901172326104643e+03
-9.868940724963566709e+02
-6.324488810461239154e+02
2.236078654900476010e+02
9.160416501121111423e+02
1.228100671422806045e+03
6.625467245775063247e+02
6.639461900002351058e+02
6.846950435109202999e+02
8.369001048824388818e+02
1.090686113024280530e+03
1.275164735244965868e+03
2.036086210464587111e+03
2.451370697489195663e+03
-3.448577111207840744e+02
-3.062581903067326039e+03
-4.721925229841846885e+03
-6.078944881312408143e+03
-6.110636581676913920e+03
-6.475968752874784514e+03
-6.897872476019048008e+03
-6.789327617380669835e+03
-7.074306326461429308e+03
-6.880794691392366076e+03
-6.541752832748381479e+03
-6.458284392263595691e+03
-5.906459198309748899e+03
-2.619221914337667840e+03
-2.468719929205806238e+03
-3.955918791322993457e+03
-4.035729102768808843e+03
-1.984019790996658003e+03
1.054335112875605546e+03
1.672289868632566368e+03
2.333614509254750828e+03
2.947239062864725838e+03
2.862125167457290445e+03
1.964498807270067573e+03
9.564729132331724486e+02
3.497930268114375281e+02
1.222226917038780556e+02
3.687943716933746714e+02
7.956324520263743807e+02
1.477952473516738110e+03
2.422814999117596926e+03
2.776187888270127132e+03
2.693028555022327055e+03
2.417327599773710972e+03
2.141220794548446520e+03
1.929666626498661117e+03
1.730634211584020250e+03
1.679215847810477499e+03
1.991585743044134915e+03
2.226745127761387721e+03
2.073520327151602032e+03
2.039907201286119971e+03
2.104021987860550325e+03
1.506817113669665787e+03
3.713151742953062353e+02
5.105227619874124230e+02
1.088247053839146020e+03
8.475526344351590069e+02
7.445405196880818721e+02
9.352903353016263281e+02
1.185055448764170933e+03
1.215877777003874826e+03
9.549992177451894122e+02
7.520134055127158490e+02
6.376665367167190652e+02
1.301398195356443466e+03
2.327411279188406297e+03
2.585600911034877754e+03
2.781928126391576825e+03
2.576468113189926044e+03
1.849126143263562199e+03
1.037622779062060772e+03
-8.674661494759924096e+01
-1.004709428834522100e+03
-7.552360243687863885e+02
-3.724441382767674327e+02
4.219235865296436572e+01
2.657382360351961665e+02
3.903829339114447521e+02
4.551913137308739010e+02
6.590683013727413027e+02
7.270300869693453478e+02
3.449730499624066056e+02
-1.300884780120086646e+02
-3.390841300568654333e+02
-5.859717296925135770e+02
-3.728195561248310241e+02
3.394615413140084001e+02
1.155947016324907054e+03
