1.598679853659344019e+02
-7.273563337659380750e+02
-1.537070630855796480e+03
-1.847338215964797655e+03
-1.380083670580867874e+03
-1.071355804783913754e+03
-6.998713738258680905e+02
-2.638102797559553778e+02
2.364391621265578181e+01
3.239705871699910631e+02
8.786411262103983972e+02
1.095748582562596539e+03
1.004882080357946734e+03
1.305642446611589321e+03
1.858718029067234284e+03
2.602304732448480081e+03
3.195349041161529840e+03
3.561924817664417333e+03
3.222970450748876829e+03
3.162388051159116912e+03
2.257157969710347970e+03
1.446163739832959436e+03
9.164627582660250482e+02
5.631436720234013364e+02
4.281813175566514929e+02
7.655667844315790660e+01
6.543301740078713920e+02
1.223495304064069614e+03
1.640084515375749561e+03
1.799968346576745489e+03
1.542112411007753508e+03
1.656707916833900299e+03
1.616703375487430094e+03
1.207903091521844090e+03
1.208379365817137796e+03
1.138079078157127469e+03
1.125060174250861792e+03
1.153518630915010135e+03
1.110400867924103750e+03
4.905140944049323366e+02
3.998291934370769809e+02
2.541395193490155080e+01
-5.237447224461205906e+02
-6.027686835713234359e+02
-6.226355388068616321e+02
-3.873936531088243669e+02
-5.940511909425434851e+02
-1.331444027182576747e+03
-4.153525918035810719e+03
-4.474333553632431176e+03
-1.544889235017056308e+03
-1.728291739941454352e+03
-3.252600002080768263e+03
-5.394820700254794247e+03
-5.010899044541990406e+03
-4.889833614110561939e+03
-3.986605922199071301e+03
-4.067253137506596431e+03
-4.932631129715587122e+03
-4.530784484398928726e+03
-5.416773229589037328e+03
-6.184673705735060139e+03
-6.504690279475467833e+03
-4.798614501693611601e+03
-3.424431948890626700e+03
-4.989209654770631460e+03
-1.243955405795097477e+03
3.283100876810107707e+02
1.873615370245515123e+03
2.790986076578556549e+03
2.920394703501756794e+03
2.988869045098997503e+03
3.000411353549969135e+03
3.162016136344959250e+03
3.092633841971155562e+03
2.403224053172420554e+03
1.718861469035254459e+03
1.586584942464982078e+03
1.312381360309998399e+03
8.811647501094917061e+02
4.269266053145159390e+02
5.797133847562959090e+02
4.694723144357267870e+02
1.472003624753226632e+02
1.248831761771690481e+02
2.855003569776476411e+02
6.809204212631154007e+01
7.837113530585863828e+02
1.686383670807607587e+03
1.657134892202175251e+03
1.198982725382827994e+03
1.321875119911007232e+03
1.415830376565134202e+03
1.389920373877006568e+03
1.656105001302121991e+03
1.712387360720548713e+03
1.209798888993868559e+03
9.813884204177377342e+02
8.581530560876725531e+02
6.020652997726110698e+02
1.650747063129135768e+02
-2.728109832366135379e+02
-3.816349108230172078e+02
-2.414084123323642643e+02
-2.441404945478237209e+02
1.831965848038750835e+02
1.166234987360322783e+01
4.319165488639529116e+01
2.528806405284297796e+02
5.307924001687565578e+02
6.298498448526862603e+02
4.390769700264460198e+02
1.095334628607239864e+02
1.482195774461847577e+02
3.302916087303753443e+02
9.918869709688551666e+02
1.370934709280873676e+03
9.733697860866207066e+02
3.619841037621640112e+02
-2.331857020604421109e+02
-3.769965078336557553e+02
-5.183842547837098209e+02
-4.824270848134480616e+02
-6.752000953356631499e+02
-1.118748366470049405e+03
-7.850558731456607120e+02
-5.970605031217463647e+02
1.302983272730836575e+02
2.570028925334879091e+02
5.600679847892776024e+02
9.065094033803233060e+02
1.054403648499104747e+03
1.248780177521034830e+03
9.916371224672415110e+02
1.087942164505124083e+03
1.489708124456564292e+03
1.664962136007378149e+03
1.307766549777287310e+03
7.980777638710272868e+02
5.539285878388650417e+02
8.729526953017273172e+01
-1.748269797668295098e+02
-1.356386395665741418e+01
-5.008074580486402283e+01
-3.352859025711846925e+02
-7.551379426519613389e+02
-8.855812282602189498e+02
-5.935259119919613795e+02
-3.129452733639678286e+02
8.731535331648422016e+02
1.915794697554159484e+03
1.579961896438325539e+03
8.976279601829619423e+02
5.728095328191948283e+02
6.305028140289551857e+02
9.336725059304669685e+02
8.534209101766509775e+02
4.607581567673647669e+02
3.896349480881383442e+02
-4.729607864857626964e+02
-1.134008343671146804e+03
-6.985501734214151384e+02
-6.776786870433796821e+02
-1.581385871060749650e+03
-1.990702543850033408e+03
-1.870668064544637446e+03
-1.871302166926319615e+03
-1.690548844165670744e+03
-9.633370366329933177e+02
-4.216334111490617147e+02
-4.343264417267965882e+01
-1.808238180036755978e+02
-2.247557335895562858e+02
6.597639337441358975e+02
1.267676810977728110e+03
1.283938754535407497e+03
8.375127813510406440e+02
4.484478400058604279e+02
2.737548125299131243e+02
2.744027388297160428e+02
1.454141060022531633e+02
-3.542046476556086532e+02
-7.064985907299485461e+02
-1.002570352858562956e+03
-1.330453650354148294e+03
-8.981012083906865655e+02
-4.955810284601500371e+02
2.821991416786436275e+02
1.156366242248797562e+03
1.378990956741052287e+03
1.202012044452194687e+03
1.133451981519455558e+03
1.264307747135076852e+03
1.513626044675716003e+03
1.609392721953631508e+03
1.627513605221660555e+03
1.495923795937477962e+03
1.413685770714733280e+03
1.342789909321009418e+03
9.571466708463141231e+02
6.167610263687274710e+02
2.885115418970962082e+02
-5.047691648319273554e+02
-6.561192604558345920e+02
-7.775929443668909471e+02
-5.172046008458951292e+02
-3.069153482820926229e+02
1.915036256108243720e+02
9.019613815607691549e+02
9.874499912450309012e+02
7.718582501422300766e+02
1.198145606459875353e+03
1.092268502852716438e+03
9.752245840662520777e+02
1.081953484799738135e+03
1.401401382664733546e+03
1.440637876525938509e+03
1.434649839898932896e+03
1.338368318698466737e+03
1.111751088006625196e+03
9.655180400514447001e+02
3.326367003519009131e+02
-8.886894087047907931e+01
-5.779468367103695527e+02
-6.195568139662575504e+02
-9.488400114799682115e+02
-1.818898050071088619e+03
-1.860782356454364844e+03
-1.106411292388426546e+03
-3.478709151397676180e+01
2.170399845328548167e+02
-8.595108346631229779e+01
-8.618159605147951652e+02
-3.952498944572054825e+03
-3.166050193938970096e+03
-1.799401114545738437e+03
1.193483895875565850e+03
1.981585740832030069e+03
1.513844076865684883e+03
-6.277816292193459731e+02
6.496465767536761859e+02
-7.649012552903873257e+02
-8.939602120245761796e+01
-1.839834415214425007e+03
-1.385275046133929209e+03
1.291655903692287950e+02
-2.316452300892286075e+03
-1.569026026145562810e+03
1.202548587491649869e+03
5.763156291346987246e+02
6.841593889820659342e+02
4.971431282833211185e+02
7.933478347608365766e+02
1.977726358485680066e+03
1.817194747058493022e+03
1.900725352765858588e+03
8.314107793035581153e+02
-4.087236504660404535e+02
-5.606667222743712955e+02
-2.697431661749462364e+03
-1.206034625608296665e+03
-3.145548209424989182e+03
-8.209024379940893823e+02
-1.281065288006355331e+03
-1.689168238853123285e+03
-6.751625832026231819e+02
-2.817938688129636375e+03
-2.799596475494916831e+03
9.288839553393704307e+01
-1.003400854091029686e+02
-7.573533808775125635e+02
-9.231294526387607675e+02
6.843758963019614612e+02
1.701300490383976012e+03
1.713744842354787579e+03
1.398719532192315683e+03
1.650880074881174551e+03
1.687258867459713883e+03
1.154037614301186522e+03
1.203168443964776770e+03
9.075870251989548478e+02
2.714361699389127125e+02
-1.162374697532342793e+02
-1.774395689373187679e+02
1.548963083145163750e+02
2.058326612816698855e+02
2.035181912308025574e+02
4.539215635513355096e+02
1.139948405629658964e+03
1.825682578917921319e+03
2.214114311182041092e+03
2.021311700677905719e+03
1.919332509877155644e+03
1.854406806470996116e+03
1.757336307119610410e+03
1.444013270086069497e+03
1.266722701528923835e+03
1.252283748440557929e+03
1.016665289287055657e+03
6.608001691277580676e+02
3.326304757822512670e+02
-7.662049067427581406e+01
-6.859962302377257402e+02
-9.825975221413842746e+02
-1.197136839183255461e+03
-1.536666484011089096e+03
-1.433238465167756203e+03
-9.675708336643364191e+02
-7.193927709825263719e+02
-4.883139564764624652e+02
-1.734100803250709646e+02
1.857809932839957980e+02
-2.528348392890767471e+01
-2.108554310754466314e+03
-1.131222063461124890e+03
2.644324999133518759e+02
6.566837692896650651e+02
5.878264846501322154e+02
-1.685388845950827545e+03
-5.311641184072396982e+02
2.133490848396839965e+02
-2.228778304721542156e+02
-5.944288082276335672e+02
-6.096454600495279692e+02
-5.884334060773443298e+02
-6.747448290208258186e+02
-6.372307391476240355e+02
-3.291822952586067004e+02
9.536779310534303988e+01
6.981175254534613259e+02
1.004094808763479932e+03
8.578599702157213187e+02
1.211708737364368744e+03
1.682920203675845414e+03
1.703154261011229664e+03
1.279404670322496941e+03
7.606773491392345932e+02
8.255532161667591708e+02
4.982588416524956756e+02
-9.127262958637521706e+01
-4.747043642854137602e+02
-1.093214095224309858e+03
-1.369553601525652311e+03
-1.517830502930853982e+03
-1.543470498307148546e+03
-1.377729530196495944e+03
-1.129902098743254555e+03
-7.823888695827158699e+02
5.183279264838318312e+01
1.077530897050009116e+03
1.441425556320558826e+03
1.341106099437230569e+03
1.172702529897949262e+03
1.311645061142171471e+03
1.459117523734861379e+03
1.209098020209051811e+03
1.044170137174986394e+03
8.041600903696506748e+02
6.715500803169010169e+02
4.832375247796090889e+02
4.998080220888808611e+01
-1.477009018688374056e+02
-4.752781607621560767e+00
-4.386314664125308127e+02
-4.812478645583116190e+02
-3.879219209899814018e+02
-3.988212946754628661e+02
8.193794340150463995e+01
4.431383227238885638e+02
7.167361327607350177e+02
1.258039895477713571e+03
1.431484415209901954e+03
5.592336701098503227e+02
-5.597076553961532142e+01
7.087056984629142562e+02
3.238479757590572490e+02
-1.283868558388788905e+01
1.619890149054430495e+01
1.913649922777616155e+02
1.560725339093948492e+02
-3.081933287971351660e+02
-7.077512276548692398e+02
-1.034265267037358399e+03
-1.330302468049551408e+03
-1.636733175115222821e+03
-1.631185058040768126e+03
-1.480939681896439652e+03
-9.849482611057477470e+02
-1.954772214544600502e+02
4.444760221027538591e+02
7.229371974542760881e+02
8.310932454060556438e+02
1.029110283201657012e+03
1.548953401466510286e+03
1.414893133905832201e+03
1.519112721836511128e+03
1.606757566748613272e+03
1.504489306530638032e+03
1.465093518933491623e+03
1.085327291562770142e+03
7.622557504730100391e+02
2.622361446972450949e+02
-1.875065052650058135e+02
-5.072436451051215727e+02
-5.000996034475140846e+02
-2.435824957365514081e+02
-4.711754071024173385e+01
2.119464650903389611e+02
3.395021890997629725e+02
9.248534543937494163e+02
1.207760697698537342e+03
9.521147769799209755e+02
7.385957433290798235e+02
4.899761416419202646e+02
4.293505745294554572e+02
4.637244602700891960e+02
3.079718404455950349e+02
4.078038046577349292e+02
3.381830415426740046e+02
3.286774242368173873e+02
4.244226505613183775e+01
-3.871583551384965745e+02
-9.191123593448355678e+02
-1.044731758296784392e+03
-9.151375399975282789e+02
-7.154099284110460530e+02
-1.353413135763080959e+02
2.911675138894691486e+02
6.368111212689362901e+02
1.044479947807222743e+03
1.261278120036197606e+03
1.230324066216272740e+03
1.286860418852034400e+03
1.002953014118132273e+03
8.915097794493414085e+02
8.716425156851205429e+02
8.396001107486024466e+02
6.224077236474083747e+02
5.927872082163531786e+02
4.755043708913307796e+02
2.465021342977381664e+02
2.658041750725966494e+02
-5.554117086430528616e+02
-2.096084530328937944e+03
-4.467428601377348059e+03
-6.878522890722126249e+03
-7.287050659116534007e+03
-7.025624294384710993e+03
-6.498419751720422937e+03
-5.823495107176091551e+03
-4.413787652937044186e+03
-4.180388049810039774e+03
-4.312404452580995894e+03
-3.947865056058450136e+03
-3.747507172487569278e+03
-3.607134992265645906e+03
-3.835767158344782274e+03
-4.325590854301303807e+03
-2.473771940136028206e+03
1.678944762928108503e+02
1.923097391631527557e+02
-1.523568252343855647e+03
-4.593690682885106071e+03
-4.474018864219310672e+03
-3.585720116605504700e+03
-2.727963346939754956e+03
-2.830672562420777922e+03
-2.751744855851507509e+03
-2.701415652868398411e+03
-2.322566091135856368e+03
-1.922780701023795700e+03
-1.934982225142221978e+03
-1.695315298639588718e+03
-1.791116340923955249e+03
-1.959520564696074189e+03
2.406079098994314052e+02
1.987073008812529906e+03
2.377848165783490458e+03
1.944839246295543944e+03
2.466042089641192888e+03
3.332737554180077950e+03
3.432016903609734982e+03
3.266911779823631605e+03
2.908326715514010630e+03
3.639960148144616142e+03
3.895914611170083845e+03
4.121158101804540820e+03
4.010568036901085179e+03
3.493075916148461602e+03
3.770573228231479334e+03
3.531200083687420829e+03
3.780038756709750942e+03
4.590072719691878774e+03
4.999655869622763930e+03
5.060900070513216633e+03
5.185547715856004288e+03
4.898002962251798635e+03
4.371652984039279545e+03
4.048538508955052748e+03
4.278478206889803005e+03
4.166647831954257526e+03
2.698292361200853065e+03
1.292889875480899263e+03
4.813990618164863804e+02
4.338565176304350643e+02
1.162360527123360953e+03
8.726210104751346535e+02
1.167964726254640709e+03
2.370946775621937832e+03
3.705373428916961075e+03
4.172698976685698653e+03
3.906204983914419245e+03
4.153452975068618798e+03
4.417196281550030108e+03
4.542320867576205274e+03
4.265797444895299122e+03
3.989101559983315383e+03
3.377883423365864473e+03
3.441532180954166506e+03
4.048447338660528203e+03
2.949944283523534978e+03
2.016830723887815793e+03
2.346971335050069229e+03
1.524238440369843374e+03
3.236592325455421815e+02
3.177514495850418825e+02
-5.159415487960200153e+02
-1.123458752454193473e+03
-1.129807631951257690e+03
6.357388441981696587e+02
4.016216441954501988e+03
7.491546215690609642e+03
6.911876843971836934e+03
5.238223433958499299e+03
5.304413683494524776e+03
4.505140870840355092e+03
2.270408624765344939e+03
1.322256174030555485e+03
1.115721018492842660e+02
-8.014297115934676867e+02
-1.213782565957807719e+03
-1.234713455348693060e+03
3.449991547259710956e+02
1.061377074539126170e+03
6.232154238372496593e+02
7.413302419107407104e+02
-1.323445242375889279e+02
-2.477055280675160702e+02
-3.061567608603870738e+01
3.324888940781025212e+03
4.442783213734602214e+03
3.857085747179978171e+03
6.190850867118550923e+03
6.712138648926012138e+03
6.195049011987812264e+03
3.841456260286049201e+03
1.365327960916294270e+00
-2.028083264454953223e+03
-5.394885944198153993e+03
-1.221606879216242487e+04
-1.808351403375859445e+04
-1.513206961201414197e+04
-1.009973170860177197e+04
-1.044051005427649579e+04
-1.044736691853900811e+04
-6.870421128869236782e+03
-4.944790122233677721e+03
-8.074375431890348409e+03
-5.918878928614671167e+03
-1.608955373222818480e+03
-7.235770615675670570e+01
-3.511622013411012631e+03
-2.777910046937816787e+03
7.708862611108090732e+02
1.406951358237189197e+03
-5.622023281212328811e+02
-2.991841451236883586e+03
-6.680000010672578355e+03
-8.945619444887808640e+03
-1.072344841414101211e+04
-1.357212537092311868e+04
-1.639550901203552348e+04
-1.553077985756276212e+04
-1.974040325094254877e+04
-2.604920567925051000e+04
-2.430076107400303226e+04
-2.169498873267121962e+04
-2.532187815581427276e+04
-2.675640017583771987e+04
-2.493439400489731634e+04
-2.729371203154469185e+04
-3.088832557026779250e+04
-2.113803233442500641e+04
-3.980200063122652665e+01
1.678617735763874953e+04
2.288707514485658612e+04
2.103104290292385485e+04
1.659434630963325981e+04
1.502230935048466745e+04
2.606902427293311848e+04
3.572034976761246071e+04
3.061715161119423647e+04
1.907351861082898540e+04
1.266753691489987614e+04
5.548312096302734972e+03
-6.956081084030342936e+03
-1.258360106770878338e+04
-1.071207135176723932e+04
-6.411385510373321267e+03
-9.800463528569687696e+03
-1.113810772823296611e+04
1.855765657876656860e+03
1.269818308035756309e+04
2.433025688741073100e+04
3.217019804570110864e+04
2.687798178042370637e+04
1.717170847948280061e+04
1.247349279042034323e+04
8.080249011740111200e+03
1.008199958450836857e+04
1.456793118790988228e+04
1.628811004724485610e+04
1.657664371285387097e+04
1.545353796284966120e+04
1.076464074739190073e+04
4.063229862487170976e+03
5.216757084041422559e+02
2.760908831366571576e+03
9.018919645990898061e+03
1.344382822706095612e+04
1.614979558216317491e+04
1.341791902847097481e+04
5.577988837725069061e+03
4.155976260125097724e+03
8.429941590884263860e+03
5.678885910415974649e+03
-5.682188861917883514e+03
-1.073025444418275765e+04
-1.144927111134365805e+04
-6.061238467070280421e+03
3.680835369913173508e+03
6.607023467998465094e+03
6.615391045159642090e+03
7.581894120960382679e+03
4.807445759971181360e+03
1.362055523015737890e+03
-3.297316994529568092e+03
-6.286719067069238008e+03
-7.399085330186040665e+03
-9.671419947642187253e+03
-9.424786143642002571e+03
-6.858152846796512677e+03
-1.310537701123097804e+03
4.290549740828401468e+02
-4.663763792245782724e+02
-4.893888795503944493e+03
-1.009151254043739391e+04
-1.213923111438626074e+04
-1.198905701853451319e+04
-1.583001710028474554e+04
-2.247316472264405093e+04
-2.412856945989189626e+04
-1.686928438336016916e+04
-1.272737343746286933e+04
-1.070392925664892209e+04
-4.400953319337031644e+03
2.894519199938969223e+02
4.989252325564429157e+03
6.542462935952376938e+03
4.618020141545955084e+03
2.886861721851175389e+03
7.979059701025411186e+02
-5.085816616263142350e+03
-2.490350221567967765e+03
1.318185576871943113e+03
-7.623332771703782100e+02
-2.623048245846654481e+03
4.620113981048989444e+02
5.002786197232806444e+03
5.982181071995198181e+03
5.512111709611738661e+03
4.279483718027448049e+03
5.517179298527528772e+03
8.347097320406135623e+03
6.759211354447547819e+03
2.936380459203647661e+03
4.545639532742159190e+02
-1.381330715479201444e+03
-1.044360531068235787e+03
-5.016174372574664062e+02
-1.484152687637451436e+03
-1.209022111763928251e+03
2.766742228240274471e+03
7.947099308892861700e+03
9.893943121991547741e+03
8.861185303017977276e+03
6.493748272247090426e+03
3.473502208961654105e+03
2.897381193878328759e+03
2.978372380907398110e+03
3.565191385546027050e+02
-4.053317512497208554e+03
-5.904282833132899214e+03
-3.238511467464079942e+03
-2.463911154113954126e+03
-2.235564709425244018e+03
-9.575557368691861484e+02
-8.821222219407060265e+02
-2.569238821933785403e+03
-5.486914742984743498e+03
-5.486251779450407412e+03
-2.685301154546468752e+03
2.079168969319106282e+02
1.139369258441250622e+03
-1.739628315432844090e+02
4.766315566598170790e+02
5.190996741697526886e+02
2.552240461311373565e+01
6.668584388628726174e+02
2.215115353187955861e+03
2.345848622579979747e+03
6.080580012335896072e+02
-9.620922567770367095e+02
-1.675562116595184762e+03
-5.137451590153338657e+03
-8.275836587885085464e+03
-6.074861702321684788e+03
-1.578565847216338398e+03
2.734048360194617999e+03
3.436969474275324501e+03
2.662237958833989524e+03
3.923872923391164022e+03
2.867654747835786566e+03
1.550630971951614356e+03
-1.814987217625967787e+03
-5.759328431077618916e+03
-6.536560587814207793e+03
-5.322837026914108719e+03
-3.185182384669182284e+03
-2.103366877129417844e+03
-3.799549681395137213e+03
-2.905831836637676588e+03
-9.891393127509535361e+02
-4.425287442740523147e+02
-7.649702448592242945e+02
-2.860418653035331772e+03
-6.121912652979033737e+03
-4.371364193336254175e+03
-6.387530906797560419e+02
-2.085130604929932360e+03
-3.567491123596701073e+03
-1.002076562289411049e+04
-1.410496815636418251e+04
-9.213099114645729060e+03
-4.634070746797662650e+03
1.725151452298017148e+03
1.051156995878609087e+04
1.405222171845389676e+04
1.341622217179332620e+04
8.218578982553122842e+03
6.330358678622213120e+03
9.106525966931661969e+03
5.748334205582167669e+03
7.871772887906708092e+03
4.592714363073374443e+03
-1.112807368493292188e+03
2.562699732576089104e+02
5.650903659848224379e+03
7.318125031917096749e+03
5.224955891873677501e+03
1.105463589055156490e+03
-2.842251680901987129e+03
-2.791097800161715895e+03
-3.040022637377162937e+03
-8.419019719471083363e+02
-1.117743457290619062e+03
1.039448582443844316e+03
1.698864257256360588e+03
3.047528614334931717e+03
-1.465836371038245147e+02
-1.019315383656888571e+03
-4.858598865013648719e+03
-4.323480934704472929e+03
-4.254836804346678946e+03
-3.235619644104770941e+03
-3.103817250525000418e+03
-2.126546530211925074e+03
-2.492910327652509295e+03
-6.848926286531306005e+02
3.039840059741434288e+03
5.638425110959729864e+03
4.236822938802265526e+03
3.513177996723979504e+03
3.133711232535860290e+03
8.354217028933971960e+02
1.480379056207726762e+03
2.452620581819715426e+03
1.140169908827019981e+03
2.695056540280979334e+03
5.218100815658787724e+03
6.009358542748138461e+03
5.134948972069204501e+03
3.349862896288646425e+03
2.444256499539721972e+03
2.677086431385635024e+03
2.490339883636116156e+03
1.836832912837908452e+03
1.100698707041247417e+03
4.930749399701547304e+02
4.907913706774435809e+02
1.910021927551784756e+03
1.357913052512987178e+03
1.946397997584734583e+02
3.574419516962696548e+02
5.030085557575149124e+01
-1.527688180784839233e+03
-2.066266096841332455e+03
-9.843432540614770687e+02
-2.604152311803745761e+02
4.703627332305700293e+02
1.914402801822141555e+03
1.290892171879547959e+03
-1.860681731788451998e+03
-5.045591995131850126e+03
-5.399391594925828031e+03
-2.187283720082515629e+03
2.344560599125773479e+03
2.865303048074793423e+03
1.156368974194815564e+03
-1.245517640002951794e+03
-3.072634044881810951e+03
-1.741771832270939740e+03
-1.172703289006694149e+03
-2.139354008406883622e+03
-4.909507736082129668e+03
-5.953501893011637549e+03
-2.737246720422465842e+03
2.466483847837465419e+03
5.331922556955576511e+03
1.187592564658236370e+03
-2.451254953210972417e+03
-1.853414560347496035e+03
-7.545005119642802356e+02
-6.226866244324662603e+02
-1.786512772388196254e+03
-1.607156928216778169e+03
-2.328961835965927492e+02
2.255414778613790361e+02
1.929226795965356132e+03
3.031017677670370176e+03
9.646684378557564514e+02
-1.050929193968936943e+03
-3.233123003801896630e+03
-3.422339434324572267e+03
-6.563322106845237158e+02
3.237735773970689479e+03
4.996780348805786161e+03
4.124732830676317462e+03
3.254617604851428950e+03
2.260025560072732333e+03
1.433711577633552224e+03
9.028441979539657041e+02
2.602737919392271237e+01
-3.621020066853660069e+02
-1.093073832633249140e+03
-2.281218716463270084e+03
-1.842998879533884747e+03
-1.250538516459583434e+03
-1.816109371557591430e+03
-2.092818305278730804e+03
-6.919674237798961940e+02
-3.484835364706981977e+02
3.225897268112651091e+02
1.401721667867954920e+03
6.297064751794711128e+02
-7.224488414593806738e+02
-1.473229546783868727e+03
-2.112910564365376558e+03
-2.181384530031889426e+03
-3.255585238209990621e+03
-7.214422637888849749e+03
-9.207556772649910272e+03
-7.237715926605512323e+03
-6.135073000565344955e+03
-5.981065643075721709e+03
-6.099072544308070974e+03
-4.536106981573484518e+03
-1.201650624188966958e+02
6.551568443572174374e+02
6.293811009694475160e+02
1.352151351863563150e+03
2.044871398808443018e+03
2.338027088938812994e+03
2.198704740676719211e+03
2.222427705574540596e+03
1.951836036274351500e+03
1.180431008804559042e+03
9.557003893515692425e+02
1.791956917633758621e+03
2.321390867182593411e+03
2.166910099571600313e+03
2.628773394167814331e+03
2.706072499018348481e+03
1.895974489207675106e+03
1.772446524329756357e+03
1.841357634944117535e+03
1.656790005932878330e+03
1.401540748051266291e+03
1.336408864964873146e+03
1.497007830175140498e+03
1.804633508399650054e+03
1.797513374628754718e+03
1.310963815826209611e+03
1.346141220282331687e+03
1.385807573505390337e+03
1.503813182853203216e+03
1.493482405326318258e+03
1.412120511569523842e+03
1.516369779829630716e+03
1.406441470418635390e+03
7.654202755530178592e+02
5.764066428360735017e+02
2.370269969493191411e+02
-1.127122054991726543e+02
-1.208921210713860006e+02
-2.243210184367750060e+02
-4.886811191652150228e+02
-9.439777678089534447e+02
-2.326773316759810939e+01
1.275842428233820328e+03
2.508773299870723349e+03
3.144397999597528724e+03
3.018161268128271331e+03
3.160094587076939661e+03
3.314792009238100036e+03
2.989119957999358576e+03
2.847301715666867949e+03
2.737429881265780296e+03
2.169608211659100562e+03
1.682652201916230069e+03
1.830419510013403851e+03
1.162272268570982988e+03
1.078494292052423134e+03
6.780636006276412218e+02
2.589441159833374400e+02
-3.420340044048006121e+02
-1.111918482891784151e+03
-1.607577871589073766e+03
-1.449053371304479015e+03
-6.776772291823007208e+02
-2.965707397692917766e+02
2.684711884750482227e+02
9.316108290298260499e+02
8.891864286157937158e+02
1.303466082760032350e+03
1.749083068996575321e+03
2.971011330899510085e+03
2.146598100663215519e+03
-6.629498679560856544e+02
-3.269779259363953770e+03
-3.405274244822983292e+03
-3.254263661626036992e+03
-2.832592096041403238e+03
-3.557369367243924444e+03
-4.176609164159432112e+03
-4.498163224515787988e+03
-4.813827946631294253e+03
-5.109772064357656745e+03
-4.861233873866605791e+03
-4.537233535850296903e+03
-3.892580264833868569e+03
-3.539059960537515963e+03
-1.407774154310164704e+03
7.894591167263998841e+02
1.593694732469296241e+03
1.268822702031840436e+03
-1.730256091286607898e+03
-3.868427219337977021e+03
-3.305510327963931104e+03
-2.317504999393714115e+03
-1.678425566019607686e+03
-1.383012904137524174e+03
-2.129280549314590644e+03
-3.011582639596174886e+03
-4.136126026556422403e+03
-5.009981211315061955e+03
-5.517876038976574819e+03
-5.660652577926979575e+03
-5.739419604138804971e+03
-4.782011375473702174e+03
-1.399367394969574661e+03
3.767251192790513983e+02
1.525437393856966082e+03
1.537612685977634101e+03
5.861607249391819323e+02
2.531119898480128541e+03
2.477588409799156125e+03
2.262775839392148100e+03
2.681596244772381851e+03
2.389990275461027068e+03
2.008758879864503569e+03
1.505847900952934424e+03
1.011563535131582626e+03
9.010383851483680928e+02
1.406929512877947900e+03
1.872170225587352434e+03
2.012327896595258380e+03
2.582433689851981399e+03
2.886855592162396533e+03
2.417292039115344778e+03
2.314924617167702763e+03
2.381741512231703837e+03
2.689602945159710998e+03
2.799188462854514000e+03
2.364806389949105323e+03
1.045831152237647757e+03
1.376415856954377830e+02
-1.364117115263816004e+03
8.615412052296077263e+02
1.926010349654636912e+03
1.510937669685554511e+03
2.141621281785275642e+03
3.800472718378986428e+03
3.965005735440304306e+03
3.168505751722474088e+03
2.362424247043239120e+03
1.706247157163063548e+03
1.516004845099551858e+03
1.414617051215717538e+03
1.228002462104933102e+03
1.556126539003907055e+03
1.813793641573531659e+03
2.059510056578063086e+03
2.396722432604927235e+03
2.332524141768010850e+03
2.485187853845380232e+03
2.856767713108208682e+03
2.856303677987207266e+03
2.616748144658900856e+03
2.335997432947656762e+03
1.973973128197210144e+03
1.555692289851265514e+03
8.601427363482314377e+02
3.312511195678272315e+02
2.653543512637217532e+02
1.029602005703578129e+02
-4.600888528070499319e+02
-7.906763435804363098e+02
-9.496947898011865163e+02
-7.421497530848342876e+02
-2.030086969149434140e+02
2.128932877445081715e+02
6.653152626714614826e+02
1.344254247888990903e+03
2.440876153046759100e+03
2.699950448351137311e+03
2.637363722371677341e+03
2.462236897920638057e+03
2.132651343674363943e+03
2.218642644423172896e+03
1.892186309174857342e+03
1.172176620331368667e+03
1.172603909482056679e+03
7.514934669415996495e+02
-1.342128063228976771e+02
-6.664836879281523352e+02
-9.193275576525350061e+02
-7.458704216429583767e+02
-9.240339324057721342e+02
-6.648150677765336241e+02
2.357168247635617604e+02
1.566391311195337721e+02
-1.889929946592867509e+03
-4.254019763340213103e+03
-5.104794111479808635e+03
-5.035245940050936952e+03
-4.451383345108741196e+03
-6.922965977544128009e+02
1.226117258250403438e+03
-1.431960322805311534e+03
-4.337498811304159062e+03
-5.238685972077703809e+03
-5.521807104337053715e+03
-5.850045558016518953e+03
-6.037068622301158939e+03
-5.976770949019040927e+03
-6.093061638286655580e+03
-5.856987867725309115e+03
-5.344901969404747433e+03
-4.700770320297698163e+03
-2.912408294649990694e+03
-4.664618736544699459e+03
-5.456420805344552718e+03
-4.826164214567239469e+03
-1.084163680275529487e+03
1.054642093861528110e+03
1.629796438278258393e+03
1.881354712841135552e+03
2.236015741544403681e+03
2.333729683665135326e+03
2.511562242419997347e+03
2.467610327465408318e+03
2.750773791669294042e+03
2.900928459092597222e+03
2.496110131325477141e+03
2.060218284778575708e+03
1.439265187633876621e+03
3.584550468550755227e+02
8.783816709301572700e+01
-9.522217948317651448e+00
-1.376933512199973393e+02
-2.481967213811175910e+01
3.468916458370192686e+02
1.596500713338894229e+03
2.277173134548957023e+03
2.171928262836341673e+03
1.871817842058622091e+03
1.439861961853383718e+03
1.041038657152978885e+03
7.983968070680832625e+02
1.246934457856896643e+03
1.219686174759939377e+03
9.616649170685233230e+02
9.727663804565099781e+02
9.700320885342431438e+02
9.895172345260435804e+02
1.225206467363839238e+03
1.468945326462147023e+03
1.408778127791760880e+03
1.126671255553730134e+03
1.556653584481397274e+03
1.502863187762616008e+03
1.584347099122808459e+03
1.790029691139735178e+03
1.694855329842086576e+03
1.469942476336560048e+03
1.006622252590811058e+03
6.972078136280745184e+02
5.445130449560380157e+02
1.831482905802675418e+02
2.817772457448715784e+01
4.576923203867844450e+02
6.066493531094299669e+02
1.889541146961626055e+02
-4.496171997038181303e+02
-8.337910724651139844e+02
-3.873039903451140731e+02
-1.390441189468530183e+03
-3.141471822074487591e+03
-1.166386261298334375e+03
-5.681050556433553993e+02
-6.516267783072956945e+02
-3.993752219476750298e+01
8.100635940509804414e+02
8.833553349130480683e+02
1.098803613784857134e+03
1.468455036310852392e+03
1.392339355628904741e+03
1.133409519952909477e+03
8.587016887151604578e+02
1.019272626802523519e+03
1.091132081785818400e+03
8.232740129970858334e+02
3.386831544175163344e+02
9.531134310285945332e+01
-1.047836909108008967e+03
-1.253726249180118202e+03
-9.094088686422865067e+02
-5.018862926108990337e+02
1.718535747636088047e+02
2.617813042247246926e+02
6.299814660289138146e+02
9.844893174350569325e+02
1.399275603703405295e+03
1.417385085921459904e+03
1.175798274398045123e+03
5.045042794804788286e+02
-1.924986924232416072e+02
-2.892385782724934984e+02
-4.126879578671253057e+02
-3.018433654570582121e+02
-5.762062979423379971e+00
9.835082470603390448e+02
1.819915511081158002e+03
1.039502227904792335e+03
2.321979861641040657e+02
-1.590368915951967210e+02
-2.242649232816851850e+02
-3.254141948863742186e+02
-4.284516766762396855e+02
-7.894430077405812654e+02
-5.323865162052135247e+02
-3.262153600291768498e+02
-4.779716008344923921e+02
-4.886385775670927956e+02
-6.101948197929277740e+02
-6.676413774010018187e+02
-5.499905062627575489e+02
1.357994523091830956e+02
1.035656292628871597e+03
