3.448624809620172528e+03
2.964936224042388403e+03
2.862076328805989306e+03
3.618860947611703068e+03
4.205330631560114853e+03
4.272418794544095363e+03
4.602780480944669762e+03
5.037033782292408432e+03
4.916893232457457998e+03
4.976938266465055676e+03
4.520893100339060766e+03
3.996740829862413648e+03
3.536101320834225135e+03
2.759628456633688529e+03
2.039128188105878735e+03
1.332348876117712280e+03
1.378711337251002362e+02
-8.301550577565980120e+02
-2.402730760266052584e+03
-3.636257356691520272e+03
-3.487999621664684582e+03
-3.607009769617815437e+03
-5.020418034354658630e+03
-7.693746494096356400e+03
-1.031710833701531556e+04
-1.184926975438749287e+04
-1.256535965298178053e+04
-1.299252641992597273e+04
-1.352396410107969132e+04
-1.479594375240076079e+04
-1.653246179448467228e+04
-1.752542231276500388e+04
-1.574684703273184277e+04
-1.621258841742644472e+04
-2.181651323848846005e+04
-2.382743054066062905e+04
-2.095396855124049398e+04
-2.000642527110009542e+04
-1.786837531447520814e+04
-1.347553975233575693e+04
-9.399996116484453523e+03
-6.454884455240753596e+03
-4.251092715627481084e+03
-2.720419747316692337e+03
-2.058835256933833534e+03
-1.664140585789159104e+03
-1.223889865494490323e+03
-7.940582778956838865e+02
-5.365399867932940197e+02
-6.262785716549601602e+02
-1.853154479887230536e+03
-1.568986606097483673e+03
-1.051734071253172942e+03
-7.952421170291680710e+02
-4.433492955605090629e+02
-1.215779857842114097e+03
-2.296215855886578538e+03
-3.988428754958204991e+03
-4.598222664540421647e+03
-4.201466587377422002e+03
-3.403916589054798806e+03
-2.424259018359101901e+03
-1.253203712467732203e+03
-2.344794593754880196e+01
1.418354760572959094e+03
2.874530560182506633e+03
3.862451428824182130e+03
4.574335845216577582e+03
5.785628179968573022e+03
7.111679682432193658e+03
7.530818522100356859e+03
7.726424749341634197e+03
7.423918919107082729e+03
7.493657092816637487e+03
7.414916949981447942e+03
6.028124528180127527e+03
4.110644411754934481e+03
4.228862047785106370e+03
4.645070687176529646e+03
5.376681932674318887e+03
5.266200844449883334e+03
4.397101077679511945e+03
5.026871128319839045e+03
6.377806656779079276e+03
6.453216148905789851e+03
7.124474299139172217e+03
8.008930992027762841e+03
8.218024279076531457e+03
8.441316768696615327e+03
8.806597995599629940e+03
9.671290385003831034e+03
9.042540889642232287e+03
6.534730203950474788e+03
4.326063571633856554e+03
4.031978681349590715e+03
4.480713623655984520e+03
3.575603049193741299e+03
1.673216820125253889e+03
2.759253578583002309e+02
-5.729700269884461932e+02
-2.221326310682454732e+03
-2.775654534296602833e+03
-2.852663071566963026e+03
-2.861316847707499164e+03
-2.653212955211317421e+03
-1.434527860777607657e+03
3.271440667391445913e+02
1.988810194343240255e+03
2.504675918632510275e+03
2.021225521369857233e+03
1.581833868689229348e+03
1.018591558657312135e+03
1.045865973224382287e+03
1.334060440655130606e+03
4.814037296590489063e+02
-9.769540877090593085e+02
-2.361765288026740109e+03
-2.988604530984177927e+03
-4.119240339670195681e+03
-4.218454514055838445e+03
-2.489255789009257569e+03
2.697533249097667749e+02
2.075654171969511935e+03
2.667236460581161737e+03
2.812618191867885344e+03
2.334831261443371204e+03
1.555356293912889896e+03
9.058146373094531327e+02
9.552649757683262806e+02
1.525935823765175655e+03
1.771927940221722793e+03
1.950039502375971779e+03
2.352333792997579621e+03
3.520881823924275523e+03
4.074868467586925362e+03
4.189523993699365747e+03
4.185843736652042935e+03
3.995705954809090599e+03
3.114064302689795113e+03
2.365082705407946833e+03
3.120866763825472390e+03
3.350355067629838231e+03
2.639521811901217916e+03
2.265319123992272125e+03
2.047751900271432987e+03
2.519978513272626969e+03
3.262977888662671376e+03
3.684637030645994400e+03
3.893923800279036641e+03
4.600793860406348358e+03
4.050129995120472813e+03
3.283873447086983560e+03
3.251179588363854691e+03
3.387060519176102844e+03
2.633338233030367974e+03
2.411681386209720131e+03
1.322875611257542005e+03
-3.823360813045483724e+02
-1.812252012811517943e+03
-2.413914402497557603e+03
-2.045476443966941360e+03
-1.153081335891229401e+03
-1.240738568725132154e+03
-1.524479482545195197e+03
-1.590730204926563601e+03
-1.906442715400311499e+03
-2.070728624891284653e+03
-1.979734714029326369e+03
-1.313947724268836737e+03
-8.027823986225798762e+02
-6.914261879303702472e+02
-1.267911446176727623e+03
-2.490207240066793474e+03
-3.523456000999396565e+03
-3.916992672262147153e+03
-4.784110908583022137e+03
-5.074036148548165329e+03
-6.487889373596189216e+03
-7.641863485668771318e+03
-7.358511903833928955e+03
-7.549212960337002187e+03
-7.817277731399218283e+03
-6.935792269019721971e+03
-5.491036046046136107e+03
-3.201509912937794979e+03
-1.740187292549125004e+03
-1.018059012698910692e+03
2.854479797727001937e+02
1.059124647187568598e+03
2.699621575907072497e+02
-3.184104890494893780e+01
-6.575279352723522663e+01
-2.951284034168564290e+02
1.338974525034949465e+02
-2.561283754468800566e+02
-8.845743586612568379e+02
-1.640570028283887268e+03
-2.403444811292845770e+03
-3.798444278917710108e+03
-5.998851546485743711e+03
-6.505885013175006861e+03
-6.156746317262619414e+03
-5.585891341663228559e+03
-5.017697870670238444e+03
-4.177317842153021957e+03
-2.886077062826117526e+03
-1.327107582741870829e+03
3.693131211950747570e+02
1.586982083592465415e+03
2.054696815038289060e+03
2.589139634872734405e+03
3.497026406972534915e+03
3.971156395924117078e+03
4.015270378610308853e+03
1.852157797896522879e+03
-6.422963165279970781e+02
-2.968487486834129868e+03
-3.865662353443879056e+03
-5.156254860362137151e+03
-6.013413536688945896e+03
-4.878065841594904668e+03
-2.988405164052159762e+03
-2.646850929474098848e+03
9.631242233580389893e+02
5.096315812239838124e+03
5.601638099183193845e+03
5.783831440105877846e+03
6.129801129957722878e+03
5.142371163391089794e+03
2.581359673808115531e+03
1.702552057983248460e+03
4.912827108692480579e+03
6.779064770562319609e+03
6.152081640525748298e+03
1.974742976924842878e+03
-1.315108677672798876e+03
-2.131528980187129036e+03
-2.581815027766101139e+03
-1.164106015567373106e+03
-6.135029675104947273e+02
-7.862665694141202266e+02
-5.114902888744586562e+02
1.397262699602572127e+02
2.234285353955546270e+03
3.035140640423468994e+03
2.656313970077658269e+03
3.366704924099470190e+03
4.670226889194749674e+03
5.091783184525831530e+03
4.735242589743010285e+03
4.714699334347014883e+03
4.971039095647819522e+03
4.077137295086575705e+03
2.388951299466058572e+03
1.945027847997180857e+02
-1.068076457919652967e+03
-3.197817424450221097e+03
-5.096644396617748498e+03
-5.569585774798565581e+03
-5.226585514642632916e+03
-4.967659857189841205e+03
-3.693788830893644899e+03
-2.479953128482954526e+03
-3.960783232992777698e+02
1.467070883968863882e+03
2.671615539055304907e+03
3.491490898469226067e+03
3.971708625482885964e+03
3.757395266821275072e+03
3.635772081830059960e+03
4.148031548302315059e+03
3.858202112629972817e+03
2.598270002928146823e+03
2.056240039678370522e+03
1.900146991199926561e+03
1.098124565981736396e+03
2.393434174327774144e+02
7.968164393371995402e+02
1.636704250240400370e+03
1.583160504774746641e+03
1.006380297627150185e+03
1.082528712519289456e+03
9.928084570304489489e+02
-1.615537677241253789e+02
4.588016085861724491e+00
5.794438993976071970e+02
4.984003486509699883e+02
1.244667713126978697e+03
1.711121067739182081e+03
1.507589995102627654e+03
1.295363138108700241e+03
1.791044435846044962e+03
2.334792792383822871e+03
2.224188254890583721e+03
3.081288526261843799e+03
2.585097387930831701e+03
1.426008460419202947e+03
-2.547958769930351863e+00
-1.335682884337281621e+03
-2.708756358988655393e+03
-3.650904257136525757e+03
-4.855754951465251906e+03
-4.972990570070272042e+03
-4.201609926004046429e+03
-2.634426461730189203e+03
-1.615869783624603315e+03
-7.784169195531587775e+02
-1.760250721023023743e+02
5.118064623832506186e+02
2.133220465336272355e+03
3.496760580235278667e+03
3.784908070402248995e+03
3.575389730038345533e+03
2.977986389867519392e+03
2.024901771079074024e+03
8.370853432808094112e+02
2.216634273899675520e+02
-4.157927334651118372e+02
-1.461786822515232643e+03
-9.138165979045155609e+02
5.334979469548915887e+01
3.974304196100859343e+01
5.028666990163378614e+01
4.887047777523243894e+02
1.320247012753920671e+03
1.906991585371046085e+03
2.466119818570813550e+03
2.648029223664512301e+03
2.759159272734119440e+03
2.563312206343681737e+03
2.131219623241987847e+03
2.389254352798530817e+03
2.420278889883155898e+03
1.777807735621701795e+03
-1.516542424523123032e+02
-9.053647015615774762e+02
-1.189127045885754569e+03
-1.417182283715386575e+03
-1.106720134159030067e+03
-1.778868356982931573e+03
-2.434762301403045512e+03
-2.431523849285299093e+03
-2.317548397530920738e+03
-2.656824468883744885e+03
-3.403058528078580821e+03
-2.806437247902124454e+03
-1.326094195503394531e+03
5.006446278415833007e+01
6.886448114761141142e+02
1.521868976485435269e+03
1.335333185074641733e+03
-2.739306048625635412e+02
-1.730611653109691815e+03
-1.168638172464966601e+03
4.034799150183810639e+02
1.649898725540474061e+03
2.426976558010391273e+03
2.499242938466964461e+03
1.373045175132638406e+03
-8.331825476714819843e+02
-2.316573010168874589e+03
-2.580488925986673166e+03
-2.248920872532380599e+03
-1.962486019204176955e+03
-1.186127706408117547e+03
4.894215599581153242e+02
1.694536736913178629e+03
1.503836701187300605e+03
1.417399160023431705e+03
1.465960645618064973e+03
2.661784031503279948e+03
3.990521123281064774e+03
3.975454787222077357e+03
2.934256325276784992e+03
1.180407997738392623e+03
6.445107703533745962e+02
9.639190926010252269e+02
5.444273072014402715e+02
-7.554288796786825060e+02
-1.894919398889811418e+03
-3.082899677515932126e+03
-3.848959210387868097e+03
-3.738075314331024856e+03
-2.702306678060338072e+03
-1.772862716074676428e+03
-8.683790482935913815e+02
9.031071032564129553e+01
5.691334622992189907e+02
5.555209212077502343e+02
9.579882534988174712e+02
2.255693600823497036e+03
3.470883167489055722e+03
4.307315205915654587e+03
4.463284116698571779e+03
3.236343386246682712e+03
1.808353979461614244e+03
9.671900595059698844e+02
1.326530942084864819e+03
1.224065251898650558e+03
1.276064200289174408e+02
-3.761809737270160667e+02
-2.975955758375624214e+02
2.012075653155968169e+01
1.235335581270467856e+03
1.627904839165423937e+03
1.808016064263601265e+03
2.361764479993810710e+03
2.316028442531566270e+03
1.825224417558043797e+03
1.684328475816318132e+03
2.216964833900357007e+03
2.268119432405237603e+03
2.829089203671629093e+03
3.510119129249555954e+03
2.839513685964602246e+03
1.156536647201103733e+03
-7.494875435072097503e+01
-7.676598598692247322e+01
-1.253084931434535292e+03
-2.958841934905257858e+03
-4.367605650301202331e+03
-4.816019146264166011e+03
-5.646259025212078086e+03
-6.265483169514171095e+03
-6.340675471824952183e+03
-6.512963078255649634e+03
-7.115463310595235271e+03
-7.281428608239867572e+03
-7.045033572453168745e+03
-6.687513053248218966e+03
-6.300727445174808963e+03
-6.947251663165563514e+03
-7.484712286418045551e+03
-6.808456437457846732e+03
-4.946254206316276395e+03
-6.953916370284417098e+03
-9.099408132568394649e+03
-8.873888069167827780e+03
-9.483801124452376826e+03
-9.769299925601242649e+03
-1.029697176739176939e+04
-1.024958523794623761e+04
-1.006474829622118159e+04
-9.348687314704904566e+03
-8.639360641398137886e+03
-5.724673969508057780e+03
-2.465553205690899176e+03
-1.905894787278009744e+03
-1.585698828332918765e+03
-1.562341109691271186e+03
-1.688755716109253171e+03
-1.890654971849927279e+03
-1.891112479925945763e+03
-2.125231518538914315e+03
-2.565049283388736058e+03
-3.426396907104124239e+03
-3.590115653419631144e+03
-3.135467832421629737e+03
-4.379701260030450612e+03
-5.749885556109539721e+03
-6.296772316069851513e+03
-7.140180135499524113e+03
-7.617069859287107647e+03
-7.927516784376393844e+03
-7.880775696213748233e+03
-7.241868072493357431e+03
-6.531715834821020508e+03
-6.413087302181585073e+03
-6.425098332929860590e+03
-6.419793537951752114e+03
-5.939906148919446423e+03
-5.027520212298392835e+03
-5.496765301461972740e+03
-5.927624538424797720e+03
-7.216271271868793519e+03
-7.647782512953270270e+03
-5.509264338578179377e+03
-1.467901446238611925e+03
2.731895867949842227e+02
1.365307751058151098e+02
5.031520329937365545e+02
1.364475358484961134e+03
1.640904900820203693e+03
2.237130905534203521e+03
2.738919765920512873e+03
3.878327552429749176e+03
4.962737366593209117e+03
5.651880096232130199e+03
6.142714788494879940e+03
6.871006118098876868e+03
7.749990381002700815e+03
8.271262136790614022e+03
1.004508210701616008e+04
1.093017406821456461e+04
1.126440243400815780e+04
1.190172488829677604e+04
1.207186463404038659e+04
1.183556201256661006e+04
1.182562801599292288e+04
1.188160882338231204e+04
1.184714819559419811e+04
1.233542340341104682e+04
1.271010618317232002e+04
1.307074925226207233e+04
1.331033983819577952e+04
1.400278951759452502e+04
1.467018280413064167e+04
1.453748138356596974e+04
1.392246936363905843e+04
1.288714365157583961e+04
1.122735283784394960e+04
1.066888539966278404e+04
9.907578353190036069e+03
9.006933048175460499e+03
7.560446382825854016e+03
6.627892880530113871e+03
5.942552516920753078e+03
4.939730229648977911e+03
2.910029369100144322e+03
1.124319955019361942e+03
1.822608774780382191e+03
3.166862581211467841e+03
3.324814323035551297e+03
2.143301222968558704e+03
1.269455951091084216e+03
2.283394824752971545e+03
4.804977491175141040e+03
7.212023611736466592e+03
8.768850726655944527e+03
8.799210285015604313e+03
8.014895559118378515e+03
6.563848495704918605e+03
5.784118118277971917e+03
4.954826373738666007e+03
4.464055678123758298e+03
2.837670857046948186e+03
-5.354338256856016187e+01
-3.760603434410074897e+03
-6.648493799885433873e+03
-8.184304395838005803e+03
-9.632007914960817288e+03
-1.047644737162973252e+04
-8.807634614291111575e+03
-6.338539905538379571e+03
-6.354546808641754978e+03
-7.428853621847897557e+03
-8.815300479060200814e+03
-1.041688677400148117e+04
-9.057711503630696825e+03
-9.625590783055498832e+03
-1.305531437789664051e+04
-1.758697498138734591e+04
-1.608046060786647286e+04
-8.845817345823097639e+03
-3.305090760297805446e+03
-3.492120675002559437e+03
-7.990880611457012492e+03
-1.110045386301768485e+04
-1.270662458984278783e+04
-1.674030734977994871e+04
-2.128357727002301908e+04
-2.104353422428304839e+04
-1.553418050560506344e+04
-1.135150525421531529e+04
-1.377830822551661367e+04
-1.651639264060431378e+04
-1.429466152541153497e+04
-6.104048178312296841e+03
-2.798502612245494674e+03
-4.291027670340837176e+03
-6.242474149854374446e+03
-1.052174780651367109e+04
-1.498853596269260925e+04
-1.359283182573655722e+04
-5.785576749068508434e+03
-4.209643106339717633e+03
-1.486310049737791451e+04
-2.947410523458036550e+04
-3.629234131976524077e+04
-3.655577151811711519e+04
-3.516670330572105013e+04
-3.318805995066959440e+04
-2.920753232111264515e+04
-2.063589752892951219e+04
-4.720036041394481799e+03
1.107194391300267307e+04
1.196904158804835424e+04
2.419469197272720521e+03
-2.564492169950601124e+02
1.517455917872186546e+03
-2.627685821316272722e+03
-1.261565859984156123e+04
-2.341937529346824522e+04
-2.840675578567761113e+04
-2.518168243788619657e+04
-2.236116611936327899e+04
-2.067001401602504848e+04
-7.743039225745267686e+03
1.799974845200984419e+04
5.160456675375186023e+04
6.918767954859770543e+04
5.959523688046525785e+04
4.511311176670326677e+04
4.287136701898204046e+04
4.691324360076266748e+04
3.771500090155044018e+04
1.902068016307516154e+04
1.132545202351394073e+04
2.114371698234837822e+04
3.302660845021927526e+04
3.915226520760598942e+04
3.454894126845586288e+04
3.398561765561810171e+04
3.966339118221897661e+04
3.824207942519772769e+04
1.353352898499721414e+04
-6.040123191864150613e+03
-7.414813126492267656e+03
-8.089326904573010324e+03
-1.744851429722937246e+04
-1.404523973683872464e+04
7.785499732489819507e+03
2.561558732800363941e+04
2.822318274369308710e+04
1.759764701354373392e+04
1.513501924969860011e+04
1.602929882216570331e+04
1.049373447543559450e+04
6.246505301027587848e+03
-4.715097786940963488e+03
-1.156407071844405618e+04
-1.274419585587979054e+04
-8.326281465893398490e+03
-3.514026026056107185e+03
-2.479334973796962913e+03
-5.776205129081359701e+03
-9.247582047420253730e+03
-8.400321536586647198e+03
-8.032271986295471834e+03
-9.260251255151208170e+03
-1.434115794881326110e+04
-1.518802585762643503e+04
-1.347174914606123093e+04
-1.289806789262454549e+04
-2.092571821966167045e+04
-2.380551850888411354e+04
-2.451448460130985768e+04
-2.266362151886698484e+04
-2.465859258262703224e+04
-2.344391041798405786e+04
-1.430456180842451795e+04
-5.734245587920343496e+03
3.235426947306737020e+03
1.174658053498371737e+04
1.766714841313139550e+04
2.139935272658365284e+04
2.147443339931205628e+04
1.718350669388427923e+04
8.735649689297883015e+03
3.487090947915265133e+03
8.915772250769376114e+03
1.843979949301405941e+04
1.802831263329835565e+04
1.411431865324153478e+04
1.455404037406813222e+04
1.531354087453960710e+04
1.075185509143157105e+04
3.236207328423367926e+03
-1.998304999409809398e+03
-6.736609429954397456e+03
-9.913729235593671547e+03
-1.069258388581045801e+04
-1.347199515362878265e+04
-1.378795284020508734e+04
-1.631645688898426124e+04
-2.009105473971439642e+04
-1.933270449753721186e+04
-1.326243747550760963e+04
-8.658161310815999968e+03
-5.190054526145583623e+03
-3.987646178175753562e+02
4.538507666363595490e+03
9.081955822966679989e+03
1.078140083909454734e+04
9.447912066421940835e+03
3.108664335519044016e+03
-3.346144693857251696e+03
-5.100214239558299596e+03
-2.738747951206436937e+03
-4.428718600303128369e+03
-4.879185919260055016e+03
-2.824372900885473882e+03
1.874241541316917846e+03
5.156478646846610900e+03
2.763614222117302688e+03
-1.116365954035087270e+03
1.022396231512381178e+03
8.895840284520569185e+03
9.940000830099390441e+03
7.616005599946880466e+03
6.368813837795194559e+03
6.037237647808819020e+03
5.105281581710647515e+03
6.050813407426570848e+03
7.808273489019472436e+03
4.568637681381401308e+03
2.419914641834391205e+03
3.266947392751306779e+03
3.210734911429147360e+03
1.643411873492004361e+03
-7.709610830596382129e+02
-2.030524960547816136e+03
-2.315167539964121261e+03
-4.507706833604933308e+03
-9.527111496421173797e+03
-1.616351445428400984e+04
-2.043391937943304583e+04
-2.224942462988079569e+04
-2.263222596932746819e+04
-2.291244142074833871e+04
-2.577879396308586365e+04
-2.931019081995923261e+04
-3.272296435533060503e+04
-3.284526609768978233e+04
-3.336308278836285172e+04
-3.423751016069593607e+04
-3.103955414632066822e+04
-3.010220766608196936e+04
-3.093461089944970445e+04
-3.128069855820865268e+04
-3.204351290750816406e+04
-3.380197440167738387e+04
-3.627627612207468337e+04
-3.863771180400482990e+04
-4.081659583472686063e+04
-3.602496007609019580e+04
-2.352464194871131986e+04
-1.243685113191497112e+04
-8.602772427091067584e+03
-6.704306205920587672e+03
-5.601608096175348692e+03
-3.087747936244481934e+03
5.478043584465213826e+03
1.617059130849660687e+04
2.197679536620857107e+04
2.757864363164059250e+04
3.806812069393269485e+04
4.339306401512652519e+04
4.183552887716501573e+04
4.054528059901635424e+04
3.971216822706998209e+04
4.294704899583591032e+04
4.504171864520083909e+04
4.585016145892687200e+04
4.735236750972263690e+04
4.588818414880343335e+04
4.349143302200773905e+04
4.462495048379205400e+04
4.261457208413408080e+04
3.731411569520288322e+04
3.379346060004350875e+04
2.967649164044806093e+04
2.716300516319521557e+04
2.610287408269051593e+04
2.430406488829911177e+04
2.288561615311017886e+04
1.985043502894693665e+04
1.391249542729629138e+04
6.573511793235334153e+03
5.128393533322259827e+03
1.246102026415884575e+04
2.221136929553751179e+04
2.747245203279442649e+04
2.632506162905239762e+04
2.259995536387031461e+04
1.829107726869624821e+04
1.635536569192809657e+04
1.568448905159840797e+04
1.248520029913144936e+04
7.602541186692719748e+03
4.749492096869937996e+03
3.654804280951318560e+03
1.799128631127355220e+03
-9.788115543939973122e+02
6.648564256437446147e+02
-8.278761790868655908e+02
-3.946973484733640817e+03
-7.277509773820280316e+03
-1.061057610682435370e+04
-1.237429852784156174e+04
-1.083874696564227816e+04
-9.327049825567646621e+03
-1.054125600279806713e+04
-1.222443856189006874e+04
-1.274467259863156323e+04
-1.425099664047297483e+04
-1.660548553444154823e+04
-1.542924738996689666e+04
-1.299439971225288900e+04
-9.615308051346399225e+03
-9.441173481080364581e+03
-1.196596538960892576e+04
-1.338572828182350895e+04
-1.514749684356436774e+04
-1.798333702404470023e+04
-1.876353184977477940e+04
-1.744880952330768559e+04
-1.603319922555220364e+04
-1.424370150571705926e+04
-1.387286791624709440e+04
-1.508932801412680419e+04
-1.499309518502619358e+04
-1.536686165605804490e+04
-1.743533592822367063e+04
-1.812165145509152353e+04
-1.731398355453518525e+04
-1.691921676577774633e+04
-1.734330610565653842e+04
-1.897664042809471357e+04
-2.176275027288896308e+04
-2.345575870778337412e+04
-2.350014617073292175e+04
-2.180084231354366057e+04
-1.959830677949401070e+04
-1.817918587879327970e+04
-1.818218659915911849e+04
-1.784087743415646037e+04
-1.798320132874562114e+04
-1.550497541186422495e+04
-1.317908241029902456e+04
-1.090389346223323992e+04
-8.202021781038576592e+03
-5.391065827554522912e+03
-4.791964204988068559e+03
-1.812177302116823967e+03
1.132890044865144091e+03
-5.662015486218372189e+02
-2.596581933670413491e+03
-2.384325438803474754e+03
-3.556202599327089047e+02
2.022059900510490479e+03
1.742951585283846498e+03
-7.742177744879205648e+02
-3.100385942429850729e+03
-2.422555797600743517e+03
-1.127090399170913088e+03
-2.862857220075288183e+02
2.253997259039923051e+02
1.218666083879257485e+03
2.168857099419262795e+03
3.212702865050532182e+03
3.109709773277321347e+03
2.691916568169475340e+03
2.766415952035451937e+03
1.398269996290279096e+03
9.841352770046961496e+02
1.781861087776311024e+03
2.398298879285461680e+03
8.356162333435337359e+02
-9.664881733215224813e+02
-1.490650426260762060e+03
-9.522187003275720372e+02
-1.273953119717466734e+03
-2.332688717792213083e+03
-1.787877616671347141e+03
-1.475766149724774550e+03
1.112403302960307201e+03
7.703942298783833394e+03
1.408166850345021521e+04
2.165770689717658752e+04
2.625971859747486815e+04
2.659026384233128556e+04
2.545960536640396094e+04
2.336996911512612132e+04
2.311508978352422855e+04
2.386932329098680202e+04
2.507518167328112759e+04
2.559384402038030748e+04
2.411784607002664052e+04
2.260433935613484209e+04
2.266028649296273943e+04
2.152513390545656875e+04
1.830928242803391186e+04
1.741667668710754515e+04
1.753568121701390919e+04
1.874146805649882663e+04
1.712798814316330026e+04
1.509900076011723831e+04
1.444748568094496659e+04
1.712585392756183501e+04
1.928520170295103162e+04
1.902865906653266575e+04
1.748495637407662070e+04
1.537210925022252377e+04
1.322373209761106773e+04
1.220083495940491957e+04
1.177745064974392699e+04
9.063187553814916100e+03
5.481949326745742837e+03
3.122270756217494636e+03
1.717273437587863327e+03
1.706924580895027077e+02
-3.458725526046758205e+03
-8.916037063595800646e+03
-1.273451593811538987e+04
-1.261573613493190533e+04
-1.489606941078127784e+04
-1.716308642579580919e+04
-1.698303155454939406e+04
-1.652598931639496732e+04
-1.753726073911867570e+04
-1.796881950406155011e+04
-1.819453405322557592e+04
-1.818718311726181855e+04
-1.825939092323317163e+04
-1.643177759494649581e+04
-1.541047235583708971e+04
-1.495431259686401063e+04
-1.415882898420000129e+04
-1.416048062114677850e+04
-1.313206083655733710e+04
-1.307587741443798041e+04
-1.377200069408977652e+04
-1.208506853995828351e+04
-1.043379500069401183e+04
-8.010284177474881290e+03
-6.308562455604016577e+03
-5.855724266846225873e+03
-5.514973244588927628e+03
-6.166171661917538586e+03
-7.074464214283749243e+03
-4.340850731060258113e+03
-2.401260975343906921e+03
-1.605858879679770553e+03
5.376738963068364683e+02
-9.848460047217647571e+02
1.273409095468369969e+03
8.100369197568107893e+02
2.004787971971606339e+03
-5.855576258948270834e+02
-3.413004718181145563e+03
-4.883465419929955715e+03
-4.466548187434594183e+03
-1.021708471682682102e+02
6.173214546928942354e+02
1.227501512444449190e+03
1.924485973243833996e+03
6.800557273109251355e+02
1.716934395182045364e+03
-9.061855517855115068e+02
1.705665145803440737e+03
3.441760726186613738e+03
3.455127741628160948e+03
1.825192121445578096e+03
4.812557634427847120e+02
5.235684789996400923e+02
4.672640289070629365e+02
-2.410776658540260087e+03
-3.222685469931713214e+03
-5.117630958925453342e+03
-3.800912682553379454e+03
-2.755596186116526496e+03
-1.680246763851329661e+03
-2.876067352994943121e+03
-4.641453735217177382e+03
-4.771430222930988748e+03
-4.333034002094944299e+03
-6.134270268787955501e+03
-7.415274701327065486e+03
-5.611166932846716008e+03
-1.846768457284283159e+03
-7.268311886937674444e+02
4.568401811465363949e+02
1.581999733857705223e+03
3.036401516076660911e+01
-3.050252595144243514e+03
-2.390964953752738893e+03
7.673338634583558360e+02
1.362675469981322294e+03
8.400110104462288518e+02
4.920349246483387446e+02
-7.862793149301124913e+02
-1.760985893040762676e+03
-1.510480867531642616e+03
-1.715602735411198637e+03
-1.668179266228383767e+03
-1.409420238118152156e+03
-1.763939599972906649e+02
3.219650543648372150e+02
9.148922796135422004e+02
1.266476287094169493e+03
5.997068224780189212e+02
1.355959922450592558e+03
1.023451500258359602e+03
-1.857672571197994102e+02
4.455340545442884377e+02
7.332152632197027060e+02
1.437400627826661548e+03
1.262029124929620593e+03
7.651558743920702454e+01
-1.755603188442941018e+03
-2.978238277839043803e+03
-2.925483526136399632e+03
-3.404744550702549077e+03
-1.939718381330614648e+03
-2.061355125417296961e+02
7.402541399272474791e+02
9.816600209519308464e+02
3.648328899325693442e+02
5.318654644642330140e+02
1.773094836300381303e+03
3.039746879924205132e+03
3.854837114572302653e+03
4.146341042817201014e+03
4.541047822301678025e+03
4.159416696935206346e+03
3.786852904244175079e+03
3.378345918257663016e+03
2.335024141575203430e+03
1.116955481536813522e+03
4.116087310818426914e+01
3.997812078816255621e+02
6.368891182575587209e+02
1.336795542948054390e+03
8.850331646720435401e+02
4.710052408627049090e+02
-3.025848198415400248e+02
-6.593727305019086771e+02
1.268405891351300397e+03
2.779923949892127894e+03
2.579664480608349550e+03
1.905961864946023979e+03
1.890327895030661693e+03
1.742080405118347244e+03
1.027295683763867373e+03
1.646161970500011421e+03
2.533007016933831892e+03
2.120669893339139890e+03
6.747646025812894095e+02
-9.958033438884941688e+02
-2.445800146502105690e+03
-2.890193906026762306e+03
-2.533627696099612876e+03
-2.318115090207167668e+03
-2.601502100689339386e+03
-2.522318059370484661e+03
-1.887354695701427090e+03
-9.151380791600745397e+02
-1.557171398709929235e+02
-5.535547213421228889e+02
-2.298395542412997202e+03
-3.385436580280778344e+03
-3.220775506985309221e+03
-3.168319436854052583e+03
-2.721285210725362504e+03
-2.785740239992791885e+03
-2.594724498308095917e+03
-2.730836433076288358e+03
-3.344589629555553529e+03
-3.821981975144074113e+03
-4.588198785478502941e+03
-4.909156277056542422e+03
-1.948020989828856955e+03
-9.951367878697971037e+02
-8.244362515750015064e+02
-8.777021074277423622e+02
-1.004503855053935695e+03
-1.346146818621407135e+02
9.258101735841180471e+02
2.046814787926140752e+03
3.054281175399371023e+03
3.841675283683806811e+03
3.947881877977011754e+03
3.858143417116466480e+03
3.805604810846941746e+03
3.731603953259750142e+03
2.568093534787407862e+03
2.111603258391098734e+03
2.066045018042943866e+03
1.434366598051744177e+03
9.521495630807594424e+00
-1.000460834325265523e+03
-8.944188581026124893e+02
-7.443182258905867457e+02
-1.297153969518776421e+03
-1.692290569128241259e+03
-1.320778743929176926e+03
-1.107428491420814908e+03
-7.121886844792928741e+02
-9.140276650593899888e+01
1.762140910549364321e+02
1.604966390645229239e+02
2.728770674369106430e+01
-1.149855397224501274e+02
-3.952071069603389333e+02
-5.966475290231002191e+02
-1.033504740246073652e+03
-1.216841900047574427e+03
-1.484484583979940908e+03
-1.565238100447674469e+03
-1.180104311633141606e+03
-9.333641629857809221e+02
-9.680994148040691698e+02
-1.184450424745127293e+03
-1.008421030839562150e+03
-7.930548261492712072e+02
-1.176406750734300886e+03
-7.583651307564812214e+02
-1.938029042786527896e+02
2.371661021812919898e+02
9.434524053743932654e+02
1.341206637981613312e+03
1.385386492104978288e+03
1.579147871356911082e+03
1.855534170577996747e+03
1.265587021944847493e+03
6.763759025922869341e+02
3.017096729282972092e+02
1.444377604525312222e+02
5.458399053466957440e+01
4.123569739063137263e+01
2.512247684572901960e+02
7.435964993931949039e+02
1.392758938224649228e+02
-2.699269904614532152e+03
-2.725190524947322956e+03
-1.856668267795490237e+03
-2.021511031813722184e+03
-1.545436511429536040e+03
-2.502684692086448308e+02
-1.203836323117286611e+03
1.715751378990452167e+03
3.051429111049901977e+01
-2.011573446395915880e+03
-2.791570838003768586e+03
-1.749248254166372590e+03
-2.271528252244382202e+03
2.974819771699389435e+02
5.709747105363865103e+02
2.199086295958230494e+03
1.234632734145427122e+02
-1.461003092128705703e+03
-8.263768709546393438e+02
-2.751407646474740886e+03
-1.360999679191161476e+03
-2.368140169375757978e+03
-1.406023099689157561e+03
-2.670509737832466271e+03
2.326273237714693209e+02
2.183434681375904802e+03
2.854964226369409971e+03
2.846248223474411134e+03
7.432032764302167607e+02
1.073868843734815528e+03
3.612454777955254031e+03
2.765107127015368405e+03
2.198797347513684599e+03
1.078363849685414152e+03
1.084513218304685722e+01
-2.944844729249923034e+02
-1.584340000879012678e+03
-1.307745540659663220e+03
-2.703984733281563422e+03
-2.053875644500316866e+03
-2.561347278226260642e+03
-1.129558771013409796e+03
-1.380615429068722960e+03
-1.907358755099578275e+03
-1.495656504283964978e+03
-1.085533726817325714e+03
-3.679361095796972450e+02
-1.498887196265470720e+02
3.224094763488715216e+02
1.459035083443665371e+03
2.704080155673196714e+03
2.915533208943421869e+03
2.237477218743562389e+03
2.025806703321978603e+03
2.056455337065921867e+03
1.601471941428078708e+03
9.316172271677023673e+02
2.318572684306940630e+02
-8.969519702965668557e+02
-1.971741177941941032e+03
-2.958559592439177322e+03
-3.724465393056476387e+03
-3.111556645397944521e+03
-3.843570170878496356e+03
-4.643689056872399306e+03
-1.775239416767354442e+03
6.589637240582186450e+02
2.705783371634945979e+03
4.407525816029481575e+03
5.123699773742461730e+03
5.681551342484603083e+03
5.798174628443409347e+03
5.194761434928137533e+03
3.910195867070119675e+03
2.758499894317974395e+03
2.101363175033741300e+03
