4.185585139557912271e+02
1.935512101094314730e+01
-1.352705374497911066e+02
-7.133496713571643113e+02
-1.494920908665317029e+03
-1.423908728437415675e+03
-8.003626249142517963e+02
-3.728712841793420552e+01
3.333186865343720910e+02
1.070421699507827498e+03
1.459187014280976200e+03
1.729632551430770945e+03
1.944703402992315660e+03
1.913401814355182523e+03
1.923750474878986552e+03
8.267684943711220740e+02
-1.723554136277411772e+03
-2.888131502842997634e+03
-2.219050729155664612e+03
-1.856335369829970887e+03
-1.496976095013104441e+03
-2.684030962177693709e+03
-2.118570001237789256e+03
-4.507470502600426698e+03
-2.288504127493325541e+03
-1.503768834080458419e+03
-3.950428177863401288e+03
-2.234504610719563971e+03
-1.979671227083849772e+02
-1.281837276774783504e+03
9.729194161759904773e+02
1.750333360477535507e+03
2.880474098347297968e+03
4.288445345165556319e+03
3.731267014511760863e+03
2.316016948641907675e+03
1.929780023949844235e+03
1.555456669164136656e+03
1.298960261339725321e+03
6.924435408475465010e+02
-3.991137859440731859e+02
-1.327881037687968956e+03
-3.516990195953656439e+03
-2.592455903657842555e+03
-5.674157498147615115e+03
-6.050019147282213453e+03
-3.099044510411659303e+03
-2.993194959541319349e+03
-2.955547686685672488e+03
-4.180973773858036111e+02
-1.445791038555736122e+03
4.034442733212232497e+02
1.995600604932798660e+03
2.714730697086192777e+03
2.418850214123520800e+03
2.328867926309305858e+03
2.524901064683395816e+03
2.288989958506304447e+03
1.622110666062944802e+03
8.422723476665161115e+02
3.044650928684165478e+02
-2.423771793965159418e+02
-8.642363427104924085e+02
-9.211111581397470900e+02
-8.660154051712640921e+02
-9.039066102538222367e+02
-1.077863992782892410e+03
-8.199765730214877522e+02
-2.462572306189032645e+02
1.474486548032713529e+02
7.643266738405346814e+02
1.668626175099522925e+03
2.535248189436577832e+03
2.398169026432451574e+03
2.170339339543495953e+03
2.113737931782179658e+03
2.579554924848829160e+03
2.268775656901469119e+03
1.618254437711477749e+03
7.761212712466788162e+02
3.332909265828290017e+02
-1.303479072781881314e+03
-3.458087406743097290e+03
-1.746346478895381779e+03
-1.496569146528701140e+03
-1.747166866399174751e+03
-1.696525213226759433e+03
-2.879912834967884919e+03
2.273784901062073516e+02
1.584978399007543203e+03
1.652129797581576668e+03
1.759481671124295417e+03
1.789055239118142936e+03
2.351973344861618443e+03
2.479220423042838320e+03
2.256626576255572218e+03
2.136080844955295561e+03
1.759527177223550552e+03
1.827252618820734824e+03
1.339152413060067829e+03
3.938224587100131089e+02
-5.137534898207492233e+02
-1.494776654417183863e+03
-1.776994850206738874e+03
-1.144536438096347865e+03
-1.085513409026215413e+03
-8.149315559762849261e+02
-8.508748848191405614e+02
-5.452797931374439031e+02
5.552952015394638465e+02
1.216824644946659873e+03
1.754044879146967787e+03
1.951841138470328133e+03
2.298185009912351234e+03
2.367060095758734406e+03
2.514568012709318737e+03
2.574546078313999260e+03
1.751006734574307984e+03
1.161135172895110145e+03
7.069561636837671585e+02
-5.773717969288098217e+00
-3.262922460062408732e+02
-4.134510688008491570e+02
-9.170187059081067673e+02
-9.571551001313682718e+02
-4.239679926433603327e+02
-9.705252369337629261e+02
-1.516903271617501105e+03
-1.021061434121150114e+03
-7.879086403742925313e+02
6.496499889497918048e+02
1.903513924793852993e+03
2.204589433086580812e+03
2.370045360770473508e+03
2.392099479968970627e+03
2.422786684761149445e+03
2.531087609623568824e+03
1.808992152081694485e+03
1.759274485467688919e+03
1.080823624182058211e+03
-1.097320073247362188e+03
-1.041037142858343941e+03
-8.473611437453496364e+02
-3.243380272558396427e+03
-7.537239662225120810e+03
-8.037974403096612150e+03
-7.190519023640314117e+03
-6.510599100330437977e+03
-5.536221239218329174e+03
-5.344333209536192953e+03
-4.813931609332567859e+03
-4.478043549193378567e+03
-3.830708306286170227e+03
-3.713884534222656839e+03
-7.276468784302792301e+02
2.191095083134016477e+03
2.826374339275563216e+03
2.521204233342634780e+03
1.990596839378069944e+03
1.508632811629847311e+03
5.024495449700718268e+02
1.311551427141421584e+02
-2.456439771272624029e+01
-5.449469465885815680e+02
-6.217874980819248094e+02
-6.979588845105358814e+02
-3.666316798736212945e+02
4.618096006556755384e+01
4.976306888057124524e+02
6.437399952511500487e+02
9.065180320868284980e+02
1.151064019746459280e+03
1.357402520130686980e+03
2.106623529813050936e+03
2.445838581393388722e+03
2.154999688450964641e+03
1.590121824187985112e+03
1.759201084361907078e+03
1.851132252387781364e+03
1.344016835752413044e+03
1.880085846262277300e+02
-1.153984271855782708e+03
-1.597073384276897741e+03
-1.816112892884175835e+03
-1.691977337893470121e+03
-1.248647675274763287e+03
-6.742330174059864021e+02
-6.237469583495548022e+02
-8.921791823965955928e+02
-3.313618284841990089e+02
2.888738344216502014e+02
1.170441679016770195e+03
2.090207991787209266e+03
2.672256231136663700e+03
2.550711241299535686e+03
2.215632163729598687e+03
1.834984685002270453e+03
1.578812362818124939e+03
7.132771260292505531e+02
1.543692473649662702e+02
-2.908477247779002823e+02
-1.272207529296826351e+03
-1.616725314971071384e+03
-1.799476221716490272e+03
-2.433681677731268792e+03
-3.223430433992604321e+03
-2.600368512704606474e+03
-1.998586245636141712e+03
-1.246137818227657363e+03
-5.229144779162530767e+02
3.802539895304692550e+02
7.181792577234818964e+02
5.668054816557840923e+02
1.144411861176484535e+03
1.285432574067755468e+03
1.271701308376287670e+03
9.590075973485659233e+02
4.262081203205281668e+02
1.131803255509521478e+02
9.783851965412095808e+01
3.825458017532531585e+01
-9.434295345903984753e+02
-1.640201741639169313e+03
-1.809107858891421074e+03
-1.693248424544917498e+03
-1.956544075676164994e+03
-2.040861603497987062e+03
-1.423020615536664764e+03
-7.661124478831724218e+02
-1.397284495378258828e+00
6.511467389089211792e+02
1.399691190159383495e+03
1.761341701930679164e+03
1.681106736054618523e+03
2.160937153445787317e+03
2.277768632020625773e+03
2.171661953458469270e+03
1.669689544820088486e+03
7.357013481873925684e+02
6.504762549646470049e+00
-4.484872702606464827e+02
-2.281068006101227184e+02
-3.033312402466439721e+02
-1.392554181961666700e+03
-2.103935762337387587e+03
-1.952600532451952176e+03
-1.670693781983479994e+03
-1.090281543300586463e+03
-6.332222606199023858e+02
-4.224195145809672454e+02
-3.078333176424819726e+02
-1.493754486918134603e+02
1.538946573258996750e+03
2.000126079815498997e+03
2.144958286699164091e+03
2.471564215633505228e+03
1.875898467532050972e+03
1.099921362201340798e+03
1.101373967707497286e+03
6.774617298717978429e+02
8.326067820204754355e+01
-5.443694214956093447e+02
-1.216526422003998277e+03
-1.133536163060025274e+03
-1.742287810687706497e+03
-1.961329005447227019e+03
-9.808038456629136590e+02
-1.720890926690868810e+02
3.027110553420832275e+02
8.575190951765201817e+02
8.862854985703691000e+02
7.470826871033860925e+02
1.951287993876663620e+02
8.420252898681268334e+02
1.390318667847429651e+03
1.643865058669218570e+03
1.518346573676900789e+03
7.829987286263967690e+02
-1.332388311135091271e+03
-2.524986085679084681e+03
-5.463793252506872022e+02
1.160159015620407899e+03
9.745882455382665057e+02
1.932289407387321489e+02
-4.042225686134085549e+02
-2.607948247362431857e+02
-4.866393846104671184e+02
-6.470825301956980411e+02
-2.229277386514679051e+02
8.655780967863472597e+01
-7.196254765898844425e+02
-8.851892659348604866e+02
8.757135268254006633e+02
1.601034284801373133e+03
1.044868800101403849e+03
2.634109360390670190e+03
4.471523302789865738e+03
4.770832856427793558e+03
3.616625096794034107e+03
2.225966798990724783e+03
1.872238085022439918e+03
1.902046359652789079e+03
1.969099263436452929e+03
2.120164396127945565e+03
1.257693200728993133e+03
-4.883634755976789421e+01
-3.988417479861905122e+02
5.103364117970639313e+02
7.036440939953109819e+02
5.217151946246480065e+02
9.643513559149652110e+02
1.202755724971177187e+03
1.749845912990114357e+03
2.265569469699219098e+03
2.601067958857038775e+03
3.082512418878515291e+03
3.139017182803416745e+03
2.478488780628175391e+03
2.303899693997908344e+03
2.211287236179582578e+03
2.082429724328314023e+03
2.681173052584975267e+03
2.670601417534850953e+03
1.699593528665432359e+03
-1.951132494430883355e+02
-3.061347976448589179e+03
-5.469889648501606644e+03
-5.772658291776043370e+03
-4.471641021861189984e+03
-3.270823074916448604e+03
-3.536390904133734239e+03
-4.315623125022989370e+03
-3.954145858298603798e+03
-3.607524737822071074e+03
-3.673945626091474878e+03
-2.337652397788732287e+03
-1.977723118293132075e+03
-3.314876769441761098e+03
-3.920988134354336125e+03
-2.526606794546620222e+03
-2.447828886414300086e+03
-7.918538031342926843e+03
-9.013338992305467400e+03
-8.365188806836971708e+03
-9.711183120738443904e+03
-7.930206753033797213e+03
-6.673738464468813618e+03
-6.895391456774982544e+03
-6.065187114716670294e+03
-3.859077902627587719e+03
-1.701993196244110095e+03
-8.126409263757885810e+02
-1.064903425391891915e+03
-2.125883558783748867e+03
5.173173822929812786e+02
2.713616222544564152e+03
4.161882041112226602e+02
6.110816120932101967e+02
6.736755055877948450e+01
1.590174070931804636e+03
1.592407663851837242e+03
3.718989536204870774e+02
-7.213360020539761308e+02
-3.240236413768479906e+03
-5.163662172240639848e+03
-1.950487361219143622e+03
1.730363308502562859e+03
3.168066007813803935e+03
3.750548488834830096e+03
3.526604893979666031e+03
3.334146000722659210e+03
4.740286224993365067e+03
3.666372201586144911e+03
2.816284139362442602e+03
4.081078209172180777e+03
6.107875314646371407e+03
6.470791156218702781e+03
3.889959663007509334e+03
3.007072948653855292e+03
4.827399943255290054e+03
5.606354050165308763e+03
5.650626766181392668e+03
4.932881254813421947e+03
2.894379003910453321e+03
1.727137827403738584e+03
8.291427100155701737e+02
9.435864059928800316e+02
3.291298392480517805e+02
-1.330021640939881991e+03
-2.194607380044225010e+03
-1.024489936246598063e+03
1.123343318738292510e+03
3.257781506082239048e+03
5.094821179479855346e+03
4.187572743192365124e+03
2.788958945184758250e+03
2.317128219869111490e+03
2.724301051577318503e+03
2.702298778155251966e+03
2.055976084380677548e+03
2.754390437742634390e+02
-1.321959835621399407e+03
-3.566262123840121603e+03
-3.217475985295075134e+03
-2.704329826831220544e+03
-1.919017137512585577e+03
-1.122636090507106474e+03
-4.272877757976284556e+02
1.234195456482291036e+02
5.075890257130412806e+02
-3.570072427861647952e+02
-1.916685159459321426e+02
-1.012952218590075688e+02
-4.047842007086975400e+02
-1.306198748310137944e+03
-1.157542903037925498e+03
3.990881217815214654e+02
3.639700442231580382e+03
3.831283291955526238e+03
1.887865509711953791e+03
1.355371992648765854e+03
1.703771893901916428e+03
1.940766905153220137e+02
-1.296707810808392651e+03
-1.261554728095240989e+03
-1.350563572108415883e+03
-1.658715651462645837e+03
-1.217158869787818730e+03
-1.377855463875598389e+03
-8.056896888786691306e+02
6.582664626261527019e+02
1.561043432538476736e+03
2.631772850888907215e+03
2.799369707408069644e+03
1.113717039099081603e+03
1.818167748818239033e+02
8.546658155600451892e+02
6.923557986777344695e+02
-1.212157929243839817e+03
-2.216967789794666260e+03
-1.339026037346538260e+03
-3.233223325665342429e+01
1.789343519978550887e+02
-1.206357349079343294e+03
-2.768153032422504111e+03
-1.744369485251671449e+03
9.758876041227529186e+02
2.250540578851008377e+03
1.322474286758992776e+03
7.106795542583341785e+02
7.844993681053969112e+02
1.421932192627865561e+03
1.454692186333513064e+03
1.185728782177938683e+03
1.253910455928752071e+03
-6.062697604078078228e+01
-3.479941420891064354e+03
-3.562038066762579547e+03
-2.686882783813953665e+03
-3.023638163804801934e+03
-5.032213683968553596e+03
-5.452540369466393713e+03
-3.508889360778775881e+03
-3.373426467635702920e+03
-4.864899597763674137e+03
-5.009404837390701687e+03
-3.069147745583204141e+03
-4.299298681020301956e+03
-6.912792954178598848e+03
-6.621563237213702450e+03
-8.426399562740050442e+02
4.013140857141390370e+03
6.843628833690266219e+03
7.915895217249768393e+03
7.172026159653581090e+03
4.825864089778324342e+03
2.872253762681994431e+03
2.412206542731832997e+03
2.299956631549407120e+03
1.472423479833146530e+03
-1.011575102994640702e+03
-3.152027188899192424e+03
-3.248897345326470258e+03
-4.590464096451174214e+02
1.447234473152852615e+03
-1.083286781162660333e+02
-2.267748495423059921e+03
-3.265035079916662653e+03
-2.352206735880125962e+03
-1.092226239836952573e+03
-6.939327708566489719e+02
-8.184151696209648890e+02
-8.566544097099385908e+02
-2.955934162439463080e+02
-1.679123771231922319e+03
-5.908284825297986572e+03
-5.325171018590099266e+03
-1.849730483472033029e+03
4.164908517200701681e+03
6.631722493098636733e+03
7.323823243765291409e+03
6.723131682345228910e+03
4.689580952536807672e+03
1.090154469403780240e+03
-1.088129503248111860e+03
-1.839271583510881783e+03
-2.271308750262798640e+03
-8.441896965805497075e+02
4.310995715113464257e+02
1.347398794885643611e+03
1.034795227057687043e+03
2.056368896688274162e+03
2.673163699059688497e+03
3.639283033813684597e+03
1.181811921579449518e+03
1.643619657102675774e+03
3.214755814255452151e+03
3.211433704297653549e+03
3.115660066657121661e+03
-6.077426161323841143e+02
-2.981878889861120115e+03
8.063805872069144698e+02
4.693983245415276542e+03
4.470803235744239828e+03
3.122895686750246114e+03
7.414513849334538236e+02
-2.856369224451362697e+03
-5.955745045920190023e+03
-7.748712206088248422e+03
-2.935049624236463842e+03
-1.825829914721695104e+03
7.695621793087431683e+01
-1.785689000139173459e+03
-6.162884509490783813e+01
-2.266787759126136280e+03
-5.204134017983746162e+03
-6.022680666196348284e+03
-5.306565725472233680e+03
-5.629761270159627202e+03
-4.738189548456219200e+03
-2.832857589929593814e+03
7.375776028543724578e+02
2.731368178358048908e+02
-5.714085125449209954e+02
5.508551913374111564e+02
-7.070463123648725059e+02
-1.116147874232331560e+03
9.916881651956013002e+02
6.954976247448055346e+02
1.012242511249688505e+03
3.257022411413094687e+03
5.152968860288964606e+03
4.171884514943906652e+03
-1.531267303345886376e+03
8.766481778672830671e+01
1.744901962249522512e+03
-1.393494326961485740e+03
-9.625690483294958995e+02
-1.671395966131914065e+03
-1.355039274427170312e+03
3.375593613376963731e+03
2.200656907230216348e+03
-1.824884414474652885e+03
-8.101659412449756701e+02
3.515806787433321006e+03
4.324191155395199530e+03
2.124038870784069331e+03
1.461237719850263375e+03
-1.711757201743735948e+02
-2.489163791411890543e+03
-3.711689674577669848e+03
-3.223736047431813859e+03
-1.069210758567402308e+03
6.119197517708796568e+02
2.400641289255077936e+03
5.203998061172052985e+03
6.309024453468900901e+03
5.770678296827202757e+03
6.364897425382766414e+03
5.286675175223762380e+03
5.980530996848619907e+02
-2.449911605016607155e+03
-3.215112039711014404e+03
-2.652362881517322876e+03
-1.220740783360110981e+03
1.020666297027678183e+03
5.084403483611757224e+01
-5.621119754402282524e+03
-7.497127163008424759e+03
-3.044181717172456501e+03
-1.057281709823761503e+03
-2.816318366211955436e+03
-6.942340655064243037e+03
-8.160543261586977678e+03
-9.875858833741887793e+03
-6.910459219227598624e+03
-3.546135075479047032e+02
8.295069504485250945e+03
9.838100738877241383e+03
1.260920338411554258e+04
1.301832037190329174e+04
5.459476042333242731e+03
1.686453105356581318e+03
8.629530072338502578e+02
-8.502064810657235512e+02
-2.873889874953807976e+03
-4.218163196446130314e+03
-2.519973070002972690e+03
5.407934368728823529e+02
2.605207654054297564e+03
2.962320066283141841e+03
2.188736674849376868e+03
2.586585798167946450e+03
2.585234661037397018e+03
2.905461397503475382e+03
4.358457820701283708e+03
4.997816852392330475e+03
3.943434358906228226e+03
1.745403176516591884e+03
-4.584722007240977746e+02
-2.130881183058464558e+03
-2.586760242150879094e+03
-1.521637765674168350e+03
1.654313422317065942e+03
4.193181728420841864e+03
3.611984569197215933e+03
1.212729692133039180e+03
-1.073539837763224341e+03
5.930409475591226283e+02
3.155655354904126852e+02
-9.560169711560959058e+02
-1.378855613373681990e+03
-8.240086175196278191e+02
8.166459360709553721e+02
-1.888703332279667620e+03
-1.808179878378208059e+03
3.283014032219218279e+03
5.273877398887303571e+03
3.105398750157283757e+03
2.389605634830736562e+03
1.038605823068089421e+03
-2.676742504951376986e+02
1.767401842822148410e+02
-3.142265979716632046e+03
-4.766618526878186458e+03
-4.431237537310898915e+03
-2.579162171800267515e+03
-6.255090917175610912e+02
-1.893803565542453384e+02
-3.082324997919842247e+01
3.072029581101196527e+02
-1.752156773186730447e+02
1.389218062806994283e+02
1.256572632356479744e+03
1.957688301363116352e+03
5.763456194644718380e+02
-3.306453773373293643e+03
-6.678581094837833916e+03
-8.357083886328529843e+03
-9.350894433007459156e+03
-6.859189813552833584e+03
-6.132066828061289925e+03
-7.589535212712688917e+03
-1.070959764302290205e+04
-9.285282760199799668e+03
-5.579583422583852553e+03
-4.765460283045958931e+03
-4.480819062978577676e+03
-1.926774359321011161e+03
7.466603482836778767e+02
2.197491560414737705e+03
3.611810180060280800e+03
3.948635170139627462e+03
3.674853984039965781e+03
3.730280660050032566e+03
4.472136810996554232e+03
3.901579364183950020e+03
3.235467717985487525e+03
2.642765370512385743e+03
2.606642270406424814e+03
3.323097063673689263e+03
3.134003582670348806e+03
3.091379948586109094e+03
1.239266948628151567e+03
-3.613862165011984757e+02
-5.075045090829646028e+02
-7.821224061834374197e+02
-7.753137519029930900e+02
7.009497300035924354e+02
1.181717375598766921e+03
1.144038225460934655e+03
1.372082485633281522e+03
1.181860722604638340e+03
1.619306198389258270e+03
1.285499317627819437e+03
6.166121177912596067e+02
9.946395480458802467e+02
2.277450498950890960e+03
2.168036930503832082e+03
8.144211866874055659e+02
-2.332927950923164815e+02
-3.450075115332185192e+02
-6.279100913100166963e+02
-1.469176923687708040e+03
-3.318675304477743794e+03
-5.138210421244447389e+03
-2.186699268377536555e+03
1.323803315650766081e+03
1.804194818203919795e+03
1.986471429051568521e+03
7.936642710027790599e+02
8.487803045584593065e+02
6.772018471229451961e+02
8.392755146759461695e+02
1.212784197250391344e+03
3.216630866050775239e+02
1.107024435457190293e+03
3.018093474862258972e+03
1.618805961651701182e+03
-5.458921568406111646e+02
1.026967901613479398e+03
2.533398790562553131e+03
2.141265585098605243e+03
4.238096312419320810e+01
-1.743979750462336824e+03
-3.180664112638585721e+03
-4.188870841946602923e+03
-3.072084247550676082e+03
-3.611308716297195133e+03
-3.269475937039976998e+03
-1.546463464957384986e+03
-1.120014257365792218e+03
-2.184939649700937025e+03
-3.097272945427815102e+03
-1.679082592761336173e+03
-5.863413870997728736e+02
-1.017933798076400080e+03
-7.266753833594132175e+02
6.746099782799402078e+01
3.667274283721533720e+03
5.297546728956641346e+03
3.955408889625088705e+03
2.683026341358384798e+03
1.252369668061542143e+03
-3.026117666992861359e+02
-1.832051426086775336e+03
-1.714973167202515697e+03
-1.995327209771689240e+03
-2.249121891511847480e+03
-1.850306800056670227e+03
-1.429191615899592023e+02
9.142005178711547160e+02
1.005388446422818788e+03
2.150328028037526565e+03
2.600670044033053728e+03
2.623173706510891407e+03
3.052028659386843628e+03
2.681332118956594513e+03
2.183171598903623362e+03
1.550638699325038942e+03
1.494840843128190954e+03
1.429737006184285519e+03
5.932447130628302148e+02
1.553115718702609058e+02
-1.842420070886492169e+02
-1.049431516797018503e+03
-2.096282796435692944e+03
-2.701715994189376943e+03
-2.735894645670509362e+03
-2.544892123132233337e+03
-1.653450429828008964e+03
-1.854351616350027825e+03
-2.153860755802169933e+03
3.887493665567480150e+01
2.555940004793068510e+03
2.750348012438252226e+03
2.021374589805509459e+03
1.880946632973785427e+03
9.995500699588815223e+02
-7.779460736415953761e+02
-2.496336450296215389e+03
-2.419557129423590595e+03
-2.450138516506700981e+01
-4.010905408407409709e+02
-1.982456398957450119e+03
-1.710505052713564965e+03
-1.403717102370570274e+03
-1.172770889767380595e+03
-1.442099281992444958e+03
-5.781522990533818529e+02
4.415272316479127994e+02
-1.676101895765430640e+02
-9.743823757788262583e+02
-6.790848219757365314e+02
-2.586565406781488718e+01
-3.756569679520326872e+02
-2.183608607574280541e+03
1.260642397526042942e+02
3.834127909715951773e+03
4.473061798638761502e+03
3.676529304620681160e+03
3.362587607306301834e+03
2.038181848787151694e+03
6.004678017508648509e+02
-5.500591669864786581e+02
-5.531304938231897950e+02
-3.067161838045606714e+02
1.009225631620709009e+02
-6.931229071240665007e+01
-4.412799108277608866e+02
-5.546138472333035452e+02
3.443511034996034255e+02
1.363480629614129839e+03
2.575291992634171493e+03
3.093356179983810307e+03
2.523939506045386679e+03
2.935730504610025491e+03
4.144335383803590958e+03
4.044316392197882124e+03
2.454868345616236638e+03
1.535489840322513601e+03
1.708955681399562764e+03
1.976272806093853433e+03
1.137698502721358636e+03
1.721388558834102014e+02
-3.354852539709586949e+02
-6.048705453364267441e+02
-1.052058087484232601e+03
-2.452636807034041624e+02
6.423310475710956098e+02
4.347824590253432007e+02
1.032013209071480787e+03
2.173893691186199703e+03
2.784549261950010987e+03
3.410107986808687656e+03
3.368494069783738723e+03
2.539820742405594956e+03
6.854008747175984126e+02
-2.100871007183414804e+03
-3.355122360479249892e+03
-4.181443011060484423e+03
-4.616972497572333850e+03
-5.181771328685785193e+03
-6.210650955069157135e+03
-6.888178152273584601e+03
-6.592567192906018136e+03
-6.093342556941559451e+03
-4.244387289916460759e+03
-6.973713653299922726e+02
2.609534824176208190e+02
5.104858166690069083e+02
-1.036669700117444563e+03
-4.486856197699444238e+03
-4.364456201993902141e+03
-3.714792212538909098e+03
-2.739372814698826005e+03
-1.443435311007546602e+02
1.459458824471188791e+03
4.299730716385325650e+03
3.757340348787219682e+03
-8.828817539043623128e+02
-3.330865932910625816e+03
-5.180579523337785758e+03
-5.940048102458978974e+03
-6.012485031545505080e+03
-6.026007449081144841e+03
-6.173563599007755329e+03
-7.432039858328514129e+03
-6.698293946961418442e+03
-5.240347664922908734e+03
-3.794114645146115436e+03
3.394371371735700222e+02
2.573246402344670059e+03
2.784384287631306961e+03
3.209991697573374950e+03
1.042220734428336755e+03
1.008161475934030932e+03
2.319853723944331705e+03
2.742222196679500485e+03
2.734142520948603305e+03
2.615461234929828152e+03
2.412165988788467530e+03
1.750449958055982734e+03
1.857542239051657134e+03
2.380542996765868793e+03
1.992183141715036754e+03
1.046627568561550106e+03
4.499571902653615894e+02
5.171605996232585767e+02
1.170219408424041603e+03
1.397094438974662125e+03
1.615212511946799623e+03
2.486424997556890048e+03
3.120322549058485947e+03
3.364134671825372607e+03
3.413257629505290879e+03
3.435602959186234330e+03
3.199235661034486839e+03
2.823184327644561563e+03
1.979343579369895906e+03
1.355976714724289423e+03
4.619610941432790696e+02
-4.728332760505446686e+02
-7.582948489535534691e+02
-7.583907393331952562e+02
-5.950352334940337187e+02
6.868434485179400326e+02
8.012358029369788710e+02
2.292457510794923223e+02
-1.910989233993714151e+02
-2.888709836300379266e+02
4.400240869658761653e+02
7.417622470163097432e+02
1.513785755771443291e+03
1.665174905353678014e+03
1.692596770756165824e+03
1.963990544082595989e+03
1.354079024101542700e+03
1.055913260600386138e+03
9.905008403218963622e+02
6.815281949634194234e+02
4.754927178146868414e+02
7.889471214262323429e+02
1.118859168985497035e+03
9.607473478404913294e+02
5.224381100648489564e+02
-4.423222402226510326e+02
-1.246556703453983346e+03
-9.521638522207115329e+02
-3.991129109279469844e+02
1.706302032694697459e+02
1.112087316399557267e+03
1.833204864565758953e+03
1.836151986131408648e+03
2.176973673608243644e+03
2.703610673972796576e+03
2.817018106531041667e+03
2.512184023165173130e+03
2.100155965637686677e+03
1.707891330349936425e+03
1.167550644727876943e+03
7.460889504433704360e+02
3.993953742255882844e+02
-2.153300445463944968e+01
-6.747088857874076666e+02
-5.622711737787618631e+02
-8.201622997188991349e+02
-1.292367335215104049e+03
-1.575926928540949348e+03
-1.422779904014169233e+03
-1.222957621670747130e+03
-1.045415851721979607e+03
-5.980988530826979286e+02
-1.060604963509977949e+02
9.385980429347135896e+02
1.288955252291308398e+03
9.511182813453311837e+02
9.890665627726890534e+02
8.527207392551322300e+02
2.630605002804655896e+02
5.413156447530038662e+01
-1.820048546417542639e+02
5.046292467244676914e+02
9.356093235422621319e+02
3.758255412699313638e+02
-1.376487893558197129e+03
-3.972408695300833642e+03
-7.305856629394756055e+03
-8.199887464567347706e+03
-7.797463621248034542e+03
-7.572628599932353609e+03
-7.398436406253599671e+03
-7.200753824567017546e+03
-6.254705463773113479e+03
-4.851403105477515965e+03
-1.178622441685337662e+03
1.093597677403990474e+03
1.898198462551508555e+03
2.008043725508484840e+03
1.817390958170881277e+03
1.868253017311496023e+03
1.793558453763612079e+03
1.547298437903001286e+03
1.100417131800456900e+03
7.777041145585404820e+02
-6.074984499387407766e+01
-1.063067105031674373e+03
-9.043675914332935690e+02
-5.045484494202980272e+02
-9.374850973499043221e+02
-1.399163835505054521e+03
-1.507805107533800310e+03
-1.114416528780881663e+03
-4.668521045001476750e+02
3.218147526474588176e+02
2.695509733839721775e+02
6.100632426586134898e+02
2.586436796424797194e+03
3.596858984067774600e+03
3.160330860542796017e+03
2.668863947436814215e+03
2.225483551229559453e+03
2.017219379225066405e+03
1.737947744830014244e+03
6.906741860040356187e+02
1.543267707881832393e+02
-3.101453807521427848e+02
-8.928965739332475096e+02
-7.548705091421117004e+02
-1.859608213165987252e+02
-5.602948469953615813e+02
-1.518660764362159057e+02
4.635017143749364550e+02
1.204786134990225491e+03
2.065949834553478468e+03
2.591065962780854079e+03
2.335151801366858308e+03
2.318136539405622898e+03
2.471038343031424574e+03
2.302952489585729836e+03
1.950850741095832518e+03
1.734682706992270369e+03
1.225522829946073216e+03
6.573542357792586017e+02
-6.208159776529180363e+02
-3.358045074063707034e+03
-2.237373398813498170e+03
-1.480860232819265548e+03
-1.096455352267414355e+03
-9.091238647076519328e+02
-7.049832569050419124e+02
-6.711059507366843491e+01
4.006397525105643354e+02
9.043935154073875538e+02
1.638134850798229763e+03
2.308953595031933673e+03
2.404983015219185290e+03
2.303195056163929621e+03
2.370468488340899512e+03
1.714630498950645460e+03
-1.110165737277388644e+03
-2.198770683720654688e+03
-2.218319353455998225e+03
-4.098646011339031929e+02
-2.663412538400144513e+03
-1.368944478543792457e+03
-3.186494261234409350e+03
-3.063091290166872568e+03
-1.391669253204369397e+03
-1.249134431094989623e+03
-1.018514205670974206e+03
-3.588488187197893922e+02
2.639700123293680463e+02
-2.388355334503371807e+01
-6.346866801979977026e+02
1.948405196323697737e+03
1.505479700182346221e+02
1.415875545102929664e+03
-5.957362648117088355e+01
1.496282525078904200e+03
-3.455775059597227141e+02
-8.391847010244680405e+02
8.240190818780628490e+01
4.311657263561407945e+02
4.708095473889233773e+01
-1.181789108423829248e+03
-3.461422279691817948e+03
-3.220848909756709418e+03
-4.006165196342278250e+03
-2.785296899791041142e+03
-3.508228852967161401e+03
-1.521919190720549523e+03
-2.083315082133197848e+03
-2.472483908742978201e+03
-6.224625978767790002e+02
8.958503327495169515e+02
1.112578520040524836e+03
2.993733515649948004e+03
2.556242519586297931e+03
2.374066272561737605e+03
2.330246421638727497e+03
-1.251723530842562440e+02
1.740536082880299817e+00
5.109909773763155272e+02
6.464546751296364846e+01
-6.784412523097314534e+02
-5.993222080792381803e+02
-8.459463291375109293e+02
-1.109366332423708627e+03
-8.836300445118317839e+02
-4.496739833524700316e+02
3.434812375222878700e+02
1.080940606204365849e+03
1.667805149466145167e+03
1.629119877710929586e+03
1.796893855585057963e+03
2.236043577395382727e+03
2.081831875639957161e+03
2.485245192205674357e+03
2.280253657115884380e+03
1.976968639981548222e+03
1.621304053633460398e+03
1.056147065951917739e+03
1.334307857959106514e+02
-5.570082162152010596e+02
-1.507351129594185750e+03
-1.811387605103509031e+03
-1.774177203520339162e+03
-1.328557240994924996e+03
-9.622684350805627673e+02
-7.335165658509239393e+02
-6.164324992119018987e+01
4.193989800925071449e+02
8.855761573289022408e+02
1.192925040744268699e+03
1.959452173404194355e+03
2.855333503200069117e+03
3.360589639961102421e+03
3.296933618455083433e+03
2.828646793303048071e+03
2.332688474244352165e+03
1.934960729941988120e+03
1.468475273934066763e+03
5.652063210799753961e+02
-2.728148959242730598e+02
-8.127623372940778381e+02
-1.068651104348297622e+03
-9.524711359925587431e+02
-5.898289587804014218e+02
-1.516151663888920780e+02
1.465659336931104662e+01
1.956914246294768986e+02
6.256352920075264592e+02
1.350297741053350364e+03
1.823438678437809358e+03
2.013296729194132467e+03
2.624950830758476968e+03
2.913271231964803064e+03
2.371238350090550739e+03
2.021838176494146182e+03
1.990023592561190299e+03
1.955737619325768037e+03
1.853943677533899290e+03
1.064656121952342119e+03
1.138428709089389486e+02
-7.275583991845709306e+02
-1.305618861601993558e+03
-1.398335184807729320e+03
-1.391716979741597697e+03
-1.367784177398077190e+03
-9.355544591118843982e+02
1.659570146850306571e+02
1.032768425136357791e+03
1.606883364689594600e+03
1.973364834067380116e+03
2.340215752988748591e+03
1.522475999125144199e+03
-5.668513490925483893e+02
-3.557749658683193502e+03
-4.139237050496929442e+03
-4.138380413405591753e+03
-4.682226998501711932e+03
-4.986801531557226554e+03
-5.667223011323965693e+03
-6.402449500538245957e+03
-6.469431946648169287e+03
-6.895175348251266769e+03
-6.653732934413288604e+03
-6.625128438950037889e+03
-4.078325115002754956e+03
-3.803426720795341112e+02
4.619274901695181370e+02
8.524621490634629026e+02
1.333283260652358422e+03
1.013485813277585521e+03
-2.077994075879906177e+03
1.304852623770142372e+03
3.154079601511362398e+03
2.274663043495777401e+03
-2.086441865797788978e+03
-6.472708527770995488e+02
1.606191110145013454e+03
1.630028076821533432e+03
4.422898758676894886e+02
6.839509044199757000e+02
3.739542655471794319e+02
-3.207284327683245237e+02
-6.511027916285315769e+02
-1.050175929974046994e+03
-6.309415551929002959e+02
2.216905362548438916e+02
3.087262898849134558e+02
2.801947635647715060e+02
1.027166324729312009e+03
1.746739606931957496e+03
2.207950487175060971e+03
2.853841430269275861e+03
2.860431447506503901e+03
2.725698927254133196e+03
2.397708485607686271e+03
