-4.750804473942778827e+02
-4.251708409108238129e+02
-5.070282854774425232e+02
-9.537319642754029019e+02
-8.363066931790469880e+02
-4.568241142157577883e+02
2.271520453694437336e+01
4.223752611622845734e+02
1.143195259254782513e+03
1.784205309267970733e+03
1.844429289892855195e+03
2.288831132749756307e+03
2.497542071385227700e+03
2.715543260957707389e+03
2.676688195512269431e+03
2.658009027673767832e+03
2.256432529965125013e+03
1.897827128122640488e+03
1.293337632881189620e+03
1.001929373915363271e+03
3.946815208810835998e+02
2.312695471615537599e+02
-2.617465527638126446e+02
-8.125553794018486542e+02
-9.221789362563015402e+02
-7.325684268731280326e+02
-3.739244062150984291e+02
3.129982927079187220e+02
1.105943421594584834e+03
1.260141798118472252e+03
1.305622458232272265e+03
1.260199659367726781e+03
1.056903382593837478e+03
9.868849709798129197e+02
1.224988105794984904e+03
1.381390804977735570e+03
1.403535131566343580e+03
1.046641548892800529e+03
1.015172593258621532e+03
6.611071743645898096e+02
2.419479180607598323e+02
-4.846275918586152898e+02
-9.253318719851955620e+02
-1.035982155407804612e+03
-1.292794957398271890e+03
-1.142530636907235021e+03
-5.164110804466414493e+02
2.954974698975134970e+02
1.089427072049237040e+03
1.408326361828756717e+03
1.957010255863942575e+03
2.329910746745777033e+03
2.690869841668928984e+03
2.661644019432966616e+03
2.509169230473205971e+03
2.485400366858284997e+03
2.535358416223524728e+03
2.305025116024160070e+03
1.909400032621481614e+03
1.620432733224161439e+03
1.151060656517194275e+03
1.852941927763625642e+02
-3.449151102276387633e+02
-3.635782252243409403e+02
-1.817095598570077755e+02
3.262396244923726130e+01
1.854027143017833907e+02
5.486229057087773526e+02
1.047344781197365819e+03
1.346613943125267042e+03
1.602426192198337958e+03
1.702806317884427017e+03
1.460811714934805650e+03
1.451396587456248199e+03
1.727520688806505405e+03
1.868069456156314800e+03
6.460227138489055960e+02
-9.545573613074562900e+02
-5.569483276059168730e+01
1.526597586160430637e+03
1.594378081796716287e+03
5.005643355156391863e+02
-1.427862891230124887e+03
-3.910939331108333590e+03
-6.781694958860607585e+03
-7.214126685534540229e+03
-6.531328596891907182e+03
-5.571259331202223620e+03
-4.162825691762821407e+03
3.570578700029658421e+02
1.741450613719131752e+03
-2.670686898983952688e+03
-4.162410766537433119e+03
-3.643732526062387024e+03
-3.747736199809988193e+03
-4.205134337498308014e+03
-4.045961987724936989e+03
-4.000094377548643479e+03
-4.045509686463231446e+03
-2.238349202876162508e+03
-2.702747928823730035e+03
-4.187636225729999751e+03
-1.224958381016356498e+03
-8.008187355080109455e+02
-9.551514842101385057e+02
-1.073042843960698519e+03
-7.544595260268978620e+01
7.907261740547450017e+02
1.145400053708909581e+03
1.696619586493964107e+03
1.966444811892106827e+03
1.986864646693330769e+03
2.141887380521546220e+03
2.321541909496807875e+03
2.401776164536650413e+03
2.466680066185002943e+03
2.156372603830176558e+03
2.271792825739929413e+03
2.290951278266991721e+03
1.894909997269795440e+03
7.207609389811315168e+02
-2.736064207205809566e+02
-2.992377673551058592e+02
-4.060638964253736276e+02
-8.660592698789796486e+02
-1.109255397049721523e+03
-8.517127214378418785e+02
-9.734990000537634103e+01
6.030071731200014256e+02
1.273417649426497746e+03
1.813848129674596294e+03
1.711404117934692522e+03
1.418161236223869764e+03
1.590194141954623547e+03
1.372509469270559293e+03
1.263074225818463901e+03
8.797820601344483293e+02
7.495837781031734721e+02
6.634568100729292155e+02
4.343942810523039952e+02
-1.225815263900336731e+02
-8.034450038286579456e+02
-1.410053783408743811e+03
-1.879384223866319189e+03
-1.583535774401229901e+03
-1.058523013102551658e+03
-8.542582734914872162e+02
-3.686522589137013028e+02
2.482810117253188196e+02
1.024471802765608118e+03
1.219899800785681009e+03
1.234872447140723352e+03
1.374798875896784466e+03
1.950800930755215632e+03
2.117544446763170072e+03
1.727315526274036529e+03
1.187808580051561194e+03
1.242879905222606794e+03
1.349641474304203257e+03
9.670539158056918723e+02
1.550664725679789058e+02
-8.592835870825532538e+02
-1.387012263422418755e+03
-1.165022212944382773e+03
-1.282258769591385089e+03
-1.333849163244027068e+03
-8.819014678713471085e+02
-5.413908887891140012e+02
-2.551822046053516431e+02
5.888134393578833397e+02
8.615985990568149191e+02
8.801371124959488270e+02
6.883639343528368499e+02
6.793488165628515389e+02
1.683015860100524606e+02
2.332581400835553325e+02
4.170898397195966254e+02
2.978462639378730046e+02
-1.732926077166452217e+01
-4.695171590818362688e+02
-1.646850387626637257e+03
-2.094252328702579234e+03
-2.233676480575712048e+03
-2.406257432929139213e+03
-2.468130553757822327e+03
-2.451314495611246002e+03
-1.905921679638551950e+03
-1.477966869947957321e+03
-4.723885145639549705e+02
5.979794266857943512e+02
1.361241522751913180e+03
1.809331316474664618e+03
1.730215032462824411e+03
1.276868162581021124e+03
1.052180068135130796e+03
1.380152734134123875e+03
1.440850017536236692e+03
1.044408311551398810e+03
8.767799985503970674e+02
5.609043297035528894e+02
-3.041496674935376063e+02
-8.134083312473961769e+02
-1.124985789676960167e+03
-1.514973767511106644e+03
-1.791528975354947079e+03
-1.545689541177397359e+03
-1.069395535197542586e+03
-4.625870844103576474e+02
-9.621728815192463458e+01
7.688172950378705082e+02
1.021579155450284475e+03
1.068790097692673271e+03
1.459273137403596365e+03
1.187972157007245869e+03
1.209874736562085445e+03
1.013050650296489266e+03
1.013572421053343191e+03
8.933490793533698024e+02
5.003312010336945264e+02
1.906803166448868012e+02
-4.906900670030790366e+02
-1.089915579216532933e+03
-1.140185729827426940e+03
-9.450499950784408156e+02
-1.383917935198547866e+03
-1.424106109488437369e+03
-9.574774768137032197e+02
-6.685549241426824665e+02
-2.234842087344167680e+02
2.985437365317500280e+02
9.373946014438515704e+02
1.192278364810865469e+03
1.428228069803517201e+03
1.577035099434511721e+03
1.666686788122921826e+03
1.745237205034034787e+03
1.676462129377106976e+03
1.173128556683263241e+03
8.214641905105887645e+02
5.134024762610454218e+02
1.171721001064786662e+02
-3.165002291079807719e+02
-3.288082787472338282e+02
-6.705565413612342809e+02
-7.729831837458900736e+02
-8.290022485107311923e+02
-8.435312448272901520e+02
-1.487517812217727737e+02
8.332541459656864618e+02
1.618820605722997470e+03
1.718893956845162847e+03
1.929280925637828432e+03
2.341088775676318164e+03
2.600493926103609283e+03
2.651309377656571087e+03
2.214014478843100733e+03
2.006650258638790092e+03
1.943879795447712695e+03
1.951762071078980853e+03
1.478984618021425604e+03
1.051607857045391256e+03
7.362087647324308364e+02
3.866203123088995426e+02
-2.222632381808298518e+01
-3.961915352549244176e+02
-4.382152383329412260e+02
2.572704443087780035e+01
7.575903505641642823e+02
1.279430437083056404e+03
1.712383335755062944e+03
1.539175967517532627e+03
1.711833039933365399e+03
1.720550329550904053e+03
1.625209927715853610e+03
1.221668338830415678e+03
-2.810397928361390427e+02
-2.793892194880306761e+03
-5.271783002761157150e+03
-4.771799778410382714e+03
-4.477930062988421923e+03
-4.710128535178741913e+03
-4.642423339870596465e+03
-5.076848782116244365e+03
-5.101376209598807691e+03
-5.163004201358252431e+03
-4.002728385310755129e+03
-3.804502205995119766e+03
-3.679269845516292662e+03
-3.245824359520773669e+03
-2.689065148410754773e+03
-1.293034532922476501e+03
7.932543619974718467e+02
-1.578271395655148353e+03
-2.221769119888778278e+03
1.530843018156086373e+03
3.588555413633291664e+03
1.229304704314396076e+03
-2.306871506432256865e+03
-2.538690880051987278e+03
-3.160128018242509370e+03
-3.383133902975560432e+03
-3.970679986533928968e+03
-5.004870243339462831e+03
-5.519755323724285518e+03
-6.178448371635639887e+03
-6.165936886893377959e+03
-6.070090844685624688e+03
-3.505890490733590923e+03
8.217959069221727759e+02
2.207900972910463224e+03
3.114495376830881014e+03
3.415695978770572310e+03
3.766505627630701383e+03
3.813890652790321383e+03
3.813006658423683803e+03
3.998957194961751611e+03
3.587688651765069608e+03
3.322144132764957703e+03
2.895476464743217093e+03
2.514735654000974137e+03
2.685878475737343706e+03
2.399912402555216431e+03
1.464818502550419680e+03
1.506725823656383909e+02
-3.344195296257047971e+02
-2.104942113134532917e+02
-1.362514558985734325e+01
6.913172668446920852e+02
2.337585902360111049e+03
3.320136608237436121e+03
4.044710360858678087e+03
4.002395842136339525e+03
3.429286905637732616e+03
3.154656467807165882e+03
3.137634226057792148e+03
2.903857625398889468e+03
2.782138344110831440e+03
2.549455207106300350e+03
2.794923999965738858e+03
2.707905133458469209e+03
2.368888115092568114e+03
1.552726531705481420e+03
7.081606752106404201e+02
1.492521124284104417e+02
-2.968152307339743743e+02
-6.479163438742530161e+02
-6.521649019864651109e+02
-4.215759132964502669e+02
1.648266568225391211e+02
4.851384552283438438e+02
-1.907379015255448849e+03
-1.035614680445911745e+03
-9.176284545299361071e+02
-5.796928723266140651e+02
-8.070206372783219422e+02
-9.174026756314822251e+02
-1.398421221553112218e+03
-8.519732135226012133e+02
1.983471216907045402e+02
3.332564866851513585e+01
2.830925712823062668e+02
2.205429310458689258e+02
3.770984151710102594e+01
3.474452954189409866e+02
-5.336558078744333855e+00
3.645066900998725714e+02
7.779227583261124437e+02
9.569115851964808144e+02
9.604658265400855726e+02
1.319698184536007602e+03
5.766031156413808958e+02
2.671403014661265729e+02
1.340429201977904540e+03
8.913816806386386133e+02
-3.471789281280734372e+02
-7.832218064914744673e+02
3.923162486216209572e+02
5.156227465847573512e+02
-6.144638272348659029e+02
-6.121523824192672691e+02
-5.172482205489487797e+02
-9.967924753892589251e+02
-2.468876358362675546e+03
-4.200335125579797023e+03
-4.744344619086175044e+03
-4.557959038562151363e+03
-4.771878226262557291e+03
-4.037084622396759187e+03
-2.724779427282923280e+03
-3.001151786159925905e+02
2.277875035971504076e+03
4.845274391806231506e+03
5.958052693673502290e+03
6.004220742842186155e+03
5.028693410481973842e+03
4.035298472960918843e+03
2.891084937508797793e+03
1.531176248288813440e+03
1.534526840648824873e+03
2.117984305710019271e+03
1.722591444418876335e+03
8.684176415266540516e+02
5.736294439762712472e+01
-5.538119124403169735e+02
-1.210222028105744130e+03
-3.617478087176675672e+03
-7.910178228988900628e+03
-1.104547242639383148e+04
-1.047257515605152184e+04
-8.386634035981673151e+03
-4.587667399117752211e+03
1.237165965039954244e+03
2.872828173778498694e+03
2.220524918044544393e+03
2.117081986129399411e+03
2.330436431441173227e+03
1.894760944651219233e+03
1.261142306841022219e+03
5.033892413571210227e+02
1.264424566320217309e+03
3.034155595305184306e+03
3.512531087673550701e+03
2.050716966714544469e+03
2.047449044160970857e+02
-3.904298063190390735e+02
-4.188339172526941638e+02
-4.362734776324153074e+01
-6.507590130704386411e+02
-2.006912450934543358e+03
-3.273254176667106549e+03
-2.251503355734179422e+03
-8.774670713950039271e+02
-1.753704705684338251e+03
-2.148240958321515791e+03
-5.730107991465262103e+02
4.097485189148867448e+02
1.649696880925316975e+02
8.099350876350872568e+02
2.804577536933903957e+03
4.017708422637258536e+03
3.845533560009342636e+03
3.484132026928543382e+03
1.944531672076820314e+03
-1.104382956637253557e+02
-2.364938563449894900e+03
-2.562917973169062407e+03
-1.264172265840563568e+03
-3.695473049707326822e+02
4.518167847185164305e+02
1.109947167878606251e+03
3.155193128797882878e+02
-7.644698458401146581e+02
-1.712830607729908024e+03
-1.126501391630806438e+03
-8.072201344494709474e+02
-9.367861546174118530e+02
-1.152297311618743265e+02
8.622572991644378817e+02
1.573314612548214654e+03
1.736667390438740995e+03
6.233018988221990639e+02
-1.092568928044248878e+03
-2.619768265153398715e+03
-4.131180061260858565e+03
-3.939334639896266253e+03
-1.284181939889713931e+03
2.551556036253987713e+03
3.763718493493652659e+03
3.381493168185319519e+03
2.644965654246168924e+03
1.461135724221400096e+03
9.800236324056327248e+02
1.578654034097713975e+03
8.299870538754245217e+02
-5.468714534289508720e+02
1.017109484657314965e+03
2.577889960725833134e+03
2.428464114872880600e+03
-7.230599418223454222e+02
-2.764771615690243607e+02
-1.112883983594793108e+03
-4.697431578485514365e+03
-6.403122883956752048e+03
-3.276872866677046659e+03
-6.676520933700877549e+02
-2.454374811787131875e+03
-2.845095294029960769e+03
-3.209957270499397509e+03
-1.293810192124125251e+03
2.026428725337756077e+03
1.655638575603082245e+03
4.754838114705511543e+03
3.485057781294560755e+03
2.922235763301064821e+02
1.698511388903144052e+03
-1.385874155848725422e+03
-4.749981772338700807e+02
-5.030695904389355064e+02
-1.859196490512225864e+03
4.468104558105798105e+02
-8.398160862885150664e+02
-1.491250440325495447e+03
-3.142567698804682550e+03
-2.661596727668802032e+03
-6.012348577611644032e+03
-4.563998459640528381e+03
-3.440498837828666183e+03
-2.766803862648634095e+03
-7.638623870214205454e+02
-1.477820915147951837e+03
-2.426455657360865246e+02
-4.568325533106695730e+03
-9.309787887755253905e+03
-5.499009323784698609e+03
2.030926121869248480e+00
2.653470412378870606e+03
6.786301577750488832e+03
6.802453044136506833e+03
5.006844828445705389e+03
2.138444113635038775e+03
7.152484508414383981e+02
4.662848485199152151e+02
7.726052976906012191e+02
7.612397594121182465e+01
6.257762201057572611e+02
3.286546309835691318e+03
2.882452962654545445e+03
2.531558637268133225e+03
5.052870194716841070e+03
6.151379497544033256e+03
5.447071572102742721e+03
4.649217866818056791e+03
4.180877420074646579e+03
4.638996729312311800e+03
4.322736954077429800e+03
3.586989930990599987e+03
3.026723180086745742e+03
2.221932214776400997e+03
9.335429411894795066e+02
-1.584968472079726496e+02
-1.167196556854327810e+03
-2.242575047804098176e+03
-3.749810934859339341e+03
-5.214505218416108619e+03
-4.416492989269786449e+03
-2.365010898105896104e+03
-4.613901679154569138e+02
1.955285159158640454e+03
3.744034802031733761e+03
3.367834505026360603e+03
3.337807217325678266e+03
3.194967384682971442e+03
1.346220289803726700e+03
-1.017575279272571720e+03
-7.842732645850360313e+02
-2.967693397354133253e+02
1.015889173757377989e+03
2.583629403206994994e+03
3.200519460229609194e+03
3.576493245763827417e+03
2.465488600582264098e+03
1.043562048366763065e+03
3.306529816541649325e+02
-3.353333788200676508e+02
2.444118317691816742e+02
-3.501273604745023817e+02
-9.401670957706512581e+02
-6.197945895843913604e+02
-5.126724224357660660e+02
-1.261861751633409767e+03
-7.694052771984279389e+02
6.385900872203025074e+02
1.226113001868200399e+03
3.572907717727877639e+02
2.280454767962691278e+02
6.091922321858021405e+02
5.126773624057237839e+02
2.954937348476290140e+02
-6.312762137315909285e+02
-1.198599749339686923e+03
-5.185632224300384223e+02
-3.492354242895877974e+02
-1.795522222775165346e+03
-2.201443160508325946e+03
4.199503203455084304e+02
2.318513948104191968e+03
7.531204102855792826e+02
-4.017805207633401920e+01
-2.142926392833904856e+02
1.438842666308775051e+03
4.251199164934522742e+03
4.955819552154175653e+03
3.893749605102731039e+03
3.309827620515674198e+02
-4.487537891145442700e+03
-7.263912132916367227e+03
-5.343138579812814896e+03
-6.631208818328069356e+03
-1.019110136795727522e+04
-1.294079043123937117e+04
-1.358222822388334134e+04
-1.203443238780884712e+04
-7.540460808814959819e+03
-4.924336190585302575e+03
-9.297147338683573253e+03
-1.139193439953579946e+04
-8.334797292241524701e+03
-3.568167514488708093e+03
1.111646634077200815e+03
3.740629819697162475e+03
3.852799450723347945e+03
6.950258109568631880e+03
4.749050135658240833e+03
9.662731437099722598e+02
5.377469468404747204e+02
2.135263547500335335e+03
3.730977743165830816e+03
3.641024497510133187e+03
4.040484294512281394e+03
3.827333299933182388e+03
2.452442057202398246e+03
2.406826805704913568e+03
1.983449648422944620e+03
1.282327168685727656e+03
7.049090237151062865e+01
4.009779326490273661e+02
9.007711759287111590e+02
9.659820794302071363e+02
2.926618297920372243e+03
3.832588140343518262e+03
3.000048301259570508e+03
2.429113869776601859e+03
2.239772603909779264e+03
3.804920611777276918e+03
3.525707427486856886e+03
1.236165768111159878e+03
1.229241961703012521e+03
3.319304315791179079e+02
-1.828687202529591559e+03
-1.408505275910055843e+03
-2.516404609887773404e+03
-4.387448035811646150e+03
-1.992660716098535204e+03
1.659000443142404947e+03
3.028482583911566053e+03
2.553759755776331076e+03
2.246739460056277494e+03
2.911389991906345131e+03
3.704690468280197365e+03
4.820780606919419370e+03
5.554799920515742997e+03
4.311893180925872912e+03
3.534153334115127564e+03
4.180647162287535139e+03
4.355436250319860847e+03
2.557472224387262031e+03
1.177710312227333588e+03
1.593180629613476867e+03
1.373984043738235641e+03
-2.395811970125535936e+03
-8.303279140864056899e+03
-9.677450459823125129e+03
-4.887078465155254889e+03
-1.123733934927335213e+03
7.156585106717727740e+02
1.391886955306684285e+03
2.913784874588011462e+03
2.488170922693264401e+03
9.870238698088090814e+02
2.045658199412890781e+03
1.740077707285973020e+03
7.692469938855208511e+02
1.722152055541447453e+03
3.844880696573743990e+03
3.550492841304594549e+03
2.631047882460889468e+03
1.146400039368040325e+03
-1.675583518624956696e+03
-2.624784776738877554e+03
-2.545008291607765386e+03
-2.915184486967221346e+03
-3.579371601177168486e+03
-5.837607513563375505e+03
-8.381881454866086642e+03
-7.152149088144016787e+03
-8.182306403182943541e+03
-5.087336294933657882e+03
1.267589899732611912e+03
2.014463929271877305e+03
2.953548585721002837e+03
4.956815605403715381e+03
3.916106730777935809e+03
1.424461246171554194e+03
1.391990726079398200e+03
1.057671696135177854e+03
-1.810655225856864035e+03
-2.516003793754297476e+03
-2.115307386888619021e+03
-1.044534522848478673e+03
-1.436550853032347732e+03
-4.287293076440415462e+03
-6.368740888303995234e+03
-5.702011888532872035e+03
-2.670246212812741760e+03
-1.013430866429245725e+03
9.594003792015132603e+02
-1.829810972011236572e+03
-5.419938106242900176e+03
-6.738908120807675914e+03
-7.918687252975867523e+03
-6.288400993419787483e+03
-1.135036054023775023e+03
4.804429740192351346e+03
8.847941437804071029e+03
8.961472537617788475e+03
5.111979330463937913e+03
-3.745737987260999375e+02
-4.458094765880332488e+03
-6.716511567181914870e+03
-7.742886931647873098e+03
-1.989227326381246030e+03
5.980328890567529015e+03
6.331568509983212607e+03
3.759318266207220404e+03
2.857709331755539552e+03
3.259804508398705821e+03
2.876638059105028788e+03
2.810153024042507695e+03
2.637314075022917223e+03
1.839067056524744430e+03
2.021519228895600463e+03
2.135708880283451890e+03
1.490397522370803472e+03
-2.155302387800566066e+02
-1.146103381831286697e+03
1.005081903846431373e+03
2.491816778070783130e+03
1.236311108035031566e+03
-2.514504118039996570e+02
-4.866667077355699007e+02
-6.579058689345195035e+02
4.690012749765938906e+02
1.163407607839319326e+03
4.322457901875142738e+01
2.901420258403649655e+02
1.676023760582139175e+03
1.441848549720729579e+03
1.174846508138108220e+03
1.081431350378024263e+03
-5.147653534329623426e+02
-7.928578539847732145e+02
1.713779432717296231e+03
3.785774784577409719e+03
3.020783815378988038e+03
8.956416049915198130e+01
-6.826191662481078311e+02
1.153807389934798948e+03
1.021230420040711124e+03
-3.816414785675441408e+02
2.152989535994549044e+02
1.614724701456862022e+03
1.304146359982495369e+03
1.519068102635302694e+03
1.698410934078088530e+03
2.747458386301502287e+03
2.163897208599674741e+03
1.724859000015320817e+03
1.013138328961400703e+03
4.409152111631976823e+02
1.095478858234189374e+02
1.968750975281249183e+01
1.933845900273424832e+03
3.636924774982040162e+03
4.684017444462845560e+03
4.869288828411951727e+03
4.485831124317093781e+03
3.775701028380693060e+03
3.186766808025696719e+03
3.531908064381502300e+03
3.391051291595876137e+03
2.777310334715376484e+03
1.727558357667378004e+03
7.085602482517191447e+02
-3.264873269131850293e+02
-1.148585180534564643e+03
-2.474970036489698032e+03
-4.534623903246015288e+03
-3.604432881544229076e+03
-3.029360699947332250e+03
-4.779373387070377248e+03
-5.304511357153363861e+03
-4.347729541774152494e+03
-3.563977262799563505e+03
-3.055238564153307834e+03
-3.003472147719624445e+03
-4.167645698979135886e+03
-5.241776610785430421e+03
-6.794876985081534258e+03
-9.713866556679126006e+03
-8.342722180398612181e+03
-3.958423524534619446e+03
-1.080141883138928279e+03
-1.689030161237787070e+03
-2.210083569247401556e+03
-1.023387546402616294e+03
-4.769924358006334842e+03
-6.061564454334694346e+03
-1.747316746925202324e+03
1.666866347777447118e+03
-8.378032710673037400e+02
-3.920211425115402108e+03
-2.877524762792086221e+03
-2.497750662278083837e+03
-2.438920854011407755e+03
-1.573077074496152363e+03
-1.847145740046800256e+03
-2.415178946977250234e+03
-2.308064855403670208e+03
-2.027698215778896156e+03
-2.585052178525584168e+03
-2.530122021894134377e+03
7.380021633337299818e+02
-3.825563599532132457e+02
-3.024746498835032980e+03
-1.692661142076616443e+03
-4.122561776604495094e+02
6.345679117913157370e+02
6.686970064452876841e+02
1.088097928740632824e+03
3.099885502104496481e+03
4.947245899581555932e+03
4.648143622730784045e+03
3.710544291483147390e+03
3.293534609728523719e+03
3.725170938413101339e+03
4.135536776416616704e+03
2.908637004606259779e+03
1.259370484630122064e+03
1.425755439364009362e+03
1.753977560992024564e+03
2.403005041868804710e+03
2.803586241139920276e+03
1.303739087383254173e+03
2.847943338137981186e+02
-3.322229710050538074e+02
-7.043397179257214020e+02
-1.251770143949646581e+03
-9.435843217680422867e+02
-2.062832356719733795e+01
1.290232008838385354e+03
2.104241424228669985e+03
2.365622512768573415e+03
2.482445363637799801e+03
2.506543400746795214e+03
2.223174089267351519e+03
2.034597375367266068e+03
2.689791358097540069e+03
3.333649084971953016e+03
3.371974926757850881e+03
3.489566701108196412e+03
2.676491679922969070e+03
1.578210929194998471e+03
-1.511583835723245329e+03
-5.971218352747184781e+02
-4.825256961517206946e+02
-1.330886835739461731e+03
-1.930013066579907218e+03
-1.917743599790323287e+03
-1.265618257193591489e+03
4.070018235729346543e+02
1.005406497076670234e+03
-5.946013679041805062e+02
-1.805065616826105270e+03
-1.066910993897562776e+03
5.747027772676610766e+02
2.003700192827584260e+03
2.351090445189107868e+03
2.078911608360592709e+03
1.787103923470132258e+03
1.593699450500421563e+03
1.382741855583878532e+03
1.220303528010332911e+03
9.422676157266547534e+02
6.086281605787864919e+02
3.214171686330402053e+02
-2.050208472120579728e+01
-1.400672786912416257e+02
-1.032358849286718794e+02
8.500455277788860542e+01
4.066499276094459105e+02
1.661577087024180855e+03
1.816914950242388159e+03
1.987823605171679674e+03
1.873122728829591097e+03
1.826926702498874647e+03
1.501351178279998749e+03
1.667181706089040972e+03
1.591499664994393925e+03
1.523352448047356120e+03
1.216408634131881627e+03
8.054666526804581963e+02
4.486408425205706294e+02
3.006492283256665132e+01
-5.082746362624911853e+02
-1.241478000181416292e+03
-1.766595292603117969e+03
-1.979701702261512764e+03
-1.980812665710678402e+03
-1.470752842548271019e+03
-8.505436819610844168e+02
-2.812612829472819271e+02
6.001426812178707451e+02
1.343837200717825681e+03
1.162767315195927495e+03
1.206822354692288627e+03
1.573027046559897826e+03
5.236911641174864371e+02
-2.057999499603442473e+03
-4.730337966789476013e+03
-5.530897074323334891e+03
-5.706678779547210070e+03
-5.613603181762996428e+03
-6.222652766395651270e+03
-7.257916450134858678e+03
-5.572307660396620122e+03
-2.871723557961334791e+03
-2.238368280505520033e+03
-1.861147651175999272e+03
-1.623028044790958575e+03
-1.210169082750855978e+03
-5.756779405717214786e+02
3.976289746337718611e+02
8.998337899668997579e+02
7.859935979908603940e+02
8.922338290262392775e+02
1.201439290150432726e+03
1.372493674833268415e+03
1.512396712622782616e+03
1.422151974222049603e+03
1.726862232111521735e+03
1.372587553205254835e+03
1.064046279490579536e+03
4.153547837128570563e+02
-5.578406220950371335e+02
-1.363889178802798369e+03
-1.219429070958177135e+03
-1.250515402055822506e+03
-1.331303099006184766e+03
-1.284546694328100557e+03
-9.990766772782475300e+02
2.938897670155921737e+00
8.145640298261432690e+02
1.176019958980084766e+03
1.124221805320810063e+03
1.166053873453613733e+03
1.527475508629051319e+03
1.789567131433821942e+03
1.575478205027559397e+03
1.611177146911975797e+03
1.554483649082579632e+03
1.631176698668292602e+03
1.506313010982714786e+03
6.198476927336033668e+02
-2.388548143909971202e+02
-7.656830376934352671e+02
-9.617649277254755589e+02
-1.195076428276495108e+03
-1.290883710019029650e+03
-1.381498171663267840e+03
-9.030505008525606172e+02
6.560688894497665125e+00
7.356306756494673209e+02
9.165096339743713543e+02
1.173481453564818139e+03
1.747556980378094750e+03
1.617624523432098613e+03
1.261626708295973913e+03
8.830057936960407687e+02
8.844188557032435938e+02
1.044379205439228826e+03
1.306122452005625064e+03
1.230588378080562961e+03
1.435734896118662164e+03
4.416182026350401770e+02
-4.207616909323286336e+02
-6.773839521050159647e+02
-5.831669110392456332e+02
-5.111872697308572810e+02
-8.842078379193517890e+01
-3.267541644789902193e+02
-2.382010011120346007e+03
-2.602164248887051144e+03
-1.790471470850271317e+03
1.321133239361787673e+03
1.828909461878562979e+03
1.453879016801741500e+03
-1.108048342131394293e+03
-1.130861496097501458e+03
-3.516623372663263467e+02
1.165581958987991584e+03
-9.859684023335652228e+02
-2.405415514828062896e+03
-1.637826224980781717e+03
-5.270580005561573671e+02
-2.854079973171657912e+03
-8.108903004012927340e+02
-2.248339643346823777e+03
-4.151480669273182684e+03
-2.269530294639186650e+03
-1.384613284835884031e+02
-1.380012891584059162e+03
-2.998788828858839111e+02
-3.281968716303905467e+02
1.888816574965384689e+03
1.419313014815019415e+03
1.416420536130520986e+03
-6.329897746554496507e+02
-8.199300518892179923e+01
-9.524885998679820887e+02
-2.740514993042831065e+03
-6.390325325674261876e+02
-1.301054228753389452e+02
6.381032911157834775e+00
-8.760265455863174111e+01
-3.990002183076920119e+03
-5.205756803641048464e+03
-1.809847607299809397e+03
-8.213278185482620302e+02
-2.647376631324421396e+03
-5.709701161314422961e+02
7.759552907010581748e+02
1.839478986418266231e+03
2.426712872357120887e+03
2.568716604879158240e+03
2.383503796397617862e+03
2.003007783783602008e+03
2.263227212355830488e+03
2.409175006133360057e+03
2.288901459598564998e+03
2.078412368982089447e+03
1.937731810601256711e+03
2.066819670583264724e+03
1.561677878974213172e+03
6.903635305332226153e+02
-1.502188129958303477e+02
-4.789593042478726943e+02
-3.796751663572587177e+02
-4.102487244655617360e+02
-3.149064123378834665e+02
6.792585104278018093e+01
6.994081789745464448e+02
1.131759885616234669e+03
1.305152685335254773e+03
1.126629831458848230e+03
1.681232913361282726e+03
1.847045734342669675e+03
1.949683830873485931e+03
2.034876800203924859e+03
1.723637473023239636e+03
1.755249403977980819e+03
1.681650069976846908e+03
1.632375446940704251e+03
1.046006122362938868e+03
3.024978074658211540e+02
-3.223948306134970494e+02
-4.859830275030606686e+02
-4.632177516260742323e+02
-4.529451518334460616e+02
-3.741879819833052920e+02
2.400570672865401889e+02
8.948146600079905966e+02
1.797994879795391853e+03
1.786669268695434539e+03
1.299892795378831806e+03
1.169573331473073267e+03
1.577666622332657198e+03
1.712331571806902275e+03
1.659385167826204224e+03
1.735264790200331845e+03
2.086614607600016370e+03
1.844337075964873975e+03
1.659065974907083046e+03
1.456696968626218450e+03
5.362003358687775290e+02
-1.843982063606855490e+02
-4.571672817341245150e+02
-1.792502448316263610e+02
-4.575844360049424608e+01
-1.585723406270297176e+02
6.340226774790605901e+01
5.921547326558226132e+02
1.122608678247492662e+03
1.677726882593075516e+03
1.968619555569018985e+03
1.768369616155563563e+03
1.810847077780653990e+03
1.927957996910709426e+03
1.795610712809529787e+03
1.345806881110411268e+03
1.307653347622397177e+03
1.755142209570045452e+03
2.114206423178297882e+03
1.349807298722263340e+03
9.269462466752945602e+02
3.395557711880588272e+02
-9.624468685343750849e+02
-3.051156495996730428e+03
-5.615544455867166107e+03
-7.115604822118270931e+03
-6.629321027793937901e+03
-6.142682513001575899e+03
-5.348642891545106977e+03
-4.958205270931113773e+03
-4.375430608375143493e+03
-4.084310839938430490e+03
-2.611793833075739258e+03
-1.007916059805898271e+03
-6.286520726434000608e+02
-3.252952991497561015e+03
-4.168599877904601271e+03
-4.213905700224645443e+03
-4.510787752515700049e+03
-3.547198399120171871e+03
-2.642179401278649038e+03
-5.782757777903168062e+03
-6.652018971439206325e+03
-6.480093174737661684e+03
-6.170909308253326344e+03
-4.096264259148331803e+03
3.987348992349662780e+01
1.214398985861727851e+03
2.120250227353279115e+03
2.659395008119807244e+03
2.262948720164055430e+03
2.110004216215584620e+03
1.826572821136538778e+03
1.573663300898237139e+03
1.414293343335901682e+03
1.113427043284654928e+03
9.600610130887173455e+02
8.332605651410638075e+02
1.156046148200695143e+03
1.746410083664796957e+03
1.186361465738366178e+03
7.718902880388035328e+02
5.510223466326110611e+02
7.357453836849523441e+02
1.028998120495891499e+03
1.162855544397108360e+03
1.057360329771303213e+03
1.579583418062760302e+03
2.204558592652867446e+03
2.730348075603734287e+03
2.953964988410065871e+03
2.832450725173260253e+03
2.993859502399498069e+03
2.817217529073859623e+03
2.628559735015879596e+03
2.580942485742472400e+03
2.605324840671103630e+03
2.547754515216607160e+03
2.322267174535867525e+03
1.794912604621275250e+03
9.297134146849869012e+02
2.477173346612578655e+02
-5.230963127447888610e+02
-8.227844539568613982e+02
-7.043587554131892148e+02
-3.488111882246379878e+02
-4.670428190795030901e+02
-9.092971724765246222e+01
3.194015509280933429e+02
1.013944886946516249e+03
1.040891693752186256e+03
1.198662308494043828e+03
9.033979872582135613e+02
9.439879742461509977e+02
1.122389392343209238e+03
9.456021209696058349e+02
9.836881504451051796e+02
5.047279003876905676e+02
1.326264803032553345e+02
-2.337710250323123375e+02
-5.205009193808261898e+02
-1.109516839182798094e+03
-1.785852596195348042e+03
-2.212548050856648388e+03
-2.348613583191136968e+03
-2.014049065582872799e+03
-1.543833382589826670e+03
-1.050866058571544727e+03
-2.951762465462156229e+02
2.662306783188209351e+02
6.784221900877092821e+02
1.019463443714339178e+03
9.554440020007446037e+02
9.613273489079200544e+02
1.213139740759632105e+03
9.548086136766087293e+02
6.963800982849761567e+02
