-2.099844170737823333e+03
-2.143445204578634730e+03
1.113489737260138313e+01
1.006772006928693600e+03
1.659554118972918559e+03
2.150621429839635312e+03
2.742058331778003776e+03
2.937951453355786271e+03
2.681270591166927261e+03
2.413978065226420767e+03
2.014072370091486391e+03
2.242490456343855385e+03
1.767128998298400575e+03
1.459819807690449352e+03
7.894930799044228706e+02
1.532415217443464996e+02
-5.400344638128445922e+02
-9.112118038382216128e+02
-9.880622129776232896e+02
-1.165517564202691347e+03
-1.272661657835730466e+03
-7.045842694990780046e+02
1.676452442081650673e+01
2.733101663482975141e+02
6.850502490319701110e+02
3.530186325938611844e+02
-6.618798484998012555e+02
1.924358345101525856e+03
2.824684229720727217e+03
2.732183995478334964e+03
2.466001064338748165e+03
1.842984933678301331e+03
1.319854776447699578e+03
7.305352712800281552e+02
2.351539041785733843e+02
-8.450392878049751744e+02
-9.595236639513445880e+02
-1.269191819785367215e+03
-1.865751508858137413e+03
-1.864483948533443709e+03
-1.567464147845770867e+03
-1.215625098809614428e+03
-1.859995280865363725e+02
6.154969738508074215e+02
7.407707841024374602e+02
1.561935863786810614e+03
2.311110784405966115e+03
2.874887894538725504e+03
3.155259327292249509e+03
3.062361472532915741e+03
2.937038812327984942e+03
2.615222066883115076e+03
2.108194763700760177e+03
1.466732779660581855e+03
8.006756483418638481e+02
3.540363485425355634e+02
6.578629630668642392e+01
-2.822348298777827154e+02
-5.630333235076692517e+02
-2.497235681878221953e+02
-1.582635345438353340e+02
7.135863194499745532e+01
4.880656400239758455e+02
1.026870050042986577e+03
1.789873656083133710e+03
1.847158670165402100e+03
1.921668992301063781e+03
2.265345133302299928e+03
2.611310416002780130e+03
2.645521360703342907e+03
2.351021262581125029e+03
1.872853246121783741e+03
1.563895265740956120e+03
6.030989104730181225e+02
-8.806282663312171053e+02
-2.056244581105924681e+03
-2.498759107983763442e+03
-3.292276220962586194e+03
-3.671699525101857489e+03
-3.943977124476641166e+03
-3.778211207914679562e+03
-2.425532046752179667e+03
-1.603831102470624273e+03
-2.271178082053301296e+03
-3.958566429054922992e+03
-2.840661737317813277e+03
-2.339276994197586646e+03
-2.209491408476749712e+03
-1.716397473093265262e+03
-1.187102585353343329e+03
-2.040698730143377361e+03
-2.996110288784020213e+03
-3.446302653241124972e+03
-3.552313335254685626e+03
-4.396253688518972012e+03
-4.611248841294998783e+03
-4.653197449654750017e+03
-3.943980548956032635e+03
-2.577586474285118129e+03
-4.767988205023648334e+03
-5.526063107065153417e+03
-5.057822835941587073e+03
-4.189344279146747795e+03
-5.415938308198427649e+02
2.476356220376722831e+03
3.243554843366213390e+03
3.599132867116037232e+03
3.585138079449041470e+03
3.454650558662488947e+03
3.685760807990101966e+03
3.263514739913090580e+03
2.501899278482895170e+03
2.107880323599768872e+03
1.288434762666839788e+03
5.325098335624352330e+02
1.421066955756163566e+02
-6.787219145145002130e+02
-9.088978369435903915e+02
-8.501925282536402619e+02
-3.746125986518085824e+02
-2.923580856954068850e+02
3.656639288537422203e+02
9.454929684941787400e+02
1.562104688997918402e+03
1.969554566622935454e+03
2.613963386745543630e+03
2.705380164834908555e+03
2.834741830201095127e+03
3.372205281542232115e+03
3.589017238904309579e+03
3.080188827249568021e+03
2.449645882109961804e+03
2.481364006988465007e+03
2.039367419100972256e+03
9.525724498459313736e+02
1.299888539634742983e+02
-7.062643397714476805e+02
-1.594134246678996760e+03
-1.639313616581290717e+03
-1.565554788931994835e+03
-1.548084111868523223e+03
-1.433319874124366152e+03
-1.047195132019779521e+03
-2.413490402834076178e+02
6.540892002284895170e+02
1.046270718951811659e+03
1.352817890814852717e+03
1.657528209694594352e+03
1.948320962384871791e+03
1.852202747995892878e+03
1.552243842680810076e+03
9.824704150382385706e+02
5.818595694111793364e+02
-1.835819843268205034e+02
-1.141982529473934619e+03
-1.125335478950129072e+03
-1.485240834693801617e+03
-2.182826578772948324e+03
-2.513165262090375109e+03
-2.551382997677957974e+03
-2.188581922642563313e+03
-1.858802645095473281e+03
-1.511159660004171656e+03
-1.509508905263952784e+03
-1.058583441054438026e+03
-1.145320450287870386e+02
5.335602911760981897e+02
1.099714105175297391e+03
1.436098412621261559e+03
1.523175146144720429e+03
1.231942542497719387e+03
3.931333715415265715e+02
-1.005019317634079528e+02
-6.371028780223120975e+02
-1.300557726781505153e+03
-1.807740997451004887e+03
-1.847575275635569142e+03
-1.848181396051694037e+03
-2.266820215766786987e+03
-2.630459012050581805e+03
-2.454805735727473348e+03
-2.139793161273290025e+03
-1.368533200272738213e+03
-2.821497018502994365e+02
5.664992475067441546e+02
1.012571807411593454e+03
1.321158369802214565e+03
1.623968970069701754e+03
1.922747221133670337e+03
2.174551004445089802e+03
1.935318930028548039e+03
1.660134389759200076e+03
1.397110368646503957e+03
7.522641678136828887e+02
3.762951449366004653e+01
-4.578068335111427132e+02
-1.114234374085666332e+03
-1.504789808754777823e+03
-1.822474406497025029e+03
-2.334390515097193202e+03
-2.031601419934137539e+03
-1.260138166689627496e+03
-8.459858254050477626e+02
-2.531766870673083929e+02
5.153383113180188957e+02
8.855814253058108534e+02
1.194574295252760976e+03
1.442268416385826640e+03
2.001571967411442301e+03
2.406481605071354352e+03
2.234991634809678999e+03
1.441181515686906550e+03
1.919250456578643707e+03
1.423033484050794641e+03
6.691196722947490798e+02
-1.265510215360983466e+02
-8.129190342279581500e+02
-1.587008031678674115e+03
-1.325874391229299590e+03
-1.379528206542323460e+03
-1.380115015317066309e+03
-1.031651254030617338e+03
-7.259809173602538976e+02
-1.411824685118517948e+02
3.765181328282684490e+02
1.129243490019444380e+03
1.912644548322186665e+03
2.361161149283493614e+03
2.904509352502738693e+03
3.143407111441124016e+03
2.881142970536051507e+03
2.517397167451137648e+03
2.181482807939253235e+03
1.938923237371925552e+03
1.389443199985031470e+03
9.782748066989904601e+02
1.894395277944526015e+02
-3.348116351738356684e+02
-1.176837956269684810e+03
-1.588720317040172631e+03
-1.981421667654987687e+03
-1.821002674008642089e+03
-9.484569232505103855e+02
-2.023662087604763542e+02
7.791596931243278732e+02
1.582856818765115804e+03
1.802298350233135352e+03
1.914762943532059580e+03
1.770428694387386486e+03
1.658211021590222799e+03
1.724927479963904034e+03
1.775537404758494176e+03
2.243149099113871216e+03
2.843521109971511578e+03
2.737829796903988608e+03
1.499481516329442002e+03
8.253073376773494374e+02
7.016469530852094749e+02
6.413762095452900667e+02
2.704013667479320020e+02
-2.550410865441738508e+02
1.011165688873577579e+02
8.338550287250709516e+02
1.483922938104211653e+03
2.030374642733691871e+03
2.675791011529568550e+03
3.507910180044259505e+03
3.410649025408463331e+03
2.428964042343080564e+03
1.289978840408311726e+03
-5.431170122986396791e+02
-2.049447936500303967e+03
-4.597229319089627097e+03
-6.013423266435968799e+03
-5.997920590019511110e+03
-5.804687726640660003e+03
-5.183996492952162953e+03
-4.581913905598151359e+03
-4.191490641378522014e+03
-3.947754584441182033e+03
-4.136512449561186259e+03
-2.809705866826091096e+03
-2.805066245555389742e+03
-3.116330945884485118e+03
-3.108090469836657121e+03
-2.692266111936118705e+03
-1.986842420433380880e+02
6.768988887111847816e+02
-1.601378228115838965e+03
-2.495748136062831236e+03
-2.453406406869255079e+03
-2.186305260817815906e+03
-1.853496600227342014e+03
-1.022995560588268404e+03
-8.236121192003292890e+02
-2.551205679633941600e+03
-4.036874020597411345e+03
-4.291809692322772207e+03
-4.612973445469747276e+03
-4.469332778673704524e+03
-5.080715226655614970e+03
-3.818816908876834532e+03
-6.308709847369837007e+02
-1.113920364172479140e+03
-2.501785652797337207e+03
-2.747293857144880349e+03
-2.901510612345970003e+03
-2.040361116612409660e+03
2.011277896197728523e+03
3.236536054004393463e+03
3.154452909044396620e+03
3.785276161262674123e+03
4.429917847356629863e+03
4.237206428196254819e+03
3.858158731197677298e+03
2.298739082274343673e+03
1.433916108405242085e+03
1.296897490901332048e+03
6.268197866006601089e+02
-1.019481939163304560e+03
-1.550092711320851095e+03
-5.839713253583214509e+02
-5.421084693088289441e+02
-9.089868012257431928e+02
1.645802151816303649e+01
5.258226947689624922e+02
1.695166535109583492e+03
3.697744509077262137e+03
4.210791503915708745e+03
3.522341642241297450e+03
2.886207939374923171e+03
3.067879029950259337e+03
2.982681872821151956e+03
1.613108219632533974e+03
1.285996209102947205e+03
1.983257823811069102e+03
1.823738197125025636e+03
-2.172689706626090924e+02
-1.166784364029783546e+03
-3.744659156123303546e+03
-6.919568001641070623e+03
-6.033556046393738143e+03
-2.332708775990034610e+03
1.027206710701593920e+03
3.384118946423702710e+03
4.375237152895178951e+03
3.820867736467692339e+03
3.907316135936364390e+03
5.096045146017842853e+03
6.207812346329847060e+03
5.671691942049868885e+03
3.435644502389850004e+03
1.902003329008157834e+03
1.158838061695552142e+03
3.286914299340272692e+02
-1.194038802749077064e+02
7.398041126021929585e+02
1.349080330612176795e+03
1.387363487132778346e+03
1.893748602200186497e+03
8.040778341266725420e+02
-2.007142095273881637e+02
-4.169256951957146384e+02
-5.741615509575319720e+02
2.471477785688971096e+02
1.247962964075695481e+03
2.541037607309138366e+03
3.947124178456194841e+03
4.562583196810966911e+03
4.535495851296383080e+03
3.332482378750829866e+03
1.706338822795971964e+03
2.951661106610869751e+02
-1.259942983014436550e+03
2.610629631085787992e+02
2.563311370294257358e+03
1.918572570909768501e+03
1.040997812222135508e+03
5.392733052265610922e+02
1.262139189472596712e+02
-7.760942265717364990e+02
-1.161765265232261299e+03
-1.233669936498847392e+03
-2.046435883251872610e+03
-1.939253568284193079e+03
2.587116868269095562e+02
1.880320904800657900e+03
2.219514838593409877e+03
2.772335597076410977e+03
2.852807769867366005e+03
8.311005412843161366e+02
-1.694776862697965953e+03
-3.723751889363151349e+03
-5.907551796010089674e+03
-4.856482894927441521e+03
-5.670746304857300402e+02
2.287650093130884215e+03
2.666605198731926407e+02
-2.769026122069665234e+03
-3.633360496605878780e+03
-5.309524219276912845e+03
-6.524569645242740989e+03
-5.198500168722799572e+03
-4.349138553595317717e+03
-4.363303017989301225e+03
-4.503989200726001400e+03
-3.613383024181752717e+03
-2.833681687599493671e+03
-3.349789390746526351e+03
-3.754596375288614581e+03
-5.677396835329016540e+03
-6.724286820320779952e+03
-3.251919071604188503e+03
-7.530760239136710652e+02
1.141912593230550101e+03
1.314890391113719033e+03
6.487873664799401467e+02
-6.715102709108665522e+02
-2.554097736595218521e+03
-2.338926166494654353e+03
2.408308023636967903e+02
2.562032124075214483e+02
-1.673576578876539770e+03
-4.386812273719639052e+03
-5.626645685193089776e+03
-1.073987714204370604e+03
3.818293062791969078e+03
6.418226362235921442e+03
6.027745671802382276e+03
3.467819325382253737e+03
1.645524334222070138e+03
1.506592388921373868e+03
2.858010325226393888e+03
3.218993533608688267e+03
1.436648197748822930e+01
-3.234794127943987405e+03
-3.060353710501047317e+03
-1.909314130595775168e+03
-1.380925032196232451e+03
-2.909183107856362767e+03
-2.898993300148923936e+03
-2.594633845712991160e+02
4.359265979776304448e+03
6.053138696378772693e+03
4.708250203714652343e+03
3.929500525935232872e+03
1.955846908799335779e+03
2.855312685469766052e+02
3.245557059187464120e+02
8.868655371160990626e+02
2.134459599247584720e+03
4.007355942256407161e+03
4.591558012727735331e+03
4.294094679138114770e+03
4.179910836225541971e+03
3.166962959902800776e+03
1.655487547740784521e+03
4.811565786042947366e+02
-4.419917515452592625e+02
-1.163543416770070053e+03
-1.525540328764689093e+03
-1.636240765798525899e+03
-1.490692695583619752e+03
-1.352989302851702632e+03
-1.837136450484651959e+03
-2.178996941297525609e+03
-2.898420230102133246e+03
-2.756422633025881169e+03
9.999353309141122281e+02
4.480629631018375221e+03
3.942769744195562453e+03
2.429270886723061267e+03
1.894204355341812516e+03
1.899595989176029434e+03
1.668406076283872380e+03
-2.212470613071326682e+02
-2.509293610687243927e+03
-3.472809446360784023e+03
-3.582841335417546361e+03
-1.986499931150995280e+03
-4.916826337765298831e+02
-4.583467900546182250e+02
-1.141458431789912538e+03
-9.670195713800242174e+02
-5.279624849965699696e+02
-1.671305452530885077e+03
-3.405057587043922013e+03
-6.285249902692672549e+03
-7.629763392515665146e+03
-1.157440017795385984e+03
4.522697176514614512e+03
2.267573157265350346e+03
-1.757922196797233880e+02
2.463980644742166987e+03
2.736832816647427990e+03
-8.824089954905315381e+02
-4.172910901973596083e+03
-6.864526509818122577e+03
-7.107230033472912510e+03
-2.076146887618324399e+03
1.869627573261326006e+03
1.731165860319750664e+03
-5.724990855707652599e+02
-1.453179260498276790e+03
-2.537516581193577281e+02
9.058355085177706769e+02
8.813777074558646518e+02
9.289911480230739471e+01
-6.335974345960044047e+02
-2.254164802011268421e+03
-3.203815057227766829e+03
3.465443901555299817e+03
8.003778636857739912e+03
7.336224055902344844e+03
3.775799437785390637e+03
9.384159712058885816e+02
1.719920907427360248e+02
2.787379464207519391e+02
3.387165334009264939e+02
-2.840228823272807404e+03
-6.379976845736947325e+03
-2.823631151623202641e+03
-2.064425307710459037e+03
-2.478454508384014844e+03
-2.904576600669714935e+03
-2.439642040415019437e+03
1.077355025001189915e+03
3.286434732683557741e+03
2.847776627140328401e+03
2.583834490996492150e+03
4.064496113222534404e+03
6.754560328422100611e+03
6.064885089209829857e+03
4.168434088021708703e+03
1.712282175800171672e+03
-1.659539521594240796e+03
-3.760110268526223081e+03
-5.577531417746250554e+03
-5.069858266474374432e+03
-1.774965406341437074e+03
-2.104924117211307930e+03
-3.078743329591122802e+03
-3.129359103846611561e+03
-1.872415243292395814e+02
4.815725038687006418e+03
7.517871958434286171e+03
7.587234903527936694e+03
8.006788130716046908e+03
6.534338832838450799e+03
4.961789545018476019e+03
5.053340036051825336e+03
6.390545964611701493e+03
6.882261728450715964e+03
4.638709775897911641e+03
2.003783405962605457e+03
-4.522551846263393713e+02
-1.616465232411528632e+03
1.722457015954034887e+02
-5.702023896702720549e+02
-2.607960818014733377e+03
-3.241118238994240073e+03
-2.340536709515716666e+03
-3.188148577561421462e+03
-3.916958433099738158e+03
-4.008006726864205575e+03
-3.222476337880320898e+03
-2.614185066671314416e+03
9.607280350176960155e+02
3.768186051887639223e+03
4.344081268412741338e+03
4.570404886150930906e+03
3.710195546797081079e+03
2.196659455441790215e+03
2.477747279894100757e+03
4.448174092613205175e+03
4.268937094403678202e+03
2.437142882375599129e+03
4.727003321015496908e+02
-3.305541358282902820e+03
-1.211483083067440703e+03
2.178985537200624094e+03
8.377801626688585657e+01
-2.730128969373135988e+03
-3.713818190851783129e+03
-2.516442213626299690e+03
-1.024881362179653479e+03
-3.427010325941570045e+03
-9.158837866290097054e+02
6.578489713417155144e+03
8.913259492321481957e+03
8.497499033268539279e+03
6.492080778649609783e+03
1.141922744307914627e+03
-1.481963823290280061e+03
-4.112452754476375048e+03
-6.134577882534096716e+03
-6.163149045623323218e+03
-8.909116474695218130e+03
-1.111078099191212459e+04
-1.149539977683126381e+04
-1.388198430113393078e+04
-1.386947616628294054e+04
-9.580772871861274325e+03
-1.511753906657281277e+03
3.305485326875780174e+02
-7.740134334947080106e+02
-1.066116041472086636e+03
-3.272751432931993804e+03
-8.767391639036535480e+02
3.253928474668655326e+03
2.691229555818944846e+03
3.391246977849551513e+03
3.708972223588490579e+03
1.765225059094572771e+03
-3.719740573061641840e+02
-1.146581998256855286e+03
-6.616177094259077194e+02
-7.679204563413918549e+02
-7.416472714142297264e+03
-1.064432627949534981e+04
-6.897382218775356705e+03
-2.813689245202437178e+03
-7.192158301275885606e+02
-2.416975335415246718e+03
1.800128993775308572e+02
5.103833601011593601e+03
5.363597979569613926e+03
2.680482464922830331e+03
1.096660179831777214e+03
-9.278854744732900883e+01
-1.648030766030430243e+02
2.155319448510329494e+03
2.589507008638637672e+03
5.302963420600560312e+03
5.271748258573428757e+03
2.898899739530571424e+03
1.611429787832442116e+03
-1.543593849653602319e+03
-3.021137694244993781e+03
3.367883847463228904e+02
2.296282302874910783e+03
3.326346732200221595e+03
2.722825718844078438e+03
5.477695897117866934e+02
-1.610654286430022239e+03
-3.023422762534406047e+03
-2.598454294571549781e+03
-2.498496436167479715e+03
-8.723615497063678959e+02
5.465942130421742149e+03
9.375475267329784401e+03
8.001114942158868871e+03
6.554517418262656975e+03
4.696696658946898424e+03
3.187051320974851478e+03
2.855699943965156308e+03
9.075465561515270565e+02
-1.555396851132756865e+03
-4.736168582597623754e+03
-5.809858372016213252e+03
-3.991195978234671657e+03
-1.032098120545388610e+03
1.234672532990199443e+02
-1.111532207789849053e+03
-1.275008145142437115e+03
6.601533861191260257e+02
-1.289047680068770887e+03
-5.266440298710980642e+03
-3.872957694816017465e+03
1.148233787769387391e+03
2.759026231860994812e+03
3.323234703019983954e+03
3.819933777346803708e+03
3.808176606433145480e+03
2.954035361471320812e+03
3.177554245754049134e+03
1.025540959333963428e+03
-2.992109158752168696e+02
2.629488056699909976e+03
2.280765606282264798e+03
2.267542279741669518e+02
-8.775896471402683119e+02
-2.347706138091272408e+02
9.270995503955178947e+02
1.002164808494005456e+03
1.169667856550383021e+03
2.662791952725940064e+03
6.415217618899425815e+02
-1.874242074212473881e+03
-1.219589438081148273e+03
-2.652485687339728884e+03
-3.675652467295783936e+03
-2.833066885829699913e+03
-9.350102706663859635e+02
-1.693638194345671764e+03
-1.731955291845320744e+03
4.661869792525820344e+02
1.941659789549798234e+03
1.687204535066509379e+03
6.305542221765190334e+02
8.788329357898015814e+02
-8.574026341657462069e+01
-1.868176261464906247e+03
-1.119356083927679265e+03
-1.892701209999009393e+02
1.809703278000712032e+02
9.427597048019364934e+01
-2.344168992966864451e+01
-5.228048686685769297e+01
-2.722293768806115821e+01
-6.782359082945873752e+02
-2.226374703325654991e+03
-1.138642758984644161e+03
-3.731023993759630685e+03
-5.930557745892211642e+03
-3.010351010057611802e+03
4.254427971989034631e+02
1.386068933035238160e+03
1.531345534896235677e+03
2.451742976573767692e+02
-1.657501310804543209e+03
-1.802649330995253194e+03
1.465708664509854131e+01
1.320375627367657899e+03
1.068470821093080303e+03
1.601564729665172536e+03
2.588557029918904846e+03
1.926690016160628375e+03
1.625067291621836830e+03
1.299618360360620954e+03
-2.577597337749911617e+02
3.489309010718965851e+02
1.611641777077983761e+03
1.958467246186030707e+03
1.942310874117448520e+03
9.106309470934201045e+01
-6.055622193044248434e+02
-1.065646961181360666e+03
-9.828161034544573340e+02
-9.282248990199735772e+02
-3.522329107423842061e+02
8.626873402615218822e+01
-1.291521226965735814e+01
-1.492447286329782401e+03
-2.188086169692288877e+03
-1.146340996497923697e+03
-4.186046828178360784e+02
-1.356230839794009853e+03
-2.570466382728217923e+03
5.598888032209173389e+02
3.611221668742776274e+03
4.217514187778675478e+03
2.635261896474889454e+03
2.424068459256489859e+03
2.922314992664139936e+03
2.486767688275420369e+03
3.947232346008271406e+02
-9.518969008371568634e+02
-2.393005865073771929e+03
-2.251317086519894929e+03
-5.567587328320324787e+02
1.900379610059799916e+03
1.877119010366450084e+03
2.221407956120898234e+03
2.539479956329087599e+03
2.567056163966952226e+03
2.582512098322394650e+03
1.592580728607339779e+03
1.107686625633289395e+03
1.212875879558289853e+03
2.028650136045846921e+03
1.718024398444823873e+03
-4.158506974446810318e+02
-4.951512552168500747e+02
1.242914384439459582e+03
1.725317349031417280e+03
4.219286061287193661e+03
5.973874491757622309e+03
5.085558508194970273e+03
2.942501866417369456e+03
1.268772514044210084e+03
8.835510143737555211e+01
-1.893820233023282526e+03
-5.456013379297170104e+03
-7.596133126112909849e+03
-5.486980593247020806e+03
-3.660544010064968916e+03
-2.744921826979261823e+03
-3.319227525881876318e+03
-3.881207512206897263e+03
-3.225734054978389850e+03
-1.874767104294530554e+03
-1.214206063579339116e+03
-2.186090578366812679e+03
-2.190457818522730122e+03
-1.492173951962841102e+03
-1.871663221751450237e+03
-1.989712305677751601e+03
-4.642099484226821460e+02
-2.398241356309332787e+03
-4.374039294842031268e+03
-5.717820717405157666e+03
-5.649463475262529755e+03
-4.793708731442617136e+03
-6.018508987312828140e+03
-8.687610120693860154e+03
-8.263935693903720676e+03
1.614321672058928812e+02
6.813348917715743482e+03
4.087898300171786559e+03
4.373593826405343066e+02
-2.881403328681607832e+02
-1.294506213447579512e+03
-1.873775010082966674e+03
-1.253150013162120786e+03
5.125661524392553474e+02
-2.026506654181512658e+03
-4.349448415620668129e+03
-5.046382907692823210e+03
-5.720106117023648039e+03
-5.666577669774322203e+03
-3.636836149650867355e+03
-5.078756110246891922e+02
4.193533931913174229e+02
1.635651275407240291e+03
2.076116095353626861e+03
1.856937606491806264e+03
2.067204393237997920e+03
3.968048289933045453e+03
6.390584409998971751e+03
6.270686851814542024e+03
5.586255035747516558e+03
5.037490894705835672e+03
4.162581412173097306e+03
2.800566339697956209e+03
1.778682359508288528e+03
1.737489104963156024e+03
2.140839083607988869e+03
2.211167361469099887e+03
2.225645364782934848e+03
1.535174188916623052e+03
1.150585354332976749e+03
1.147942029819850177e+03
2.336607987188273512e+02
-1.885700956896991443e+02
1.187835006498502480e+03
2.375284623354978521e+03
2.984069030902822306e+03
3.801312916431740177e+03
4.117224683173890298e+03
3.872562387723251049e+03
3.826668228209958215e+03
4.139669155040619444e+03
3.694417545723376406e+03
2.961138894677565986e+03
2.083816200399572608e+03
1.350348754367578749e+03
8.219703692484016528e+02
3.935004069464663985e+02
-3.192549627735634203e+02
-1.307681996899534397e+03
-3.600788000678092430e+03
-1.844444211106320836e+03
-1.576356363717905424e+03
-1.269272093210684716e+03
-8.535054229766559502e+02
-4.051003145105601106e+02
7.341143664654923668e+02
2.005924561888412882e+03
2.226590394853160433e+03
2.401350337355419924e+03
2.339245545533606673e+03
2.213200227463360079e+03
2.100133970418770787e+03
1.580204151899990393e+03
4.369679353758418188e+02
-1.506604366694092789e+01
-5.534946890985714845e+02
-7.804534809519838063e+02
-1.085849135430697061e+03
-1.750391790494808674e+03
-2.512410685658524471e+03
-3.078165547150454586e+03
-3.324311130515351124e+03
-2.577610285113419195e+03
-1.195112644894058121e+03
3.402145521994152659e+02
9.442769297354778928e+02
1.604887552573927223e+03
1.787170735762236518e+03
1.848902230746114128e+03
2.164271730057072091e+03
2.164492727553300028e+03
1.855474729477969504e+03
1.801342668408137342e+03
1.330972156100429174e+03
6.319313885153662795e+02
1.642410609202531191e+02
-5.500931935101433510e+02
-1.389933018364916734e+03
-1.772162852114978250e+03
-2.139756870362559766e+03
-2.455739622385313851e+03
-2.438258922291109684e+03
-1.480250921975951542e+03
-1.012899940624812416e+03
-8.336465165066892951e+02
6.516080085803657767e+02
1.570267801663326054e+03
1.928346932313057778e+03
2.322896326005898118e+03
2.187890066735624259e+03
2.061225195511624406e+03
3.350130320199352809e+02
-2.799693281623594430e+03
-5.682851638093535257e+03
-6.078609801483266892e+03
-6.648250315662596222e+03
-7.494962795072205154e+03
-8.174621452801000487e+03
-8.015030286281157714e+03
-7.947293338805126041e+03
-8.226591669051120334e+03
-8.489559356498943089e+03
-7.582008519627530404e+03
-3.546410127192280925e+03
-3.251344069581344911e+02
9.020802700147011137e+02
1.748272521547014549e+03
2.430434793276362143e+03
3.196611069419695923e+03
3.614812725687626880e+03
3.407924468847247226e+03
3.181081483872647823e+03
3.088226570401324807e+03
2.298023009983035081e+03
1.621691232211025635e+03
1.226387486197043700e+03
4.710424148512831266e+02
-2.965164544723850213e+02
-6.433794133245162357e+02
-5.914498386520197073e+02
-7.187580298902189497e+02
-8.544527107701740078e+02
-7.522447317660650015e+02
8.694552216298446012e+01
9.698887019155392863e+02
1.889761621313183923e+03
2.629609282040525159e+03
3.187300476559152685e+03
3.249712339036095727e+03
3.129042861077671660e+03
2.996220471766072933e+03
2.827009023701700698e+03
2.596414016773079766e+03
2.110523569477389628e+03
1.274371800192316414e+03
3.448737553617386880e+02
-3.208823974598630571e+02
-8.218045257242736170e+02
-1.110088353292078409e+03
-9.577688553357426144e+02
-9.107906567537436331e+02
-6.050744935992801175e+02
3.937967175030448175e+01
5.355927139861680644e+02
1.222612678778195686e+03
1.989491918411637926e+03
2.295353252593657999e+03
2.561024055776435034e+03
2.918795730081564216e+03
2.408695715679151363e+03
1.033018489756171761e+02
1.638444976547172018e+03
1.843197713548063348e+03
1.648624613160821355e+03
1.293955646680979498e+03
1.245661454409357930e+03
8.563795181202060576e+02
-1.482367922846967758e+02
-3.471743523920147823e+02
-7.172556216326902359e+02
-1.193536999126953788e+03
-1.722076194641698521e+03
-1.628684794519077514e+03
-1.038342785793306348e+03
-5.420287651037741625e+02
4.854448523752154756e+02
-3.990442876556844567e+02
-5.115724854694565806e+02
-3.020794689958807453e+02
-6.750951352158033103e+01
-1.044662802063408662e+03
-2.434658887545462221e+03
5.854752733567186169e+02
2.038708320535404482e+03
2.630148344901282371e+02
6.913624046881524237e+02
-2.854254546305306121e+03
-2.894773576949274229e+03
-6.850411386516926768e+02
-3.490086973872069393e+03
-2.468084806266278520e+03
-4.772959501990493663e+03
-4.636534940838868351e+03
-1.822743885895342828e+03
-7.289032460791962649e+02
-1.246033303760031458e+03
1.024050914160244474e+03
-1.948435228468887544e+03
2.184228126227427822e+02
2.591540149304858460e+03
2.708001089439272164e+03
2.404964323237588815e+03
-2.905944257765895600e+02
-1.926661320800063777e+03
-1.357387415002986017e+03
-1.987912712959594273e+03
-1.739324783311088822e+03
-2.952438014846137776e+03
-1.685292579930309557e+03
-3.942901546213015081e+03
-2.349215205305062682e+03
-3.488228874107098363e+03
-3.518806683677338697e+03
-3.354971834330239290e+03
-8.987360695716206465e+02
-1.240155036710589229e+03
6.218798020100845179e+02
2.508581326750365406e+03
3.017842874819516965e+03
3.439503016349734935e+03
3.365619413647640613e+03
2.826942933146689938e+03
2.727457873006213049e+03
2.612361133374105066e+03
2.290768524355246427e+03
1.598630796319668661e+03
7.639033326954613585e+02
-1.828512711911262656e+01
-3.387457182217054878e+02
-6.515565881225600151e+02
-8.790402809622994482e+02
-5.512012583185917265e+02
7.999184176410082614e+01
8.946587180847551508e+02
1.874825688639629561e+03
2.247396761853268345e+03
2.092330521119941750e+03
1.748700727960453833e+03
2.895111319115298443e+02
2.648637489805812947e+03
3.018062597984288004e+03
2.691963998642320803e+03
2.708314234051661060e+03
2.093949349796133447e+03
1.427125576684105226e+03
5.748720211939954652e+02
-6.188922574795237779e+02
-1.417249880646770862e+03
-1.772256887140406661e+03
-1.324811104047498930e+03
-7.057769529711366658e+02
5.873585570204109274e+01
3.819065310795932788e+01
6.336473255447934605e+00
1.175101925522472754e+02
3.981157739195564318e+02
1.050106305289081320e+03
1.760249785238004961e+03
2.643632585653269871e+03
3.427199722284551171e+03
3.774829098575653006e+03
3.728838000095672669e+03
3.114146549850219799e+03
2.787633499569619744e+03
2.310289398924513080e+03
1.174969737695485037e+03
3.356307083008422296e+02
-5.968042759154709529e+02
-1.313439415600533493e+03
-1.337383071996414174e+03
-1.267627307357934114e+03
-8.081250325890068780e+02
-2.658745052660815986e+02
3.809891211301248859e+02
6.013273673011469782e+02
1.052256272669204236e+03
1.787862791622841542e+03
2.675173808981114689e+03
3.080173401820552954e+03
3.567937261475625746e+03
3.633516354636064534e+03
3.302744169421622246e+03
2.618486416539721631e+03
2.124703319846352770e+03
1.001333283970870411e+03
-9.525908218144173816e+02
-2.367062765262401172e+03
-3.223039358169563002e+03
-3.830465530038116412e+03
-4.060347161019896248e+03
-3.356845028324814848e+03
-1.624975015893470982e+03
-3.047053706189229842e+02
-1.016075754365146054e+03
-4.109096792189893677e+03
-4.364716845987119996e+03
-3.274905218885517115e+03
-2.467684599710893963e+03
-2.006990666293830373e+03
-2.124775989456093612e+03
-2.376074774304338007e+03
-2.245920633324439223e+03
-2.595320737449260832e+03
-5.672206643311836842e+02
2.365311874501093371e+03
1.683474004002321180e+02
-4.342893844945722776e+03
-5.424802453017142398e+03
-5.953344421725979373e+03
-6.212521709316375564e+03
-4.454235694904296906e+03
-4.733456966392728646e+03
-7.029284173632585407e+03
-6.688759134390641520e+03
-5.779744281625092299e+03
-5.006212791260970334e+03
-4.130153570545289767e+03
-2.874517264150016217e+03
3.996796939155885866e+02
4.341424672194865707e+03
4.705749402465500680e+03
4.565665732621760071e+03
4.065184568212700015e+03
3.533264888508763306e+03
2.909965170388333718e+03
2.399273393375729938e+03
1.797192682941524254e+03
1.606735903200328266e+03
1.179867417374805427e+03
5.965088051061312626e+02
4.687154607271228883e+02
1.346025615430572202e+02
1.732289220388808531e+02
4.576707763555671704e+02
7.599888080576134826e+02
1.358156120295853498e+03
2.399138764703009656e+03
3.303047750602098859e+03
3.731008557609883610e+03
3.933876673413109074e+03
3.937571428893191751e+03
3.717277936583278461e+03
3.155086148976334698e+03
2.906961778011423121e+03
2.321891682372116520e+03
1.577822375101678972e+03
8.536726275708941785e+02
-8.528036640402397950e+00
-1.757773722964010119e+02
-7.990605645976978622e+02
-1.210200894987402307e+03
-1.277066960462602083e+03
-8.596977686755791410e+02
-3.940666816115163442e+02
2.347565134703687022e+02
8.237642911877030656e+02
1.425961125370600030e+03
1.946337522899069654e+03
2.463343876450233438e+03
2.416197770727473653e+03
2.309485441561289008e+03
1.801175245371215169e+03
7.245457507814611517e+02
5.777949589458360435e+01
-3.660292388658871801e+02
-1.132914143368738223e+03
-1.830978018210537812e+03
-1.514364426969961642e+03
-1.263070835207468235e+03
-1.805073090400781439e+03
-2.542524716958422687e+03
-2.288624847500135274e+03
-2.023208412538171615e+03
-1.478333847684574266e+03
-4.059542576692862781e+02
2.819713694959228292e+02
8.424451480756285946e+02
7.716769461043918454e+02
4.867558771699775093e+02
4.985964945856593431e+02
6.031589141670538083e+02
9.224126862464164560e+02
1.129338931116699541e+03
9.930162556777785312e+02
5.435004870148172813e+02
4.986895959895152828e+02
2.945051040643217561e+02
-2.508582970311624081e+02
