1.862413933466633807e+03
2.481347547699260758e+03
2.536674547200496363e+03
2.703958571344905977e+03
2.928083847054877879e+03
3.753059731116922649e+03
4.054898987813572603e+03
3.992117459993755801e+03
3.473585676274950401e+03
3.283999660404731458e+03
4.092319844060232299e+03
3.957321350639986576e+03
2.625042996744461561e+03
1.714307428263674865e+03
1.219137131939125084e+03
1.409653224559089722e+03
1.968954741981649022e+03
3.319706594432350812e+03
4.323988007612380898e+03
5.318253345873150465e+03
6.157527351255278518e+03
6.728653677025013167e+03
7.399553906371963421e+03
7.746413441886262262e+03
7.579241276525141984e+03
7.252214981570140480e+03
6.791836421374907331e+03
6.292880378986473261e+03
5.689732574757058501e+03
4.611105948054118926e+03
3.590350908828386309e+03
2.417640011722224699e+03
1.586919268831435375e+03
5.220427587134820442e+02
-1.267591659983775543e+02
-7.482265791558081673e+02
-4.707343210945509213e+02
-2.306077166399851421e+02
1.053301367913659760e+03
2.761250988946578218e+03
4.105259274791230382e+03
4.703120244620403355e+03
5.214001519855371043e+03
5.511044843040303022e+03
5.561348763811584831e+03
5.203821890218265253e+03
4.095577744685244852e+03
2.474857201974354211e+03
1.018970712735710862e+02
-3.042295421131725107e+03
-4.268829844375151879e+03
-5.268733752108631961e+03
-6.121855738089457191e+03
-6.250043556182589782e+03
-6.965398312277244258e+03
-6.789918202385978475e+03
-5.705435987006402684e+03
-5.710714451258293593e+03
-5.836590809285663454e+03
-5.420927584905578442e+03
-5.178690703426374967e+03
-4.361649188908888391e+03
-1.630607536074718837e+03
1.338448062416247467e+03
1.605275020856331139e+03
2.344698921377438410e+02
-1.907128071308945209e+03
-2.653345481941051275e+03
-2.288934972618103984e+03
-2.420851458232472851e+03
-3.144084886899853245e+03
-4.080610311208668463e+03
-5.181221324770983301e+03
-5.972838623339033802e+03
-6.188579885969463248e+03
-6.307342026797037761e+03
-6.150923704425217693e+03
-5.982336728306401710e+03
-5.611447629455808055e+03
-2.943104052568533007e+03
-2.197208388135418744e+00
1.380228558879776529e+03
2.313335434293160233e+03
2.643289094327349176e+03
3.039224428348415586e+03
2.782107692996117294e+03
2.572912936409076792e+03
2.242838973671684926e+03
1.532010257994758604e+03
7.633923207910623887e+02
1.240959055042683303e+02
-8.527297319782488785e+02
-1.591874634915803426e+03
-1.906175310197696945e+03
-1.781677836450806353e+03
-1.796187555953560832e+03
-1.479586747847340348e+03
-8.699863220334301559e+02
-3.442139972532662000e+02
-1.808392097027707734e+01
6.544720758397259033e+02
1.766692199326132595e+03
2.265632327476387673e+03
2.547285783596918918e+03
2.989755113134448493e+03
2.761194281962117657e+03
2.687708126218647067e+03
2.501143570686397652e+03
2.024607791063473996e+03
1.379954784503989003e+03
9.268772283763322548e+02
8.039799422247821781e+01
-6.244568424429930928e+02
-1.044560297883409476e+03
-1.660501594305709887e+03
-2.330661549477258177e+03
-2.206002203506378919e+03
-2.100584971879406112e+03
-2.140759235230839295e+03
-1.917731477627772165e+03
-1.009547336239208676e+03
1.409407890323568324e+02
1.501729976983274582e+03
2.320765431380924383e+03
3.092122151073982423e+03
3.509800527879257970e+03
3.152709029406496938e+03
2.149929457369580177e+03
1.407673951706120079e+03
1.379342252586365021e+02
-4.881553501827787045e+02
-1.128798465379758227e+03
-1.532236101589720874e+03
-1.866302002824276087e+03
-1.740866568290002533e+03
-7.210214208012737345e+02
3.530814195450302861e+01
-1.927323661093648468e+02
1.428395764131290662e+02
4.860090020331904270e+02
1.287789844665380087e+03
1.984156853516609544e+03
2.664951840062735755e+03
3.430156584616833243e+03
4.007983352768357236e+03
4.327720415159736149e+03
4.769384587045332410e+03
4.596949324814739157e+03
4.333410618321543552e+03
2.686751574959930622e+03
1.529124100605363083e+03
9.294515042425150568e+02
8.004670702192200906e+02
4.472485075637868022e+02
-1.901587086033348726e+02
1.752486971045350970e+02
6.155736021011999810e+02
1.147736296091039094e+03
1.346763263080282513e+03
1.335745635104035728e+03
1.685731663606692109e+03
2.149782553566718889e+03
2.434923212301081094e+03
2.635334484084271480e+03
2.285085000644442971e+03
2.398097059785805413e+03
2.293382290460327567e+03
1.942940290257626657e+03
1.541676117074396871e+03
1.412554606442702834e+03
1.231436281542442885e+03
2.722773979821193393e+02
-6.368071094120210773e+02
-1.262838573954092453e+03
-2.593856894165840004e+03
-4.333816265609653783e+03
-6.072772848657396935e+03
-7.793905379068502043e+03
-7.613217753657416324e+03
-6.932732195251513986e+03
-6.206349523507088634e+03
-5.256796875951768925e+03
-3.386232750565698097e+03
5.652584077392133395e+02
2.248896856364907762e+03
2.866544880916326747e+03
2.613061793739385394e+03
2.280379568518262204e+03
1.747534863431778831e+03
1.244720380790628724e+03
4.989964798438810476e+02
-3.577199264115828328e+02
-7.784943571862723957e+02
-4.374516858891843754e+02
-8.308029386219174057e+02
-1.201683632633874822e+03
-1.140154331238006080e+03
-4.543628396544062298e+02
-5.434399287321834890e+02
-5.725902646667191220e+02
2.992676142931946970e+02
1.743107630451273735e+03
2.319839652114540968e+03
2.594467568026056142e+03
2.686893989022127698e+03
2.461040696273745198e+03
2.792838275222783068e+03
3.011178410790581893e+03
2.686897975382862569e+03
2.229864771167981871e+03
1.240062514480878690e+03
3.363368259526002362e+02
-1.545026611013129880e+01
-7.124733105522990400e+02
-1.367826698813153826e+03
-1.107548013084426657e+03
-2.057169119861826516e+02
4.735267865444673703e+02
8.241255737280380345e+02
8.960752238029540422e+02
1.265251957446896085e+03
1.863599240637186313e+03
2.007106816139622651e+03
2.019717797727422294e+03
2.422374796430673541e+03
2.829897883156037096e+03
2.418258365623032205e+03
1.859433073383898318e+03
1.749398946773834723e+03
1.200070268837120011e+03
1.147220288131253710e+03
1.204830868812074868e+03
8.267825943425741571e+02
7.589648014140284431e+02
5.683704776506150438e+02
1.879178422947379659e+02
1.524326458906398045e+02
3.567477084824539020e+02
6.498599964940814289e+02
7.407950700121040200e+02
8.745154327125895861e+02
1.605956357534007111e+03
2.271138455747513035e+03
2.846119191427262649e+03
3.123814463213355339e+03
3.686268720076268437e+03
3.973503710468737154e+03
3.916501232679822806e+03
3.314281662825830608e+03
2.403779697344712076e+03
1.389941897505664883e+03
-1.653325140968595406e+03
-4.077012506132647104e+03
-4.212150880395296554e+03
-4.263719470955803445e+03
-4.454750034906506698e+03
-4.505220585342999584e+03
-4.148162940597469969e+03
-1.376489698210695906e+03
-2.889117351536159731e+03
-2.300015579311203965e+03
-2.051143751465255264e+03
-3.750482736947133162e+03
-1.235959294732752824e+03
9.054345044148964234e+02
1.202810948229540827e+03
4.368191237477908544e+03
5.315513604420493721e+03
5.879868119036729695e+03
5.526429369419800423e+03
4.388243983557890715e+03
2.496238223849187762e+03
-8.566147367405652631e+02
-2.530317717844333401e+03
-3.162921083929880297e+03
-1.332296893939603251e+03
-2.447318150671501371e+03
-4.665928499891987485e+03
-1.140035715122744023e+03
-3.095691177978833366e+02
-1.518396493285796851e+03
8.317321539195587548e+02
-3.519562872982594826e+01
-1.910078152255986424e+03
-2.997659465102782406e+02
-5.839984705941342327e+02
9.244684802371543810e+02
1.899677662591406033e+03
2.081983977787394906e+03
1.994486843194779112e+03
1.322992641320982329e+03
8.044208490671322807e+02
4.708567718076955657e+02
3.443914630954849940e+02
3.027677594776665515e+01
-1.513795718244956845e+02
5.004326430813678712e+02
6.007235443400290933e+02
6.336283479990452179e+02
4.073220662091139843e+02
1.069859182632356607e+02
-1.433438935359889967e+02
-3.675562244718427110e+02
-2.084623700338868844e+02
6.441717649163504120e+02
1.272445354424742618e+03
9.465357626148845611e+02
6.185491267985944432e+02
6.009160635150474263e+02
4.817464770321786887e+02
-3.750272048817571999e+02
-1.142948565878229829e+03
-2.342570775382473130e+03
-3.669748357320476316e+03
-4.240729227927140528e+03
-3.866606301769434140e+03
-3.512092225795343893e+03
-3.000920725531309927e+03
-2.104896023956698173e+03
-8.318338517762108495e+02
2.869748287460313350e+02
1.478847046286258319e+03
2.869001098077015740e+03
3.330372298485229294e+03
3.007839406963496458e+03
2.395491374233296028e+03
2.745297588745713256e+03
2.951006909459949838e+03
2.581318655672248951e+03
1.926010977036366512e+03
8.133455828373955683e+02
-4.715114978182892003e+01
-4.887757984712009716e+02
-9.887468984856180896e+02
-1.365680511275707204e+03
-1.969991298466900389e+03
-2.088610703602022568e+03
-1.348368361236786996e+03
-6.417337519724900403e+02
-2.031733810028595713e+02
4.793082190618291634e+02
8.117507781809486005e+02
1.408974409444790581e+03
1.893992216595141144e+03
2.333725801125769976e+03
2.809055992783147758e+03
3.178320671977995062e+03
2.985127907998386945e+03
2.806442139155810310e+03
2.075487960342661609e+03
4.633658332880473836e+02
-1.616776461001492180e+02
-5.216869879868544331e+02
-1.347859714981801517e+03
-2.142492742326185635e+03
-2.421104931052692336e+03
-2.437380957257779755e+03
-1.570768829130146059e+03
-9.525171465685496059e+02
-5.489075600035547495e+02
-1.294498474656581166e+01
2.505862568548967033e+02
1.208097988512169195e+03
2.184381652039441633e+03
2.980723887458008448e+03
2.875520432540003185e+03
1.328411615011806816e+03
-1.188121757400391516e+03
-4.256761610784396908e+03
-5.644129890829882243e+03
-6.683953368503345700e+03
-5.156538548229234948e+03
-2.258199407144193174e+03
1.082758161572287008e+03
2.908811296239483454e+03
2.374223870685704242e+03
-1.209392103983811239e+03
-1.947515039874717786e+03
1.139786808741235404e+02
6.109315297231120212e+02
1.214649702502362061e+03
2.285876546162934574e+03
2.817042156144589171e+03
3.023538141186584198e+03
3.008853289070283154e+03
2.845031172252606666e+03
4.663118919814399305e+03
6.135318085860671090e+03
6.313954254433742790e+03
5.292906393004546771e+03
4.765548779957550323e+03
4.060535593791708379e+03
3.526884331236636626e+03
3.617576409024055465e+03
4.227986918887990214e+03
5.138862004693296512e+03
6.229701863939090799e+03
6.766326389182439016e+03
6.565370451042959758e+03
6.546342052949546996e+03
6.471402977267058304e+03
6.640409713246333013e+03
8.029085870893793071e+03
8.675609736542965038e+03
8.760833935429527628e+03
8.639714394724838712e+03
8.444387735433047055e+03
8.704694079573617273e+03
8.654548100128735314e+03
8.108576558006540836e+03
7.403018657346557120e+03
6.344032836766948094e+03
4.901165371254754973e+03
3.218844422560193379e+03
2.195443219066222355e+03
1.203106825358323022e+03
3.321840997327531682e+02
-1.128382349958133375e+02
-1.890904733147294223e+02
1.365228721824171032e+02
1.398284622634450898e+03
1.797275314365709619e+03
2.023911668915177643e+03
2.592905134708312744e+03
2.778495279686789218e+03
2.744841235806248733e+03
2.527714047977481187e+03
1.879853650190656253e+03
8.925971220632130780e+02
-2.322310680846140372e+02
-1.018475295861651716e+03
-1.916410933777620130e+03
-3.663182200316559829e+03
-5.373572124866005652e+03
-6.594199914246220942e+03
-8.174265266884812263e+03
-1.029770743266595855e+04
-1.169842986752831712e+04
-1.440234984620113391e+04
-1.531667410188413305e+04
-1.466447318897067089e+04
-1.568971051346124113e+04
-1.696259630133619066e+04
-1.780791380356104855e+04
-1.905053438171772723e+04
-1.938346110705627143e+04
-1.830747890228199685e+04
-1.639851029999565799e+04
-1.384878373606844252e+04
-1.123339311127260771e+04
-1.027939296713887597e+04
-9.845701742056646253e+03
-8.950964167389449358e+03
-8.523961944676753774e+03
-7.921619730904513744e+03
-8.216660367033078728e+03
-8.059947679790514485e+03
-7.670623406489944500e+03
-6.763681931363336844e+03
-5.421241792848702062e+03
-3.994979321026201887e+03
-2.204560352645287367e+03
-5.708408260688178189e+02
5.273493211861500640e+02
1.358186748092306289e+03
1.677969208927474710e+03
2.050999964847813771e+03
1.907489986431871557e+03
1.778656356964592987e+03
1.447563585864402285e+03
8.379557719970259768e+02
3.510554773652245331e+02
-3.498648055011258293e+02
-1.459579307741078537e+03
-2.149773520661693965e+03
-2.918420285286765193e+03
-3.229324657770200702e+03
-2.973240378284339386e+03
-2.317086635362090874e+03
-1.871507573384013313e+03
-1.150199208948078422e+03
-6.892325850674262711e+02
1.594821292245173936e+02
6.791812331938548368e+02
7.821862578976640634e+02
1.392835003559734560e+03
1.511585845372471567e+03
1.424689458738666872e+03
1.199117351527858318e+03
1.224657100671179705e+03
2.074220070903748820e+03
2.756969986095076365e+03
2.389135516056930101e+03
1.664069821295463498e+03
8.231097617989656783e+02
-5.217315377579047890e+02
-1.094467635965163026e+03
-1.277073225153362273e+03
-1.394777979791460666e+03
-1.060412938597135735e+03
-7.376103501336299360e+02
1.732421437300390892e+02
1.340399186734130126e+03
2.379105002852063080e+03
3.078543267313712022e+03
3.030201692953831298e+03
3.284811653992557694e+03
2.918580361038144929e+03
2.370493653178576551e+03
2.199858165280575122e+03
2.406795966722646426e+03
1.693965376884896159e+03
5.760873585950106417e+02
-2.434544799442229248e+02
-5.948519099532788914e+02
-7.542587804689003406e+02
-7.961908854662342492e+02
-6.241481276396252724e+02
1.829252868814912460e+02
1.286358707702473339e+03
1.807382999468871276e+03
2.839984899229496023e+03
4.034934030023631294e+03
5.144017920761287314e+03
6.117309325192010874e+03
7.506783015326514032e+03
9.260459475820416628e+03
9.795961941012068564e+03
9.876029652298291694e+03
9.463972226745512671e+03
8.312156600084888851e+03
7.527661334698896098e+03
7.478746668600866542e+03
7.095114882748798664e+03
6.556873152604630377e+03
5.840910036368421061e+03
5.229324861118071567e+03
6.106458145889081607e+03
5.304630368014601117e+03
3.949530813403641332e+03
2.621361111298002925e+03
2.838100433176290153e+03
4.287584382410846956e+03
4.897130513516087376e+03
8.772624749130103737e+03
1.373292467361410309e+04
1.513484588290908141e+04
1.434349161147620180e+04
1.274476072753488370e+04
1.129314736627255115e+04
1.143828360027338567e+04
1.290922824480167765e+04
1.415779208137516071e+04
1.419536207110636133e+04
1.387360065683522953e+04
1.428535717578787626e+04
1.554270384324572115e+04
1.564154508504266960e+04
1.504750057145323990e+04
1.412021782343463383e+04
1.351148040556347587e+04
1.085434556802107727e+04
6.429773084493155693e+03
1.910700285668401420e+03
4.449855720038096365e+02
-1.821725777080267562e+03
-6.964436407695613525e+03
-9.597222799490537000e+03
-7.339272824249007499e+03
-2.831727065931600009e+03
-3.502962250396193667e+03
-7.678102444770352122e+03
-9.958214776441509457e+03
-1.083445449729359643e+04
-9.973909856620068240e+03
-5.055005664211967996e+03
-3.438019323598307437e+03
-8.416048300142028893e+02
2.194170273715946678e+03
2.314720527013490937e+03
4.468976393470080666e+02
-8.041755905746473445e+02
-4.747381809458891439e+03
-1.573396469723833252e+04
-2.152415698454678204e+04
-1.934283989652942910e+04
-1.376287035485288834e+04
-1.409899723056472249e+04
-1.991321615663411649e+04
-1.659387718973688243e+04
-7.414939862002480368e+03
-2.042309461363199944e+03
-6.400106387855535104e+03
-9.035323349155627511e+03
-6.358749995683470843e+03
-1.049350217242458348e+04
-1.696951474339970810e+04
-2.513775031579359347e+04
-3.968700856701501471e+04
-5.902318254568873090e+04
-7.140131069707307324e+04
-6.084129984919548588e+04
-4.274296800640981382e+04
-2.515333956875155855e+04
-1.810230064454045714e+04
-5.294584917935712838e+03
1.370496893857435862e+04
2.850851162947325065e+04
3.309718818862617627e+04
2.276649008027313175e+04
6.364465197074434400e+03
-6.884969521747198996e+03
-1.869573269776066081e+04
-2.448456714478004869e+04
-1.919647130671754348e+04
-1.590426669468060754e+04
-2.551659518642283001e+04
-3.342955598213420308e+04
-2.239323880578314493e+04
-9.622351655320266218e+03
-2.193673762997163976e+03
1.460003180959522615e+04
3.269319023106601526e+04
3.591308509910610155e+04
3.153208605099639317e+04
3.356769966014070087e+04
4.272906069433992525e+04
3.733223784991692810e+04
1.295116029675338905e+04
-5.465948514248932042e+03
-2.024673335752817002e+04
-3.369101711764869833e+04
-3.979258972735078714e+04
-3.701780985087725276e+04
-1.401842668499323190e+04
1.663063113564125160e+04
3.383274978324048425e+04
4.062014540592543926e+04
4.366600860241237388e+04
4.063765610111429851e+04
3.104438726524413141e+04
2.203951595538049878e+04
1.284546961006912170e+04
7.005431511272090574e+03
6.685725675566506652e+03
7.275788576997424570e+03
1.427097675832757204e+03
-8.187373619531903387e+03
-1.669939203919573629e+04
-1.078461368907464384e+04
3.980202455266121888e+03
7.956303297730324630e+03
8.505784207723590953e+03
9.901773198839295219e+03
9.042664778742802810e+03
3.402828208331636233e+03
1.270392393942290482e+03
-1.200430343590779785e+03
-6.294298865369400119e+03
-7.727091634078622519e+03
-1.019147494965713122e+04
-1.203206755524867367e+04
-1.214475403183054550e+04
-1.241145984645618410e+04
-1.156996873191013037e+04
-1.353276310459959313e+04
-1.089227474926830291e+04
-3.614311818102830784e+03
2.236033318708844035e+03
3.552767362804489949e+03
-1.873004746435012748e+03
-5.284137083662510122e+03
-3.077289660196381647e+03
-5.701383090821104815e+03
-9.252429829285540109e+03
-1.111330357185604953e+04
-8.007932087248890639e+03
-2.104144323269424603e+03
-1.266624532991864271e+03
-3.485334702135305633e+03
-2.053302021436543782e+03
3.065847785979922264e+03
7.609316622832704525e+03
1.055610565628495715e+04
1.926018933930322237e+04
2.870793229423018784e+04
2.951448993650676493e+04
2.620256029652349753e+04
1.952097795707023397e+04
1.407691587478222755e+04
1.257839938454915136e+04
9.988422942904626325e+03
8.476117736359638002e+03
8.352491759728442048e+03
9.983406560748149786e+03
1.050207933633893117e+04
1.328254060284902516e+04
1.546167101980368170e+04
1.397926356484754797e+04
1.387326462964677376e+04
1.493269400236513866e+04
1.529658001269016131e+04
1.814672824838986344e+04
2.179086346209999465e+04
2.197673688405752910e+04
2.024607063773032860e+04
1.705868467063647768e+04
1.215543263286112051e+04
9.719137679938621659e+03
8.915744074201758849e+03
8.421062334012667634e+03
9.605704730520146768e+03
1.168260481279336091e+04
1.186347691194951040e+04
1.152909428702335572e+04
6.895227589771768180e+03
3.579686317751276420e+03
2.116224333886720160e+03
-5.248825525725474961e+01
-1.776560273196987964e+03
-3.592203571534254934e+03
-4.384841047335617986e+03
-3.433503041023032438e+03
-2.161159856420760207e+03
2.539594330551837515e+02
2.530439905727604128e+03
-1.134874947611381458e+03
-5.100007331981142670e+03
-7.606184270670082697e+03
-9.014674731728124243e+03
-8.631781405451029059e+03
-1.038777217418476539e+04
-1.249679474774854680e+04
-1.365121407418939998e+04
-1.601631247482889012e+04
-1.671242674770257145e+04
-1.570375118161165847e+04
-1.736448148616698381e+04
-2.049484258683113148e+04
-2.444105277758578814e+04
-2.755234530778065164e+04
-2.857791530589282411e+04
-2.607305723216923798e+04
-2.087687454550405164e+04
-1.656340242164987285e+04
-1.671685317801813289e+04
-1.995943528331291964e+04
-2.392040270982841321e+04
-2.794200893496675417e+04
-2.951029322824301562e+04
-2.808337781416164580e+04
-2.758241980064803283e+04
-2.895051850051221118e+04
-3.184591679936016953e+04
-2.487089529077714542e+04
-1.447357118602580886e+04
-1.137414353798074626e+04
-1.434876594093956373e+04
-1.497755734578785268e+04
-1.325155237376486548e+04
-9.408960509703576463e+03
1.480093570462612661e+03
1.068570456301041486e+04
1.027667224895193249e+04
6.439025438387418944e+03
5.824709170831686606e+03
9.168558970782994948e+03
8.753512913477254187e+03
4.201749950708652250e+03
4.481311253473437318e+03
3.029995184893903115e+03
2.720799513548793584e+03
5.449506384376230926e+03
4.707960821873941313e+03
5.236341480325329030e+03
9.389630910931360631e+03
9.572669373127924700e+03
1.117638209289055158e+04
9.474642760103713954e+03
9.394510668906839783e+03
9.972039027309692756e+03
1.176433015769052327e+04
1.510934295477991691e+04
1.460008467834874500e+04
1.067681506861166781e+04
9.680591200003444101e+03
1.711448244096579219e+04
1.626887571605951234e+04
9.564973348372392138e+03
1.031560045335478026e+04
1.355881568219808105e+04
1.068696482929226840e+04
8.556090561798862836e+03
1.104516815186363419e+04
1.120023792413011688e+04
6.063551294214621521e+03
3.543157811838078487e+03
6.738226996132034401e+03
9.364823413261821770e+03
7.860924132405080854e+03
6.925712361125491952e+03
5.827122239448547589e+03
4.351186184489018160e+03
6.174285264151022602e+03
1.009674633999114303e+04
1.089490153633766931e+04
9.768938764412376258e+03
1.201187987922352659e+04
1.535476675482553037e+04
1.482482613346065591e+04
1.175733873256676088e+04
8.575494262225227430e+03
8.237343305139485892e+03
9.260949938277546607e+03
7.960598234183897148e+03
3.985561813254419576e+03
-1.052938255624893145e+03
-2.976736530116359518e+03
-3.332491916227339971e+03
-3.048896557076169302e+03
-2.194652840380229009e+03
-3.395607604087371783e+03
-2.563391169141253158e+03
-1.087557372829768383e+03
3.819870076984236107e+02
1.841114536984147435e+03
-5.239615047095282918e+00
-1.382618220775160808e+03
-9.125861467030404128e+02
-3.940765565893206031e+02
1.319027253533686689e+03
-1.412278639930971735e+02
-3.564937721682834763e+03
-1.015041812075969460e+03
3.352305811131239807e+03
2.510156402475069171e+03
-1.822341156948025400e+02
-1.499676562400433340e+03
-8.209694512082431856e+02
-1.455497282034198406e+03
-4.918643737866414995e+03
-7.616599710699443676e+03
-8.895704718297773070e+03
-7.159208982410804310e+03
-4.461692360471758548e+03
-5.570617769698819757e+03
-6.480536847962039246e+03
-6.238990331322672318e+03
-8.229828763651888949e+03
-1.051631961775808122e+04
-9.686434748285495516e+03
-1.066242915225552497e+04
-1.176785771641113570e+04
-1.300956484594786707e+04
-1.285634354581742264e+04
-1.170145683589708096e+04
-1.193131051422867313e+04
-1.209722438230719672e+04
-1.090595714640473125e+04
-1.130234871692126944e+04
-1.247771799641742837e+04
-1.195559116832560358e+04
-1.162776633512706212e+04
-1.242022925287090584e+04
-1.269811831471588448e+04
-7.911836855582100725e+03
-4.038159541224812529e+03
-2.861387714480593331e+03
-2.214534913389627036e+03
7.734233434360925230e+01
1.525792719763454897e+03
3.192866437938090712e+03
7.688448974675180580e+03
9.413422184472265144e+03
7.087649905732821935e+03
6.199496910407307041e+03
5.354396949908071292e+03
4.450371944791168062e+03
5.167311570406768624e+03
4.845651919206332423e+03
4.560223512911469697e+03
6.553452626411187339e+03
8.724774735509481616e+03
8.887393496305956432e+03
7.315313248183252654e+03
6.992175787781437975e+03
9.382801352159531234e+03
1.019506259073008368e+04
7.815997612345984635e+03
5.995964353980760279e+03
5.850041045460913665e+03
6.006249486135054212e+03
6.345252083517536448e+03
6.083262086246293620e+03
5.139617753852336136e+03
3.978303771674216023e+03
2.371636726712371001e+03
4.190555918547083252e+02
-2.855141358833834602e+02
-2.450070321816070305e+02
4.213181504634829366e+02
2.240908707505209804e+03
5.937527919626667426e+03
6.513560272358622569e+03
6.188270258826096324e+03
6.767601489718111225e+03
7.690228580569440055e+03
9.251054834915754327e+03
9.325546871502750946e+03
7.923719365700694652e+03
7.681278427022775759e+03
8.222180466302175773e+03
7.263636420972230553e+03
5.390168170866118089e+03
4.665605815863576936e+03
3.598093925185502485e+03
3.102224519086640157e+03
4.141934861173463105e+03
3.627068724459665646e+03
6.723474841908699773e+02
-2.623358866730627142e+03
-2.684283290402383955e+03
1.994660951278925040e+03
7.709981084776608441e+03
1.041806469198221748e+04
1.066480023773913854e+04
9.354234747366481315e+03
7.836700370659126747e+03
8.422974357972605503e+03
8.145500137289958730e+03
5.938517192584859913e+03
3.436034750677752072e+03
4.847551139402860976e+00
-2.257575359509765804e+03
-2.810701209207665670e+03
-4.494318195964551705e+03
-7.886168575843485087e+03
-8.292615783065173673e+03
-7.135137564806823320e+03
-6.790856940272551583e+03
-8.142855030844899375e+03
-5.800804605575642199e+03
-1.417925800706846530e+03
-3.966419947124340410e+02
-2.069666921837333120e+03
-3.104663808258057998e+03
-4.461689042938210150e+03
-5.957795532146109508e+03
-6.432877748181041170e+03
-7.611035257547199762e+03
-1.025333660595555193e+04
-1.182994757003993982e+04
-1.100579015055966374e+04
-8.872023102324397769e+03
-9.945516508555492692e+03
-1.144822660819929297e+04
-1.149440238392338324e+04
-1.033017898270191472e+04
-9.167476494607357381e+03
-8.148476287207899077e+03
-7.133199089712985369e+03
-6.449299885239875039e+03
-5.211500552793516363e+03
-4.895579061528711463e+03
-5.162279549511274126e+03
-3.183604073958590561e+03
-1.233510414265513873e+03
-1.469862180866889730e+03
-1.065705630034562319e+03
-1.511086585375947152e+03
-2.271844813311121470e+03
-2.981929817233076847e+03
-2.947826766935367232e+03
-3.046415247946829368e+03
-4.128652062094825851e+03
-3.756329665623454275e+03
-3.522353169491464087e+03
-6.381631276356585659e+03
-7.846072598592855684e+03
-6.000590918834622244e+03
-4.362026888080515164e+03
-5.177340869447990372e+03
-5.624416655897069177e+03
-3.742609027169965884e+03
-1.389578588415117565e+03
5.847746968272355161e+02
1.269568121945163739e+03
1.756842064431632480e+03
3.251979951813202206e+03
3.522296346813880518e+03
3.691848465220114576e+03
2.855834338852412202e+03
2.110337017284688045e+03
1.993373562813959552e+03
1.608248784993481650e+03
1.694269203979580880e+03
1.308786627434006277e+03
6.060068673999941211e+02
-9.620891850506350238e+02
-2.045646366897831058e+03
-1.325688401816935311e+03
-9.079443158562210101e+02
-4.169214028121888305e+02
2.578765829197554922e+02
6.781650143895286931e+01
6.441582740800005240e+02
1.505995355821632302e+03
2.363345546323770577e+03
3.464338237077921804e+03
4.201338340517774668e+03
3.565576295522607779e+03
3.163359574472198801e+03
2.282405199264942439e+03
8.822707897885737793e+02
-1.039592545186121875e+01
6.454433136164074085e+02
1.997591462634078141e+02
-8.525291226357762753e+02
-1.950191438925280352e+02
-6.365875605681326306e+02
-3.343610684956046839e+02
-1.971149824333431155e+01
-7.384673020663703937e+02
-1.279723394000494636e+03
2.960152069235611521e+02
2.894264758865705517e+03
3.940778354880424104e+03
6.142841079002507286e+03
6.348547270736050450e+03
4.736744769203086435e+03
5.745775638337451710e+03
7.778717919351330238e+03
8.689409202903612822e+03
8.231291627719201642e+03
6.355487320702203760e+03
4.953238671295305721e+03
3.676398019814801501e+03
3.076238918339222437e+03
1.792745302662927543e+03
2.700082146533156333e+02
1.014551021099610892e+02
-7.878199099673765886e+02
-2.727022097642887729e+03
-1.903564345033745667e+03
9.333867323765484798e+02
1.336528294153247998e+03
7.734754579579919209e+02
3.259224287495298995e+03
5.094202383608779201e+03
5.336044077140159061e+03
6.233468630078414208e+03
7.367890275330145414e+03
6.718811079845472705e+03
6.049258224761595557e+03
5.725857576538406647e+03
4.554453303699638127e+03
2.928583564111802389e+03
2.042221992286473323e+03
1.638381668345425396e+03
1.216176238798881741e+03
5.992894822283883514e+02
9.053824079315310200e+02
1.254638799823808995e+03
1.115243298870242370e+03
7.369030011886175089e+02
1.133453455945751102e+03
1.956178359987955446e+03
2.715296927429085827e+03
2.637881485567300388e+03
2.023633129205474006e+03
1.593396498696696881e+03
1.495217976559555382e+03
1.314266123324078308e+03
9.606961957864651822e+02
8.255116196737102285e+00
-2.449273161921638348e+03
-5.343106915687614674e+03
-6.831417285727515264e+03
-7.339111545221696360e+03
-8.334411559236894391e+03
-8.977479365060389682e+03
-8.500441917187703439e+03
-7.553403272072118853e+03
-7.232119652344345923e+03
-7.388734257012225498e+03
-7.567479516198130113e+03
-7.018497946314738329e+03
-5.617067488008968212e+03
-1.588081196911100278e+03
-1.164974388219794719e+02
-5.209574808513862081e+02
-6.878934970309908294e+02
-1.705128298102854615e+03
-4.437626856867672359e+03
-6.362625540983435712e+03
-5.143421601622804701e+03
-6.180050195006198919e+03
-8.142427516567031489e+03
-8.184690799433921711e+03
-7.854066417777551578e+03
-8.155929309753812959e+03
-8.684622054486861089e+03
-8.125062290489798215e+03
-7.391438411461952455e+03
-6.986031570984633618e+03
-7.191761679866181112e+03
-6.536769394439504140e+03
-3.621537648563745279e+03
-1.462110565987241444e+03
-6.757027281902390996e+02
-6.205091082157342726e+02
-1.137409967843263274e+02
-7.666804726274830273e+02
-2.358529426217309265e+03
-3.343566821746811911e+03
-2.980007397931754440e+03
-1.365911547915847905e+03
3.675889365412571692e+02
1.482130816169398713e+03
1.322490193865040965e+03
3.335651252247992034e+02
-1.587839339073936884e+01
5.797240174499896739e+02
1.760226045973527107e+03
3.553560393431836019e+03
4.449572866210837674e+03
4.932875831044233564e+03
6.057346991955928388e+03
6.786817858185882869e+03
7.003831936667362243e+03
6.730316424861126507e+03
6.747404515173292566e+03
6.310813281291349995e+03
5.265384114139519625e+03
4.180026933533907140e+03
3.393461546168361565e+03
2.876527776818987604e+03
1.681986940909531540e+03
9.487068241152211385e+02
2.856441538024289457e+02
2.769969903224886707e+02
4.535781977087533505e+02
8.579198870409135225e+02
1.331057331076599667e+03
2.641057816487834316e+03
3.373773642206886052e+03
3.554415820233401519e+03
4.880862322084273728e+03
6.826980616887062752e+03
7.183682883973468051e+03
7.048893042580471047e+03
6.508582366346828167e+03
6.156640794796053342e+03
5.402060098990857114e+03
3.914854418258779333e+03
2.783857594173448433e+03
1.948522288068712669e+03
1.036870247247479256e+03
3.829800449725697717e+02
-3.649858920600987489e+01
-3.603614847200683471e+02
-3.862807071936650516e+01
9.155185899919521830e+01
4.370896565272140606e+02
1.202888576989032799e+03
2.081121412986578889e+03
3.039897000642858075e+03
4.001102494367710278e+03
4.746673385103165856e+03
4.366713013552409393e+03
3.127349935937800637e+03
2.325454376486783076e+03
1.296139289294599621e+03
5.341571429561636108e+01
-1.038891002858256570e+03
-2.154633558209674902e+03
-3.075572834140491068e+03
-3.721685116680028841e+03
-4.094130826131975482e+03
-3.937283291000623194e+03
-3.491288986872689293e+03
-1.849905879931179470e+03
-8.828004509277851639e+02
-8.997448424130191142e+02
-1.087617790056134481e+03
-1.177460746756583831e+03
-1.337089648055481121e+03
-1.436189290012881429e+03
-1.551598062381406407e+03
-1.791163971370307763e+03
-2.666761339765088451e+03
-3.843290188836375364e+03
-3.753655281299680610e+03
-3.474618516703758814e+03
-3.579263620757939407e+03
-3.490581509098636161e+03
-4.164468222996783879e+03
-5.627635293681397343e+03
-6.371140472563009098e+03
-6.556080908757468023e+03
