-5.229379295117708352e+03
-5.364418180762184420e+03
-5.549342655022040162e+03
-5.903843111390159720e+03
-5.600055709430607749e+03
-4.002410839503389980e+03
-1.797581567920486577e+03
8.457571331523438118e+01
8.432541899387892954e+02
1.159865097748851440e+03
1.785850554601844124e+03
1.688334291909453668e+03
8.833426713204169118e+02
2.467764952446097197e+02
3.208624777629232199e+02
9.389691276808968041e+02
7.832025515749480746e+02
1.815096810797814157e+02
-1.669564320507647608e+02
-9.721779425010495288e+02
-3.890255160602354749e+02
1.106747858629861838e+02
8.731985088158396593e+02
1.437846565814146061e+03
1.937696046518727599e+03
2.998047623809187371e+03
3.988198983864057482e+03
4.855499787956575346e+03
6.257052454366297752e+03
6.576598266824643360e+03
6.060053246660901095e+03
5.494632798509041095e+03
5.154706195889280025e+03
5.063332427851968532e+03
5.151461780565807203e+03
4.100937649755139319e+03
2.543141779455319011e+03
1.386621026957082677e+03
3.331854486053761661e+02
6.906331941387838924e+02
1.038008320105874873e+03
7.332838605705837836e+02
1.180555814438400148e+03
2.010093952082022724e+03
3.318062984331655571e+03
3.764391850110669566e+03
4.024021179025901802e+03
3.849190369750036552e+03
3.826123892701117256e+03
4.045706093955559027e+03
4.450947985863349459e+03
4.789978403607740802e+03
4.255800135880467678e+03
3.668698295798609252e+03
3.108671749222824019e+03
2.300499480076092823e+03
1.550224951135575111e+03
1.416754551536501822e+03
1.206921024030637000e+03
6.368217404445687180e+02
-1.745360317717687906e+02
-1.291418661908224976e+02
-6.289013065525897446e+02
-3.888797877461614689e+02
4.570589385462350265e+02
1.225024465384178029e+03
1.410000367614595461e+03
9.109468343998736373e+02
7.296603003000240051e+02
3.231525225901237377e+02
3.323729814505088598e+02
1.753489577998052937e+03
2.804423526930916523e+03
3.165964050971796496e+03
2.694229826591731126e+03
7.731566919588944984e+02
-2.106166714212972977e+02
-1.091417296295429082e+02
-3.582671853094925609e+02
-8.120669281904326908e+02
-6.189592241354181397e+02
-1.107857256399596054e+03
-1.485863915303391650e+03
-1.652094278517936345e+03
-8.053673941381601935e+02
6.517516817389066830e+01
7.335488308469688263e+02
1.560464920561170175e+03
1.862623312374636271e+03
1.314172687591006252e+03
1.369931871975926185e+02
-5.041049689241731357e+02
-2.832610533085645557e+02
8.414885967778574241e+02
2.755090838594536763e+03
2.500306235225642922e+03
4.327582523558826324e+02
-5.402757428949713585e+02
-1.217961233229479831e+03
-1.732513816041377140e+03
-2.096287897697255630e+03
-2.656600403638928583e+03
-3.553546753552435803e+03
-3.300014892959663030e+03
-2.235024468522363350e+03
-1.133824562291577649e+03
-2.015304650906173833e+02
2.027757780612924137e+02
6.739373983593294497e+02
8.339019623109930990e+02
1.233456067155412484e+03
7.433730461894595010e+02
1.115802472214273564e+02
2.570723921860260361e+02
-7.951326241530830430e+02
-4.120274076074082586e+03
-5.880699551966416948e+03
-6.833498128859724602e+03
-6.663567536295401624e+03
-6.310979607935802960e+03
-6.438937099256258080e+03
-6.505602416246892062e+03
-7.206133338224090039e+03
-7.359592608404611383e+03
-7.819987604075831769e+03
-7.635418748293420322e+03
-5.779952425993957149e+03
-6.284852734999354652e+03
-5.870248753279332050e+03
-2.671134183345460315e+03
-3.175509864004485735e+03
-5.330465608352703384e+03
-5.049362482548372100e+03
-8.624235268583590823e+02
8.222562177075905083e+02
-1.843465329294339881e+03
-3.627802497690880955e+03
-3.408899783834104710e+03
-3.397833932380588067e+03
-4.171729280607565670e+03
-4.753647257333779635e+03
-3.087631634241598476e+03
1.339259802674285993e+03
1.555881131960049288e+03
-1.948848057989973086e+03
-3.108939910094395145e+03
-8.694167954646566159e+02
4.285627865541665415e+03
6.285231792840571870e+03
6.597415115544109540e+03
6.836135400930412288e+03
6.866328843166790648e+03
7.010834227696176640e+03
6.043611377516672292e+03
5.136606303011800264e+03
4.871811623959945791e+03
3.583204988553065050e+03
1.656742378460037344e+03
3.702523254071152792e+02
-9.517083160936662978e+01
-8.494464330710887907e+02
-1.470654487476183476e+03
-6.998423227332768874e+02
7.960419896030265363e+02
1.826063010971294261e+03
2.586250244754186042e+03
3.220500946250796005e+03
4.445919459037713750e+03
5.578727159793733335e+03
6.005920062208508170e+03
6.505572126904753532e+03
6.393664411864325302e+03
6.049340841833562990e+03
5.565488544230435764e+03
4.542088363941295938e+03
3.564287596555924665e+03
2.645087700743913047e+03
1.237279973057781717e+03
-1.349328464351481216e+02
-8.046484874282170949e+02
-1.010048227017226736e+03
-3.899975557092820395e+02
8.578489847026841630e+01
4.163330257412189894e+02
-2.312140297473997350e+02
-9.726486756465023973e+02
-4.270265162664727541e+02
-3.482728432667487937e+02
-9.021978871582219028e+01
7.041117556846057823e+02
2.072795853445291868e+03
2.202996949284344737e+03
1.598778224481130110e+03
1.568191981377063939e+03
2.231363070576929204e+03
2.557264252774540182e+03
1.840913924933026010e+03
-1.079715540570905887e+03
-1.136685080403611209e+03
-7.289159710932982534e+02
-9.013833471501552594e+02
-1.355309483324831263e+03
-2.081600738529903538e+03
-2.321118700524460564e+03
-1.037894270911357808e+03
-1.488783118173782327e+02
4.419457049001313180e+02
1.017568751831167333e+03
7.230140336156348440e+02
1.005406629543140298e+03
1.683886910797695009e+03
1.431444613137058695e+03
1.507243844989328863e+03
2.457434172274623052e+03
2.667952767191126441e+03
2.662871148386826462e+03
2.254139395366669760e+03
7.466389656566800568e+02
-8.445635513668705698e+02
-2.761403873544182261e+03
-3.430840352352392074e+03
-2.094715129197257738e+03
-5.531628933143692848e+02
-4.201984312253655389e+02
-7.497941792508155459e+02
-6.408055852942546835e+02
2.799294534784580151e+02
7.604202394627071726e+02
8.567068267976804918e+02
1.162849884955086736e+03
1.327902315103345018e+03
8.669222868756766047e+02
3.289683288232309906e+02
6.951127419881372589e+02
8.734377884831923211e+02
8.609011425597560674e+02
6.954417910542211985e+02
-5.069447942894772723e+02
-1.825232699923028804e+03
-2.320394848460767662e+03
-2.329447863225315814e+03
-2.468448827824978252e+03
-2.594442911843528691e+03
-2.424294544185066570e+03
-2.786986607803249626e+03
-2.830379180357451787e+03
-1.648455735448754695e+03
-3.412429111985368309e+02
-3.026461021554640070e+02
-2.596116234794843649e+02
-1.001820313022789009e+02
-1.032750896295743956e+02
4.415247445375943869e+01
9.569742368527724921e+02
3.071288379174654892e+02
-1.298294870559868741e+03
-2.183286086469239763e+03
-2.065936903583868116e+03
-5.802856535767572268e+02
8.997249402768209166e+02
1.211023777446726626e+03
1.157381520919698659e+01
4.503427361254766197e+02
1.699290283785893735e+03
1.660424405232931576e+03
9.178754720143745089e+02
8.515374456122116271e+02
1.558391951013777089e+03
2.525487948855532977e+03
3.288754844089059134e+03
3.656295406215802814e+03
4.099390152256570218e+03
4.373890239801988173e+03
3.994718691801265322e+03
3.584892681259540495e+03
3.086216923218584725e+03
1.605675351671732869e+03
-6.717936786433298266e+02
-1.898213443558950758e+03
-2.970660317496271546e+03
-4.593961163719184697e+03
-4.082838467038125600e+03
-2.692334931508338741e+03
-1.847534441890452626e+03
-9.514245647564499677e+02
1.200149527479749878e+02
2.060716701717896740e+03
2.748654830840720933e+03
2.069563636419187333e+03
1.320972407600223050e+03
-5.194387331744776475e+02
-2.458364133746325933e+03
-3.183982659585659803e+03
-2.422064613372684562e+03
-2.116740147519739992e+02
2.785762435506187103e+03
3.545450563734138541e+03
2.948728172210002413e+03
2.121464033355721767e+03
8.659266770095503034e+02
-1.489471279722326358e+02
-6.670730743186793461e+02
-6.878270592525041138e+02
-1.107624310361590460e+03
-1.324237921227641209e+03
-1.151187219988643164e+03
-1.849809991721657809e+02
5.406914821933968369e+02
8.833156243841251580e+02
2.357213499443533237e+03
4.140084899344418773e+03
4.438371494693627028e+03
4.385109458360615463e+03
4.555274815063457936e+03
4.125549221260758713e+03
3.467063947960478345e+03
2.478220070289939486e+03
2.222825987053407971e+03
2.309256032395319380e+03
1.304768396577787826e+03
3.445765593698702673e+02
1.022415392551179252e+03
1.529830803498186924e+03
1.697145365823266957e+03
1.687452612659474426e+03
1.152986046183274311e+03
-9.836845128469334441e+02
-5.174738625864491723e+02
4.029362483627440952e+02
9.020050369184008332e+02
1.052615690770205219e+03
1.831650527337572385e+03
1.571229627867033287e+03
-9.991172517005878717e+00
-1.311783681389853427e+03
-2.089403939356532646e+03
-1.640737472689303786e+03
1.483316296408360586e+03
9.283514834473337487e+02
-3.641610124333807107e+03
-6.131473203675376681e+03
-5.540373772464435206e+03
-2.734736343057412341e+03
-1.074702753170050755e+03
-2.843836218942491087e+03
-3.368762732544934352e+03
-3.053663771815838572e+03
-2.904869320144370704e+03
-3.222302098947414834e+03
-3.695997105469431517e+03
-3.751912855208358906e+03
-4.158615259695349778e+03
-4.224300504763998106e+03
-1.075573314823676128e+03
5.549993024639361465e+02
1.432597803823721279e+03
1.898853411443389859e+03
1.556690520766378313e+03
1.750465588047809149e+02
-4.277724490129617152e+02
1.128702995407162319e+02
4.469345398346545721e+02
1.089119013606166142e+01
-5.660900417391206929e+02
-3.151954148123274990e+02
5.446660933068524173e+02
1.121975655213716891e+03
1.159518596114064621e+03
9.856276709266485341e+02
1.256005648175142369e+03
1.232942207616046062e+03
7.924506389162522737e+02
3.134234697171285333e+01
-2.977908799480599100e+02
-3.996602436846516753e+02
-1.255445110840461439e+03
-1.970167112022877745e+03
-1.723239702804864692e+03
-1.537553423184184567e+03
-1.358531991383461218e+03
-1.887815698623212938e+03
-3.113934582659672287e+03
-3.360487120772256731e+03
-3.053867677205203108e+03
-2.998241639384382324e+03
-2.981734343840345446e+03
-2.784376790774682831e+03
-2.393943296077948162e+03
-2.457030386534407626e+03
-1.497713373312654312e+03
-2.337009943935902072e+02
7.852058254096981500e+02
1.536645576220239718e+03
1.691623835911518199e+03
1.137510441618785990e+03
4.653270511383106367e+01
-1.115992459190126738e+03
-1.838296195109780911e+03
-2.613033231083134979e+03
-3.174672256979240046e+03
-3.464876239504515979e+03
-3.906900874942201881e+03
-3.646074084991969812e+03
-3.391361126536197389e+03
-3.241207280845470905e+03
-2.694645855738171122e+03
-2.347427315929506676e+03
-2.283559618434743697e+03
-2.363802276675255143e+03
-1.852203906699084882e+03
-1.453424476159840424e+03
-1.556661890493535111e+03
-1.602421012265826903e+03
-2.315446621842026616e+03
-3.127509997489878515e+03
-3.386407919230658990e+03
-3.221060542564430307e+03
-3.590291779642082474e+03
-4.309482918205035276e+03
-4.924346274605197323e+03
-5.725897310618482152e+03
-5.887287015218932538e+03
-6.170116971887548061e+03
-6.362059592015073576e+03
-5.858002779614061183e+03
-5.598447919419964819e+03
-4.979418807558464323e+03
-4.413267520203072309e+03
-3.646009943748841579e+03
-2.221529490660634110e+03
-7.118507190257132606e+02
6.540125736274304700e+02
8.653257361721040297e+02
6.994049290732349391e+02
3.934525395499290426e+02
-2.725124637028027337e+02
-1.285778722085853587e+03
-2.435179074438029602e+03
-3.991658959952770147e+03
-6.213227638971666238e+03
-8.503794062800885513e+03
-8.429195203753917667e+03
-8.157539660880969677e+03
-7.966119236996870313e+03
-7.250144027432867006e+03
-6.546319150135938798e+03
-5.596557134853094794e+03
-4.269148866241590440e+03
-3.914852121150405310e+03
-3.536736838708509367e+03
-2.494010269074609823e+03
-1.510894311158899200e+03
-1.597630069919860716e+03
-1.755160223338650439e+03
-1.351652360263116748e+02
1.472884984538085746e+03
2.193657303408801909e+03
1.779101778293575990e+03
1.303178997158333232e+03
1.128850781182342416e+03
1.162457459321389706e+03
1.261697437999567683e+03
1.872172906441967825e+03
2.387449112682903888e+03
2.815614752695237257e+03
3.500875573959816847e+03
4.347078594320565571e+03
5.199443061669000599e+03
6.152364735800059862e+03
6.669628274357378359e+03
7.388933045365654834e+03
8.289776366533504188e+03
8.496206239324383205e+03
7.806082899567581990e+03
7.750960719228368362e+03
7.644671471991031467e+03
7.455995896418573466e+03
8.124599156565433077e+03
7.524305869429891573e+03
6.305813179729984768e+03
5.267840645833102826e+03
4.884267066481246729e+03
4.823644119693150969e+03
4.918465046272580366e+03
5.050206837782246112e+03
5.287725472021547830e+03
5.528860252265243616e+03
5.885384960816268176e+03
6.112718111772955126e+03
6.573201450403634226e+03
8.196481186765737220e+03
9.106350352213361475e+03
8.197587428527671364e+03
7.058861511243966561e+03
6.793595818571502605e+03
6.405396371842715780e+03
6.127207060416527383e+03
5.423601511131317238e+03
3.998947237426688844e+03
3.075716171986993231e+03
2.118460629180761771e+03
2.079050977109522591e+03
2.107507740942162400e+03
2.055798367896964919e+03
3.117600952305826013e+03
4.542682424233664278e+03
5.390749345552646446e+03
7.139546331936700881e+03
8.707775348941562697e+03
9.314589874472610973e+03
9.500640383876156193e+03
9.521807370638209250e+03
9.644039924275914018e+03
9.230152444344686955e+03
8.312760144574423975e+03
7.947257182032423771e+03
6.243264611527345551e+03
4.335603811958680126e+03
3.265341442837467639e+03
2.666137845553148964e+03
2.364741778981573589e+03
3.126021476714086020e+03
2.329755034305599565e+03
1.655439167977011039e+03
8.926793136049504938e+02
-1.947471394605694741e+03
-3.996803024939291845e+03
-1.609587175794080622e+03
2.330363462607633949e+02
9.062519259344682041e+02
1.666878162334918670e+03
1.923353484603564993e+02
-2.381323969783646589e+03
-4.795269755097397137e+03
-7.936687408021084593e+03
-1.240265172160257862e+04
-1.544103073922336262e+04
-1.496464382669880797e+04
-1.383847320536593179e+04
-1.310858584201827034e+04
-1.154112175083813963e+04
-7.921182326782220116e+03
-4.834675466749697080e+03
-1.798228516157643526e+03
-1.571859231744847193e+03
-7.694500722605269402e+03
-1.980293001514466232e+04
-3.054073788788193269e+04
-3.357760075276315911e+04
-3.486215126014827547e+04
-3.716587032106883998e+04
-3.159435995160145467e+04
-1.938037894879015948e+04
-1.268310664636772162e+04
-6.075010778398773255e+03
-6.787214056576018265e+03
-7.386909735166317660e+03
-5.408886977040727288e+03
-8.484926107851677443e+03
-1.814469964196307774e+04
-2.732200894304157555e+04
-3.153581186242271360e+04
-2.897178343055103687e+04
-2.020668399956788562e+04
-1.578818027174380404e+04
-5.653800149460879766e+03
3.604676480457521848e+03
8.062465042885516596e+03
-7.397216427276599404e+01
-1.043923979490767306e+04
-1.257513831136751469e+04
-1.287238140465132528e+04
-7.159402186754447939e+03
-2.301692581975114081e+03
-3.600030016297665497e+03
-1.400158652389730605e+03
6.228446325886346131e+03
1.394189158717063947e+04
1.829729965559791890e+04
1.428434683394650710e+04
1.042653831549735150e+04
9.898666940556724512e+03
3.229793989194173719e+03
-3.112699458781603425e+03
-4.220337458361074823e+03
1.658010185921314587e+03
7.592056257690512211e+03
1.320739695864446912e+04
2.089816961554352747e+04
2.712789029197188574e+04
2.560643821287300307e+04
2.002643190554978719e+04
1.464511215358702248e+04
1.028265397045406280e+04
1.295788229194438827e+04
1.713572625198056267e+04
9.683083752907681628e+03
-5.388067711978842453e+02
9.908368303462346375e+03
3.643402191143220261e+04
4.858150586229901819e+04
4.022341354212258011e+04
2.581898688139089427e+04
1.601142270332032967e+04
4.601232580703850545e+03
-1.012707381588834869e+04
-1.307101325022441051e+04
-9.610210651436296757e+03
-1.080310356182026408e+04
-9.549614625280091786e+03
-1.617060332321777969e+04
-2.278336058794963901e+04
-8.033691575659069713e+03
9.377584061047653449e+03
1.530285270714975013e+04
1.146165707466917593e+04
1.536340960664627346e+03
-1.177283252434738461e+04
-8.008678569693029203e+03
-1.560778934965480403e+03
2.579367939065705286e+03
8.414991395234450465e+03
6.927148627782153198e+03
9.479874450837129416e+02
-4.278086079960171446e+03
-2.417772094428221862e+03
3.686129770141480094e+03
8.885032310442233211e+03
8.138274321567458173e+03
6.571297573252622897e+02
-5.876266138159504408e+03
-2.713816425995008103e+03
-3.002618106527125974e+02
-5.515232162151292869e+03
-1.244939028588825931e+04
-1.568322800766940782e+04
-1.601067538971438626e+04
-1.188974489461292978e+04
-1.821245955147364384e+03
5.785929187988681406e+03
8.844761987375344688e+03
1.012036010500791053e+04
1.315984442981713255e+04
1.466139084484424347e+04
1.833150984455792423e+04
2.257737050487173110e+04
2.084040343265041884e+04
1.752015241604025505e+04
1.541264551301427855e+04
1.097811500295585392e+04
1.060697325335628375e+04
1.113069243333518352e+04
1.332817385291328719e+04
1.062576664635547968e+04
-2.043077289411272204e+03
-8.884434775529574836e+03
-4.509230968133636452e+03
5.102652663326027323e+03
1.253501042378517377e+04
9.836454207900786059e+03
2.006839873073219223e+03
1.307204914999530729e+03
2.152498724148775864e+02
-3.611139213157774066e+03
-7.528173416812423966e+03
-1.550206794066701150e+04
-2.460278785372537095e+04
-2.715466415908051567e+04
-2.490492332286190504e+04
-2.185561348233576791e+04
-1.787397113478610845e+04
-1.147330023678631187e+04
-3.189902225813358655e+03
7.917006992906933192e+03
1.506112556085851611e+04
1.393119255984692063e+04
1.194706167221817304e+04
5.539516019364435124e+03
1.633229216787751739e+03
7.988787931584906232e+01
-6.447930117432928228e+02
4.800908596901040255e+03
9.836722697744824472e+03
1.038738219801844934e+04
9.288447368315872154e+03
8.389689125613636861e+03
5.793051284776490320e+03
6.505598092625971276e+02
-3.011231806243485153e+03
-3.877886263789249824e+03
-3.376781118152517593e+03
-3.155173861993519495e+03
-6.860336267006224261e+03
-8.935448490836541168e+03
-9.842551267009332150e+03
-1.108273539590321525e+04
-1.121060331042768667e+04
-9.832927059472760448e+03
-9.528322394121762045e+03
-1.143836321907364254e+04
-1.681922972292865234e+04
-1.845400003828064291e+04
-1.764492715119460627e+04
-1.891930407772947001e+04
-1.708337184444051672e+04
-1.539633967584664606e+04
-1.430858287794129683e+04
-1.374839938286123470e+04
-1.516585140440157738e+04
-1.564204633309983183e+04
-1.269892456310055240e+04
-1.088752564282067397e+04
-1.063450508683091721e+04
-9.306111282471891172e+03
-6.063566656389066338e+03
-2.204415677436488750e+02
8.799284958804673806e+02
2.739571299597808320e+03
2.249649369746644425e+03
-1.745219083479928941e+03
-2.190585704020876165e+03
2.719478501994195994e+03
1.107400011989578888e+04
1.472175685515150508e+04
1.336255796176286458e+04
1.268927889669530487e+04
1.254780584612467646e+04
8.345092158283274330e+03
7.526019323585795973e+03
8.105317615965001096e+03
5.032010095904239279e+03
2.366207741734901902e+03
-7.970598039270082609e+02
-4.306011095108517111e+03
-4.479987291126545642e+03
-3.872998577033526090e+03
-3.900004633554996417e+03
-1.525862034088880364e+03
2.412576300877773576e+02
1.035239726938872082e+03
-1.023016757679594662e+03
-1.219568556024903501e+03
1.459523865625451435e+03
6.578279321462732696e+03
9.000662652283352145e+03
7.334762627389461159e+03
6.114579989913322606e+03
6.502973242712197134e+03
8.721162017077807832e+03
1.171431523523912620e+04
1.088943846447873875e+04
8.671488564440660411e+03
1.081637492922427373e+04
1.297219714311558710e+04
1.141807713595343557e+04
6.673158643067768026e+03
-7.476309564506753986e+02
-8.038265057455845636e+03
-1.208479589461954129e+04
-1.148721446583575380e+04
-1.024242122347601799e+04
-8.674469368364789261e+03
-6.357318784659257290e+03
-2.399838284157620365e+03
2.693913945522722315e+03
1.450017924652266174e+03
6.066580469096105332e+01
-1.021082553593519265e+03
-4.680670947091124958e+02
2.032764052741672685e+03
4.630472334868342841e+03
4.767153669053753219e+03
3.555800755049247073e+03
1.894551838003944340e+03
2.341542171996225534e+03
3.042996561791418571e+03
4.676899962243208392e+03
6.675186499261477366e+03
8.054884811367957809e+03
5.908202860345182671e+03
9.370813984694367491e+02
-1.710447542722044318e+03
2.898618517165829189e+02
7.480787824136523341e+02
1.481858643973596600e+03
6.929308677696584709e+03
1.229058063537674025e+04
1.211667433792541851e+04
1.384378607239206940e+04
1.339707596590349567e+04
9.653583543532346084e+03
5.223496419115137542e+03
1.907046100540517727e+03
-3.078434602140468428e+02
-3.534246461454518453e+02
2.557692468385823759e-01
-1.993765634439189398e+03
-6.075625058989375248e+03
-1.006064454551032031e+04
-9.022693506517489368e+03
-9.919676808224950946e+03
-1.281460056808276022e+04
-1.492511074767316313e+04
-1.479463037040495146e+04
-1.221001910074667830e+04
-4.231747846111162289e+03
-1.180856775206127168e+03
-6.115215121810665551e+03
-9.617563348543348184e+03
-6.589710883926223687e+03
9.945795244918706430e+02
5.756116947445299047e+03
5.334337646828375910e+03
4.724178170959831732e+03
4.242368337631783106e+03
5.517157240638020085e+03
6.004087918168086617e+03
3.652274081694834422e+03
1.923329789086172013e+03
2.165865224862097023e+02
-1.350660875335475794e+03
-1.098285135254415763e+03
-4.939920082385863793e+02
-3.719915142926716953e+02
3.918593962091256344e+02
1.902471355402332392e+03
2.013199649531449040e+03
4.554385298618114462e+02
1.059965294520440011e+03
3.310181140040333958e+03
4.679922529752626360e+03
5.020572408623475894e+03
6.149767190563960867e+03
3.175866982401413225e+03
-2.927443448311039447e+03
-6.892167731929484944e+03
-1.098776894137433737e+04
-1.097731122727423099e+04
-2.190087119341717425e+03
6.416331810810565912e+03
6.391935889724180925e+03
2.752308716723119232e+03
1.956715399652769065e+03
3.063874665132244900e+03
9.915595479141256874e+02
-1.641512213199766848e+03
-3.364326275498088421e+02
3.941241523992233397e+03
6.940867751713999496e+03
8.405508190132723030e+03
4.950069418458270775e+03
3.938924315176671826e+03
4.105806971897576659e+03
2.817564115937635052e+03
2.728484970138973949e+03
5.514866319787545763e+03
7.475037233037812257e+03
8.662609280768589088e+03
8.757069808999538509e+03
6.669029545263181717e+03
5.386385286720966178e+03
4.738430478412627963e+03
4.857565412691961683e+03
5.153012250599812432e+03
7.667236101693772980e+03
6.783527752688910368e+03
6.338721617958270144e+03
9.774441380416599713e+03
1.128975728018259906e+04
1.040090274739748202e+04
8.880313957722237319e+03
8.407663577347846513e+03
8.528683721068693558e+03
9.064963186403852887e+03
7.689003941640650737e+03
6.589537282205898919e+03
7.795224111418063330e+03
9.337104584411081305e+03
8.873892529432419906e+03
6.287150279957984822e+03
4.453339630008233144e+03
2.415457223569948383e+03
-4.460642619446458639e+02
-1.935597356220842812e+03
-2.845096205610235756e+03
-3.810154190634429142e+03
-5.866001476271044339e+03
-9.905407708582375562e+03
-1.520900972091348376e+04
-1.945271841795917135e+04
-2.154886887430039496e+04
-1.919513769376023993e+04
-1.729658039419795386e+04
-1.794744200714744875e+04
-1.894297335454963104e+04
-1.946772645360839670e+04
-2.133764854438006296e+04
-2.381339367937300267e+04
-2.652877987197706170e+04
-2.831169926714293251e+04
-2.367904196599275019e+04
-1.631318600120128394e+04
-1.431534710026496032e+04
-1.808602809608271127e+04
-2.269368077842254934e+04
-2.534409798873114778e+04
-2.313580262512229820e+04
-1.384088031704009700e+04
-3.511304434954404314e+03
6.749308447956664168e+02
-7.815545268110811321e+02
-2.965663981762460025e+03
-3.377550618290609236e+03
-5.369606477102379358e+02
1.439665344557634626e+03
8.154845325549562176e+02
-1.574884313718964108e+02
1.108189098668152610e+03
1.058188895608294388e+03
1.512799926287101471e+03
1.141317628843394232e+03
-1.560296384807812444e+02
2.076268595489535528e+03
2.873617408462441290e+03
2.918750737229838705e+03
5.311423531979701693e+03
7.164644324217321810e+03
7.967440278990939078e+03
8.361723178618925886e+03
9.584374379715351097e+03
9.580134975535325793e+03
8.740314713370467871e+03
9.069652339002179360e+03
9.605397988021295532e+03
9.882100766803252554e+03
9.275794136695065390e+03
8.227481671052470119e+03
7.565222608901744024e+03
6.541583881439762990e+03
5.830644546329529476e+03
2.559855436086490954e+03
-6.135162705073685174e+02
-4.453750188160295806e+02
4.767582511088619867e+03
9.325839319244925719e+03
9.976527333837399055e+03
8.942645809715579162e+03
7.676211211875811387e+03
5.549356139991900818e+03
3.543530790299021646e+03
3.911792785461760104e+03
6.235243705236242931e+03
3.066093642512250881e+03
5.594399820126585837e+03
6.203146222652441793e+03
2.790535450833202503e+03
-3.972378894158795788e+02
-1.080785880238346408e+03
-1.688334085082978390e+03
-2.517079535875590409e+03
-2.681774452766279865e+03
-3.223665683688662739e+03
-5.784723968623121436e+03
-9.074820007117301429e+03
-1.065986665945391724e+04
-1.211368810472128644e+04
-1.001928738224374683e+04
-2.425855176915761604e+03
1.386672821679743947e+03
5.102436640915146199e+03
8.426386090703515947e+03
7.076371877502476309e+03
3.472143423420767249e+03
2.171002616956155180e+03
5.653865857277837677e+03
7.841937360123843973e+03
5.104521198598765295e+03
2.931380761780388184e+03
3.248018234335286252e+03
2.973974914781647385e+03
2.139500612877083313e+03
1.570951761257970020e+03
7.292447879905704440e+02
1.118338725916706608e+03
1.982596502569461336e+03
3.581692686868408515e+01
-1.826093093401050510e+03
-6.528264133669098328e+02
2.487632066872445648e+03
4.387328747961501904e+03
3.971319909379777982e+03
2.827351548027058470e+03
1.846320573064332848e+03
3.372245862381514598e+03
4.098817047893512608e+03
4.314953256932586555e+03
3.861621257080405485e+03
2.994004711485651569e+03
1.537849982298396753e+03
2.918268783208695254e+02
-1.427431799490767844e+03
-2.303871583789716169e+03
-3.037226232959614208e+03
-4.493615146114338131e+03
-3.724235228713052948e+03
-2.532317564022012448e+03
-1.743021629463648651e+03
-8.781603176038513539e+02
-1.703676045556093868e+03
-1.707928885378514451e+03
-1.026086231846676810e+03
3.199844022505705539e+02
6.725154184341657810e+02
6.207943975686800968e+02
6.794305121162392425e+01
-1.104232986875349297e+03
-1.961260971187988616e+03
-3.181325367005510998e+03
-4.179616966979064273e+03
-4.701352963697025189e+03
-5.695822029917246255e+03
-6.437123717398088957e+03
-6.295137254290390956e+03
-6.571061758468119478e+03
-5.715931067019530929e+03
-4.695992291068544546e+03
-4.118554892116736482e+03
-3.722785488049282776e+03
-3.860573276000413443e+03
-4.827866210107901679e+03
-5.836697337482341027e+03
-4.256316318063708422e+03
-3.042867207005937871e+03
-3.113587042114887026e+03
-2.347683003996942261e+03
-9.022397671216440358e+02
-7.760734238082841330e+02
-1.221010859631214998e+03
-1.830278451891816303e+03
-2.116313212750895218e+03
-3.073162553281789769e+03
-3.337985641476123874e+03
-3.001306777330538807e+03
-2.814294393811374903e+03
-2.873625656484617139e+03
-2.935569003424758193e+03
-3.415998249629997190e+03
-3.288529051941927264e+03
-2.639054719367586586e+03
-2.589814304923189411e+03
-2.700905161187945396e+03
-2.585644584765324453e+03
-2.057141203117356781e+03
-2.008968260954095513e+03
-3.460746201912452761e+03
-2.887255519462882603e+03
3.052348823189514633e+02
1.851777264046487744e+03
1.184423124103079317e+03
-4.262189942487474923e+02
-1.827785949155938624e+03
-3.207775071979695440e+03
-3.502659196148678348e+03
-2.853056834892425741e+03
-2.514249381365043519e+03
-2.793121784706897415e+03
-2.235266146204540291e+03
-1.540439149086850875e+03
-8.216048485900098513e+02
4.078626868549659434e+01
1.334993535828539279e+03
1.766916668069742400e+03
1.972176156876518007e+03
2.852645883793338726e+03
3.327432293105743156e+03
3.048511775701451370e+03
2.578946232535929539e+03
2.304781019477013615e+03
1.724988351265631081e+03
1.187727437770623965e+03
5.021341841575234639e+02
-6.397664928298941049e+02
-8.510942639373804468e+02
-1.029900662494734433e+03
-1.267011051872989356e+03
-1.132422166287551818e+03
-1.205646212604252469e+03
-6.424052387379332458e+02
4.238876181119140369e+02
1.634771190040787133e+03
2.489087094141279977e+03
2.981334903583374853e+03
3.426533861176720166e+03
3.494984487332450499e+03
3.902464945760721548e+03
4.110208035223159641e+03
4.174193334209237037e+03
4.569891927257973293e+03
4.560446758489832064e+03
3.780607501352220424e+03
2.257556305271945803e+03
1.892368862380100154e+03
1.789361202527227533e+03
1.236437493502785401e+03
1.257131938971576574e+03
1.979736098134158283e+03
2.464439034255513889e+03
2.896538105781233298e+03
3.493821218602708086e+03
4.073379931031484830e+03
4.403427256406439483e+03
4.634998992302932493e+03
5.408985834035870539e+03
5.660636029500070435e+03
5.688706199218890106e+03
5.044509528661319564e+03
5.038181642071995157e+03
5.097809179376478824e+03
4.151330042371319905e+03
3.175804090698450182e+03
2.316341421189312314e+03
1.301676817345770132e+03
1.111317574980407926e+03
9.260720132839879852e+02
4.217780382817020381e+02
1.136771343010135666e+02
-1.549271616213785592e+02
1.180487218688714393e+02
6.066360843769207349e+02
1.046913136316430837e+03
1.827816645409766352e+03
2.498636725383092653e+03
3.166519890037836376e+03
3.650279662548188298e+03
3.472857367861454350e+03
3.653448610491062027e+03
4.215287695154115681e+03
3.831417748420091357e+03
2.311903449421726236e+03
5.578844828036627632e+02
-8.526278689659569636e+02
-3.441598994676565326e+03
-5.107001516662424365e+03
-5.620682947300830165e+03
-5.808417306399701374e+03
-5.560936308049599575e+03
-5.489052286216364337e+03
-5.349756355916671055e+03
-4.199259747988200616e+03
-4.470479027424515152e+03
-3.841199224918381788e+03
-3.281377791306408653e+03
-3.137016161707272204e+03
-2.784259856606577614e+03
-2.458154794348115502e+03
7.484723707163166182e+02
3.913633673309375808e+03
4.101884872727965558e+03
1.305114974732246083e+03
-3.310360146687200995e+03
-5.707223278763567578e+03
-7.150440484490191011e+03
-7.637061262005805474e+03
-7.611402573834826399e+03
-8.187926724896934502e+03
-8.620925825542033635e+03
-7.881411200796870617e+03
-6.651975219811397437e+03
-5.673262315829318140e+03
-4.974320743889443293e+03
-4.543582145915383080e+03
-3.776028645261255406e+03
-9.673036796707613121e+02
-5.293458269390075657e+02
-1.425113594595578377e+02
1.688255170487753276e+03
2.331889619640884121e+03
3.071363992992573912e+03
2.948639388891556337e+03
2.782758209307482048e+03
2.347888843179431660e+03
1.611592700004131530e+03
4.655440395479273548e+02
-5.522473562750050178e+02
-9.267199666246953029e+02
-9.258187135321459209e+02
-7.785357500588806943e+02
-8.259848275043806609e+01
8.110103572229282918e+02
1.892907178980867457e+03
2.775126742653919791e+03
3.506874184070635692e+03
4.225220598618789154e+03
4.520066469439956563e+03
4.210275817464380452e+03
3.982030978150706687e+03
3.913328827309181634e+03
3.679262801858260900e+03
2.627730822295039161e+03
1.205475682773304698e+03
